Time (s);WE(1).Potential (V);WE(1).Current (A);Corrected time (s);Index;Current range
0.903231997719558;-0.3997802734375;-0.0304656982421875;0;1;1 A
0.913231997694311;-0.39984130859375;-0.0254180908203125;0.00999999997475243;2;1 A
0.923231997669063;-0.399810791015625;-0.0229278564453125;0.0199999999495049;3;1 A
0.933231997643816;-0.39971923828125;-0.02080078125;0.0299999999242573;4;1 A
0.943231997618568;-0.399658203125;-0.01973876953125;0.0399999998990097;5;1 A
0.953231997593321;-0.3997802734375;-0.0187835693359375;0.0499999998737621;6;1 A
0.963231997568073;-0.39971923828125;-0.018170166015625;0.0599999998485146;7;1 A
0.973231997542825;-0.3997802734375;-0.0174774169921875;0.069999999823267;8;1 A
0.983231997517578;-0.399749755859375;-0.01705322265625;0.0799999997980194;9;1 A
0.99323199749233;-0.3997802734375;-0.01669921875;0.0899999997727718;10;1 A
1.00323199746708;-0.399658203125;-0.0164215087890625;0.0999999997475243;11;1 A
1.01323199744184;-0.399658203125;-0.016357421875;0.109999999722277;12;1 A
1.02323199741659;-0.399810791015625;-0.016229248046875;0.119999999697029;13;1 A
1.03323199739134;-0.399749755859375;-0.0162322998046875;0.129999999671782;14;1 A
1.04323199736609;-0.399810791015625;-0.0160888671875;0.139999999646534;15;1 A
1.05323199734084;-0.3997802734375;-0.015911865234375;0.149999999621286;16;1 A
1.0632319973156;-0.399688720703125;-0.0156219482421875;0.159999999596039;17;1 A
1.07323199729035;-0.399749755859375;-0.0155487060546875;0.169999999570791;18;1 A
1.0832319972651;-0.39990234375;-0.015313720703125;0.179999999545544;19;1 A
1.09323199723985;-0.399749755859375;-0.01534423828125;0.189999999520296;20;1 A
1.10323199721461;-0.399749755859375;-0.015185546875;0.199999999495049;21;1 A
1.11323199718936;-0.3997802734375;-0.01519775390625;0.209999999469801;22;1 A
1.12323199716411;-0.399871826171875;-0.015362548828125;0.219999999444553;23;1 A
1.13323199713886;-0.39971923828125;-0.0153594970703125;0.229999999419306;24;1 A
1.14323199711362;-0.39971923828125;-0.01533203125;0.239999999394058;25;1 A
1.15323199708837;-0.3997802734375;-0.0152496337890625;0.249999999368811;26;1 A
1.16323199706312;-0.39984130859375;-0.0152587890625;0.259999999343563;27;1 A
1.17323199703787;-0.399749755859375;-0.0152191162109375;0.269999999318316;28;1 A
1.18323199701263;-0.39971923828125;-0.0152740478515625;0.279999999293068;29;1 A
1.19323199698738;-0.399688720703125;-0.0151702880859375;0.28999999926782;30;1 A
1.20323199696213;-0.399658203125;-0.015277099609375;0.299999999242573;31;1 A
1.21323199693688;-0.3997802734375;-0.01527099609375;0.309999999217325;32;1 A
1.22323199691164;-0.39971923828125;-0.0152587890625;0.319999999192078;33;1 A
1.23323199688639;-0.399749755859375;-0.01519775390625;0.32999999916683;34;1 A
1.24323199686114;-0.399688720703125;-0.01524658203125;0.339999999141583;35;1 A
1.25323199683589;-0.399749755859375;-0.01512451171875;0.349999999116335;36;1 A
1.26323199681065;-0.399749755859375;-0.01514892578125;0.359999999091087;37;1 A
1.2732319967854;-0.39971923828125;-0.01514892578125;0.36999999906584;38;1 A
1.28323199676015;-0.3997802734375;-0.0150970458984375;0.379999999040592;39;1 A
1.2932319967349;-0.39984130859375;-0.0151336669921875;0.389999999015345;40;1 A
1.30323199670966;-0.399688720703125;-0.0149444580078125;0.399999998990097;41;1 A
1.31323199668441;-0.399688720703125;-0.0149688720703125;0.40999999896485;42;1 A
1.32323199665916;-0.39984130859375;-0.0148681640625;0.419999998939602;43;1 A
1.33323199663391;-0.399749755859375;-0.01492919921875;0.429999998914354;44;1 A
1.34323199660867;-0.3997802734375;-0.0148895263671875;0.439999998889107;45;1 A
1.35323199658342;-0.399749755859375;-0.01497802734375;0.449999998863859;46;1 A
1.36323199655817;-0.399810791015625;-0.0149749755859375;0.459999998838612;47;1 A
1.37323199653292;-0.399688720703125;-0.0149383544921875;0.469999998813364;48;1 A
1.38323199650767;-0.399688720703125;-0.0149627685546875;0.479999998788116;49;1 A
1.39323199648243;-0.399688720703125;-0.014849853515625;0.489999998762869;50;1 A
1.40323199645718;-0.399749755859375;-0.0147918701171875;0.499999998737621;51;1 A
1.41323199643193;-0.399810791015625;-0.0145965576171875;0.509999998712374;52;1 A
1.42323199640668;-0.3997802734375;-0.014630126953125;0.519999998687126;53;1 A
1.43323199638144;-0.399688720703125;-0.014459228515625;0.529999998661879;54;1 A
1.44323199635619;-0.399627685546875;-0.01455078125;0.539999998636631;55;1 A
1.45323199633094;-0.3997802734375;-0.0145843505859375;0.549999998611383;56;1 A
1.46323199630569;-0.39971923828125;-0.0146942138671875;0.559999998586136;57;1 A
1.47323199628045;-0.3997802734375;-0.014617919921875;0.569999998560888;58;1 A
1.4832319962552;-0.39971923828125;-0.014599609375;0.579999998535641;59;1 A
1.49323199622995;-0.3997802734375;-0.0147064208984375;0.589999998510393;60;1 A
1.5032319962047;-0.399688720703125;-0.01480712890625;0.599999998485146;61;1 A
1.51323199617946;-0.399749755859375;-0.014959716796875;0.609999998459898;62;1 A
1.52323199615421;-0.3997802734375;-0.0149688720703125;0.61999999843465;63;1 A
1.53323199612896;-0.399810791015625;-0.0150909423828125;0.629999998409403;64;1 A
1.54323199610371;-0.39984130859375;-0.014971923828125;0.639999998384155;65;1 A
1.55323199607847;-0.399749755859375;-0.0150421142578125;0.649999998358908;66;1 A
1.56323199605322;-0.399749755859375;-0.0149749755859375;0.65999999833366;67;1 A
1.57323199602797;-0.399749755859375;-0.0150177001953125;0.669999998308413;68;1 A
1.58323199600272;-0.399810791015625;-0.0148681640625;0.679999998283165;69;1 A
1.59323199597748;-0.3997802734375;-0.0147613525390625;0.689999998257917;70;1 A
1.60323199595223;-0.39984130859375;-0.0146942138671875;0.69999999823267;71;1 A
1.61323199592698;-0.399810791015625;-0.0145782470703125;0.709999998207422;72;1 A
1.62323199590173;-0.399688720703125;-0.01473388671875;0.719999998182175;73;1 A
1.63323199587649;-0.39971923828125;-0.0147064208984375;0.729999998156927;74;1 A
1.64323199585124;-0.399688720703125;-0.0147705078125;0.73999999813168;75;1 A
1.65323199582599;-0.3997802734375;-0.014697265625;0.749999998106432;76;1 A
1.66323199580074;-0.39984130859375;-0.014752197265625;0.759999998081184;77;1 A
1.6732319957755;-0.39971923828125;-0.0145904541015625;0.769999998055937;78;1 A
1.68323199575025;-0.39971923828125;-0.0146026611328125;0.779999998030689;79;1 A
1.693231995725;-0.399688720703125;-0.0145263671875;0.789999998005442;80;1 A
1.70323199569975;-0.399688720703125;-0.0146148681640625;0.799999997980194;81;1 A
1.71323199567451;-0.39971923828125;-0.014678955078125;0.809999997954947;82;1 A
1.72323199564926;-0.399627685546875;-0.014752197265625;0.819999997929699;83;1 A
1.73323199562401;-0.3997802734375;-0.0147796630859375;0.829999997904451;84;1 A
1.74323199559876;-0.3997802734375;-0.0147491455078125;0.839999997879204;85;1 A
1.75323199557351;-0.399810791015625;-0.014862060546875;0.849999997853956;86;1 A
1.76323199554827;-0.399658203125;-0.014739990234375;0.859999997828709;87;1 A
1.77323199552302;-0.399749755859375;-0.0147674560546875;0.869999997803461;88;1 A
1.78323199549777;-0.399810791015625;-0.0147430419921875;0.879999997778214;89;1 A
1.79323199547252;-0.399810791015625;-0.0148284912109375;0.889999997752966;90;1 A
1.80323199544728;-0.399810791015625;-0.0147857666015625;0.899999997727718;91;1 A
1.81323199542203;-0.399749755859375;-0.0148651123046875;0.909999997702471;92;1 A
1.82323199539678;-0.399749755859375;-0.0147369384765625;0.919999997677223;93;1 A
1.83323199537153;-0.3997802734375;-0.014697265625;0.929999997651976;94;1 A
1.84323199534629;-0.399871826171875;-0.014678955078125;0.939999997626728;95;1 A
1.85323199532104;-0.399810791015625;-0.0147491455078125;0.949999997601481;96;1 A
1.86323199529579;-0.399810791015625;-0.01480712890625;0.959999997576233;97;1 A
1.87323199527054;-0.399688720703125;-0.014691162109375;0.969999997550985;98;1 A
1.8832319952453;-0.399688720703125;-0.01475830078125;0.979999997525738;99;1 A
1.89323199522005;-0.3994140625;-0.01455078125;0.98999999750049;100;1 A
1.9032319951948;-0.399749755859375;-0.0146759033203125;0.999999997475243;101;1 A
1.91323199516955;-0.3997802734375;-0.0145263671875;1.00999999745;102;1 A
1.92323199514431;-0.39971923828125;-0.014495849609375;1.01999999742475;103;1 A
1.93323199511906;-0.39971923828125;-0.0144744873046875;1.0299999973995;104;1 A
1.94323199509381;-0.39971923828125;-0.01451416015625;1.03999999737425;105;1 A
1.95323199506856;-0.399688720703125;-0.0144561767578125;1.049999997349;106;1 A
1.96323199504332;-0.399627685546875;-0.014410400390625;1.05999999732376;107;1 A
1.97323199501807;-0.3997802734375;-0.0144439697265625;1.06999999729851;108;1 A
1.98323199499282;-0.399810791015625;-0.0143035888671875;1.07999999727326;109;1 A
1.99323199496757;-0.39984130859375;-0.01435546875;1.08999999724801;110;1 A
2.00323199494233;-0.399688720703125;-0.01424560546875;1.09999999722277;111;1 A
2.01323199491708;-0.39971923828125;-0.0143707275390625;1.10999999719752;112;1 A
2.02323199489183;-0.39971923828125;-0.014422607421875;1.11999999717227;113;1 A
2.03323199486658;-0.3997802734375;-0.0145416259765625;1.12999999714702;114;1 A
2.04323199484134;-0.39990234375;-0.0145538330078125;1.13999999712178;115;1 A
2.05323199481609;-0.3997802734375;-0.014593505859375;1.14999999709653;116;1 A
2.06323199479084;-0.399749755859375;-0.0145782470703125;1.15999999707128;117;1 A
2.07323199476559;-0.39984130859375;-0.0146148681640625;1.16999999704603;118;1 A
2.08323199474034;-0.39984130859375;-0.0145965576171875;1.17999999702079;119;1 A
2.0932319947151;-0.39971923828125;-0.0146331787109375;1.18999999699554;120;1 A
2.10323199468985;-0.399749755859375;-0.014813232421875;1.19999999697029;121;1 A
2.1132319946646;-0.39984130859375;-0.0148681640625;1.20999999694504;122;1 A
2.12323199463935;-0.399810791015625;-0.014947509765625;1.2199999969198;123;1 A
2.13323199461411;-0.399688720703125;-0.014971923828125;1.22999999689455;124;1 A
2.14323199458886;-0.39971923828125;-0.01505126953125;1.2399999968693;125;1 A
2.15323199456361;-0.39971923828125;-0.0149169921875;1.24999999684405;126;1 A
2.16323199453836;-0.3997802734375;-0.01497802734375;1.25999999681881;127;1 A
2.17323199451312;-0.399749755859375;-0.0148773193359375;1.26999999679356;128;1 A
2.18323199448787;-0.399810791015625;-0.01495361328125;1.27999999676831;129;1 A
2.19323199446262;-0.3997802734375;-0.0149383544921875;1.28999999674306;130;1 A
2.20323199443737;-0.399688720703125;-0.0149383544921875;1.29999999671782;131;1 A
2.21323199441213;-0.399688720703125;-0.0149017333984375;1.30999999669257;132;1 A
2.22323199438688;-0.399749755859375;-0.0149200439453125;1.31999999666732;133;1 A
2.23323199436163;-0.399749755859375;-0.0150177001953125;1.32999999664207;134;1 A
2.24323199433638;-0.39984130859375;-0.014935302734375;1.33999999661683;135;1 A
2.25323199431114;-0.39971923828125;-0.01490478515625;1.34999999659158;136;1 A
2.26323199428589;-0.399688720703125;-0.0148040771484375;1.35999999656633;137;1 A
2.27323199426064;-0.399749755859375;-0.0150115966796875;1.36999999654108;138;1 A
2.28323199423539;-0.399810791015625;-0.01488037109375;1.37999999651583;139;1 A
2.29323199421015;-0.399658203125;-0.0147918701171875;1.38999999649059;140;1 A
2.3032319941849;-0.3997802734375;-0.0147918701171875;1.39999999646534;141;1 A
2.31323199415965;-0.3997802734375;-0.014898681640625;1.40999999644009;142;1 A
2.3232319941344;-0.399871826171875;-0.0149200439453125;1.41999999641484;143;1 A
2.33323199410916;-0.399688720703125;-0.014874267578125;1.4299999963896;144;1 A
2.34323199408391;-0.39971923828125;-0.0148712158203125;1.43999999636435;145;1 A
2.35323199405866;-0.399688720703125;-0.014874267578125;1.4499999963391;146;1 A
2.36323199403341;-0.39984130859375;-0.01490478515625;1.45999999631385;147;1 A
2.37323199400817;-0.399749755859375;-0.0147552490234375;1.46999999628861;148;1 A
2.38323199398292;-0.39971923828125;-0.0148284912109375;1.47999999626336;149;1 A
2.39323199395767;-0.399658203125;-0.01478271484375;1.48999999623811;150;1 A
2.40323199393242;-0.399627685546875;-0.0148773193359375;1.49999999621286;151;1 A
2.41323199390717;-0.3997802734375;-0.0148681640625;1.50999999618762;152;1 A
2.42323199388193;-0.39971923828125;-0.0149139404296875;1.51999999616237;153;1 A
2.43323199385668;-0.3997802734375;-0.0148162841796875;1.52999999613712;154;1 A
2.44323199383143;-0.399749755859375;-0.01470947265625;1.53999999611187;155;1 A
2.45323199380618;-0.399658203125;-0.0147186279296875;1.54999999608663;156;1 A
2.46323199378094;-0.39971923828125;-0.0146881103515625;1.55999999606138;157;1 A
2.47323199375569;-0.399688720703125;-0.0147125244140625;1.56999999603613;158;1 A
2.48323199373044;-0.399810791015625;-0.0146636962890625;1.57999999601088;159;1 A
2.49323199370519;-0.3997802734375;-0.0146484375;1.58999999598564;160;1 A
2.50323199367995;-0.399810791015625;-0.0145294189453125;1.59999999596039;161;1 A
2.5132319936547;-0.3997802734375;-0.0146087646484375;1.60999999593514;162;1 A
2.52323199362945;-0.399810791015625;-0.01455078125;1.61999999590989;163;1 A
2.5332319936042;-0.399658203125;-0.0147247314453125;1.62999999588465;164;1 A
2.54323199357896;-0.3997802734375;-0.014794921875;1.6399999958594;165;1 A
2.55323199355371;-0.399749755859375;-0.0148712158203125;1.64999999583415;166;1 A
2.56323199352846;-0.3997802734375;-0.0148712158203125;1.6599999958089;167;1 A
2.57323199350321;-0.399810791015625;-0.0148284912109375;1.66999999578366;168;1 A
2.58323199347797;-0.39971923828125;-0.014837646484375;1.67999999575841;169;1 A
2.59323199345272;-0.399688720703125;-0.0149017333984375;1.68999999573316;170;1 A
2.60323199342747;-0.399749755859375;-0.015020751953125;1.69999999570791;171;1 A
2.61323199340222;-0.3997802734375;-0.0149932861328125;1.70999999568267;172;1 A
2.62323199337698;-0.3997802734375;-0.015045166015625;1.71999999565742;173;1 A
2.63323199335173;-0.399688720703125;-0.0149658203125;1.72999999563217;174;1 A
2.64323199332648;-0.399658203125;-0.015069580078125;1.73999999560692;175;1 A
2.65323199330123;-0.399688720703125;-0.014971923828125;1.74999999558167;176;1 A
2.66323199327599;-0.3997802734375;-0.01510009765625;1.75999999555643;177;1 A
2.67323199325074;-0.39971923828125;-0.0149658203125;1.76999999553118;178;1 A
2.68323199322549;-0.39971923828125;-0.0150360107421875;1.77999999550593;179;1 A
2.69323199320024;-0.3997802734375;-0.0150054931640625;1.78999999548068;180;1 A
2.703231993175;-0.399810791015625;-0.0149444580078125;1.79999999545544;181;1 A
2.71323199314975;-0.39971923828125;-0.014959716796875;1.80999999543019;182;1 A
2.7232319931245;-0.399627685546875;-0.014886474609375;1.81999999540494;183;1 A
2.73323199309925;-0.39971923828125;-0.01495361328125;1.82999999537969;184;1 A
2.74323199307401;-0.39984130859375;-0.0148529052734375;1.83999999535445;185;1 A
2.75323199304876;-0.399871826171875;-0.014837646484375;1.8499999953292;186;1 A
2.76323199302351;-0.399749755859375;-0.01470947265625;1.85999999530395;187;1 A
2.77323199299826;-0.3997802734375;-0.0148406982421875;1.8699999952787;188;1 A
2.78323199297301;-0.39971923828125;-0.01478271484375;1.87999999525346;189;1 A
2.79323199294777;-0.39971923828125;-0.0147979736328125;1.88999999522821;190;1 A
2.80323199292252;-0.39984130859375;-0.01470947265625;1.89999999520296;191;1 A
2.81323199289727;-0.399810791015625;-0.0146728515625;1.90999999517771;192;1 A
2.82323199287202;-0.399749755859375;-0.014666748046875;1.91999999515247;193;1 A
2.83323199284678;-0.399658203125;-0.0146575927734375;1.92999999512722;194;1 A
2.84323199282153;-0.39971923828125;-0.0146728515625;1.93999999510197;195;1 A
2.85323199279628;-0.399749755859375;-0.0145782470703125;1.94999999507672;196;1 A
2.86323199277103;-0.399749755859375;-0.014617919921875;1.95999999505148;197;1 A
2.87323199274579;-0.399688720703125;-0.0145477294921875;1.96999999502623;198;1 A
2.88323199272054;-0.399658203125;-0.0147186279296875;1.97999999500098;199;1 A
2.89323199269529;-0.39971923828125;-0.01474609375;1.98999999497573;200;1 A
2.90323199267004;-0.39971923828125;-0.01490478515625;1.99999999495049;201;1 A
2.9132319926448;-0.39971923828125;-0.014910888671875;2.00999999492524;202;1 A
2.92323199261955;-0.399688720703125;-0.0149078369140625;2.01999999489999;203;1 A
2.9332319925943;-0.399871826171875;-0.01488037109375;2.02999999487474;204;1 A
2.94323199256905;-0.3997802734375;-0.01484375;2.0399999948495;205;1 A
2.95323199254381;-0.39971923828125;-0.0148651123046875;2.04999999482425;206;1 A
2.96323199251856;-0.399627685546875;-0.0147491455078125;2.059999994799;207;1 A
2.97323199249331;-0.399749755859375;-0.0146820068359375;2.06999999477375;208;1 A
2.98323199246806;-0.399871826171875;-0.0146148681640625;2.0799999947485;209;1 A
2.99323199244282;-0.399749755859375;-0.0147552490234375;2.08999999472326;210;1 A
3.00323199241757;-0.399810791015625;-0.0146881103515625;2.09999999469801;211;1 A
3.01323199239232;-0.399749755859375;-0.0148406982421875;2.10999999467276;212;1 A
3.02323199236707;-0.3997802734375;-0.0147369384765625;2.11999999464751;213;1 A
3.03323199234183;-0.3997802734375;-0.0147308349609375;2.12999999462227;214;1 A
3.04323199231658;-0.399871826171875;-0.014727783203125;2.13999999459702;215;1 A
3.05323199229133;-0.399810791015625;-0.0147613525390625;2.14999999457177;216;1 A
3.06323199226608;-0.399749755859375;-0.014739990234375;2.15999999454652;217;1 A
3.07323199224084;-0.399658203125;-0.014642333984375;2.16999999452128;218;1 A
3.08323199221559;-0.399688720703125;-0.014666748046875;2.17999999449603;219;1 A
3.09323199219034;-0.399810791015625;-0.01456298828125;2.18999999447078;220;1 A
3.10323199216509;-0.3997802734375;-0.014654541015625;2.19999999444553;221;1 A
3.11323199213984;-0.399749755859375;-0.0148284912109375;2.20999999442029;222;1 A
3.1232319921146;-0.399658203125;-0.01495361328125;2.21999999439504;223;1 A
3.13323199208935;-0.39971923828125;-0.0149383544921875;2.22999999436979;224;1 A
3.1432319920641;-0.3997802734375;-0.0149932861328125;2.23999999434454;225;1 A
3.15323199203885;-0.399688720703125;-0.01492919921875;2.2499999943193;226;1 A
3.16323199201361;-0.399627685546875;-0.0148651123046875;2.25999999429405;227;1 A
3.17323199198836;-0.39984130859375;-0.014862060546875;2.2699999942688;228;1 A
3.18323199196311;-0.3997802734375;-0.01473388671875;2.27999999424355;229;1 A
3.19323199193786;-0.399749755859375;-0.0147705078125;2.28999999421831;230;1 A
3.20323199191262;-0.399688720703125;-0.014691162109375;2.29999999419306;231;1 A
3.21323199188737;-0.39971923828125;-0.0147064208984375;2.30999999416781;232;1 A
3.22323199186212;-0.39984130859375;-0.01458740234375;2.31999999414256;233;1 A
3.23323199183687;-0.399749755859375;-0.0147552490234375;2.32999999411732;234;1 A
3.24323199181163;-0.3997802734375;-0.0146392822265625;2.33999999409207;235;1 A
3.25323199178638;-0.39984130859375;-0.014654541015625;2.34999999406682;236;1 A
3.26323199176113;-0.399749755859375;-0.0145904541015625;2.35999999404157;237;1 A
3.27323199173588;-0.3997802734375;-0.0146331787109375;2.36999999401633;238;1 A
3.28323199171064;-0.399871826171875;-0.014697265625;2.37999999399108;239;1 A
3.29323199168539;-0.399810791015625;-0.0146881103515625;2.38999999396583;240;1 A
3.30323199166014;-0.3997802734375;-0.014605712890625;2.39999999394058;241;1 A
3.31323199163489;-0.39971923828125;-0.0144805908203125;2.40999999391533;242;1 A
3.32323199160965;-0.399688720703125;-0.01446533203125;2.41999999389009;243;1 A
3.3332319915844;-0.399749755859375;-0.0144012451171875;2.42999999386484;244;1 A
3.34323199155915;-0.399810791015625;-0.0145355224609375;2.43999999383959;245;1 A
3.3532319915339;-0.399749755859375;-0.01435546875;2.44999999381434;246;1 A
3.36323199150866;-0.39971923828125;-0.014349365234375;2.4599999937891;247;1 A
3.37323199148341;-0.399749755859375;-0.0142120361328125;2.46999999376385;248;1 A
3.38323199145816;-0.399749755859375;-0.014532470703125;2.4799999937386;249;1 A
3.39323199143291;-0.39971923828125;-0.0146514892578125;2.48999999371335;250;1 A
3.40323199140767;-0.39959716796875;-0.01470947265625;2.49999999368811;251;1 A
3.41323199138242;-0.3997802734375;-0.014642333984375;2.50999999366286;252;1 A
3.42323199135717;-0.39984130859375;-0.0145111083984375;2.51999999363761;253;1 A
3.43323199133192;-0.3997802734375;-0.01451416015625;2.52999999361236;254;1 A
3.44323199130667;-0.399658203125;-0.01439208984375;2.53999999358712;255;1 A
3.45323199128143;-0.399688720703125;-0.014434814453125;2.54999999356187;256;1 A
3.46323199125618;-0.399871826171875;-0.0143524169921875;2.55999999353662;257;1 A
3.47323199123093;-0.399810791015625;-0.0144561767578125;2.56999999351137;258;1 A
3.48323199120568;-0.39990234375;-0.014373779296875;2.57999999348613;259;1 A
3.49323199118044;-0.3997802734375;-0.014434814453125;2.58999999346088;260;1 A
3.50323199115519;-0.399749755859375;-0.0144317626953125;2.59999999343563;261;1 A
3.51323199112994;-0.3997802734375;-0.0145111083984375;2.60999999341038;262;1 A
3.52323199110469;-0.39984130859375;-0.0146392822265625;2.61999999338514;263;1 A
3.53323199107945;-0.39971923828125;-0.0146575927734375;2.62999999335989;264;1 A
3.5432319910542;-0.39971923828125;-0.014654541015625;2.63999999333464;265;1 A
3.55323199102895;-0.39971923828125;-0.0145721435546875;2.64999999330939;266;1 A
3.5632319910037;-0.399749755859375;-0.0145965576171875;2.65999999328415;267;1 A
3.57323199097846;-0.399749755859375;-0.0144805908203125;2.6699999932589;268;1 A
3.58323199095321;-0.3997802734375;-0.0145904541015625;2.67999999323365;269;1 A
3.59323199092796;-0.3997802734375;-0.0144805908203125;2.6899999932084;270;1 A
3.60323199090271;-0.39959716796875;-0.0144775390625;2.69999999318316;271;1 A
3.61323199087747;-0.39971923828125;-0.0144012451171875;2.70999999315791;272;1 A
3.62323199085222;-0.399749755859375;-0.0144683837890625;2.71999999313266;273;1 A
3.63323199082697;-0.399688720703125;-0.0144927978515625;2.72999999310741;274;1 A
3.64323199080172;-0.39959716796875;-0.014508056640625;2.73999999308217;275;1 A
3.65323199077648;-0.3997802734375;-0.0145233154296875;2.74999999305692;276;1 A
3.66323199075123;-0.399810791015625;-0.0145355224609375;2.75999999303167;277;1 A
3.67323199072598;-0.399749755859375;-0.0146697998046875;2.76999999300642;278;1 A
3.68323199070073;-0.399627685546875;-0.0146514892578125;2.77999999298117;279;1 A
3.69323199067549;-0.399688720703125;-0.014007568359375;2.78999999295593;280;1 A
3.70323199065024;-0.399688720703125;-0.0146026611328125;2.79999999293068;281;1 A
3.71323199062499;-0.3997802734375;-0.0147613525390625;2.80999999290543;282;1 A
3.72323199059974;-0.399810791015625;-0.0146881103515625;2.81999999288018;283;1 A
3.7332319905745;-0.39971923828125;-0.014715576171875;2.82999999285494;284;1 A
3.74323199054925;-0.3997802734375;-0.0147247314453125;2.83999999282969;285;1 A
3.753231990524;-0.399749755859375;-0.0146881103515625;2.84999999280444;286;1 A
3.76323199049875;-0.39996337890625;-0.0146636962890625;2.85999999277919;287;1 A
3.7732319904735;-0.39971923828125;-0.014898681640625;2.86999999275395;288;1 A
3.78323199044826;-0.3997802734375;-0.0149658203125;2.8799999927287;289;1 A
3.79323199042301;-0.399749755859375;-0.0149169921875;2.88999999270345;290;1 A
3.80323199039776;-0.3997802734375;-0.014886474609375;2.8999999926782;291;1 A
3.81323199037251;-0.399688720703125;-0.014593505859375;2.90999999265296;292;1 A
3.82323199034727;-0.399749755859375;-0.0148681640625;2.91999999262771;293;1 A
3.83323199032202;-0.3997802734375;-0.01455078125;2.92999999260246;294;1 A
3.84323199029677;-0.399688720703125;-0.0143524169921875;2.93999999257721;295;1 A
3.85323199027152;-0.39971923828125;-0.0142578125;2.94999999255197;296;1 A
3.86323199024628;-0.399749755859375;-0.0147369384765625;2.95999999252672;297;1 A
3.87323199022103;-0.39971923828125;-0.0146820068359375;2.96999999250147;298;1 A
3.88323199019578;-0.399627685546875;-0.014703369140625;2.97999999247622;299;1 A
3.89323199017053;-0.3997802734375;-0.0146820068359375;2.98999999245098;300;1 A
3.90323199014529;-0.399810791015625;-0.0145843505859375;2.99999999242573;301;1 A
3.91323199012004;-0.39971923828125;-0.014715576171875;3.00999999240048;302;1 A
3.92323199009479;-0.399658203125;-0.0144378662109375;3.01999999237523;303;1 A
3.93323199006954;-0.399749755859375;-0.0143829345703125;3.02999999234999;304;1 A
3.9432319900443;-0.3997802734375;-0.014501953125;3.03999999232474;305;1 A
3.95323199001905;-0.3997802734375;-0.0146026611328125;3.04999999229949;306;1 A
3.9632319899938;-0.399871826171875;-0.01419677734375;3.05999999227424;307;1 A
3.97323198996855;-0.399749755859375;-0.014483642578125;3.069999992249;308;1 A
3.98323198994331;-0.399688720703125;-0.0144134521484375;3.07999999222375;309;1 A
3.99323198991806;-0.399749755859375;-0.0144500732421875;3.0899999921985;310;1 A
4.00323198989281;-0.39984130859375;-0.0143402099609375;3.09999999217325;311;1 A
4.01323198986756;-0.3997802734375;-0.01435546875;3.109999992148;312;1 A
4.02323198984232;-0.39984130859375;-0.014337158203125;3.11999999212276;313;1 A
4.03323198981707;-0.3997802734375;-0.0142791748046875;3.12999999209751;314;1 A
4.04323198979182;-0.399749755859375;-0.0145416259765625;3.13999999207226;315;1 A
4.05323198976657;-0.39971923828125;-0.0143310546875;3.14999999204701;316;1 A
4.06323198974133;-0.399688720703125;-0.01463623046875;3.15999999202177;317;1 A
4.07323198971608;-0.3997802734375;-0.0146148681640625;3.16999999199652;318;1 A
4.08323198969083;-0.399688720703125;-0.0147613525390625;3.17999999197127;319;1 A
4.09323198966558;-0.39971923828125;-0.0146514892578125;3.18999999194602;320;1 A
4.10323198964034;-0.39971923828125;-0.0146453857421875;3.19999999192078;321;1 A
4.11323198961509;-0.3997802734375;-0.0145965576171875;3.20999999189553;322;1 A
4.12323198958984;-0.399627685546875;-0.0144287109375;3.21999999187028;323;1 A
4.13323198956459;-0.399749755859375;-0.0144775390625;3.22999999184503;324;1 A
4.14323198953934;-0.3997802734375;-0.0143951416015625;3.23999999181979;325;1 A
4.1532319895141;-0.399749755859375;-0.014556884765625;3.24999999179454;326;1 A
4.16323198948885;-0.39959716796875;-0.014508056640625;3.25999999176929;327;1 A
4.1732319894636;-0.399658203125;-0.014410400390625;3.26999999174404;328;1 A
4.18323198943835;-0.399810791015625;-0.0142486572265625;3.2799999917188;329;1 A
4.19323198941311;-0.3997802734375;-0.0142822265625;3.28999999169355;330;1 A
4.20323198938786;-0.399810791015625;-0.014239501953125;3.2999999916683;331;1 A
4.21323198936261;-0.3997802734375;-0.0143585205078125;3.30999999164305;332;1 A
4.22323198933736;-0.399749755859375;-0.0143310546875;3.31999999161781;333;1 A
4.23323198931212;-0.3997802734375;-0.0143951416015625;3.32999999159256;334;1 A
4.24323198928687;-0.39990234375;-0.0143157958984375;3.33999999156731;335;1 A
4.25323198926162;-0.3997802734375;-0.0142791748046875;3.34999999154206;336;1 A
4.26323198923637;-0.399871826171875;-0.0142669677734375;3.35999999151682;337;1 A
4.27323198921113;-0.399749755859375;-0.0143463134765625;3.36999999149157;338;1 A
4.28323198918588;-0.399749755859375;-0.0144500732421875;3.37999999146632;339;1 A
4.29323198916063;-0.39971923828125;-0.0143341064453125;3.38999999144107;340;1 A
4.30323198913538;-0.399749755859375;-0.0144683837890625;3.39999999141583;341;1 A
4.31323198911014;-0.39984130859375;-0.014471435546875;3.40999999139058;342;1 A
4.32323198908489;-0.399658203125;-0.0145233154296875;3.41999999136533;343;1 A
4.33323198905964;-0.399749755859375;-0.0144378662109375;3.42999999134008;344;1 A
4.34323198903439;-0.399749755859375;-0.014447021484375;3.43999999131483;345;1 A
4.35323198900915;-0.39971923828125;-0.0143829345703125;3.44999999128959;346;1 A
4.3632319889839;-0.399627685546875;-0.0144866943359375;3.45999999126434;347;1 A
4.37323198895865;-0.3997802734375;-0.014593505859375;3.46999999123909;348;1 A
4.3832319889334;-0.39984130859375;-0.014520263671875;3.47999999121384;349;1 A
4.39323198890816;-0.399810791015625;-0.014581298828125;3.4899999911886;350;1 A
4.40323198888291;-0.399688720703125;-0.0145904541015625;3.49999999116335;351;1 A
4.41323198885766;-0.399627685546875;-0.01474609375;3.5099999911381;352;1 A
4.42323198883241;-0.39971923828125;-0.0148193359375;3.51999999111285;353;1 A
4.43323198880717;-0.39984130859375;-0.014892578125;3.52999999108761;354;1 A
4.44323198878192;-0.39984130859375;-0.0147796630859375;3.53999999106236;355;1 A
4.45323198875667;-0.399749755859375;-0.014801025390625;3.54999999103711;356;1 A
4.46323198873142;-0.399749755859375;-0.0148162841796875;3.55999999101186;357;1 A
4.47323198870617;-0.399749755859375;-0.0147918701171875;3.56999999098662;358;1 A
4.48323198868093;-0.399810791015625;-0.0146942138671875;3.57999999096137;359;1 A
4.49323198865568;-0.39971923828125;-0.0147247314453125;3.58999999093612;360;1 A
4.50323198863043;-0.399810791015625;-0.01470947265625;3.59999999091087;361;1 A
4.51323198860518;-0.3997802734375;-0.0146240234375;3.60999999088563;362;1 A
4.52323198857994;-0.399749755859375;-0.01461181640625;3.61999999086038;363;1 A
4.53323198855469;-0.399627685546875;-0.014501953125;3.62999999083513;364;1 A
4.54323198852944;-0.39971923828125;-0.0145111083984375;3.63999999080988;365;1 A
4.55323198850419;-0.399749755859375;-0.0143890380859375;3.64999999078464;366;1 A
4.56323198847895;-0.39971923828125;-0.014508056640625;3.65999999075939;367;1 A
4.5732319884537;-0.399688720703125;-0.0144622802734375;3.66999999073414;368;1 A
4.58323198842845;-0.3997802734375;-0.01429443359375;3.67999999070889;369;1 A
4.5932319884032;-0.39971923828125;-0.014288330078125;3.68999999068365;370;1 A
4.60323198837796;-0.399566650390625;-0.0143035888671875;3.6999999906584;371;1 A
4.61323198835271;-0.399688720703125;-0.014208984375;3.70999999063315;372;1 A
4.62323198832746;-0.399810791015625;-0.0141357421875;3.7199999906079;373;1 A
4.63323198830221;-0.39984130859375;-0.014202880859375;3.72999999058266;374;1 A
4.64323198827697;-0.399658203125;-0.0142242431640625;3.73999999055741;375;1 A
4.65323198825172;-0.399658203125;-0.014239501953125;3.74999999053216;376;1 A
4.66323198822647;-0.3997802734375;-0.0142425537109375;3.75999999050691;377;1 A
4.67323198820122;-0.39984130859375;-0.0142669677734375;3.76999999048167;378;1 A
4.68323198817598;-0.39984130859375;-0.01409912109375;3.77999999045642;379;1 A
4.69323198815073;-0.399749755859375;-0.014288330078125;3.78999999043117;380;1 A
4.70323198812548;-0.399749755859375;-0.0142852783203125;3.79999999040592;381;1 A
4.71323198810023;-0.39984130859375;-0.014276123046875;3.80999999038067;382;1 A
4.72323198807499;-0.39984130859375;-0.0142730712890625;3.81999999035543;383;1 A
4.73323198804974;-0.39971923828125;-0.014398193359375;3.82999999033018;384;1 A
4.74323198802449;-0.3997802734375;-0.0144866943359375;3.83999999030493;385;1 A
4.75323198799924;-0.3997802734375;-0.0145904541015625;3.84999999027968;386;1 A
4.763231987974;-0.39971923828125;-0.014697265625;3.85999999025444;387;1 A
4.77323198794875;-0.399688720703125;-0.014678955078125;3.86999999022919;388;1 A
4.7832319879235;-0.3997802734375;-0.0148712158203125;3.87999999020394;389;1 A
4.79323198789825;-0.39984130859375;-0.0147979736328125;3.88999999017869;390;1 A
4.803231987873;-0.399688720703125;-0.01480712890625;3.89999999015345;391;1 A
4.81323198784776;-0.399749755859375;-0.0147247314453125;3.9099999901282;392;1 A
4.82323198782251;-0.399749755859375;-0.014813232421875;3.91999999010295;393;1 A
4.83323198779726;-0.39971923828125;-0.014837646484375;3.9299999900777;394;1 A
4.84323198777201;-0.39959716796875;-0.0149169921875;3.93999999005246;395;1 A
4.85323198774677;-0.399688720703125;-0.014990234375;3.94999999002721;396;1 A
4.86323198772152;-0.399871826171875;-0.0149993896484375;3.95999999000196;397;1 A
4.87323198769627;-0.39984130859375;-0.015057373046875;3.96999998997671;398;1 A
4.88323198767102;-0.39971923828125;-0.014984130859375;3.97999998995147;399;1 A
4.89323198764578;-0.399658203125;-0.0149993896484375;3.98999998992622;400;1 A
4.90323198762053;-0.399688720703125;-0.01483154296875;3.99999998990097;401;1 A
4.91323198759528;-0.399810791015625;-0.0148193359375;4.00999998987572;402;1 A
4.92323198757003;-0.39990234375;-0.0146820068359375;4.01999998985048;403;1 A
4.93323198754479;-0.39971923828125;-0.01473388671875;4.02999998982523;404;1 A
4.94323198751954;-0.3997802734375;-0.014691162109375;4.03999998979998;405;1 A
4.95323198749429;-0.39971923828125;-0.0146759033203125;4.04999998977473;406;1 A
4.96323198746904;-0.399810791015625;-0.0145599365234375;4.05999998974949;407;1 A
4.9732319874438;-0.39971923828125;-0.0145050048828125;4.06999998972424;408;1 A
4.98323198741855;-0.3997802734375;-0.0146240234375;4.07999998969899;409;1 A
4.9932319873933;-0.3997802734375;-0.0146148681640625;4.08999998967374;410;1 A
5.00323198736805;-0.399810791015625;-0.01466064453125;4.0999999896485;411;1 A
5.01323198734281;-0.399688720703125;-0.014471435546875;4.10999998962325;412;1 A
5.02323198731756;-0.39971923828125;-0.0147613525390625;4.119999989598;413;1 A
5.03323198729231;-0.3997802734375;-0.0147247314453125;4.12999998957275;414;1 A
5.04323198726706;-0.39971923828125;-0.0148345947265625;4.1399999895475;415;1 A
5.05323198724182;-0.39971923828125;-0.0147613525390625;4.14999998952226;416;1 A
5.06323198721657;-0.3997802734375;-0.0148345947265625;4.15999998949701;417;1 A
5.07323198719132;-0.399749755859375;-0.014892578125;4.16999998947176;418;1 A
5.08323198716607;-0.399627685546875;-0.014910888671875;4.17999998944651;419;1 A
5.09323198714083;-0.399658203125;-0.014874267578125;4.18999998942127;420;1 A
5.10323198711558;-0.399810791015625;-0.014599609375;4.19999998939602;421;1 A
5.11323198709033;-0.399749755859375;-0.0146026611328125;4.20999998937077;422;1 A
5.12323198706508;-0.399749755859375;-0.0146392822265625;4.21999998934552;423;1 A
5.13323198703984;-0.399688720703125;-0.014813232421875;4.22999998932028;424;1 A
5.14323198701459;-0.39971923828125;-0.0147552490234375;4.23999998929503;425;1 A
5.15323198698934;-0.3997802734375;-0.0147430419921875;4.24999998926978;426;1 A
5.16323198696409;-0.39996337890625;-0.01461181640625;4.25999998924453;427;1 A
5.17323198693884;-0.399749755859375;-0.0146240234375;4.26999998921929;428;1 A
5.1832319869136;-0.3997802734375;-0.01458740234375;4.27999998919404;429;1 A
5.19323198688835;-0.3997802734375;-0.014666748046875;4.28999998916879;430;1 A
5.2032319868631;-0.399871826171875;-0.0146728515625;4.29999998914354;431;1 A
5.21323198683785;-0.399627685546875;-0.014617919921875;4.3099999891183;432;1 A
5.22323198681261;-0.399749755859375;-0.0147003173828125;4.31999998909305;433;1 A
5.23323198678736;-0.399810791015625;-0.0146820068359375;4.3299999890678;434;1 A
5.24323198676211;-0.399810791015625;-0.0147918701171875;4.33999998904255;435;1 A
5.25323198673686;-0.399688720703125;-0.0147552490234375;4.34999998901731;436;1 A
5.26323198671162;-0.3997802734375;-0.014752197265625;4.35999998899206;437;1 A
5.27323198668637;-0.3997802734375;-0.0146728515625;4.36999998896681;438;1 A
5.28323198666112;-0.39971923828125;-0.0147552490234375;4.37999998894156;439;1 A
5.29323198663587;-0.399810791015625;-0.01451416015625;4.38999998891632;440;1 A
5.30323198661063;-0.3997802734375;-0.0145538330078125;4.39999998889107;441;1 A
5.31323198658538;-0.3997802734375;-0.014599609375;4.40999998886582;442;1 A
5.32323198656013;-0.39959716796875;-0.014605712890625;4.41999998884057;443;1 A
5.33323198653488;-0.399688720703125;-0.0147186279296875;4.42999998881533;444;1 A
5.34323198650964;-0.399749755859375;-0.0147430419921875;4.43999998879008;445;1 A
5.35323198648439;-0.39984130859375;-0.0147003173828125;4.44999998876483;446;1 A
5.36323198645914;-0.39971923828125;-0.01461181640625;4.45999998873958;447;1 A
5.37323198643389;-0.39971923828125;-0.0147552490234375;4.46999998871433;448;1 A
5.38323198640865;-0.399658203125;-0.014691162109375;4.47999998868909;449;1 A
5.3932319863834;-0.3997802734375;-0.014727783203125;4.48999998866384;450;1 A
5.40323198635815;-0.399871826171875;-0.0147735595703125;4.49999998863859;451;1 A
5.4132319863329;-0.399749755859375;-0.0148956298828125;4.50999998861334;452;1 A
5.42323198630766;-0.39971923828125;-0.01494140625;4.5199999885881;453;1 A
5.43323198628241;-0.39984130859375;-0.014971923828125;4.52999998856285;454;1 A
5.44323198625716;-0.399871826171875;-0.014874267578125;4.5399999885376;455;1 A
5.45323198623191;-0.399658203125;-0.0147705078125;4.54999998851235;456;1 A
5.46323198620667;-0.39971923828125;-0.01475830078125;4.55999998848711;457;1 A
5.47323198618142;-0.399749755859375;-0.014691162109375;4.56999998846186;458;1 A
5.48323198615617;-0.39984130859375;-0.0147613525390625;4.57999998843661;459;1 A
5.49323198613092;-0.399688720703125;-0.0146453857421875;4.58999998841136;460;1 A
5.50323198610567;-0.399688720703125;-0.014630126953125;4.59999998838612;461;1 A
5.51323198608043;-0.399749755859375;-0.014532470703125;4.60999998836087;462;1 A
5.52323198605518;-0.399688720703125;-0.014593505859375;4.61999998833562;463;1 A
5.53323198602993;-0.3997802734375;-0.01458740234375;4.62999998831037;464;1 A
5.54323198600468;-0.399810791015625;-0.014666748046875;4.63999998828513;465;1 A
5.55323198597944;-0.399658203125;-0.0146820068359375;4.64999998825988;466;1 A
5.56323198595419;-0.399627685546875;-0.014642333984375;4.65999998823463;467;1 A
5.57323198592894;-0.39971923828125;-0.0146942138671875;4.66999998820938;468;1 A
5.58323198590369;-0.399749755859375;-0.014715576171875;4.67999998818414;469;1 A
5.59323198587845;-0.3997802734375;-0.0146820068359375;4.68999998815889;470;1 A
5.6032319858532;-0.39971923828125;-0.0146392822265625;4.69999998813364;471;1 A
5.61323198582795;-0.399749755859375;-0.014764404296875;4.70999998810839;472;1 A
5.6232319858027;-0.399658203125;-0.01468505859375;4.71999998808315;473;1 A
5.63323198577746;-0.399749755859375;-0.014801025390625;4.7299999880579;474;1 A
5.64323198575221;-0.39990234375;-0.0147064208984375;4.73999998803265;475;1 A
5.65323198572696;-0.399749755859375;-0.01483154296875;4.7499999880074;476;1 A
5.66323198570171;-0.399749755859375;-0.014776611328125;4.75999998798216;477;1 A
5.67323198567647;-0.399810791015625;-0.01468505859375;4.76999998795691;478;1 A
5.68323198565122;-0.399871826171875;-0.0146575927734375;4.77999998793166;479;1 A
5.69323198562597;-0.399688720703125;-0.0146392822265625;4.78999998790641;480;1 A
5.70323198560072;-0.399658203125;-0.014715576171875;4.79999998788116;481;1 A
5.71323198557548;-0.399810791015625;-0.0145751953125;4.80999998785592;482;1 A
5.72323198555023;-0.39984130859375;-0.014666748046875;4.81999998783067;483;1 A
5.73323198552498;-0.3997802734375;-0.014703369140625;4.82999998780542;484;1 A
5.74323198549973;-0.39971923828125;-0.014764404296875;4.83999998778017;485;1 A
5.75323198547449;-0.399688720703125;-0.0147979736328125;4.84999998775493;486;1 A
5.76323198544924;-0.39971923828125;-0.0148590087890625;4.85999998772968;487;1 A
5.77323198542399;-0.39971923828125;-0.01473388671875;4.86999998770443;488;1 A
5.78323198539874;-0.3997802734375;-0.0146636962890625;4.87999998767918;489;1 A
5.7932319853735;-0.399749755859375;-0.014666748046875;4.88999998765394;490;1 A
5.80323198534825;-0.399658203125;-0.01466064453125;4.89999998762869;491;1 A
5.813231985323;-0.39971923828125;-0.0146484375;4.90999998760344;492;1 A
5.82323198529775;-0.399688720703125;-0.014556884765625;4.91999998757819;493;1 A
5.8332319852725;-0.399810791015625;-0.01466064453125;4.92999998755295;494;1 A
5.84323198524726;-0.399658203125;-0.0141510009765625;4.9399999875277;495;1 A
5.85323198522201;-0.3997802734375;-0.0139801025390625;4.94999998750245;496;1 A
5.86323198519676;-0.39971923828125;-0.014459228515625;4.9599999874772;497;1 A
5.87323198517151;-0.399749755859375;-0.014422607421875;4.96999998745196;498;1 A
5.88323198514627;-0.39984130859375;-0.0145965576171875;4.97999998742671;499;1 A
5.89323198512102;-0.39971923828125;-0.0146331787109375;4.98999998740146;500;1 A
