Time (s);WE(1).Potential (V);WE(1).Current (A);Corrected time (s);Index;Current range
6.41734198379777;-0.299774169921875;-0.013525390625;0;1;1 A
6.42734198377252;-0.2999267578125;-0.0139007568359375;0.00999999997475243;2;1 A
6.43734198374727;-0.2998046875;-0.0140838623046875;0.0199999999495049;3;1 A
6.44734198372203;-0.29974365234375;-0.0140960693359375;0.0299999999242573;4;1 A
6.45734198369678;-0.2998046875;-0.01419677734375;0.0399999998990097;5;1 A
6.46734198367153;-0.29986572265625;-0.01422119140625;0.0499999998737621;6;1 A
6.47734198364628;-0.2998046875;-0.0142974853515625;0.0599999998485146;7;1 A
6.48734198362104;-0.2998046875;-0.0143157958984375;0.069999999823267;8;1 A
6.49734198359579;-0.2998046875;-0.0144989013671875;0.0799999997980194;9;1 A
6.50734198357054;-0.299774169921875;-0.01455078125;0.0899999997727718;10;1 A
6.51734198354529;-0.2998046875;-0.0145599365234375;0.0999999997475243;11;1 A
6.52734198352005;-0.29986572265625;-0.0144683837890625;0.109999999722277;12;1 A
6.5373419834948;-0.29986572265625;-0.014447021484375;0.119999999697029;13;1 A
6.54734198346955;-0.299713134765625;-0.014459228515625;0.129999999671782;14;1 A
6.5573419834443;-0.299835205078125;-0.0144744873046875;0.139999999646534;15;1 A
6.56734198341906;-0.299835205078125;-0.0145599365234375;0.149999999621286;16;1 A
6.57734198339381;-0.299774169921875;-0.0143890380859375;0.159999999596039;17;1 A
6.58734198336856;-0.29986572265625;-0.0143798828125;0.169999999570791;18;1 A
6.59734198334331;-0.299835205078125;-0.01436767578125;0.179999999545544;19;1 A
6.60734198331807;-0.2998046875;-0.014447021484375;0.189999999520296;20;1 A
6.61734198329282;-0.2998046875;-0.014385986328125;0.199999999495049;21;1 A
6.62734198326757;-0.299835205078125;-0.014495849609375;0.209999999469801;22;1 A
6.63734198324232;-0.299835205078125;-0.014471435546875;0.219999999444553;23;1 A
6.64734198321707;-0.299774169921875;-0.01451416015625;0.229999999419306;24;1 A
6.65734198319183;-0.29986572265625;-0.01455078125;0.239999999394058;25;1 A
6.66734198316658;-0.29986572265625;-0.0145416259765625;0.249999999368811;26;1 A
6.67734198314133;-0.299896240234375;-0.0145355224609375;0.259999999343563;27;1 A
6.68734198311608;-0.29974365234375;-0.014453125;0.269999999318316;28;1 A
6.69734198309084;-0.299774169921875;-0.0145294189453125;0.279999999293068;29;1 A
6.70734198306559;-0.29986572265625;-0.014495849609375;0.28999999926782;30;1 A
6.71734198304034;-0.29986572265625;-0.0145050048828125;0.299999999242573;31;1 A
6.72734198301509;-0.2998046875;-0.0142852783203125;0.309999999217325;32;1 A
6.73734198298985;-0.299713134765625;-0.014410400390625;0.319999999192078;33;1 A
6.7473419829646;-0.299774169921875;-0.014312744140625;0.32999999916683;34;1 A
6.75734198293935;-0.2998046875;-0.014453125;0.339999999141583;35;1 A
6.7673419829141;-0.29986572265625;-0.0144012451171875;0.349999999116335;36;1 A
6.77734198288886;-0.299774169921875;-0.01441650390625;0.359999999091087;37;1 A
6.78734198286361;-0.29974365234375;-0.0145721435546875;0.36999999906584;38;1 A
6.79734198283836;-0.299896240234375;-0.0146087646484375;0.379999999040592;39;1 A
6.80734198281311;-0.2998046875;-0.0146026611328125;0.389999999015345;40;1 A
6.81734198278787;-0.299774169921875;-0.01451416015625;0.399999998990097;41;1 A
6.82734198276262;-0.299835205078125;-0.01458740234375;0.40999999896485;42;1 A
6.83734198273737;-0.2999267578125;-0.0144989013671875;0.419999998939602;43;1 A
6.84734198271212;-0.299835205078125;-0.0146392822265625;0.429999998914354;44;1 A
6.85734198268688;-0.299774169921875;-0.014593505859375;0.439999998889107;45;1 A
6.86734198266163;-0.2998046875;-0.01461181640625;0.449999998863859;46;1 A
6.87734198263638;-0.2998046875;-0.0144561767578125;0.459999998838612;47;1 A
6.88734198261113;-0.2998046875;-0.0145050048828125;0.469999998813364;48;1 A
6.89734198258589;-0.299774169921875;-0.0144317626953125;0.479999998788116;49;1 A
6.90734198256064;-0.299957275390625;-0.014459228515625;0.489999998762869;50;1 A
6.91734198253539;-0.29986572265625;-0.0144500732421875;0.499999998737621;51;1 A
6.92734198251014;-0.2998046875;-0.0143829345703125;0.509999998712374;52;1 A
6.9373419824849;-0.299774169921875;-0.014404296875;0.519999998687126;53;1 A
6.94734198245965;-0.29986572265625;-0.0142913818359375;0.529999998661879;54;1 A
6.9573419824344;-0.299896240234375;-0.0144775390625;0.539999998636631;55;1 A
6.96734198240915;-0.29986572265625;-0.014422607421875;0.549999998611383;56;1 A
6.9773419823839;-0.2998046875;-0.0144561767578125;0.559999998586136;57;1 A
6.98734198235866;-0.299713134765625;-0.014361572265625;0.569999998560888;58;1 A
6.99734198233341;-0.299835205078125;-0.0143951416015625;0.579999998535641;59;1 A
7.00734198230816;-0.299774169921875;-0.0144378662109375;0.589999998510393;60;1 A
7.01734198228291;-0.299835205078125;-0.0144744873046875;0.599999998485146;61;1 A
7.02734198225767;-0.299835205078125;-0.0144256591796875;0.609999998459898;62;1 A
7.03734198223242;-0.29986572265625;-0.0143829345703125;0.61999999843465;63;1 A
7.04734198220717;-0.299774169921875;-0.0143707275390625;0.629999998409403;64;1 A
7.05734198218192;-0.29974365234375;-0.0143157958984375;0.639999998384155;65;1 A
7.06734198215668;-0.2998046875;-0.014404296875;0.649999998358908;66;1 A
7.07734198213143;-0.29986572265625;-0.014227294921875;0.65999999833366;67;1 A
7.08734198210618;-0.299835205078125;-0.01427001953125;0.669999998308413;68;1 A
7.09734198208093;-0.299774169921875;-0.0142364501953125;0.679999998283165;69;1 A
7.10734198205569;-0.2998046875;-0.0142669677734375;0.689999998257917;70;1 A
7.11734198203044;-0.299774169921875;-0.0142364501953125;0.69999999823267;71;1 A
7.12734198200519;-0.299774169921875;-0.014227294921875;0.709999998207422;72;1 A
7.13734198197994;-0.299774169921875;-0.014239501953125;0.719999998182175;73;1 A
7.1473419819547;-0.29986572265625;-0.01419677734375;0.729999998156927;74;1 A
7.15734198192945;-0.29986572265625;-0.0142333984375;0.73999999813168;75;1 A
7.1673419819042;-0.29986572265625;-0.0143035888671875;0.749999998106432;76;1 A
7.17734198187895;-0.2996826171875;-0.0143646240234375;0.759999998081184;77;1 A
7.18734198185371;-0.29986572265625;-0.0143524169921875;0.769999998055937;78;1 A
7.19734198182846;-0.299835205078125;-0.0143341064453125;0.779999998030689;79;1 A
7.20734198180321;-0.29986572265625;-0.014337158203125;0.789999998005442;80;1 A
7.21734198177796;-0.2998046875;-0.01451416015625;0.799999997980194;81;1 A
7.22734198175272;-0.2996826171875;-0.014434814453125;0.809999997954947;82;1 A
7.23734198172747;-0.299835205078125;-0.0144744873046875;0.819999997929699;83;1 A
7.24734198170222;-0.2998046875;-0.0145751953125;0.829999997904451;84;1 A
7.25734198167697;-0.299835205078125;-0.014727783203125;0.839999997879204;85;1 A
7.26734198165173;-0.299774169921875;-0.0147308349609375;0.849999997853956;86;1 A
7.27734198162648;-0.29986572265625;-0.014727783203125;0.859999997828709;87;1 A
7.28734198160123;-0.29986572265625;-0.0146514892578125;0.869999997803461;88;1 A
7.29734198157598;-0.2998046875;-0.01451416015625;0.879999997778214;89;1 A
7.30734198155073;-0.299774169921875;-0.0144866943359375;0.889999997752966;90;1 A
7.31734198152549;-0.299835205078125;-0.0144866943359375;0.899999997727718;91;1 A
7.32734198150024;-0.299896240234375;-0.0146728515625;0.909999997702471;92;1 A
7.33734198147499;-0.29986572265625;-0.0146331787109375;0.919999997677223;93;1 A
7.34734198144974;-0.299835205078125;-0.014666748046875;0.929999997651976;94;1 A
7.3573419814245;-0.299774169921875;-0.0145904541015625;0.939999997626728;95;1 A
7.36734198139925;-0.29986572265625;-0.01458740234375;0.949999997601481;96;1 A
7.377341981374;-0.299835205078125;-0.01446533203125;0.959999997576233;97;1 A
7.38734198134875;-0.299835205078125;-0.0144622802734375;0.969999997550985;98;1 A
7.39734198132351;-0.29986572265625;-0.014404296875;0.979999997525738;99;1 A
7.40734198129826;-0.299835205078125;-0.014324951171875;0.98999999750049;100;1 A
7.41734198127301;-0.29974365234375;-0.0143463134765625;0.999999997475243;101;1 A
7.42734198124776;-0.299835205078125;-0.014312744140625;1.00999999745;102;1 A
7.43734198122252;-0.29986572265625;-0.0144256591796875;1.01999999742475;103;1 A
7.44734198119727;-0.29986572265625;-0.014276123046875;1.0299999973995;104;1 A
7.45734198117202;-0.29986572265625;-0.0143646240234375;1.03999999737425;105;1 A
7.46734198114677;-0.29974365234375;-0.0142578125;1.049999997349;106;1 A
7.47734198112153;-0.299774169921875;-0.01424560546875;1.05999999732376;107;1 A
7.48734198109628;-0.299835205078125;-0.014141845703125;1.06999999729851;108;1 A
7.49734198107103;-0.299774169921875;-0.0142181396484375;1.07999999727326;109;1 A
7.50734198104578;-0.299774169921875;-0.014306640625;1.08999999724801;110;1 A
7.51734198102054;-0.2998046875;-0.0142425537109375;1.09999999722277;111;1 A
7.52734198099529;-0.299835205078125;-0.0142120361328125;1.10999999719752;112;1 A
7.53734198097004;-0.2998046875;-0.0144317626953125;1.11999999717227;113;1 A
7.54734198094479;-0.29974365234375;-0.014459228515625;1.12999999714702;114;1 A
7.55734198091955;-0.299774169921875;-0.014508056640625;1.13999999712178;115;1 A
7.5673419808943;-0.299896240234375;-0.0145660400390625;1.14999999709653;116;1 A
7.57734198086905;-0.29986572265625;-0.0143768310546875;1.15999999707128;117;1 A
7.5873419808438;-0.29986572265625;-0.014349365234375;1.16999999704603;118;1 A
7.59734198081856;-0.299530029296875;-0.0142669677734375;1.17999999702079;119;1 A
7.60734198079331;-0.2998046875;-0.01436767578125;1.18999999699554;120;1 A
7.61734198076806;-0.2998046875;-0.014312744140625;1.19999999697029;121;1 A
7.62734198074281;-0.299835205078125;-0.0142608642578125;1.20999999694504;122;1 A
7.63734198071757;-0.29986572265625;-0.0142669677734375;1.2199999969198;123;1 A
7.64734198069232;-0.299835205078125;-0.0142852783203125;1.22999999689455;124;1 A
7.65734198066707;-0.29974365234375;-0.01434326171875;1.2399999968693;125;1 A
7.66734198064182;-0.299713134765625;-0.0143280029296875;1.24999999684405;126;1 A
7.67734198061657;-0.299774169921875;-0.0143829345703125;1.25999999681881;127;1 A
7.68734198059133;-0.299896240234375;-0.01422119140625;1.26999999679356;128;1 A
7.69734198056608;-0.29986572265625;-0.014300537109375;1.27999999676831;129;1 A
7.70734198054083;-0.299713134765625;-0.0142791748046875;1.28999999674306;130;1 A
7.71734198051558;-0.29986572265625;-0.0142578125;1.29999999671782;131;1 A
7.72734198049034;-0.299774169921875;-0.0142303466796875;1.30999999669257;132;1 A
7.73734198046509;-0.299774169921875;-0.014324951171875;1.31999999666732;133;1 A
7.74734198043984;-0.299774169921875;-0.0142730712890625;1.32999999664207;134;1 A
7.75734198041459;-0.29986572265625;-0.0142425537109375;1.33999999661683;135;1 A
7.76734198038935;-0.299896240234375;-0.01416015625;1.34999999659158;136;1 A
7.7773419803641;-0.2998046875;-0.014129638671875;1.35999999656633;137;1 A
7.78734198033885;-0.299774169921875;-0.014202880859375;1.36999999654108;138;1 A
7.7973419803136;-0.299774169921875;-0.0140960693359375;1.37999999651583;139;1 A
7.80734198028836;-0.29986572265625;-0.0141357421875;1.38999999649059;140;1 A
7.81734198026311;-0.29986572265625;-0.014111328125;1.39999999646534;141;1 A
7.82734198023786;-0.29986572265625;-0.014215087890625;1.40999999644009;142;1 A
7.83734198021261;-0.299774169921875;-0.014208984375;1.41999999641484;143;1 A
7.84734198018737;-0.299774169921875;-0.01427001953125;1.4299999963896;144;1 A
7.85734198016212;-0.299774169921875;-0.0142608642578125;1.43999999636435;145;1 A
7.86734198013687;-0.299896240234375;-0.0142974853515625;1.4499999963391;146;1 A
7.87734198011162;-0.299835205078125;-0.014227294921875;1.45999999631385;147;1 A
7.88734198008638;-0.299835205078125;-0.01419677734375;1.46999999628861;148;1 A
7.89734198006113;-0.29986572265625;-0.01422119140625;1.47999999626336;149;1 A
7.90734198003588;-0.299774169921875;-0.014276123046875;1.48999999623811;150;1 A
7.91734198001063;-0.299713134765625;-0.0143890380859375;1.49999999621286;151;1 A
7.92734197998539;-0.2998046875;-0.0143646240234375;1.50999999618762;152;1 A
7.93734197996014;-0.299835205078125;-0.0144866943359375;1.51999999616237;153;1 A
7.94734197993489;-0.29974365234375;-0.0144256591796875;1.52999999613712;154;1 A
7.95734197990964;-0.2998046875;-0.014544677734375;1.53999999611187;155;1 A
7.9673419798844;-0.299835205078125;-0.01453857421875;1.54999999608663;156;1 A
7.97734197985915;-0.29986572265625;-0.014532470703125;1.55999999606138;157;1 A
7.9873419798339;-0.299774169921875;-0.014434814453125;1.56999999603613;158;1 A
7.99734197980865;-0.2998046875;-0.0143707275390625;1.57999999601088;159;1 A
8.0073419797834;-0.29986572265625;-0.01435546875;1.58999999598564;160;1 A
8.01734197975816;-0.299896240234375;-0.014239501953125;1.59999999596039;161;1 A
8.02734197973291;-0.29974365234375;-0.0143402099609375;1.60999999593514;162;1 A
8.03734197970766;-0.299713134765625;-0.014337158203125;1.61999999590989;163;1 A
8.04734197968241;-0.299774169921875;-0.0143951416015625;1.62999999588465;164;1 A
8.05734197965717;-0.299896240234375;-0.01387939453125;1.6399999958594;165;1 A
8.06734197963192;-0.29986572265625;-0.0141326904296875;1.64999999583415;166;1 A
8.07734197960667;-0.299835205078125;-0.0143463134765625;1.6599999958089;167;1 A
8.08734197958142;-0.2998046875;-0.014263916015625;1.66999999578366;168;1 A
8.09734197955618;-0.29986572265625;-0.014263916015625;1.67999999575841;169;1 A
8.10734197953093;-0.299835205078125;-0.0143310546875;1.68999999573316;170;1 A
8.11734197950568;-0.29986572265625;-0.014373779296875;1.69999999570791;171;1 A
8.12734197948043;-0.29986572265625;-0.0142364501953125;1.70999999568267;172;1 A
8.13734197945519;-0.2998046875;-0.0143585205078125;1.71999999565742;173;1 A
8.14734197942994;-0.299774169921875;-0.0144256591796875;1.72999999563217;174;1 A
8.15734197940469;-0.299835205078125;-0.0144622802734375;1.73999999560692;175;1 A
8.16734197937944;-0.299835205078125;-0.0142852783203125;1.74999999558167;176;1 A
8.1773419793542;-0.29986572265625;-0.0144744873046875;1.75999999555643;177;1 A
8.18734197932895;-0.2998046875;-0.0144622802734375;1.76999999553118;178;1 A
8.1973419793037;-0.29986572265625;-0.0145660400390625;1.77999999550593;179;1 A
8.20734197927845;-0.2998046875;-0.01458740234375;1.78999999548068;180;1 A
8.21734197925321;-0.29986572265625;-0.0146575927734375;1.79999999545544;181;1 A
8.22734197922796;-0.299713134765625;-0.014593505859375;1.80999999543019;182;1 A
8.23734197920271;-0.29986572265625;-0.0145263671875;1.81999999540494;183;1 A
8.24734197917746;-0.2998046875;-0.0144927978515625;1.82999999537969;184;1 A
8.25734197915222;-0.299896240234375;-0.0142974853515625;1.83999999535445;185;1 A
8.26734197912697;-0.299774169921875;-0.014471435546875;1.8499999953292;186;1 A
8.27734197910172;-0.299774169921875;-0.01441650390625;1.85999999530395;187;1 A
8.28734197907647;-0.2998046875;-0.014508056640625;1.8699999952787;188;1 A
8.29734197905123;-0.2998046875;-0.014422607421875;1.87999999525346;189;1 A
8.30734197902598;-0.299896240234375;-0.0145477294921875;1.88999999522821;190;1 A
8.31734197900073;-0.299774169921875;-0.0144775390625;1.89999999520296;191;1 A
8.32734197897548;-0.299835205078125;-0.01446533203125;1.90999999517771;192;1 A
8.33734197895023;-0.299774169921875;-0.01444091796875;1.91999999515247;193;1 A
8.34734197892499;-0.299896240234375;-0.0144683837890625;1.92999999512722;194;1 A
8.35734197889974;-0.2998046875;-0.01461181640625;1.93999999510197;195;1 A
8.36734197887449;-0.299896240234375;-0.014642333984375;1.94999999507672;196;1 A
8.37734197884924;-0.29986572265625;-0.014617919921875;1.95999999505148;197;1 A
8.387341978824;-0.299896240234375;-0.0144805908203125;1.96999999502623;198;1 A
8.39734197879875;-0.299835205078125;-0.01451416015625;1.97999999500098;199;1 A
8.4073419787735;-0.299774169921875;-0.014544677734375;1.98999999497573;200;1 A
8.41734197874825;-0.299835205078125;-0.01461181640625;1.99999999495049;201;1 A
8.42734197872301;-0.2998046875;-0.0145721435546875;2.00999999492524;202;1 A
8.43734197869776;-0.2998046875;-0.0145294189453125;2.01999999489999;203;1 A
8.44734197867251;-0.2998046875;-0.0144622802734375;2.02999999487474;204;1 A
8.45734197864726;-0.299896240234375;-0.0144500732421875;2.0399999948495;205;1 A
8.46734197862202;-0.299713134765625;-0.01431884765625;2.04999999482425;206;1 A
8.47734197859677;-0.299774169921875;-0.0142822265625;2.059999994799;207;1 A
8.48734197857152;-0.2998046875;-0.0143157958984375;2.06999999477375;208;1 A
8.49734197854627;-0.29986572265625;-0.0142822265625;2.0799999947485;209;1 A
8.50734197852103;-0.299835205078125;-0.014288330078125;2.08999999472326;210;1 A
8.51734197849578;-0.299835205078125;-0.0141693115234375;2.09999999469801;211;1 A
8.52734197847053;-0.2998046875;-0.014154052734375;2.10999999467276;212;1 A
8.53734197844528;-0.2998046875;-0.014141845703125;2.11999999464751;213;1 A
8.54734197842004;-0.29998779296875;-0.014349365234375;2.12999999462227;214;1 A
8.55734197839479;-0.299835205078125;-0.0143096923828125;2.13999999459702;215;1 A
8.56734197836954;-0.2998046875;-0.014306640625;2.14999999457177;216;1 A
8.57734197834429;-0.2998046875;-0.014312744140625;2.15999999454652;217;1 A
8.58734197831905;-0.299896240234375;-0.01431884765625;2.16999999452128;218;1 A
8.5973419782938;-0.299774169921875;-0.014373779296875;2.17999999449603;219;1 A
8.60734197826855;-0.2998046875;-0.014385986328125;2.18999999447078;220;1 A
8.6173419782433;-0.299835205078125;-0.0145233154296875;2.19999999444553;221;1 A
8.62734197821806;-0.299896240234375;-0.0145111083984375;2.20999999442029;222;1 A
8.63734197819281;-0.299774169921875;-0.014556884765625;2.21999999439504;223;1 A
8.64734197816756;-0.29974365234375;-0.0143707275390625;2.22999999436979;224;1 A
8.65734197814231;-0.299774169921875;-0.01444091796875;2.23999999434454;225;1 A
8.66734197811707;-0.299774169921875;-0.01434326171875;2.2499999943193;226;1 A
8.67734197809182;-0.299835205078125;-0.0143096923828125;2.25999999429405;227;1 A
8.68734197806657;-0.299835205078125;-0.014202880859375;2.2699999942688;228;1 A
8.69734197804132;-0.29986572265625;-0.01429443359375;2.27999999424355;229;1 A
8.70734197801607;-0.29974365234375;-0.0143096923828125;2.28999999421831;230;1 A
8.71734197799083;-0.299774169921875;-0.0142425537109375;2.29999999419306;231;1 A
8.72734197796558;-0.299774169921875;-0.01429443359375;2.30999999416781;232;1 A
8.73734197794033;-0.299835205078125;-0.0141815185546875;2.31999999414256;233;1 A
8.74734197791508;-0.29986572265625;-0.0141815185546875;2.32999999411732;234;1 A
8.75734197788984;-0.2998046875;-0.0140869140625;2.33999999409207;235;1 A
8.76734197786459;-0.299774169921875;-0.0142059326171875;2.34999999406682;236;1 A
8.77734197783934;-0.299774169921875;-0.014202880859375;2.35999999404157;237;1 A
8.78734197781409;-0.2999267578125;-0.0143157958984375;2.36999999401633;238;1 A
8.79734197778885;-0.29986572265625;-0.014300537109375;2.37999999399108;239;1 A
8.8073419777636;-0.2998046875;-0.014288330078125;2.38999999396583;240;1 A
8.81734197773835;-0.299835205078125;-0.0141693115234375;2.39999999394058;241;1 A
8.8273419777131;-0.29986572265625;-0.0140838623046875;2.40999999391533;242;1 A
8.83734197768786;-0.29974365234375;-0.014080810546875;2.41999999389009;243;1 A
8.84734197766261;-0.299774169921875;-0.0141571044921875;2.42999999386484;244;1 A
8.85734197763736;-0.299835205078125;-0.0142547607421875;2.43999999383959;245;1 A
8.86734197761211;-0.300018310546875;-0.0141448974609375;2.44999999381434;246;1 A
8.87734197758687;-0.2998046875;-0.0141845703125;2.4599999937891;247;1 A
8.88734197756162;-0.29986572265625;-0.0140472412109375;2.46999999376385;248;1 A
8.89734197753637;-0.29974365234375;-0.0142669677734375;2.4799999937386;249;1 A
8.90734197751112;-0.299774169921875;-0.014227294921875;2.48999999371335;250;1 A
8.91734197748588;-0.299835205078125;-0.014276123046875;2.49999999368811;251;1 A
8.92734197746063;-0.29986572265625;-0.014251708984375;2.50999999366286;252;1 A
8.93734197743538;-0.2998046875;-0.014300537109375;2.51999999363761;253;1 A
8.94734197741013;-0.2996826171875;-0.0143463134765625;2.52999999361236;254;1 A
8.95734197738489;-0.299774169921875;-0.0142425537109375;2.53999999358712;255;1 A
8.96734197735964;-0.29974365234375;-0.0142059326171875;2.54999999356187;256;1 A
8.97734197733439;-0.2998046875;-0.0141998291015625;2.55999999353662;257;1 A
8.98734197730914;-0.299896240234375;-0.0142425537109375;2.56999999351137;258;1 A
8.9973419772839;-0.29986572265625;-0.0140533447265625;2.57999999348613;259;1 A
9.00734197725865;-0.2998046875;-0.014031982421875;2.58999999346088;260;1 A
9.0173419772334;-0.299774169921875;-0.0139373779296875;2.59999999343563;261;1 A
9.02734197720815;-0.299835205078125;-0.0140106201171875;2.60999999341038;262;1 A
9.0373419771829;-0.29986572265625;-0.0139007568359375;2.61999999338514;263;1 A
9.04734197715766;-0.2998046875;-0.0139434814453125;2.62999999335989;264;1 A
9.05734197713241;-0.2998046875;-0.0139251708984375;2.63999999333464;265;1 A
9.06734197710716;-0.299957275390625;-0.0138702392578125;2.64999999330939;266;1 A
9.07734197708191;-0.299774169921875;-0.0139129638671875;2.65999999328415;267;1 A
9.08734197705667;-0.29974365234375;-0.013983154296875;2.6699999932589;268;1 A
9.09734197703142;-0.299774169921875;-0.01412353515625;2.67999999323365;269;1 A
9.10734197700617;-0.2998046875;-0.0141998291015625;2.6899999932084;270;1 A
9.11734197698092;-0.299896240234375;-0.0142822265625;2.69999999318316;271;1 A
9.12734197695568;-0.2998046875;-0.014227294921875;2.70999999315791;272;1 A
9.13734197693043;-0.299774169921875;-0.014306640625;2.71999999313266;273;1 A
9.14734197690518;-0.299774169921875;-0.0142547607421875;2.72999999310741;274;1 A
9.15734197687993;-0.29974365234375;-0.014324951171875;2.73999999308217;275;1 A
9.16734197685469;-0.299835205078125;-0.0143585205078125;2.74999999305692;276;1 A
9.17734197682944;-0.299835205078125;-0.0143463134765625;2.75999999303167;277;1 A
9.18734197680419;-0.29974365234375;-0.014300537109375;2.76999999300642;278;1 A
9.19734197677894;-0.299896240234375;-0.01422119140625;2.77999999298117;279;1 A
9.2073419767537;-0.299835205078125;-0.014215087890625;2.78999999295593;280;1 A
9.21734197672845;-0.299713134765625;-0.014288330078125;2.79999999293068;281;1 A
9.2273419767032;-0.299835205078125;-0.0143707275390625;2.80999999290543;282;1 A
9.23734197667795;-0.299835205078125;-0.0142730712890625;2.81999999288018;283;1 A
9.24734197665271;-0.29986572265625;-0.0143280029296875;2.82999999285494;284;1 A
9.25734197662746;-0.29974365234375;-0.0142242431640625;2.83999999282969;285;1 A
9.26734197660221;-0.299835205078125;-0.0143402099609375;2.84999999280444;286;1 A
9.27734197657696;-0.299835205078125;-0.01429443359375;2.85999999277919;287;1 A
9.28734197655172;-0.299774169921875;-0.014337158203125;2.86999999275395;288;1 A
9.29734197652647;-0.2998046875;-0.014263916015625;2.8799999927287;289;1 A
9.30734197650122;-0.299896240234375;-0.0142303466796875;2.88999999270345;290;1 A
9.31734197647597;-0.299896240234375;-0.0141998291015625;2.8999999926782;291;1 A
9.32734197645073;-0.299774169921875;-0.0140960693359375;2.90999999265296;292;1 A
9.33734197642548;-0.2998046875;-0.0142578125;2.91999999262771;293;1 A
9.34734197640023;-0.299835205078125;-0.0142822265625;2.92999999260246;294;1 A
9.35734197637498;-0.299957275390625;-0.01436767578125;2.93999999257721;295;1 A
9.36734197634973;-0.29986572265625;-0.0142852783203125;2.94999999255197;296;1 A
9.37734197632449;-0.299835205078125;-0.0143341064453125;2.95999999252672;297;1 A
9.38734197629924;-0.2996826171875;-0.014404296875;2.96999999250147;298;1 A
9.39734197627399;-0.299835205078125;-0.014434814453125;2.97999999247622;299;1 A
9.40734197624874;-0.299774169921875;-0.014361572265625;2.98999999245098;300;1 A
9.4173419762235;-0.299835205078125;-0.0144012451171875;2.99999999242573;301;1 A
9.42734197619825;-0.29974365234375;-0.0144073486328125;3.00999999240048;302;1 A
9.437341976173;-0.29986572265625;-0.014483642578125;3.01999999237523;303;1 A
9.44734197614775;-0.299774169921875;-0.0144989013671875;3.02999999234999;304;1 A
9.45734197612251;-0.299774169921875;-0.0144561767578125;3.03999999232474;305;1 A
9.46734197609726;-0.29974365234375;-0.0144256591796875;3.04999999229949;306;1 A
9.47734197607201;-0.299835205078125;-0.01429443359375;3.05999999227424;307;1 A
9.48734197604676;-0.29986572265625;-0.0143890380859375;3.069999992249;308;1 A
9.49734197602152;-0.299774169921875;-0.0144927978515625;3.07999999222375;309;1 A
9.50734197599627;-0.2998046875;-0.01419677734375;3.0899999921985;310;1 A
9.51734197597102;-0.2998046875;-0.014404296875;3.09999999217325;311;1 A
9.52734197594577;-0.299835205078125;-0.0144683837890625;3.109999992148;312;1 A
9.53734197592053;-0.299835205078125;-0.01441650390625;3.11999999212276;313;1 A
9.54734197589528;-0.299896240234375;-0.0144439697265625;3.12999999209751;314;1 A
9.55734197587003;-0.299835205078125;-0.0144989013671875;3.13999999207226;315;1 A
9.56734197584478;-0.2998046875;-0.0145477294921875;3.14999999204701;316;1 A
9.57734197581954;-0.299774169921875;-0.0145538330078125;3.15999999202177;317;1 A
9.58734197579429;-0.2998046875;-0.0145050048828125;3.16999999199652;318;1 A
9.59734197576904;-0.299774169921875;-0.0146148681640625;3.17999999197127;319;1 A
9.60734197574379;-0.299835205078125;-0.014581298828125;3.18999999194602;320;1 A
9.61734197571855;-0.2998046875;-0.0145751953125;3.19999999192078;321;1 A
9.6273419756933;-0.299713134765625;-0.0145294189453125;3.20999999189553;322;1 A
9.63734197566805;-0.299835205078125;-0.0146759033203125;3.21999999187028;323;1 A
9.6473419756428;-0.2998046875;-0.0146697998046875;3.22999999184503;324;1 A
9.65734197561756;-0.299835205078125;-0.014666748046875;3.23999999181979;325;1 A
9.66734197559231;-0.2998046875;-0.0145416259765625;3.24999999179454;326;1 A
9.67734197556706;-0.29986572265625;-0.014508056640625;3.25999999176929;327;1 A
9.68734197554181;-0.299835205078125;-0.01446533203125;3.26999999174404;328;1 A
9.69734197551657;-0.2998046875;-0.014337158203125;3.2799999917188;329;1 A
9.70734197549132;-0.299713134765625;-0.0143646240234375;3.28999999169355;330;1 A
9.71734197546607;-0.29986572265625;-0.014276123046875;3.2999999916683;331;1 A
9.72734197544082;-0.299835205078125;-0.0142974853515625;3.30999999164305;332;1 A
9.73734197541557;-0.2998046875;-0.0141326904296875;3.31999999161781;333;1 A
9.74734197539033;-0.299835205078125;-0.0142181396484375;3.32999999159256;334;1 A
9.75734197536508;-0.2998046875;-0.0142333984375;3.33999999156731;335;1 A
9.76734197533983;-0.299835205078125;-0.014227294921875;3.34999999154206;336;1 A
9.77734197531458;-0.299774169921875;-0.014215087890625;3.35999999151682;337;1 A
9.78734197528934;-0.299896240234375;-0.01416015625;3.36999999149157;338;1 A
9.79734197526409;-0.2999267578125;-0.0142333984375;3.37999999146632;339;1 A
9.80734197523884;-0.29986572265625;-0.0142181396484375;3.38999999144107;340;1 A
9.81734197521359;-0.2998046875;-0.0142181396484375;3.39999999141583;341;1 A
9.82734197518835;-0.29974365234375;-0.0142486572265625;3.40999999139058;342;1 A
9.8373419751631;-0.29974365234375;-0.0143463134765625;3.41999999136533;343;1 A
9.84734197513785;-0.29986572265625;-0.0143402099609375;3.42999999134008;344;1 A
9.8573419751126;-0.299835205078125;-0.0144683837890625;3.43999999131483;345;1 A
9.86734197508736;-0.29974365234375;-0.014422607421875;3.44999999128959;346;1 A
9.87734197506211;-0.29986572265625;-0.0144866943359375;3.45999999126434;347;1 A
9.88734197503686;-0.2998046875;-0.014410400390625;3.46999999123909;348;1 A
9.89734197501161;-0.299835205078125;-0.01439208984375;3.47999999121384;349;1 A
9.90734197498637;-0.299774169921875;-0.014349365234375;3.4899999911886;350;1 A
9.91734197496112;-0.299774169921875;-0.01429443359375;3.49999999116335;351;1 A
9.92734197493587;-0.29986572265625;-0.01427001953125;3.5099999911381;352;1 A
9.93734197491062;-0.29986572265625;-0.01424560546875;3.51999999111285;353;1 A
9.94734197488538;-0.2996826171875;-0.01435546875;3.52999999108761;354;1 A
9.95734197486013;-0.299774169921875;-0.0142486572265625;3.53999999106236;355;1 A
9.96734197483488;-0.2998046875;-0.014288330078125;3.54999999103711;356;1 A
9.97734197480963;-0.29986572265625;-0.0142425537109375;3.55999999101186;357;1 A
9.98734197478439;-0.2999267578125;-0.0143646240234375;3.56999999098662;358;1 A
9.99734197475914;-0.299835205078125;-0.01435546875;3.57999999096137;359;1 A
10.0073419747339;-0.299835205078125;-0.01436767578125;3.58999999093612;360;1 A
10.0173419747086;-0.299835205078125;-0.0142974853515625;3.59999999091087;361;1 A
10.0273419746834;-0.299835205078125;-0.0143218994140625;3.60999999088563;362;1 A
10.0373419746581;-0.299835205078125;-0.0144866943359375;3.61999999086038;363;1 A
10.0473419746329;-0.299896240234375;-0.0145050048828125;3.62999999083513;364;1 A
10.0573419746077;-0.29986572265625;-0.014581298828125;3.63999999080988;365;1 A
10.0673419745824;-0.299835205078125;-0.0145538330078125;3.64999999078464;366;1 A
10.0773419745572;-0.2998046875;-0.0143951416015625;3.65999999075939;367;1 A
10.0873419745319;-0.299774169921875;-0.014300537109375;3.66999999073414;368;1 A
10.0973419745067;-0.299835205078125;-0.0142730712890625;3.67999999070889;369;1 A
10.1073419744814;-0.299713134765625;-0.014239501953125;3.68999999068365;370;1 A
10.1173419744562;-0.299835205078125;-0.0143707275390625;3.6999999906584;371;1 A
10.1273419744309;-0.29974365234375;-0.014398193359375;3.70999999063315;372;1 A
10.1373419744057;-0.299835205078125;-0.0143646240234375;3.7199999906079;373;1 A
10.1473419743804;-0.29974365234375;-0.01439208984375;3.72999999058266;374;1 A
10.1573419743552;-0.299774169921875;-0.014398193359375;3.73999999055741;375;1 A
10.1673419743299;-0.29986572265625;-0.0144134521484375;3.74999999053216;376;1 A
10.1773419743047;-0.29986572265625;-0.0143524169921875;3.75999999050691;377;1 A
10.1873419742794;-0.2998046875;-0.0143890380859375;3.76999999048167;378;1 A
10.1973419742542;-0.29974365234375;-0.0143341064453125;3.77999999045642;379;1 A
10.2073419742289;-0.2998046875;-0.014410400390625;3.78999999043117;380;1 A
10.2173419742037;-0.299835205078125;-0.0144439697265625;3.79999999040592;381;1 A
10.2273419741784;-0.2999267578125;-0.0145477294921875;3.80999999038067;382;1 A
10.2373419741532;-0.29986572265625;-0.0144256591796875;3.81999999035543;383;1 A
10.2473419741279;-0.299896240234375;-0.014434814453125;3.82999999033018;384;1 A
10.2573419741027;-0.299835205078125;-0.0144317626953125;3.83999999030493;385;1 A
10.2673419740775;-0.299835205078125;-0.0144256591796875;3.84999999027968;386;1 A
10.2773419740522;-0.299774169921875;-0.0144256591796875;3.85999999025444;387;1 A
10.287341974027;-0.2998046875;-0.014373779296875;3.86999999022919;388;1 A
10.2973419740017;-0.29986572265625;-0.014422607421875;3.87999999020394;389;1 A
10.3073419739765;-0.29986572265625;-0.014312744140625;3.88999999017869;390;1 A
10.3173419739512;-0.299835205078125;-0.0143096923828125;3.89999999015345;391;1 A
10.327341973926;-0.2998046875;-0.0142303466796875;3.9099999901282;392;1 A
10.3373419739007;-0.2998046875;-0.0143035888671875;3.91999999010295;393;1 A
10.3473419738755;-0.2998046875;-0.0142730712890625;3.9299999900777;394;1 A
10.3573419738502;-0.29974365234375;-0.0142303466796875;3.93999999005246;395;1 A
10.367341973825;-0.299774169921875;-0.014117431640625;3.94999999002721;396;1 A
10.3773419737997;-0.299774169921875;-0.0140960693359375;3.95999999000196;397;1 A
10.3873419737745;-0.29974365234375;-0.0142120361328125;3.96999998997671;398;1 A
10.3973419737492;-0.299774169921875;-0.0142181396484375;3.97999998995147;399;1 A
10.407341973724;-0.299774169921875;-0.0142822265625;3.98999998992622;400;1 A
10.4173419736987;-0.29986572265625;-0.014263916015625;3.99999998990097;401;1 A
10.4273419736735;-0.29986572265625;-0.0143341064453125;4.00999998987572;402;1 A
10.4373419736482;-0.29974365234375;-0.0142059326171875;4.01999998985048;403;1 A
10.447341973623;-0.29974365234375;-0.014300537109375;4.02999998982523;404;1 A
10.4573419735977;-0.299774169921875;-0.01419677734375;4.03999998979998;405;1 A
10.4673419735725;-0.299896240234375;-0.014263916015625;4.04999998977473;406;1 A
10.4773419735473;-0.299774169921875;-0.0142364501953125;4.05999998974949;407;1 A
10.487341973522;-0.299835205078125;-0.0142242431640625;4.06999998972424;408;1 A
10.4973419734968;-0.299835205078125;-0.0141632080078125;4.07999998969899;409;1 A
10.5073419734715;-0.299896240234375;-0.014208984375;4.08999998967374;410;1 A
10.5173419734463;-0.299713134765625;-0.0142303466796875;4.0999999896485;411;1 A
10.527341973421;-0.2998046875;-0.0141754150390625;4.10999998962325;412;1 A
10.5373419733958;-0.299835205078125;-0.01414794921875;4.119999989598;413;1 A
10.5473419733705;-0.2999267578125;-0.014080810546875;4.12999998957275;414;1 A
10.5573419733453;-0.2998046875;-0.0140899658203125;4.1399999895475;415;1 A
10.56734197332;-0.2998046875;-0.0139862060546875;4.14999998952226;416;1 A
10.5773419732948;-0.2998046875;-0.01400146484375;4.15999998949701;417;1 A
10.5873419732695;-0.29974365234375;-0.0139434814453125;4.16999998947176;418;1 A
10.5973419732443;-0.299835205078125;-0.0139984130859375;4.17999998944651;419;1 A
10.607341973219;-0.299835205078125;-0.0139556884765625;4.18999998942127;420;1 A
10.6173419731938;-0.299835205078125;-0.0139617919921875;4.19999998939602;421;1 A
10.6273419731685;-0.299774169921875;-0.013922119140625;4.20999998937077;422;1 A
10.6373419731433;-0.29974365234375;-0.0139129638671875;4.21999998934552;423;1 A
10.647341973118;-0.29974365234375;-0.013958740234375;4.22999998932028;424;1 A
10.6573419730928;-0.299835205078125;-0.013958740234375;4.23999998929503;425;1 A
10.6673419730676;-0.2998046875;-0.014093017578125;4.24999998926978;426;1 A
10.6773419730423;-0.29998779296875;-0.0140625;4.25999998924453;427;1 A
10.6873419730171;-0.2998046875;-0.0142242431640625;4.26999998921929;428;1 A
10.6973419729918;-0.299774169921875;-0.0141510009765625;4.27999998919404;429;1 A
10.7073419729666;-0.299896240234375;-0.014013671875;4.28999998916879;430;1 A
10.7173419729413;-0.2998046875;-0.014105224609375;4.29999998914354;431;1 A
10.7273419729161;-0.2998046875;-0.01419677734375;4.3099999891183;432;1 A
10.7373419728908;-0.2998046875;-0.0142822265625;4.31999998909305;433;1 A
10.7473419728656;-0.299957275390625;-0.0142791748046875;4.3299999890678;434;1 A
10.7573419728403;-0.2998046875;-0.0143310546875;4.33999998904255;435;1 A
10.7673419728151;-0.299774169921875;-0.0143280029296875;4.34999998901731;436;1 A
10.7773419727898;-0.299774169921875;-0.0143218994140625;4.35999998899206;437;1 A
10.7873419727646;-0.2999267578125;-0.0142364501953125;4.36999998896681;438;1 A
10.7973419727393;-0.29986572265625;-0.014288330078125;4.37999998894156;439;1 A
10.8073419727141;-0.29974365234375;-0.01427001953125;4.38999998891632;440;1 A
10.8173419726888;-0.299713134765625;-0.01436767578125;4.39999998889107;441;1 A
10.8273419726636;-0.29974365234375;-0.0143096923828125;4.40999998886582;442;1 A
10.8373419726383;-0.29974365234375;-0.014349365234375;4.41999998884057;443;1 A
10.8473419726131;-0.29986572265625;-0.0142547607421875;4.42999998881533;444;1 A
10.8573419725878;-0.2998046875;-0.01414794921875;4.43999998879008;445;1 A
10.8673419725626;-0.2998046875;-0.014111328125;4.44999998876483;446;1 A
10.8773419725374;-0.299835205078125;-0.014129638671875;4.45999998873958;447;1 A
10.8873419725121;-0.299774169921875;-0.0141571044921875;4.46999998871433;448;1 A
10.8973419724869;-0.2998046875;-0.0140869140625;4.47999998868909;449;1 A
10.9073419724616;-0.2998046875;-0.01416015625;4.48999998866384;450;1 A
10.9173419724364;-0.299835205078125;-0.0141387939453125;4.49999998863859;451;1 A
10.9273419724111;-0.2998046875;-0.0141845703125;4.50999998861334;452;1 A
10.9373419723859;-0.299774169921875;-0.014080810546875;4.5199999885881;453;1 A
10.9473419723606;-0.2998046875;-0.01414794921875;4.52999998856285;454;1 A
10.9573419723354;-0.299774169921875;-0.0141082763671875;4.5399999885376;455;1 A
10.9673419723101;-0.2998046875;-0.0140899658203125;4.54999998851235;456;1 A
10.9773419722849;-0.299835205078125;-0.014056396484375;4.55999998848711;457;1 A
10.9873419722596;-0.29986572265625;-0.01412353515625;4.56999998846186;458;1 A
10.9973419722344;-0.299896240234375;-0.0143035888671875;4.57999998843661;459;1 A
11.0073419722091;-0.29974365234375;-0.0142791748046875;4.58999998841136;460;1 A
11.0173419721839;-0.2996826171875;-0.0144317626953125;4.59999998838612;461;1 A
11.0273419721586;-0.29986572265625;-0.014349365234375;4.60999998836087;462;1 A
11.0373419721334;-0.29986572265625;-0.014447021484375;4.61999998833562;463;1 A
11.0473419721081;-0.299896240234375;-0.014324951171875;4.62999998831037;464;1 A
11.0573419720829;-0.2998046875;-0.01431884765625;4.63999998828513;465;1 A
11.0673419720576;-0.299652099609375;-0.014300537109375;4.64999998825988;466;1 A
11.0773419720324;-0.299774169921875;-0.01435546875;4.65999998823463;467;1 A
11.0873419720072;-0.29986572265625;-0.01429443359375;4.66999998820938;468;1 A
11.0973419719819;-0.29986572265625;-0.0142364501953125;4.67999998818414;469;1 A
11.1073419719567;-0.299774169921875;-0.014215087890625;4.68999998815889;470;1 A
11.1173419719314;-0.299896240234375;-0.0142059326171875;4.69999998813364;471;1 A
11.1273419719062;-0.2998046875;-0.0142669677734375;4.70999998810839;472;1 A
11.1373419718809;-0.299774169921875;-0.014227294921875;4.71999998808315;473;1 A
11.1473419718557;-0.299713134765625;-0.014227294921875;4.7299999880579;474;1 A
11.1573419718304;-0.299835205078125;-0.0141265869140625;4.73999998803265;475;1 A
11.1673419718052;-0.2998046875;-0.0142242431640625;4.7499999880074;476;1 A
11.1773419717799;-0.299835205078125;-0.0141845703125;4.75999998798216;477;1 A
11.1873419717547;-0.29986572265625;-0.0142181396484375;4.76999998795691;478;1 A
11.1973419717294;-0.2998046875;-0.014190673828125;4.77999998793166;479;1 A
11.2073419717042;-0.299896240234375;-0.014312744140625;4.78999998790641;480;1 A
11.2173419716789;-0.29986572265625;-0.0142425537109375;4.79999998788116;481;1 A
11.2273419716537;-0.299896240234375;-0.01419677734375;4.80999998785592;482;1 A
11.2373419716284;-0.299896240234375;-0.0141754150390625;4.81999998783067;483;1 A
11.2473419716032;-0.29986572265625;-0.0140350341796875;4.82999998780542;484;1 A
11.2573419715779;-0.299713134765625;-0.0141876220703125;4.83999998778017;485;1 A
11.2673419715527;-0.29986572265625;-0.01419677734375;4.84999998775493;486;1 A
11.2773419715274;-0.299835205078125;-0.01439208984375;4.85999998772968;487;1 A
11.2873419715022;-0.299896240234375;-0.0144989013671875;4.86999998770443;488;1 A
11.297341971477;-0.299835205078125;-0.0146575927734375;4.87999998767918;489;1 A
11.3073419714517;-0.299713134765625;-0.0146209716796875;4.88999998765394;490;1 A
11.3173419714265;-0.2998046875;-0.014666748046875;4.89999998762869;491;1 A
11.3273419714012;-0.299835205078125;-0.0145782470703125;4.90999998760344;492;1 A
11.337341971376;-0.299774169921875;-0.0145172119140625;4.91999998757819;493;1 A
11.3473419713507;-0.2998046875;-0.014373779296875;4.92999998755295;494;1 A
11.3573419713255;-0.2999267578125;-0.0141937255859375;4.9399999875277;495;1 A
11.3673419713002;-0.299835205078125;-0.014227294921875;4.94999998750245;496;1 A
11.377341971275;-0.2998046875;-0.014263916015625;4.9599999874772;497;1 A
11.3873419712497;-0.299713134765625;-0.0143341064453125;4.96999998745196;498;1 A
11.3973419712245;-0.299774169921875;-0.0141998291015625;4.97999998742671;499;1 A
11.4073419711992;-0.299896240234375;-0.01422119140625;4.98999998740146;500;1 A
