Time (s);WE(1).Potential (V);WE(1).Current (A);Corrected time (s);Index;Current range
12.142541969343;-0.199951171875;-0.0122650146484375;0;1;1 A
12.1525419693178;-0.2000732421875;-0.0127044677734375;0.00999999997475243;2;1 A
12.1625419692925;-0.19989013671875;-0.0130035400390625;0.0199999999495049;3;1 A
12.1725419692673;-0.199859619140625;-0.0131439208984375;0.0299999999242573;4;1 A
12.182541969242;-0.199920654296875;-0.013385009765625;0.0399999998990097;5;1 A
12.1925419692168;-0.19976806640625;-0.0134246826171875;0.0499999998737621;6;1 A
12.2025419691915;-0.199920654296875;-0.0135406494140625;0.0599999998485146;7;1 A
12.2125419691663;-0.199859619140625;-0.0134765625;0.069999999823267;8;1 A
12.222541969141;-0.199981689453125;-0.0134735107421875;0.0799999997980194;9;1 A
12.2325419691158;-0.1998291015625;-0.013531494140625;0.0899999997727718;10;1 A
12.2425419690906;-0.199859619140625;-0.0134979248046875;0.0999999997475243;11;1 A
12.2525419690653;-0.199920654296875;-0.0135162353515625;0.109999999722277;12;1 A
12.2625419690401;-0.199951171875;-0.013409423828125;0.119999999697029;13;1 A
12.2725419690148;-0.199920654296875;-0.013433837890625;0.129999999671782;14;1 A
12.2825419689896;-0.199859619140625;-0.0133453369140625;0.139999999646534;15;1 A
12.2925419689643;-0.199859619140625;-0.01343994140625;0.149999999621286;16;1 A
12.3025419689391;-0.19989013671875;-0.0133575439453125;0.159999999596039;17;1 A
12.3125419689138;-0.200042724609375;-0.013397216796875;0.169999999570791;18;1 A
12.3225419688886;-0.199951171875;-0.013287353515625;0.179999999545544;19;1 A
12.3325419688633;-0.19989013671875;-0.013385009765625;0.189999999520296;20;1 A
12.3425419688381;-0.19989013671875;-0.01331787109375;0.199999999495049;21;1 A
12.3525419688128;-0.2000732421875;-0.01328125;0.209999999469801;22;1 A
12.3625419687876;-0.19989013671875;-0.013360595703125;0.219999999444553;23;1 A
12.3725419687623;-0.199859619140625;-0.013323974609375;0.229999999419306;24;1 A
12.3825419687371;-0.199920654296875;-0.013458251953125;0.239999999394058;25;1 A
12.3925419687118;-0.200103759765625;-0.01341552734375;0.249999999368811;26;1 A
12.4025419686866;-0.199920654296875;-0.01341552734375;0.259999999343563;27;1 A
12.4125419686613;-0.199859619140625;-0.0133270263671875;0.269999999318316;28;1 A
12.4225419686361;-0.19989013671875;-0.013421630859375;0.279999999293068;29;1 A
12.4325419686108;-0.199798583984375;-0.013421630859375;0.28999999926782;30;1 A
12.4425419685856;-0.199920654296875;-0.0134613037109375;0.299999999242573;31;1 A
12.4525419685604;-0.199951171875;-0.013494873046875;0.309999999217325;32;1 A
12.4625419685351;-0.199951171875;-0.013519287109375;0.319999999192078;33;1 A
12.4725419685099;-0.1998291015625;-0.013531494140625;0.32999999916683;34;1 A
12.4825419684846;-0.19989013671875;-0.0134063720703125;0.339999999141583;35;1 A
12.4925419684594;-0.199859619140625;-0.0134918212890625;0.349999999116335;36;1 A
12.5025419684341;-0.199920654296875;-0.0135009765625;0.359999999091087;37;1 A
12.5125419684089;-0.199920654296875;-0.01363525390625;0.36999999906584;38;1 A
12.5225419683836;-0.199920654296875;-0.0135650634765625;0.379999999040592;39;1 A
12.5325419683584;-0.19989013671875;-0.013720703125;0.389999999015345;40;1 A
12.5425419683331;-0.1998291015625;-0.01357421875;0.399999998990097;41;1 A
12.5525419683079;-0.20001220703125;-0.0135101318359375;0.40999999896485;42;1 A
12.5625419682826;-0.19989013671875;-0.01341552734375;0.419999998939602;43;1 A
12.5725419682574;-0.199920654296875;-0.0134124755859375;0.429999998914354;44;1 A
12.5825419682321;-0.199920654296875;-0.0134033203125;0.439999998889107;45;1 A
12.5925419682069;-0.200103759765625;-0.0133453369140625;0.449999998863859;46;1 A
12.6025419681816;-0.199920654296875;-0.013323974609375;0.459999998838612;47;1 A
12.6125419681564;-0.19989013671875;-0.0133056640625;0.469999998813364;48;1 A
12.6225419681311;-0.199859619140625;-0.0134490966796875;0.479999998788116;49;1 A
12.6325419681059;-0.200042724609375;-0.0134429931640625;0.489999998762869;50;1 A
12.6425419680806;-0.199981689453125;-0.0135589599609375;0.499999998737621;51;1 A
12.6525419680554;-0.199920654296875;-0.013458251953125;0.509999998712374;52;1 A
12.6625419680302;-0.19989013671875;-0.01346435546875;0.519999998687126;53;1 A
12.6725419680049;-0.199798583984375;-0.0133819580078125;0.529999998661879;54;1 A
12.6825419679797;-0.199920654296875;-0.01343994140625;0.539999998636631;55;1 A
12.6925419679544;-0.199920654296875;-0.0133056640625;0.549999998611383;56;1 A
12.7025419679292;-0.199859619140625;-0.013311767578125;0.559999998586136;57;1 A
12.7125419679039;-0.199920654296875;-0.01334228515625;0.569999998560888;58;1 A
12.7225419678787;-0.20001220703125;-0.0133056640625;0.579999998535641;59;1 A
12.7325419678534;-0.19989013671875;-0.0134490966796875;0.589999998510393;60;1 A
12.7425419678282;-0.199920654296875;-0.0134857177734375;0.599999998485146;61;1 A
12.7525419678029;-0.199798583984375;-0.013409423828125;0.609999998459898;62;1 A
12.7625419677777;-0.199951171875;-0.013311767578125;0.61999999843465;63;1 A
12.7725419677524;-0.199920654296875;-0.0133819580078125;0.629999998409403;64;1 A
12.7825419677272;-0.1998291015625;-0.013360595703125;0.639999998384155;65;1 A
12.7925419677019;-0.19989013671875;-0.013311767578125;0.649999998358908;66;1 A
12.8025419676767;-0.199798583984375;-0.013372802734375;0.65999999833366;67;1 A
12.8125419676514;-0.199920654296875;-0.013165283203125;0.669999998308413;68;1 A
12.8225419676262;-0.19989013671875;-0.0134613037109375;0.679999998283165;69;1 A
12.8325419676009;-0.2000732421875;-0.0134674072265625;0.689999998257917;70;1 A
12.8425419675757;-0.199920654296875;-0.013580322265625;0.69999999823267;71;1 A
12.8525419675505;-0.19989013671875;-0.0134918212890625;0.709999998207422;72;1 A
12.8625419675252;-0.199859619140625;-0.0135101318359375;0.719999998182175;73;1 A
12.8725419675;-0.199981689453125;-0.013287353515625;0.729999998156927;74;1 A
12.8825419674747;-0.199981689453125;-0.0133758544921875;0.73999999813168;75;1 A
12.8925419674495;-0.20001220703125;-0.0133331298828125;0.749999998106432;76;1 A
12.9025419674242;-0.199920654296875;-0.0132965087890625;0.759999998081184;77;1 A
12.912541967399;-0.19964599609375;-0.013311767578125;0.769999998055937;78;1 A
12.9225419673737;-0.199951171875;-0.01341552734375;0.779999998030689;79;1 A
12.9325419673485;-0.19989013671875;-0.0134033203125;0.789999998005442;80;1 A
12.9425419673232;-0.199920654296875;-0.0130035400390625;0.799999997980194;81;1 A
12.952541967298;-0.199859619140625;-0.0126129150390625;0.809999997954947;82;1 A
12.9625419672727;-0.2000732421875;-0.0132415771484375;0.819999997929699;83;1 A
12.9725419672475;-0.19989013671875;-0.0132965087890625;0.829999997904451;84;1 A
12.9825419672222;-0.19989013671875;-0.0131072998046875;0.839999997879204;85;1 A
12.992541967197;-0.19976806640625;-0.0134674072265625;0.849999997853956;86;1 A
13.0025419671717;-0.199951171875;-0.013421630859375;0.859999997828709;87;1 A
13.0125419671465;-0.199920654296875;-0.0135467529296875;0.869999997803461;88;1 A
13.0225419671212;-0.199920654296875;-0.0134613037109375;0.879999997778214;89;1 A
13.032541967096;-0.199951171875;-0.0135589599609375;0.889999997752966;90;1 A
13.0425419670707;-0.19989013671875;-0.0134429931640625;0.899999997727718;91;1 A
13.0525419670455;-0.199920654296875;-0.0134033203125;0.909999997702471;92;1 A
13.0625419670203;-0.199951171875;-0.0131439208984375;0.919999997677223;93;1 A
13.072541966995;-0.200042724609375;-0.01331787109375;0.929999997651976;94;1 A
13.0825419669698;-0.20001220703125;-0.01337890625;0.939999997626728;95;1 A
13.0925419669445;-0.199920654296875;-0.0133941650390625;0.949999997601481;96;1 A
13.1025419669193;-0.1998291015625;-0.0136138916015625;0.959999997576233;97;1 A
13.112541966894;-0.199920654296875;-0.0136138916015625;0.969999997550985;98;1 A
13.1225419668688;-0.199859619140625;-0.013726806640625;0.979999997525738;99;1 A
13.1325419668435;-0.199920654296875;-0.01368408203125;0.98999999750049;100;1 A
13.1425419668183;-0.199951171875;-0.0134307861328125;0.999999997475243;101;1 A
13.152541966793;-0.19976806640625;-0.0133758544921875;1.00999999745;102;1 A
13.1625419667678;-0.199859619140625;-0.0134002685546875;1.01999999742475;103;1 A
13.1725419667425;-0.199920654296875;-0.0134368896484375;1.0299999973995;104;1 A
13.1825419667173;-0.19989013671875;-0.01351318359375;1.03999999737425;105;1 A
13.192541966692;-0.199981689453125;-0.0134368896484375;1.049999997349;106;1 A
13.2025419666668;-0.199951171875;-0.013427734375;1.05999999732376;107;1 A
13.2125419666415;-0.199951171875;-0.013482666015625;1.06999999729851;108;1 A
13.2225419666163;-0.199920654296875;-0.0133331298828125;1.07999999727326;109;1 A
13.232541966591;-0.19976806640625;-0.0133331298828125;1.08999999724801;110;1 A
13.2425419665658;-0.1998291015625;-0.0131866455078125;1.09999999722277;111;1 A
13.2525419665405;-0.199920654296875;-0.0134979248046875;1.10999999719752;112;1 A
13.2625419665153;-0.199920654296875;-0.0132904052734375;1.11999999717227;113;1 A
13.2725419664901;-0.200042724609375;-0.0134552001953125;1.12999999714702;114;1 A
13.2825419664648;-0.199920654296875;-0.0132781982421875;1.13999999712178;115;1 A
13.2925419664396;-0.199920654296875;-0.0132598876953125;1.14999999709653;116;1 A
13.3025419664143;-0.19989013671875;-0.0131378173828125;1.15999999707128;117;1 A
13.3125419663891;-0.20001220703125;-0.01318359375;1.16999999704603;118;1 A
13.3225419663638;-0.19989013671875;-0.0132598876953125;1.17999999702079;119;1 A
13.3325419663386;-0.200042724609375;-0.0132232666015625;1.18999999699554;120;1 A
13.3425419663133;-0.199920654296875;-0.01326904296875;1.19999999697029;121;1 A
13.3525419662881;-0.199981689453125;-0.0131195068359375;1.20999999694504;122;1 A
13.3625419662628;-0.1998291015625;-0.0132537841796875;1.2199999969198;123;1 A
13.3725419662376;-0.199951171875;-0.01319580078125;1.22999999689455;124;1 A
13.3825419662123;-0.199951171875;-0.01309814453125;1.2399999968693;125;1 A
13.3925419661871;-0.199798583984375;-0.0132965087890625;1.24999999684405;126;1 A
13.4025419661618;-0.199920654296875;-0.0133026123046875;1.25999999681881;127;1 A
13.4125419661366;-0.19989013671875;-0.0133209228515625;1.26999999679356;128;1 A
13.4225419661113;-0.199920654296875;-0.0133026123046875;1.27999999676831;129;1 A
13.4325419660861;-0.199920654296875;-0.0134552001953125;1.28999999674306;130;1 A
13.4425419660608;-0.1998291015625;-0.0134857177734375;1.29999999671782;131;1 A
13.4525419660356;-0.199951171875;-0.013616943359375;1.30999999669257;132;1 A
13.4625419660103;-0.199920654296875;-0.0134368896484375;1.31999999666732;133;1 A
13.4725419659851;-0.199859619140625;-0.0134796142578125;1.32999999664207;134;1 A
13.4825419659599;-0.19989013671875;-0.0134185791015625;1.33999999661683;135;1 A
13.4925419659346;-0.199859619140625;-0.0135101318359375;1.34999999659158;136;1 A
13.5025419659094;-0.199951171875;-0.013482666015625;1.35999999656633;137;1 A
13.5125419658841;-0.2000732421875;-0.013543701171875;1.36999999654108;138;1 A
13.5225419658589;-0.199920654296875;-0.013470458984375;1.37999999651583;139;1 A
13.5325419658336;-0.2000732421875;-0.013360595703125;1.38999999649059;140;1 A
13.5425419658084;-0.199920654296875;-0.0135528564453125;1.39999999646534;141;1 A
13.5525419657831;-0.199981689453125;-0.0136383056640625;1.40999999644009;142;1 A
13.5625419657579;-0.1998291015625;-0.0135986328125;1.41999999641484;143;1 A
13.5725419657326;-0.19989013671875;-0.013494873046875;1.4299999963896;144;1 A
13.5825419657074;-0.199920654296875;-0.013482666015625;1.43999999636435;145;1 A
13.5925419656821;-0.2000732421875;-0.0134033203125;1.4499999963391;146;1 A
13.6025419656569;-0.199951171875;-0.013494873046875;1.45999999631385;147;1 A
13.6125419656316;-0.1998291015625;-0.0134185791015625;1.46999999628861;148;1 A
13.6225419656064;-0.199859619140625;-0.0134613037109375;1.47999999626336;149;1 A
13.6325419655811;-0.19989013671875;-0.01337890625;1.48999999623811;150;1 A
13.6425419655559;-0.19989013671875;-0.013348388671875;1.49999999621286;151;1 A
13.6525419655306;-0.199859619140625;-0.013409423828125;1.50999999618762;152;1 A
13.6625419655054;-0.199981689453125;-0.0134613037109375;1.51999999616237;153;1 A
13.6725419654801;-0.199951171875;-0.013482666015625;1.52999999613712;154;1 A
13.6825419654549;-0.19989013671875;-0.01343994140625;1.53999999611187;155;1 A
13.6925419654297;-0.199859619140625;-0.0135589599609375;1.54999999608663;156;1 A
13.7025419654044;-0.199920654296875;-0.013507080078125;1.55999999606138;157;1 A
13.7125419653792;-0.19989013671875;-0.0135009765625;1.56999999603613;158;1 A
13.7225419653539;-0.199920654296875;-0.0134002685546875;1.57999999601088;159;1 A
13.7325419653287;-0.199798583984375;-0.0135040283203125;1.58999999598564;160;1 A
13.7425419653034;-0.19989013671875;-0.013458251953125;1.59999999596039;161;1 A
13.7525419652782;-0.20001220703125;-0.0135528564453125;1.60999999593514;162;1 A
13.7625419652529;-0.19989013671875;-0.013531494140625;1.61999999590989;163;1 A
13.7725419652277;-0.19989013671875;-0.0135955810546875;1.62999999588465;164;1 A
13.7825419652024;-0.199951171875;-0.01358642578125;1.6399999958594;165;1 A
13.7925419651772;-0.200103759765625;-0.0135162353515625;1.64999999583415;166;1 A
13.8025419651519;-0.19989013671875;-0.0133941650390625;1.6599999958089;167;1 A
13.8125419651267;-0.1998291015625;-0.0132476806640625;1.66999999578366;168;1 A
13.8225419651014;-0.199859619140625;-0.013360595703125;1.67999999575841;169;1 A
13.8325419650762;-0.200103759765625;-0.0134002685546875;1.68999999573316;170;1 A
13.8425419650509;-0.199951171875;-0.013543701171875;1.69999999570791;171;1 A
13.8525419650257;-0.19989013671875;-0.0134033203125;1.70999999568267;172;1 A
13.8625419650004;-0.19989013671875;-0.013482666015625;1.71999999565742;173;1 A
13.8725419649752;-0.199737548828125;-0.0134857177734375;1.72999999563217;174;1 A
13.88254196495;-0.199920654296875;-0.013641357421875;1.73999999560692;175;1 A
13.8925419649247;-0.199859619140625;-0.0135406494140625;1.74999999558167;176;1 A
13.9025419648995;-0.199981689453125;-0.013494873046875;1.75999999555643;177;1 A
13.9125419648742;-0.199920654296875;-0.0135009765625;1.76999999553118;178;1 A
13.922541964849;-0.199951171875;-0.013494873046875;1.77999999550593;179;1 A
13.9325419648237;-0.199859619140625;-0.013525390625;1.78999999548068;180;1 A
13.9425419647985;-0.199859619140625;-0.0133697509765625;1.79999999545544;181;1 A
13.9525419647732;-0.1998291015625;-0.013397216796875;1.80999999543019;182;1 A
13.962541964748;-0.20001220703125;-0.01339111328125;1.81999999540494;183;1 A
13.9725419647227;-0.199920654296875;-0.01343994140625;1.82999999537969;184;1 A
13.9825419646975;-0.199859619140625;-0.0133636474609375;1.83999999535445;185;1 A
13.9925419646722;-0.20001220703125;-0.013482666015625;1.8499999953292;186;1 A
14.002541964647;-0.199920654296875;-0.013531494140625;1.85999999530395;187;1 A
14.0125419646217;-0.199951171875;-0.0135711669921875;1.8699999952787;188;1 A
14.0225419645965;-0.199951171875;-0.01357421875;1.87999999525346;189;1 A
14.0325419645712;-0.2000732421875;-0.0134765625;1.88999999522821;190;1 A
14.042541964546;-0.20001220703125;-0.0134735107421875;1.89999999520296;191;1 A
14.0525419645207;-0.199859619140625;-0.01336669921875;1.90999999517771;192;1 A
14.0625419644955;-0.1998291015625;-0.0134063720703125;1.91999999515247;193;1 A
14.0725419644702;-0.199951171875;-0.013287353515625;1.92999999512722;194;1 A
14.082541964445;-0.199981689453125;-0.013360595703125;1.93999999510197;195;1 A
14.0925419644198;-0.199951171875;-0.013336181640625;1.94999999507672;196;1 A
14.1025419643945;-0.19989013671875;-0.01343994140625;1.95999999505148;197;1 A
14.1125419643693;-0.199737548828125;-0.013397216796875;1.96999999502623;198;1 A
14.122541964344;-0.199920654296875;-0.0135040283203125;1.97999999500098;199;1 A
14.1325419643188;-0.19989013671875;-0.0135345458984375;1.98999999497573;200;1 A
14.1425419642935;-0.199859619140625;-0.0135162353515625;1.99999999495049;201;1 A
14.1525419642683;-0.20001220703125;-0.01353759765625;2.00999999492524;202;1 A
14.162541964243;-0.199951171875;-0.0134918212890625;2.01999999489999;203;1 A
14.1725419642178;-0.199920654296875;-0.0135406494140625;2.02999999487474;204;1 A
14.1825419641925;-0.199859619140625;-0.013525390625;2.0399999948495;205;1 A
14.1925419641673;-0.199798583984375;-0.01357421875;2.04999999482425;206;1 A
14.202541964142;-0.199981689453125;-0.01348876953125;2.059999994799;207;1 A
14.2125419641168;-0.20001220703125;-0.0134765625;2.06999999477375;208;1 A
14.2225419640915;-0.199920654296875;-0.013311767578125;2.0799999947485;209;1 A
14.2325419640663;-0.199951171875;-0.013372802734375;2.08999999472326;210;1 A
14.242541964041;-0.19989013671875;-0.0134368896484375;2.09999999469801;211;1 A
14.2525419640158;-0.199920654296875;-0.0135101318359375;2.10999999467276;212;1 A
14.2625419639905;-0.19989013671875;-0.013482666015625;2.11999999464751;213;1 A
14.2725419639653;-0.200042724609375;-0.013433837890625;2.12999999462227;214;1 A
14.28254196394;-0.199951171875;-0.0135040283203125;2.13999999459702;215;1 A
14.2925419639148;-0.199951171875;-0.013525390625;2.14999999457177;216;1 A
14.3025419638896;-0.199859619140625;-0.0135589599609375;2.15999999454652;217;1 A
14.3125419638643;-0.199951171875;-0.013525390625;2.16999999452128;218;1 A
14.3225419638391;-0.1998291015625;-0.0136749267578125;2.17999999449603;219;1 A
14.3325419638138;-0.200042724609375;-0.0135986328125;2.18999999447078;220;1 A
14.3425419637886;-0.199951171875;-0.013629150390625;2.19999999444553;221;1 A
14.3525419637633;-0.19989013671875;-0.01351318359375;2.20999999442029;222;1 A
14.3625419637381;-0.199920654296875;-0.0134735107421875;2.21999999439504;223;1 A
14.3725419637128;-0.19989013671875;-0.0133087158203125;2.22999999436979;224;1 A
14.3825419636876;-0.199951171875;-0.0134002685546875;2.23999999434454;225;1 A
14.3925419636623;-0.200042724609375;-0.013287353515625;2.2499999943193;226;1 A
14.4025419636371;-0.19989013671875;-0.01322021484375;2.25999999429405;227;1 A
14.4125419636118;-0.199981689453125;-0.013433837890625;2.2699999942688;228;1 A
14.4225419635866;-0.199920654296875;-0.013372802734375;2.27999999424355;229;1 A
14.4325419635613;-0.199737548828125;-0.0135467529296875;2.28999999421831;230;1 A
14.4425419635361;-0.1998291015625;-0.0134918212890625;2.29999999419306;231;1 A
14.4525419635108;-0.199920654296875;-0.013616943359375;2.30999999416781;232;1 A
14.4625419634856;-0.199981689453125;-0.013623046875;2.31999999414256;233;1 A
14.4725419634603;-0.2000732421875;-0.01370849609375;2.32999999411732;234;1 A
14.4825419634351;-0.199859619140625;-0.0136322021484375;2.33999999409207;235;1 A
14.4925419634098;-0.19989013671875;-0.0136016845703125;2.34999999406682;236;1 A
14.5025419633846;-0.199920654296875;-0.013482666015625;2.35999999404157;237;1 A
14.5125419633594;-0.200042724609375;-0.013427734375;2.36999999401633;238;1 A
14.5225419633341;-0.199859619140625;-0.0134368896484375;2.37999999399108;239;1 A
14.5325419633089;-0.199951171875;-0.0134765625;2.38999999396583;240;1 A
14.5425419632836;-0.199951171875;-0.0135498046875;2.39999999394058;241;1 A
14.5525419632584;-0.20001220703125;-0.013580322265625;2.40999999391533;242;1 A
14.5625419632331;-0.199859619140625;-0.0135833740234375;2.41999999389009;243;1 A
14.5725419632079;-0.199859619140625;-0.01341552734375;2.42999999386484;244;1 A
14.5825419631826;-0.199981689453125;-0.0134918212890625;2.43999999383959;245;1 A
14.5925419631574;-0.1998291015625;-0.0133392333984375;2.44999999381434;246;1 A
14.6025419631321;-0.199920654296875;-0.0132568359375;2.4599999937891;247;1 A
14.6125419631069;-0.199920654296875;-0.0131683349609375;2.46999999376385;248;1 A
14.6225419630816;-0.199951171875;-0.013275146484375;2.4799999937386;249;1 A
14.6325419630564;-0.200042724609375;-0.013323974609375;2.48999999371335;250;1 A
14.6425419630311;-0.199920654296875;-0.0132781982421875;2.49999999368811;251;1 A
14.6525419630059;-0.199920654296875;-0.01331787109375;2.50999999366286;252;1 A
14.6625419629806;-0.20001220703125;-0.013201904296875;2.51999999363761;253;1 A
14.6725419629554;-0.199859619140625;-0.0132415771484375;2.52999999361236;254;1 A
14.6825419629301;-0.199859619140625;-0.013153076171875;2.53999999358712;255;1 A
14.6925419629049;-0.19989013671875;-0.0132293701171875;2.54999999356187;256;1 A
14.7025419628796;-0.199920654296875;-0.0131622314453125;2.55999999353662;257;1 A
14.7125419628544;-0.20001220703125;-0.013232421875;2.56999999351137;258;1 A
14.7225419628292;-0.199951171875;-0.0132843017578125;2.57999999348613;259;1 A
14.7325419628039;-0.199951171875;-0.0133544921875;2.58999999346088;260;1 A
14.7425419627787;-0.199920654296875;-0.0133880615234375;2.59999999343563;261;1 A
14.7525419627534;-0.20001220703125;-0.0134002685546875;2.60999999341038;262;1 A
14.7625419627282;-0.199859619140625;-0.0134490966796875;2.61999999338514;263;1 A
14.7725419627029;-0.199859619140625;-0.0133880615234375;2.62999999335989;264;1 A
14.7825419626777;-0.199951171875;-0.0133941650390625;2.63999999333464;265;1 A
14.7925419626524;-0.200103759765625;-0.01336669921875;2.64999999330939;266;1 A
14.8025419626272;-0.199951171875;-0.0135406494140625;2.65999999328415;267;1 A
14.8125419626019;-0.199859619140625;-0.0135040283203125;2.6699999932589;268;1 A
14.8225419625767;-0.199920654296875;-0.0134735107421875;2.67999999323365;269;1 A
14.8325419625514;-0.1998291015625;-0.0133941650390625;2.6899999932084;270;1 A
14.8425419625262;-0.199920654296875;-0.013385009765625;2.69999999318316;271;1 A
14.8525419625009;-0.199951171875;-0.0132843017578125;2.70999999315791;272;1 A
14.8625419624757;-0.19989013671875;-0.0132720947265625;2.71999999313266;273;1 A
14.8725419624504;-0.200103759765625;-0.0133453369140625;2.72999999310741;274;1 A
14.8825419624252;-0.199920654296875;-0.0134307861328125;2.73999999308217;275;1 A
14.8925419623999;-0.1998291015625;-0.013458251953125;2.74999999305692;276;1 A
14.9025419623747;-0.199951171875;-0.0133819580078125;2.75999999303167;277;1 A
14.9125419623495;-0.19989013671875;-0.0134368896484375;2.76999999300642;278;1 A
14.9225419623242;-0.199951171875;-0.0134307861328125;2.77999999298117;279;1 A
14.932541962299;-0.19989013671875;-0.0135406494140625;2.78999999295593;280;1 A
14.9425419622737;-0.19989013671875;-0.0134521484375;2.79999999293068;281;1 A
14.9525419622485;-0.200042724609375;-0.0135223388671875;2.80999999290543;282;1 A
14.9625419622232;-0.199951171875;-0.013458251953125;2.81999999288018;283;1 A
14.972541962198;-0.199920654296875;-0.0134002685546875;2.82999999285494;284;1 A
14.9825419621727;-0.199951171875;-0.0134246826171875;2.83999999282969;285;1 A
14.9925419621475;-0.20001220703125;-0.0134765625;2.84999999280444;286;1 A
15.0025419621222;-0.19989013671875;-0.0134979248046875;2.85999999277919;287;1 A
15.012541962097;-0.1998291015625;-0.0133544921875;2.86999999275395;288;1 A
15.0225419620717;-0.19989013671875;-0.013446044921875;2.8799999927287;289;1 A
15.0325419620465;-0.2000732421875;-0.01329345703125;2.88999999270345;290;1 A
15.0425419620212;-0.199951171875;-0.01339111328125;2.8999999926782;291;1 A
15.052541961996;-0.19989013671875;-0.01329345703125;2.90999999265296;292;1 A
15.0625419619707;-0.19989013671875;-0.01336669921875;2.91999999262771;293;1 A
15.0725419619455;-0.19976806640625;-0.0133514404296875;2.92999999260246;294;1 A
15.0825419619202;-0.199920654296875;-0.0133880615234375;2.93999999257721;295;1 A
15.092541961895;-0.199920654296875;-0.013409423828125;2.94999999255197;296;1 A
15.1025419618697;-0.199951171875;-0.0134033203125;2.95999999252672;297;1 A
15.1125419618445;-0.2001953125;-0.013372802734375;2.96999999250147;298;1 A
15.1225419618193;-0.199981689453125;-0.01337890625;2.97999999247622;299;1 A
15.132541961794;-0.199859619140625;-0.0134521484375;2.98999999245098;300;1 A
15.1425419617688;-0.199859619140625;-0.0133758544921875;2.99999999242573;301;1 A
15.1525419617435;-0.199859619140625;-0.0134307861328125;3.00999999240048;302;1 A
15.1625419617183;-0.20001220703125;-0.013372802734375;3.01999999237523;303;1 A
15.172541961693;-0.199951171875;-0.0134765625;3.02999999234999;304;1 A
15.1825419616678;-0.19989013671875;-0.0134765625;3.03999999232474;305;1 A
15.1925419616425;-0.199951171875;-0.013543701171875;3.04999999229949;306;1 A
15.2025419616173;-0.19989013671875;-0.0135345458984375;3.05999999227424;307;1 A
15.212541961592;-0.20001220703125;-0.013580322265625;3.069999992249;308;1 A
15.2225419615668;-0.19989013671875;-0.013629150390625;3.07999999222375;309;1 A
15.2325419615415;-0.20001220703125;-0.0136871337890625;3.0899999921985;310;1 A
15.2425419615163;-0.199951171875;-0.0136322021484375;3.09999999217325;311;1 A
15.252541961491;-0.1998291015625;-0.0135101318359375;3.109999992148;312;1 A
15.2625419614658;-0.19989013671875;-0.013525390625;3.11999999212276;313;1 A
15.2725419614405;-0.199920654296875;-0.013311767578125;3.12999999209751;314;1 A
15.2825419614153;-0.199951171875;-0.013275146484375;3.13999999207226;315;1 A
15.29254196139;-0.200042724609375;-0.0132965087890625;3.14999999204701;316;1 A
15.3025419613648;-0.19989013671875;-0.0133941650390625;3.15999999202177;317;1 A
15.3125419613395;-0.19976806640625;-0.0134002685546875;3.16999999199652;318;1 A
15.3225419613143;-0.19989013671875;-0.0134063720703125;3.17999999197127;319;1 A
15.3325419612891;-0.199920654296875;-0.0134735107421875;3.18999999194602;320;1 A
15.3425419612638;-0.1998291015625;-0.0134918212890625;3.19999999192078;321;1 A
15.3525419612386;-0.200164794921875;-0.0134185791015625;3.20999999189553;322;1 A
15.3625419612133;-0.199981689453125;-0.01337890625;3.21999999187028;323;1 A
15.3725419611881;-0.20001220703125;-0.01343994140625;3.22999999184503;324;1 A
15.3825419611628;-0.1998291015625;-0.0135101318359375;3.23999999181979;325;1 A
15.3925419611376;-0.199798583984375;-0.01361083984375;3.24999999179454;326;1 A
15.4025419611123;-0.19989013671875;-0.013531494140625;3.25999999176929;327;1 A
15.4125419610871;-0.20001220703125;-0.0135528564453125;3.26999999174404;328;1 A
15.4225419610618;-0.199951171875;-0.0135833740234375;3.2799999917188;329;1 A
15.4325419610366;-0.199920654296875;-0.01373291015625;3.28999999169355;330;1 A
15.4425419610113;-0.199920654296875;-0.0136566162109375;3.2999999916683;331;1 A
15.4525419609861;-0.199951171875;-0.0137054443359375;3.30999999164305;332;1 A
15.4625419609608;-0.199981689453125;-0.0136474609375;3.31999999161781;333;1 A
15.4725419609356;-0.199859619140625;-0.0135467529296875;3.32999999159256;334;1 A
15.4825419609103;-0.199951171875;-0.01353759765625;3.33999999156731;335;1 A
15.4925419608851;-0.199951171875;-0.0134735107421875;3.34999999154206;336;1 A
15.5025419608598;-0.19989013671875;-0.0134857177734375;3.35999999151682;337;1 A
15.5125419608346;-0.199951171875;-0.013336181640625;3.36999999149157;338;1 A
15.5225419608093;-0.199859619140625;-0.01341552734375;3.37999999146632;339;1 A
15.5325419607841;-0.199981689453125;-0.013348388671875;3.38999999144107;340;1 A
15.5425419607589;-0.199981689453125;-0.013427734375;3.39999999141583;341;1 A
15.5525419607336;-0.1998291015625;-0.013336181640625;3.40999999139058;342;1 A
15.5625419607084;-0.19989013671875;-0.0133331298828125;3.41999999136533;343;1 A
15.5725419606831;-0.19989013671875;-0.0132720947265625;3.42999999134008;344;1 A
15.5825419606579;-0.19989013671875;-0.013330078125;3.43999999131483;345;1 A
15.5925419606326;-0.200103759765625;-0.0132965087890625;3.44999999128959;346;1 A
15.6025419606074;-0.19989013671875;-0.013232421875;3.45999999126434;347;1 A
15.6125419605821;-0.199981689453125;-0.013275146484375;3.46999999123909;348;1 A
15.6225419605569;-0.199981689453125;-0.013214111328125;3.47999999121384;349;1 A
15.6325419605316;-0.199798583984375;-0.0133636474609375;3.4899999911886;350;1 A
15.6425419605064;-0.199859619140625;-0.0133819580078125;3.49999999116335;351;1 A
15.6525419604811;-0.19989013671875;-0.0134552001953125;3.5099999911381;352;1 A
15.6625419604559;-0.199951171875;-0.0133331298828125;3.51999999111285;353;1 A
15.6725419604306;-0.199981689453125;-0.0126251220703125;3.52999999108761;354;1 A
15.6825419604054;-0.199859619140625;-0.0132110595703125;3.53999999106236;355;1 A
15.6925419603801;-0.19989013671875;-0.013372802734375;3.54999999103711;356;1 A
15.7025419603549;-0.19989013671875;-0.013385009765625;3.55999999101186;357;1 A
15.7125419603296;-0.20001220703125;-0.0133087158203125;3.56999999098662;358;1 A
15.7225419603044;-0.19989013671875;-0.01324462890625;3.57999999096137;359;1 A
15.7325419602791;-0.199920654296875;-0.0132843017578125;3.58999999093612;360;1 A
15.7425419602539;-0.199981689453125;-0.0129638671875;3.59999999091087;361;1 A
15.7525419602287;-0.200042724609375;-0.0131134033203125;3.60999999088563;362;1 A
15.7625419602034;-0.19989013671875;-0.0130584716796875;3.61999999086038;363;1 A
15.7725419601782;-0.1998291015625;-0.0128875732421875;3.62999999083513;364;1 A
15.7825419601529;-0.199920654296875;-0.0131103515625;3.63999999080988;365;1 A
15.7925419601277;-0.19989013671875;-0.012615966796875;3.64999999078464;366;1 A
15.8025419601024;-0.199859619140625;-0.013189697265625;3.65999999075939;367;1 A
15.8125419600772;-0.19989013671875;-0.01328125;3.66999999073414;368;1 A
15.8225419600519;-0.199920654296875;-0.0133575439453125;3.67999999070889;369;1 A
15.8325419600267;-0.200286865234375;-0.01339111328125;3.68999999068365;370;1 A
15.8425419600014;-0.199859619140625;-0.01334228515625;3.6999999906584;371;1 A
15.8525419599762;-0.199920654296875;-0.01351318359375;3.70999999063315;372;1 A
15.8625419599509;-0.20001220703125;-0.013470458984375;3.7199999906079;373;1 A
15.8725419599257;-0.199859619140625;-0.0136260986328125;3.72999999058266;374;1 A
15.8825419599004;-0.199920654296875;-0.01356201171875;3.73999999055741;375;1 A
15.8925419598752;-0.19989013671875;-0.013653564453125;3.74999999053216;376;1 A
15.9025419598499;-0.199920654296875;-0.013568115234375;3.75999999050691;377;1 A
15.9125419598247;-0.199981689453125;-0.013543701171875;3.76999999048167;378;1 A
15.9225419597994;-0.199981689453125;-0.0134490966796875;3.77999999045642;379;1 A
15.9325419597742;-0.199920654296875;-0.0134002685546875;3.78999999043117;380;1 A
15.942541959749;-0.199920654296875;-0.0133026123046875;3.79999999040592;381;1 A
15.9525419597237;-0.199859619140625;-0.0132781982421875;3.80999999038067;382;1 A
15.9625419596985;-0.199859619140625;-0.01326904296875;3.81999999035543;383;1 A
15.9725419596732;-0.1998291015625;-0.013177490234375;3.82999999033018;384;1 A
15.982541959648;-0.199951171875;-0.013275146484375;3.83999999030493;385;1 A
15.9925419596227;-0.20001220703125;-0.0133453369140625;3.84999999027968;386;1 A
16.0025419595975;-0.199951171875;-0.01357421875;3.85999999025444;387;1 A
16.0125419595722;-0.1998291015625;-0.013531494140625;3.86999999022919;388;1 A
16.022541959547;-0.199920654296875;-0.0135833740234375;3.87999999020394;389;1 A
16.0325419595217;-0.1998291015625;-0.0135223388671875;3.88999999017869;390;1 A
16.0425419594965;-0.199859619140625;-0.01346435546875;3.89999999015345;391;1 A
16.0525419594712;-0.199920654296875;-0.0134002685546875;3.9099999901282;392;1 A
16.062541959446;-0.19989013671875;-0.0134124755859375;3.91999999010295;393;1 A
16.0725419594207;-0.200286865234375;-0.0134033203125;3.9299999900777;394;1 A
16.0825419593955;-0.199981689453125;-0.0134552001953125;3.93999999005246;395;1 A
16.0925419593702;-0.1998291015625;-0.0134368896484375;3.94999999002721;396;1 A
16.102541959345;-0.199951171875;-0.013336181640625;3.95999999000196;397;1 A
16.1125419593197;-0.1998291015625;-0.0134552001953125;3.96999998997671;398;1 A
16.1225419592945;-0.199951171875;-0.0133209228515625;3.97999998995147;399;1 A
16.1325419592692;-0.19989013671875;-0.0134796142578125;3.98999998992622;400;1 A
16.142541959244;-0.19989013671875;-0.013446044921875;3.99999998990097;401;1 A
16.1525419592188;-0.19989013671875;-0.0136260986328125;4.00999998987572;402;1 A
16.1625419591935;-0.199920654296875;-0.0135406494140625;4.01999998985048;403;1 A
16.1725419591683;-0.19989013671875;-0.01358642578125;4.02999998982523;404;1 A
16.182541959143;-0.199920654296875;-0.0135467529296875;4.03999998979998;405;1 A
16.1925419591178;-0.20001220703125;-0.013525390625;4.04999998977473;406;1 A
16.2025419590925;-0.199951171875;-0.013543701171875;4.05999998974949;407;1 A
16.2125419590673;-0.199859619140625;-0.0134368896484375;4.06999998972424;408;1 A
16.222541959042;-0.199798583984375;-0.0134796142578125;4.07999998969899;409;1 A
16.2325419590168;-0.199981689453125;-0.0133758544921875;4.08999998967374;410;1 A
16.2425419589915;-0.199920654296875;-0.0134552001953125;4.0999999896485;411;1 A
16.2525419589663;-0.199920654296875;-0.013409423828125;4.10999998962325;412;1 A
16.262541958941;-0.19989013671875;-0.0135040283203125;4.119999989598;413;1 A
16.2725419589158;-0.19976806640625;-0.0135223388671875;4.12999998957275;414;1 A
16.2825419588905;-0.19989013671875;-0.01353759765625;4.1399999895475;415;1 A
16.2925419588653;-0.199920654296875;-0.0134674072265625;4.14999998952226;416;1 A
16.30254195884;-0.19989013671875;-0.0134490966796875;4.15999998949701;417;1 A
16.3125419588148;-0.20025634765625;-0.0134063720703125;4.16999998947176;418;1 A
16.3225419587895;-0.199981689453125;-0.01336669921875;4.17999998944651;419;1 A
16.3325419587643;-0.199920654296875;-0.0133331298828125;4.18999998942127;420;1 A
16.342541958739;-0.19989013671875;-0.0132568359375;4.19999998939602;421;1 A
16.3525419587138;-0.19976806640625;-0.013275146484375;4.20999998937077;422;1 A
16.3625419586886;-0.199951171875;-0.0132659912109375;4.21999998934552;423;1 A
16.3725419586633;-0.199951171875;-0.013336181640625;4.22999998932028;424;1 A
16.3825419586381;-0.199920654296875;-0.0133148193359375;4.23999998929503;425;1 A
16.3925419586128;-0.199951171875;-0.0135009765625;4.24999998926978;426;1 A
16.4025419585876;-0.19989013671875;-0.0135009765625;4.25999998924453;427;1 A
16.4125419585623;-0.19989013671875;-0.0135009765625;4.26999998921929;428;1 A
16.4225419585371;-0.199920654296875;-0.0135711669921875;4.27999998919404;429;1 A
16.4325419585118;-0.19989013671875;-0.0136383056640625;4.28999998916879;430;1 A
16.4425419584866;-0.199951171875;-0.013690185546875;4.29999998914354;431;1 A
16.4525419584613;-0.20001220703125;-0.013580322265625;4.3099999891183;432;1 A
16.4625419584361;-0.199859619140625;-0.0136016845703125;4.31999998909305;433;1 A
16.4725419584108;-0.199920654296875;-0.0135467529296875;4.3299999890678;434;1 A
16.4825419583856;-0.199859619140625;-0.013623046875;4.33999998904255;435;1 A
16.4925419583603;-0.199951171875;-0.0135711669921875;4.34999998901731;436;1 A
16.5025419583351;-0.199951171875;-0.01370849609375;4.35999998899206;437;1 A
16.5125419583098;-0.1998291015625;-0.013623046875;4.36999998896681;438;1 A
16.5225419582846;-0.19989013671875;-0.0135498046875;4.37999998894156;439;1 A
16.5325419582593;-0.199920654296875;-0.013458251953125;4.38999998891632;440;1 A
16.5425419582341;-0.19989013671875;-0.0135406494140625;4.39999998889107;441;1 A
16.5525419582088;-0.200286865234375;-0.01361083984375;4.40999998886582;442;1 A
16.5625419581836;-0.199951171875;-0.0135955810546875;4.41999998884057;443;1 A
16.5725419581584;-0.20001220703125;-0.013739013671875;4.42999998881533;444;1 A
16.5825419581331;-0.199920654296875;-0.0135711669921875;4.43999998879008;445;1 A
16.5925419581079;-0.19976806640625;-0.0135986328125;4.44999998876483;446;1 A
16.6025419580826;-0.19989013671875;-0.0135589599609375;4.45999998873958;447;1 A
16.6125419580574;-0.199951171875;-0.0137359619140625;4.46999998871433;448;1 A
16.6225419580321;-0.20001220703125;-0.013623046875;4.47999998868909;449;1 A
16.6325419580069;-0.199920654296875;-0.013580322265625;4.48999998866384;450;1 A
16.6425419579816;-0.199920654296875;-0.0134185791015625;4.49999998863859;451;1 A
16.6525419579564;-0.199920654296875;-0.0134552001953125;4.50999998861334;452;1 A
16.6625419579311;-0.199920654296875;-0.0134490966796875;4.5199999885881;453;1 A
16.6725419579059;-0.199951171875;-0.0133544921875;4.52999998856285;454;1 A
16.6825419578806;-0.199951171875;-0.0133880615234375;4.5399999885376;455;1 A
16.6925419578554;-0.20001220703125;-0.0132843017578125;4.54999998851235;456;1 A
16.7025419578301;-0.19989013671875;-0.013421630859375;4.55999998848711;457;1 A
16.7125419578049;-0.199920654296875;-0.0133209228515625;4.56999998846186;458;1 A
16.7225419577796;-0.19989013671875;-0.0134613037109375;4.57999998843661;459;1 A
16.7325419577544;-0.199981689453125;-0.0133056640625;4.58999998841136;460;1 A
16.7425419577291;-0.199920654296875;-0.0133087158203125;4.59999998838612;461;1 A
16.7525419577039;-0.1998291015625;-0.0132080078125;4.60999998836087;462;1 A
16.7625419576786;-0.199920654296875;-0.0132720947265625;4.61999998833562;463;1 A
16.7725419576534;-0.19989013671875;-0.013299560546875;4.62999998831037;464;1 A
16.7825419576282;-0.1998291015625;-0.0132781982421875;4.63999998828513;465;1 A
16.7925419576029;-0.2000732421875;-0.0132904052734375;4.64999998825988;466;1 A
16.8025419575777;-0.199981689453125;-0.013226318359375;4.65999998823463;467;1 A
16.8125419575524;-0.199951171875;-0.0132537841796875;4.66999998820938;468;1 A
16.8225419575272;-0.199798583984375;-0.0131378173828125;4.67999998818414;469;1 A
16.8325419575019;-0.199737548828125;-0.0133392333984375;4.68999998815889;470;1 A
16.8425419574767;-0.199920654296875;-0.013079833984375;4.69999998813364;471;1 A
16.8525419574514;-0.199951171875;-0.013189697265625;4.70999998810839;472;1 A
16.8625419574262;-0.19989013671875;-0.013201904296875;4.71999998808315;473;1 A
16.8725419574009;-0.19989013671875;-0.0132171630859375;4.7299999880579;474;1 A
16.8825419573757;-0.199920654296875;-0.0132415771484375;4.73999998803265;475;1 A
16.8925419573504;-0.199859619140625;-0.013232421875;4.7499999880074;476;1 A
16.9025419573252;-0.199951171875;-0.0131927490234375;4.75999998798216;477;1 A
16.9125419572999;-0.199798583984375;-0.01295166015625;4.76999998795691;478;1 A
16.9225419572747;-0.199981689453125;-0.0130279541015625;4.77999998793166;479;1 A
16.9325419572494;-0.199951171875;-0.013287353515625;4.78999998790641;480;1 A
16.9425419572242;-0.199920654296875;-0.0133331298828125;4.79999998788116;481;1 A
16.9525419571989;-0.19989013671875;-0.013134765625;4.80999998785592;482;1 A
16.9625419571737;-0.199951171875;-0.0131744384765625;4.81999998783067;483;1 A
16.9725419571485;-0.199981689453125;-0.013116455078125;4.82999998780542;484;1 A
16.9825419571232;-0.19989013671875;-0.0132354736328125;4.83999998778017;485;1 A
16.992541957098;-0.199951171875;-0.0131866455078125;4.84999998775493;486;1 A
17.0025419570727;-0.199920654296875;-0.0132171630859375;4.85999998772968;487;1 A
17.0125419570475;-0.199859619140625;-0.01328125;4.86999998770443;488;1 A
17.0225419570222;-0.1998291015625;-0.0133575439453125;4.87999998767918;489;1 A
17.032541956997;-0.20001220703125;-0.013433837890625;4.88999998765394;490;1 A
17.0425419569717;-0.199920654296875;-0.01341552734375;4.89999998762869;491;1 A
17.0525419569465;-0.1998291015625;-0.0135162353515625;4.90999998760344;492;1 A
17.0625419569212;-0.199798583984375;-0.0134918212890625;4.91999998757819;493;1 A
17.072541956896;-0.199859619140625;-0.0135009765625;4.92999998755295;494;1 A
17.0825419568707;-0.199981689453125;-0.013494873046875;4.9399999875277;495;1 A
17.0925419568455;-0.19989013671875;-0.0135528564453125;4.94999998750245;496;1 A
17.1025419568202;-0.199798583984375;-0.0134552001953125;4.9599999874772;497;1 A
17.112541956795;-0.199798583984375;-0.0134857177734375;4.96999998745196;498;1 A
17.1225419567697;-0.199920654296875;-0.0133636474609375;4.97999998742671;499;1 A
17.1325419567445;-0.19989013671875;-0.0133148193359375;4.98999998740146;500;1 A
