Time (s);WE(1).Potential (V);WE(1).Current (A);Corrected time (s);Index;Current range
59.7535498491368;0.70074462890625;1.10198974609375;0;1;1 A
59.7635498491115;0.699920654296875;0.80657958984375;0.00999999997475243;2;1 A
59.7735498490863;0.699676513671875;0.6866455078125;0.0199999999495049;3;1 A
59.783549849061;0.699737548828125;0.60455322265625;0.0299999999242573;4;1 A
59.7935498490358;0.69989013671875;0.5712890625;0.0399999998990097;5;1 A
59.8035498490106;0.700042724609375;0.52093505859375;0.0499999998737621;6;1 A
59.8135498489853;0.69970703125;0.50506591796875;0.0599999998485146;7;1 A
59.8235498489601;0.699462890625;0.480804443359375;0.069999999823267;8;1 A
59.8335498489348;0.699493408203125;0.47454833984375;0.0799999997980194;9;1 A
59.8435498489096;0.699676513671875;0.46490478515625;0.0899999997727718;10;1 A
59.8535498488843;0.699554443359375;0.459991455078125;0.0999999997475243;11;1 A
59.8635498488591;0.699920654296875;0.456451416015625;0.109999999722277;12;1 A
59.8735498488338;0.699462890625;0.4415283203125;0.119999999697029;13;1 A
59.8835498488086;0.699737548828125;0.443084716796875;0.129999999671782;14;1 A
59.8935498487833;0.699859619140625;0.4332275390625;0.139999999646534;15;1 A
59.9035498487581;0.6995849609375;0.43695068359375;0.149999999621286;16;1 A
59.9135498487328;0.6995849609375;0.423980712890625;0.159999999596039;17;1 A
59.9235498487076;0.69964599609375;0.431396484375;0.169999999570791;18;1 A
59.9335498486823;0.69964599609375;0.427520751953125;0.179999999545544;19;1 A
59.9435498486571;0.6995849609375;0.43536376953125;0.189999999520296;20;1 A
59.9535498486318;0.699371337890625;0.430419921875;0.199999999495049;21;1 A
59.9635498486066;0.699615478515625;0.4254150390625;0.209999999469801;22;1 A
59.9735498485813;0.699676513671875;0.430694580078125;0.219999999444553;23;1 A
59.9835498485561;0.699615478515625;0.429595947265625;0.229999999419306;24;1 A
59.9935498485308;0.69952392578125;0.437652587890625;0.239999999394058;25;1 A
60.0035498485056;0.699554443359375;0.4334716796875;0.249999999368811;26;1 A
60.0135498484804;0.69952392578125;0.43280029296875;0.259999999343563;27;1 A
60.0235498484551;0.69970703125;0.43157958984375;0.269999999318316;28;1 A
60.0335498484299;0.699920654296875;0.432830810546875;0.279999999293068;29;1 A
60.0435498484046;0.699951171875;0.428802490234375;0.28999999926782;30;1 A
60.0535498483794;0.699798583984375;0.43310546875;0.299999999242573;31;1 A
60.0635498483541;0.699432373046875;0.428558349609375;0.309999999217325;32;1 A
60.0735498483289;0.699615478515625;0.4278564453125;0.319999999192078;33;1 A
60.0835498483036;0.699737548828125;0.421783447265625;0.32999999916683;34;1 A
60.0935498482784;0.6995849609375;0.425750732421875;0.339999999141583;35;1 A
60.1035498482531;0.699798583984375;0.427001953125;0.349999999116335;36;1 A
60.1135498482279;0.69940185546875;0.43023681640625;0.359999999091087;37;1 A
60.1235498482026;0.699798583984375;0.423980712890625;0.36999999906584;38;1 A
60.1335498481774;0.69976806640625;0.417694091796875;0.379999999040592;39;1 A
60.1435498481521;0.699493408203125;0.418853759765625;0.389999999015345;40;1 A
60.1535498481269;0.699615478515625;0.41168212890625;0.399999998990097;41;1 A
60.1635498481016;0.69976806640625;0.41729736328125;0.40999999896485;42;1 A
60.1735498480764;0.69964599609375;0.41693115234375;0.419999998939602;43;1 A
60.1835498480511;0.69964599609375;0.4224853515625;0.429999998914354;44;1 A
60.1935498480259;0.6993408203125;0.42193603515625;0.439999998889107;45;1 A
60.2035498480006;0.6995849609375;0.427215576171875;0.449999998863859;46;1 A
60.2135498479754;0.69964599609375;0.428375244140625;0.459999998838612;47;1 A
60.2235498479502;0.699554443359375;0.428802490234375;0.469999998813364;48;1 A
60.2335498479249;0.699554443359375;0.4246826171875;0.479999998788116;49;1 A
60.2435498478997;0.69952392578125;0.4241943359375;0.489999998762869;50;1 A
60.2535498478744;0.6995849609375;0.424102783203125;0.499999998737621;51;1 A
60.2635498478492;0.69970703125;0.4234619140625;0.509999998712374;52;1 A
60.2735498478239;0.69976806640625;0.421844482421875;0.519999998687126;53;1 A
60.2835498477987;0.699798583984375;0.4193115234375;0.529999998661879;54;1 A
60.2935498477734;0.699554443359375;0.423095703125;0.539999998636631;55;1 A
60.3035498477482;0.69927978515625;0.4219970703125;0.549999998611383;56;1 A
60.3135498477229;0.699676513671875;0.422332763671875;0.559999998586136;57;1 A
60.3235498476977;0.699798583984375;0.42022705078125;0.569999998560888;58;1 A
60.3335498476724;0.69952392578125;0.421417236328125;0.579999998535641;59;1 A
60.3435498476472;0.699798583984375;0.41778564453125;0.589999998510393;60;1 A
60.3535498476219;0.699615478515625;0.417755126953125;0.599999998485146;61;1 A
60.3635498475967;0.699676513671875;0.42120361328125;0.609999998459898;62;1 A
60.3735498475714;0.699676513671875;0.4169921875;0.61999999843465;63;1 A
60.3835498475462;0.699615478515625;0.42633056640625;0.629999998409403;64;1 A
60.3935498475209;0.699676513671875;0.422027587890625;0.639999998384155;65;1 A
60.4035498474957;0.69964599609375;0.424407958984375;0.649999998358908;66;1 A
60.4135498474704;0.699615478515625;0.4168701171875;0.65999999833366;67;1 A
60.4235498474452;0.699432373046875;0.41766357421875;0.669999998308413;68;1 A
60.43354984742;0.699554443359375;0.41534423828125;0.679999998283165;69;1 A
60.4435498473947;0.69970703125;0.4127197265625;0.689999998257917;70;1 A
60.4535498473695;0.69964599609375;0.41461181640625;0.69999999823267;71;1 A
60.4635498473442;0.699676513671875;0.40985107421875;0.709999998207422;72;1 A
60.473549847319;0.6995849609375;0.412933349609375;0.719999998182175;73;1 A
60.4835498472937;0.699462890625;0.41204833984375;0.729999998156927;74;1 A
60.4935498472685;0.699615478515625;0.42022705078125;0.73999999813168;75;1 A
60.5035498472432;0.69970703125;0.417755126953125;0.749999998106432;76;1 A
60.513549847218;0.699676513671875;0.41845703125;0.759999998081184;77;1 A
60.5235498471927;0.699920654296875;0.419464111328125;0.769999998055937;78;1 A
60.5335498471675;0.699615478515625;0.420196533203125;0.779999998030689;79;1 A
60.5435498471422;0.6993408203125;0.4208984375;0.789999998005442;80;1 A
60.553549847117;0.699676513671875;0.41912841796875;0.799999997980194;81;1 A
60.5635498470917;0.69989013671875;0.420013427734375;0.809999997954947;82;1 A
60.5735498470665;0.699554443359375;0.4237060546875;0.819999997929699;83;1 A
60.5835498470412;0.69976806640625;0.422454833984375;0.829999997904451;84;1 A
60.593549847016;0.69964599609375;0.4215087890625;0.839999997879204;85;1 A
60.6035498469907;0.69976806640625;0.4163818359375;0.849999997853956;86;1 A
60.6135498469655;0.699676513671875;0.4163818359375;0.859999997828709;87;1 A
60.6235498469403;0.69964599609375;0.41748046875;0.869999997803461;88;1 A
60.633549846915;0.69976806640625;0.418304443359375;0.879999997778214;89;1 A
60.6435498468898;0.699615478515625;0.42236328125;0.889999997752966;90;1 A
60.6535498468645;0.6995849609375;0.421356201171875;0.899999997727718;91;1 A
60.6635498468393;0.699493408203125;0.42523193359375;0.909999997702471;92;1 A
60.673549846814;0.69964599609375;0.42584228515625;0.919999997677223;93;1 A
60.6835498467888;0.6995849609375;0.429046630859375;0.929999997651976;94;1 A
60.6935498467635;0.699676513671875;0.427642822265625;0.939999997626728;95;1 A
60.7035498467383;0.69964599609375;0.42474365234375;0.949999997601481;96;1 A
60.713549846713;0.699554443359375;0.424560546875;0.959999997576233;97;1 A
60.7235498466878;0.69940185546875;0.42230224609375;0.969999997550985;98;1 A
60.7335498466625;0.699493408203125;0.427398681640625;0.979999997525738;99;1 A
60.7435498466373;0.699798583984375;0.425537109375;0.98999999750049;100;1 A
60.753549846612;0.699676513671875;0.429046630859375;0.999999997475243;101;1 A
60.7635498465868;0.699737548828125;0.42425537109375;1.00999999745;102;1 A
60.7735498465615;0.699493408203125;0.42926025390625;1.01999999742475;103;1 A
60.7835498465363;0.699371337890625;0.429718017578125;1.0299999973995;104;1 A
60.793549846511;0.699737548828125;0.427764892578125;1.03999999737425;105;1 A
60.8035498464858;0.699920654296875;0.424285888671875;1.049999997349;106;1 A
60.8135498464605;0.69952392578125;0.420166015625;1.05999999732376;107;1 A
60.8235498464353;0.69989013671875;0.418701171875;1.06999999729851;108;1 A
60.8335498464101;0.699676513671875;0.42254638671875;1.07999999727326;109;1 A
60.8435498463848;0.69970703125;0.427032470703125;1.08999999724801;110;1 A
60.8535498463596;0.699676513671875;0.42578125;1.09999999722277;111;1 A
60.8635498463343;0.69970703125;0.428192138671875;1.10999999719752;112;1 A
60.8735498463091;0.699951171875;0.42388916015625;1.11999999717227;113;1 A
60.8835498462838;0.699676513671875;0.4241943359375;1.12999999714702;114;1 A
60.8935498462586;0.69970703125;0.422119140625;1.13999999712178;115;1 A
60.9035498462333;0.69964599609375;0.422698974609375;1.14999999709653;116;1 A
60.9135498462081;0.69964599609375;0.420654296875;1.15999999707128;117;1 A
60.9235498461828;0.699615478515625;0.4180908203125;1.16999999704603;118;1 A
60.9335498461576;0.6998291015625;0.41583251953125;1.17999999702079;119;1 A
60.9435498461323;0.69964599609375;0.41436767578125;1.18999999699554;120;1 A
60.9535498461071;0.699615478515625;0.415802001953125;1.19999999697029;121;1 A
60.9635498460818;0.699554443359375;0.41583251953125;1.20999999694504;122;1 A
60.9735498460566;0.699554443359375;0.4189453125;1.2199999969198;123;1 A
60.9835498460313;0.699737548828125;0.42352294921875;1.22999999689455;124;1 A
60.9935498460061;0.69964599609375;0.427001953125;1.2399999968693;125;1 A
61.0035498459808;0.69976806640625;0.42230224609375;1.24999999684405;126;1 A
61.0135498459556;0.69952392578125;0.42388916015625;1.25999999681881;127;1 A
61.0235498459303;0.699462890625;0.41748046875;1.26999999679356;128;1 A
61.0335498459051;0.69964599609375;0.419403076171875;1.27999999676831;129;1 A
61.0435498458799;0.69989013671875;0.420318603515625;1.28999999674306;130;1 A
61.0535498458546;0.69952392578125;0.41845703125;1.29999999671782;131;1 A
61.0635498458294;0.6998291015625;0.415496826171875;1.30999999669257;132;1 A
61.0735498458041;0.69964599609375;0.418182373046875;1.31999999666732;133;1 A
61.0835498457789;0.699737548828125;0.420562744140625;1.32999999664207;134;1 A
61.0935498457536;0.699737548828125;0.420379638671875;1.33999999661683;135;1 A
61.1035498457284;0.69976806640625;0.422149658203125;1.34999999659158;136;1 A
61.1135498457031;0.69976806640625;0.42156982421875;1.35999999656633;137;1 A
61.1235498456779;0.69970703125;0.421905517578125;1.36999999654108;138;1 A
61.1335498456526;0.6995849609375;0.41876220703125;1.37999999651583;139;1 A
61.1435498456274;0.699676513671875;0.422760009765625;1.38999999649059;140;1 A
61.1535498456021;0.69970703125;0.420257568359375;1.39999999646534;141;1 A
61.1635498455769;0.699554443359375;0.42083740234375;1.40999999644009;142;1 A
61.1735498455516;0.69970703125;0.422393798828125;1.41999999641484;143;1 A
61.1835498455264;0.69964599609375;0.42584228515625;1.4299999963896;144;1 A
61.1935498455011;0.699554443359375;0.4300537109375;1.43999999636435;145;1 A
61.2035498454759;0.699432373046875;0.4251708984375;1.4499999963391;146;1 A
61.2135498454506;0.6995849609375;0.422088623046875;1.45999999631385;147;1 A
61.2235498454254;0.699737548828125;0.420928955078125;1.46999999628861;148;1 A
61.2335498454001;0.699737548828125;0.4249267578125;1.47999999626336;149;1 A
61.2435498453749;0.6995849609375;0.424652099609375;1.48999999623811;150;1 A
61.2535498453497;0.699462890625;0.429901123046875;1.49999999621286;151;1 A
61.2635498453244;0.69940185546875;0.427398681640625;1.50999999618762;152;1 A
61.2735498452992;0.69976806640625;0.42645263671875;1.51999999616237;153;1 A
61.2835498452739;0.699981689453125;0.4212646484375;1.52999999613712;154;1 A
61.2935498452487;0.699493408203125;0.42303466796875;1.53999999611187;155;1 A
61.3035498452234;0.6998291015625;0.424591064453125;1.54999999608663;156;1 A
61.3135498451982;0.699737548828125;0.42535400390625;1.55999999606138;157;1 A
61.3235498451729;0.6998291015625;0.425567626953125;1.56999999603613;158;1 A
61.3335498451477;0.699676513671875;0.42431640625;1.57999999601088;159;1 A
61.3435498451224;0.69970703125;0.425933837890625;1.58999999598564;160;1 A
61.3535498450972;0.699859619140625;0.421478271484375;1.59999999596039;161;1 A
61.3635498450719;0.699493408203125;0.4219970703125;1.60999999593514;162;1 A
61.3735498450467;0.69964599609375;0.418487548828125;1.61999999590989;163;1 A
61.3835498450214;0.699676513671875;0.419036865234375;1.62999999588465;164;1 A
61.3935498449962;0.699737548828125;0.4163818359375;1.6399999958594;165;1 A
61.4035498449709;0.6995849609375;0.421600341796875;1.64999999583415;166;1 A
61.4135498449457;0.699676513671875;0.42236328125;1.6599999958089;167;1 A
61.4235498449204;0.699493408203125;0.423828125;1.66999999578366;168;1 A
61.4335498448952;0.69964599609375;0.42291259765625;1.67999999575841;169;1 A
61.4435498448699;0.69952392578125;0.42230224609375;1.68999999573316;170;1 A
61.4535498448447;0.69964599609375;0.423583984375;1.69999999570791;171;1 A
61.4635498448195;0.69970703125;0.42169189453125;1.70999999568267;172;1 A
61.4735498447942;0.6998291015625;0.42413330078125;1.71999999565742;173;1 A
61.483549844769;0.69952392578125;0.422454833984375;1.72999999563217;174;1 A
61.4935498447437;0.699462890625;0.42510986328125;1.73999999560692;175;1 A
61.5035498447185;0.699554443359375;0.42230224609375;1.74999999558167;176;1 A
61.5135498446932;0.69976806640625;0.420928955078125;1.75999999555643;177;1 A
61.523549844668;0.69989013671875;0.418426513671875;1.76999999553118;178;1 A
61.5335498446427;0.699554443359375;0.420074462890625;1.77999999550593;179;1 A
61.5435498446175;0.69976806640625;0.419281005859375;1.78999999548068;180;1 A
61.5535498445922;0.69976806640625;0.417510986328125;1.79999999545544;181;1 A
61.563549844567;0.699615478515625;0.41888427734375;1.80999999543019;182;1 A
61.5735498445417;0.6995849609375;0.4189453125;1.81999999540494;183;1 A
61.5835498445165;0.69976806640625;0.418609619140625;1.82999999537969;184;1 A
61.5935498444912;0.69976806640625;0.413665771484375;1.83999999535445;185;1 A
61.603549844466;0.699462890625;0.415374755859375;1.8499999953292;186;1 A
61.6135498444407;0.699615478515625;0.415679931640625;1.85999999530395;187;1 A
61.6235498444155;0.699676513671875;0.41827392578125;1.8699999952787;188;1 A
61.6335498443902;0.69970703125;0.414031982421875;1.87999999525346;189;1 A
61.643549844365;0.699615478515625;0.416168212890625;1.88999999522821;190;1 A
61.6535498443398;0.69964599609375;0.421142578125;1.89999999520296;191;1 A
61.6635498443145;0.699615478515625;0.420745849609375;1.90999999517771;192;1 A
61.6735498442893;0.69970703125;0.423187255859375;1.91999999515247;193;1 A
61.683549844264;0.699615478515625;0.418060302734375;1.92999999512722;194;1 A
61.6935498442388;0.6995849609375;0.417205810546875;1.93999999510197;195;1 A
61.7035498442135;0.699859619140625;0.413604736328125;1.94999999507672;196;1 A
61.7135498441883;0.699676513671875;0.4149169921875;1.95999999505148;197;1 A
61.723549844163;0.6995849609375;0.41339111328125;1.96999999502623;198;1 A
61.7335498441378;0.699859619140625;0.413055419921875;1.97999999500098;199;1 A
61.7435498441125;0.69952392578125;0.412841796875;1.98999999497573;200;1 A
61.7535498440873;0.69964599609375;0.411407470703125;1.99999999495049;201;1 A
61.763549844062;0.699798583984375;0.40960693359375;2.00999999492524;202;1 A
61.7735498440368;0.6995849609375;0.41009521484375;2.01999999489999;203;1 A
61.7835498440115;0.699615478515625;0.414642333984375;2.02999999487474;204;1 A
61.7935498439863;0.699737548828125;0.417755126953125;2.0399999948495;205;1 A
61.803549843961;0.6995849609375;0.41961669921875;2.04999999482425;206;1 A
61.8135498439358;0.699615478515625;0.41986083984375;2.059999994799;207;1 A
61.8235498439105;0.699676513671875;0.418853759765625;2.06999999477375;208;1 A
61.8335498438853;0.6998291015625;0.41693115234375;2.0799999947485;209;1 A
61.84354984386;0.699432373046875;0.420318603515625;2.08999999472326;210;1 A
61.8535498438348;0.699615478515625;0.417724609375;2.09999999469801;211;1 A
61.8635498438096;0.69970703125;0.4202880859375;2.10999999467276;212;1 A
61.8735498437843;0.69964599609375;0.416015625;2.11999999464751;213;1 A
61.8835498437591;0.699554443359375;0.415740966796875;2.12999999462227;214;1 A
61.8935498437338;0.699615478515625;0.41339111328125;2.13999999459702;215;1 A
61.9035498437086;0.69964599609375;0.4073486328125;2.14999999457177;216;1 A
61.9135498436833;0.69970703125;0.410919189453125;2.15999999454652;217;1 A
61.9235498436581;0.699462890625;0.413299560546875;2.16999999452128;218;1 A
61.9335498436328;0.699493408203125;0.4161376953125;2.17999999449603;219;1 A
61.9435498436076;0.699676513671875;0.4112548828125;2.18999999447078;220;1 A
61.9535498435823;0.699615478515625;0.410980224609375;2.19999999444553;221;1 A
61.9635498435571;0.6995849609375;0.4085693359375;2.20999999442029;222;1 A
61.9735498435318;0.69964599609375;0.410186767578125;2.21999999439504;223;1 A
61.9835498435066;0.69927978515625;0.411285400390625;2.22999999436979;224;1 A
61.9935498434813;0.699066162109375;0.41278076171875;2.23999999434454;225;1 A
62.0035498434561;0.69970703125;0.413848876953125;2.2499999943193;226;1 A
62.0135498434308;0.6995849609375;0.415679931640625;2.25999999429405;227;1 A
62.0235498434056;0.69970703125;0.414215087890625;2.2699999942688;228;1 A
62.0335498433803;0.699676513671875;0.41357421875;2.27999999424355;229;1 A
62.0435498433551;0.69964599609375;0.417724609375;2.28999999421831;230;1 A
62.0535498433298;0.699798583984375;0.415924072265625;2.29999999419306;231;1 A
62.0635498433046;0.699676513671875;0.419464111328125;2.30999999416781;232;1 A
62.0735498432794;0.699737548828125;0.41510009765625;2.31999999414256;233;1 A
62.0835498432541;0.699493408203125;0.4208984375;2.32999999411732;234;1 A
62.0935498432289;0.699676513671875;0.421478271484375;2.33999999409207;235;1 A
62.1035498432036;0.699615478515625;0.422027587890625;2.34999999406682;236;1 A
62.1135498431784;0.699859619140625;0.41949462890625;2.35999999404157;237;1 A
62.1235498431531;0.69964599609375;0.419708251953125;2.36999999401633;238;1 A
62.1335498431279;0.699554443359375;0.418426513671875;2.37999999399108;239;1 A
62.1435498431026;0.69952392578125;0.419219970703125;2.38999999396583;240;1 A
62.1535498430774;0.699615478515625;0.4173583984375;2.39999999394058;241;1 A
62.1635498430521;0.699554443359375;0.41375732421875;2.40999999391533;242;1 A
62.1735498430269;0.6995849609375;0.414398193359375;2.41999999389009;243;1 A
62.1835498430016;0.69970703125;0.41339111328125;2.42999999386484;244;1 A
62.1935498429764;0.69970703125;0.418792724609375;2.43999999383959;245;1 A
62.2035498429511;0.699432373046875;0.419036865234375;2.44999999381434;246;1 A
62.2135498429259;0.6995849609375;0.419891357421875;2.4599999937891;247;1 A
62.2235498429006;0.69940185546875;0.416961669921875;2.46999999376385;248;1 A
62.2335498428754;0.699676513671875;0.420684814453125;2.4799999937386;249;1 A
62.2435498428501;0.699859619140625;0.422332763671875;2.48999999371335;250;1 A
62.2535498428249;0.6995849609375;0.422149658203125;2.49999999368811;251;1 A
62.2635498427996;0.699859619140625;0.421783447265625;2.50999999366286;252;1 A
62.2735498427744;0.69970703125;0.423553466796875;2.51999999363761;253;1 A
62.2835498427492;0.699615478515625;0.42572021484375;2.52999999361236;254;1 A
62.2935498427239;0.699615478515625;0.421875;2.53999999358712;255;1 A
62.3035498426987;0.699554443359375;0.42095947265625;2.54999999356187;256;1 A
62.3135498426734;0.69964599609375;0.4210205078125;2.55999999353662;257;1 A
62.3235498426482;0.699462890625;0.4207763671875;2.56999999351137;258;1 A
62.3335498426229;0.699737548828125;0.419219970703125;2.57999999348613;259;1 A
62.3435498425977;0.699615478515625;0.420318603515625;2.58999999346088;260;1 A
62.3535498425724;0.699737548828125;0.4217529296875;2.59999999343563;261;1 A
62.3635498425472;0.69970703125;0.419708251953125;2.60999999341038;262;1 A
62.3735498425219;0.6995849609375;0.417510986328125;2.61999999338514;263;1 A
62.3835498424967;0.6995849609375;0.416412353515625;2.62999999335989;264;1 A
62.3935498424714;0.699615478515625;0.41558837890625;2.63999999333464;265;1 A
62.4035498424462;0.6995849609375;0.415557861328125;2.64999999330939;266;1 A
62.4135498424209;0.699554443359375;0.415618896484375;2.65999999328415;267;1 A
62.4235498423957;0.699737548828125;0.4134521484375;2.6699999932589;268;1 A
62.4335498423704;0.699737548828125;0.41375732421875;2.67999999323365;269;1 A
62.4435498423452;0.699462890625;0.413330078125;2.6899999932084;270;1 A
62.4535498423199;0.69964599609375;0.421630859375;2.69999999318316;271;1 A
62.4635498422947;0.699432373046875;0.41973876953125;2.70999999315791;272;1 A
62.4735498422694;0.699676513671875;0.42156982421875;2.71999999313266;273;1 A
62.4835498422442;0.699676513671875;0.420806884765625;2.72999999310741;274;1 A
62.493549842219;0.69964599609375;0.418792724609375;2.73999999308217;275;1 A
62.5035498421937;0.69964599609375;0.422515869140625;2.74999999305692;276;1 A
62.5135498421685;0.699737548828125;0.423004150390625;2.75999999303167;277;1 A
62.5235498421432;0.69976806640625;0.424072265625;2.76999999300642;278;1 A
62.533549842118;0.699798583984375;0.41949462890625;2.77999999298117;279;1 A
62.5435498420927;0.69970703125;0.42047119140625;2.78999999295593;280;1 A
62.5535498420675;0.699615478515625;0.421142578125;2.79999999293068;281;1 A
62.5635498420422;0.699615478515625;0.420135498046875;2.80999999290543;282;1 A
62.573549842017;0.6998291015625;0.417816162109375;2.81999999288018;283;1 A
62.5835498419917;0.699615478515625;0.41766357421875;2.82999999285494;284;1 A
62.5935498419665;0.69970703125;0.414703369140625;2.83999999282969;285;1 A
62.6035498419412;0.699676513671875;0.4129638671875;2.84999999280444;286;1 A
62.613549841916;0.699554443359375;0.415191650390625;2.85999999277919;287;1 A
62.6235498418907;0.699462890625;0.414306640625;2.86999999275395;288;1 A
62.6335498418655;0.6995849609375;0.41583251953125;2.8799999927287;289;1 A
62.6435498418402;0.699798583984375;0.417205810546875;2.88999999270345;290;1 A
62.653549841815;0.699615478515625;0.413818359375;2.8999999926782;291;1 A
62.6635498417897;0.69976806640625;0.40985107421875;2.90999999265296;292;1 A
62.6735498417645;0.699737548828125;0.40606689453125;2.91999999262771;293;1 A
62.6835498417393;0.699493408203125;0.406158447265625;2.92999999260246;294;1 A
62.693549841714;0.69964599609375;0.406585693359375;2.93999999257721;295;1 A
62.7035498416888;0.699554443359375;0.408447265625;2.94999999255197;296;1 A
62.7135498416635;0.69964599609375;0.412200927734375;2.95999999252672;297;1 A
62.7235498416383;0.699676513671875;0.416015625;2.96999999250147;298;1 A
62.733549841613;0.699615478515625;0.415863037109375;2.97999999247622;299;1 A
62.7435498415878;0.69964599609375;0.416961669921875;2.98999999245098;300;1 A
62.7535498415625;0.69976806640625;0.416168212890625;2.99999999242573;301;1 A
62.7635498415373;0.699676513671875;0.41790771484375;3.00999999240048;302;1 A
62.773549841512;0.69964599609375;0.418853759765625;3.01999999237523;303;1 A
62.7835498414868;0.699676513671875;0.420196533203125;3.02999999234999;304;1 A
62.7935498414615;0.69952392578125;0.418731689453125;3.03999999232474;305;1 A
62.8035498414363;0.6995849609375;0.420013427734375;3.04999999229949;306;1 A
62.813549841411;0.69976806640625;0.41943359375;3.05999999227424;307;1 A
62.8235498413858;0.69964599609375;0.425323486328125;3.069999992249;308;1 A
62.8335498413605;0.699798583984375;0.422760009765625;3.07999999222375;309;1 A
62.8435498413353;0.699676513671875;0.425567626953125;3.0899999921985;310;1 A
62.85354984131;0.699676513671875;0.42352294921875;3.09999999217325;311;1 A
62.8635498412848;0.699462890625;0.42376708984375;3.109999992148;312;1 A
62.8735498412595;0.6995849609375;0.422637939453125;3.11999999212276;313;1 A
62.8835498412343;0.6998291015625;0.420135498046875;3.12999999209751;314;1 A
62.8935498412091;0.699554443359375;0.423492431640625;3.13999999207226;315;1 A
62.9035498411838;0.699737548828125;0.421875;3.14999999204701;316;1 A
62.9135498411586;0.699615478515625;0.424560546875;3.15999999202177;317;1 A
62.9235498411333;0.69940185546875;0.420623779296875;3.16999999199652;318;1 A
62.9335498411081;0.6998291015625;0.418426513671875;3.17999999197127;319;1 A
62.9435498410828;0.699615478515625;0.41766357421875;3.18999999194602;320;1 A
62.9535498410576;0.699676513671875;0.4227294921875;3.19999999192078;321;1 A
62.9635498410323;0.699615478515625;0.421356201171875;3.20999999189553;322;1 A
62.9735498410071;0.69964599609375;0.423553466796875;3.21999999187028;323;1 A
62.9835498409818;0.699615478515625;0.424041748046875;3.22999999184503;324;1 A
62.9935498409566;0.699676513671875;0.4241943359375;3.23999999181979;325;1 A
63.0035498409313;0.699615478515625;0.422027587890625;3.24999999179454;326;1 A
63.0135498409061;0.699737548828125;0.4144287109375;3.25999999176929;327;1 A
63.0235498408808;0.699615478515625;0.4095458984375;3.26999999174404;328;1 A
63.0335498408556;0.6995849609375;0.404296875;3.2799999917188;329;1 A
63.0435498408303;0.6995849609375;0.407073974609375;3.28999999169355;330;1 A
63.0535498408051;0.699737548828125;0.406158447265625;3.2999999916683;331;1 A
63.0635498407798;0.699554443359375;0.410614013671875;3.30999999164305;332;1 A
63.0735498407546;0.699676513671875;0.40875244140625;3.31999999161781;333;1 A
63.0835498407293;0.69964599609375;0.411285400390625;3.32999999159256;334;1 A
63.0935498407041;0.699615478515625;0.412811279296875;3.33999999156731;335;1 A
63.1035498406789;0.6995849609375;0.413177490234375;3.34999999154206;336;1 A
63.1135498406536;0.69970703125;0.415252685546875;3.35999999151682;337;1 A
63.1235498406284;0.69989013671875;0.41717529296875;3.36999999149157;338;1 A
63.1335498406031;0.6995849609375;0.4200439453125;3.37999999146632;339;1 A
63.1435498405779;0.699615478515625;0.41986083984375;3.38999999144107;340;1 A
63.1535498405526;0.699615478515625;0.42462158203125;3.39999999141583;341;1 A
63.1635498405274;0.6993408203125;0.422149658203125;3.40999999139058;342;1 A
63.1735498405021;0.69970703125;0.420166015625;3.41999999136533;343;1 A
63.1835498404769;0.699676513671875;0.41656494140625;3.42999999134008;344;1 A
63.1935498404516;0.699676513671875;0.418548583984375;3.43999999131483;345;1 A
63.2035498404264;0.699676513671875;0.42169189453125;3.44999999128959;346;1 A
63.2135498404011;0.69964599609375;0.42333984375;3.45999999126434;347;1 A
63.2235498403759;0.699615478515625;0.423980712890625;3.46999999123909;348;1 A
63.2335498403506;0.699676513671875;0.42303466796875;3.47999999121384;349;1 A
63.2435498403254;0.69964599609375;0.424560546875;3.4899999911886;350;1 A
63.2535498403001;0.699554443359375;0.42071533203125;3.49999999116335;351;1 A
63.2635498402749;0.699676513671875;0.419219970703125;3.5099999911381;352;1 A
63.2735498402496;0.699554443359375;0.416900634765625;3.51999999111285;353;1 A
63.2835498402244;0.699676513671875;0.41729736328125;3.52999999108761;354;1 A
63.2935498401991;0.699737548828125;0.411865234375;3.53999999106236;355;1 A
63.3035498401739;0.69970703125;0.414215087890625;3.54999999103711;356;1 A
63.3135498401487;0.699554443359375;0.4149169921875;3.55999999101186;357;1 A
63.3235498401234;0.699676513671875;0.416046142578125;3.56999999098662;358;1 A
63.3335498400982;0.69952392578125;0.416961669921875;3.57999999096137;359;1 A
63.3435498400729;0.699462890625;0.415008544921875;3.58999999093612;360;1 A
63.3535498400477;0.69964599609375;0.417327880859375;3.59999999091087;361;1 A
63.3635498400224;0.699920654296875;0.417083740234375;3.60999999088563;362;1 A
63.3735498399972;0.699493408203125;0.42083740234375;3.61999999086038;363;1 A
63.3835498399719;0.6995849609375;0.42120361328125;3.62999999083513;364;1 A
63.3935498399467;0.699554443359375;0.42303466796875;3.63999999080988;365;1 A
63.4035498399214;0.699554443359375;0.415374755859375;3.64999999078464;366;1 A
63.4135498398962;0.699676513671875;0.41888427734375;3.65999999075939;367;1 A
63.4235498398709;0.699615478515625;0.42236328125;3.66999999073414;368;1 A
63.4335498398457;0.69970703125;0.4259033203125;3.67999999070889;369;1 A
63.4435498398204;0.699737548828125;0.4254150390625;3.68999999068365;370;1 A
63.4535498397952;0.69970703125;0.42529296875;3.6999999906584;371;1 A
63.4635498397699;0.6995849609375;0.424346923828125;3.70999999063315;372;1 A
63.4735498397447;0.69970703125;0.420684814453125;3.7199999906079;373;1 A
63.4835498397194;0.699615478515625;0.42266845703125;3.72999999058266;374;1 A
63.4935498396942;0.69952392578125;0.425384521484375;3.73999999055741;375;1 A
63.5035498396689;0.69964599609375;0.430511474609375;3.74999999053216;376;1 A
63.5135498396437;0.699615478515625;0.42901611328125;3.75999999050691;377;1 A
63.5235498396185;0.699676513671875;0.42706298828125;3.76999999048167;378;1 A
63.5335498395932;0.699615478515625;0.431488037109375;3.77999999045642;379;1 A
63.543549839568;0.69964599609375;0.431793212890625;3.78999999043117;380;1 A
63.5535498395427;0.699554443359375;0.431884765625;3.79999999040592;381;1 A
63.5635498395175;0.6995849609375;0.434112548828125;3.80999999038067;382;1 A
63.5735498394922;0.699615478515625;0.428985595703125;3.81999999035543;383;1 A
63.583549839467;0.699615478515625;0.424652099609375;3.82999999033018;384;1 A
63.5935498394417;0.699615478515625;0.4219970703125;3.83999999030493;385;1 A
63.6035498394165;0.69989013671875;0.420196533203125;3.84999999027968;386;1 A
63.6135498393912;0.699462890625;0.425689697265625;3.85999999025444;387;1 A
63.623549839366;0.69964599609375;0.424774169921875;3.86999999022919;388;1 A
63.6335498393407;0.699432373046875;0.4249267578125;3.87999999020394;389;1 A
63.6435498393155;0.699462890625;0.424774169921875;3.88999999017869;390;1 A
63.6535498392902;0.699676513671875;0.424560546875;3.89999999015345;391;1 A
63.663549839265;0.699798583984375;0.42388916015625;3.9099999901282;392;1 A
63.6735498392397;0.6995849609375;0.419647216796875;3.91999999010295;393;1 A
63.6835498392145;0.69970703125;0.420867919921875;3.9299999900777;394;1 A
63.6935498391892;0.69970703125;0.421234130859375;3.93999999005246;395;1 A
63.703549839164;0.6995849609375;0.4219970703125;3.94999999002721;396;1 A
63.7135498391388;0.69964599609375;0.42303466796875;3.95999999000196;397;1 A
63.7235498391135;0.69964599609375;0.423248291015625;3.96999998997671;398;1 A
63.7335498390883;0.69952392578125;0.423065185546875;3.97999998995147;399;1 A
63.743549839063;0.699462890625;0.423065185546875;3.98999998992622;400;1 A
63.7535498390378;0.699615478515625;0.42279052734375;3.99999998990097;401;1 A
63.7635498390125;0.6995849609375;0.42291259765625;4.00999998987572;402;1 A
63.7735498389873;0.69970703125;0.418731689453125;4.01999998985048;403;1 A
63.783549838962;0.699676513671875;0.421295166015625;4.02999998982523;404;1 A
63.7935498389368;0.699462890625;0.422088623046875;4.03999998979998;405;1 A
63.8035498389115;0.6995849609375;0.421875;4.04999998977473;406;1 A
63.8135498388863;0.69964599609375;0.421295166015625;4.05999998974949;407;1 A
63.823549838861;0.6995849609375;0.418792724609375;4.06999998972424;408;1 A
63.8335498388358;0.699676513671875;0.419189453125;4.07999998969899;409;1 A
63.8435498388105;0.699981689453125;0.417510986328125;4.08999998967374;410;1 A
63.8535498387853;0.699462890625;0.420684814453125;4.0999999896485;411;1 A
63.86354983876;0.699615478515625;0.41845703125;4.10999998962325;412;1 A
63.8735498387348;0.699371337890625;0.42169189453125;4.119999989598;413;1 A
63.8835498387095;0.69927978515625;0.4171142578125;4.12999998957275;414;1 A
63.8935498386843;0.69964599609375;0.420135498046875;4.1399999895475;415;1 A
63.903549838659;0.6998291015625;0.421875;4.14999998952226;416;1 A
63.9135498386338;0.699676513671875;0.4246826171875;4.15999998949701;417;1 A
63.9235498386086;0.6995849609375;0.4248046875;4.16999998947176;418;1 A
63.9335498385833;0.699554443359375;0.427032470703125;4.17999998944651;419;1 A
63.9435498385581;0.699554443359375;0.42559814453125;4.18999998942127;420;1 A
63.9535498385328;0.69976806640625;0.4239501953125;4.19999998939602;421;1 A
63.9635498385076;0.69940185546875;0.422637939453125;4.20999998937077;422;1 A
63.9735498384823;0.699462890625;0.418853759765625;4.21999998934552;423;1 A
63.9835498384571;0.699493408203125;0.4190673828125;4.22999998932028;424;1 A
63.9935498384318;0.69964599609375;0.41607666015625;4.23999998929503;425;1 A
64.0035498384066;0.699676513671875;0.421539306640625;4.24999998926978;426;1 A
64.0135498383813;0.699798583984375;0.420074462890625;4.25999998924453;427;1 A
64.0235498383561;0.699615478515625;0.42242431640625;4.26999998921929;428;1 A
64.0335498383308;0.699676513671875;0.41925048828125;4.27999998919404;429;1 A
64.0435498383056;0.6995849609375;0.416412353515625;4.28999998916879;430;1 A
64.0535498382803;0.699554443359375;0.416412353515625;4.29999998914354;431;1 A
64.0635498382551;0.699676513671875;0.418121337890625;4.3099999891183;432;1 A
64.0735498382298;0.69964599609375;0.4224853515625;4.31999998909305;433;1 A
64.0835498382046;0.699981689453125;0.419830322265625;4.3299999890678;434;1 A
64.0935498381793;0.69952392578125;0.415802001953125;4.33999998904255;435;1 A
64.1035498381541;0.699615478515625;0.411651611328125;4.34999998901731;436;1 A
64.1135498381288;0.6993408203125;0.4095458984375;4.35999998899206;437;1 A
64.1235498381036;0.69940185546875;0.41217041015625;4.36999998896681;438;1 A
64.1335498380784;0.69964599609375;0.414398193359375;4.37999998894156;439;1 A
64.1435498380531;0.69970703125;0.413360595703125;4.38999998891632;440;1 A
64.1535498380279;0.6995849609375;0.4161376953125;4.39999998889107;441;1 A
64.1635498380026;0.69964599609375;0.41680908203125;4.40999998886582;442;1 A
64.1735498379774;0.699615478515625;0.418701171875;4.41999998884057;443;1 A
64.1835498379521;0.699554443359375;0.415771484375;4.42999998881533;444;1 A
64.1935498379269;0.699676513671875;0.41607666015625;4.43999998879008;445;1 A
64.2035498379016;0.699615478515625;0.4171142578125;4.44999998876483;446;1 A
64.2135498378764;0.69952392578125;0.4150390625;4.45999998873958;447;1 A
64.2235498378511;0.6995849609375;0.4149169921875;4.46999998871433;448;1 A
64.2335498378259;0.699737548828125;0.412506103515625;4.47999998868909;449;1 A
64.2435498378006;0.699798583984375;0.4141845703125;4.48999998866384;450;1 A
64.2535498377754;0.699798583984375;0.41424560546875;4.49999998863859;451;1 A
64.2635498377501;0.6995849609375;0.4168701171875;4.50999998861334;452;1 A
64.2735498377249;0.699554443359375;0.414520263671875;4.5199999885881;453;1 A
64.2835498376996;0.699554443359375;0.415496826171875;4.52999998856285;454;1 A
64.2935498376744;0.69964599609375;0.418914794921875;4.5399999885376;455;1 A
64.3035498376491;0.699615478515625;0.4180908203125;4.54999998851235;456;1 A
64.3135498376239;0.6995849609375;0.415557861328125;4.55999998848711;457;1 A
64.3235498375986;0.70001220703125;0.41351318359375;4.56999998846186;458;1 A
64.3335498375734;0.69952392578125;0.41973876953125;4.57999998843661;459;1 A
64.3435498375482;0.699432373046875;0.419708251953125;4.58999998841136;460;1 A
64.3535498375229;0.6993408203125;0.41845703125;4.59999998838612;461;1 A
64.3635498374977;0.699371337890625;0.417022705078125;4.60999998836087;462;1 A
64.3735498374724;0.69976806640625;0.419769287109375;4.61999998833562;463;1 A
64.3835498374472;0.6998291015625;0.41802978515625;4.62999998831037;464;1 A
64.3935498374219;0.69964599609375;0.41632080078125;4.63999998828513;465;1 A
64.4035498373967;0.699462890625;0.417266845703125;4.64999998825988;466;1 A
64.4135498373714;0.69976806640625;0.41961669921875;4.65999998823463;467;1 A
64.4235498373462;0.69940185546875;0.418548583984375;4.66999998820938;468;1 A
64.4335498373209;0.69964599609375;0.419586181640625;4.67999998818414;469;1 A
64.4435498372957;0.699493408203125;0.420989990234375;4.68999998815889;470;1 A
64.4535498372704;0.699737548828125;0.42034912109375;4.69999998813364;471;1 A
64.4635498372452;0.699462890625;0.423004150390625;4.70999998810839;472;1 A
64.4735498372199;0.699737548828125;0.422332763671875;4.71999998808315;473;1 A
64.4835498371947;0.699798583984375;0.424041748046875;4.7299999880579;474;1 A
64.4935498371694;0.69952392578125;0.42291259765625;4.73999998803265;475;1 A
64.5035498371442;0.69964599609375;0.42462158203125;4.7499999880074;476;1 A
64.5135498371189;0.699615478515625;0.423583984375;4.75999998798216;477;1 A
64.5235498370937;0.6995849609375;0.424591064453125;4.76999998795691;478;1 A
64.5335498370684;0.69970703125;0.42578125;4.77999998793166;479;1 A
64.5435498370432;0.6995849609375;0.42669677734375;4.78999998790641;480;1 A
64.553549837018;0.69976806640625;0.422821044921875;4.79999998788116;481;1 A
64.5635498369927;0.6998291015625;0.421875;4.80999998785592;482;1 A
64.5735498369675;0.699554443359375;0.422576904296875;4.81999998783067;483;1 A
64.5835498369422;0.699554443359375;0.423187255859375;4.82999998780542;484;1 A
64.593549836917;0.699432373046875;0.420074462890625;4.83999998778017;485;1 A
64.6035498368917;0.699432373046875;0.41558837890625;4.84999998775493;486;1 A
64.6135498368665;0.699676513671875;0.417694091796875;4.85999998772968;487;1 A
64.6235498368412;0.699737548828125;0.415740966796875;4.86999998770443;488;1 A
64.633549836816;0.69964599609375;0.4146728515625;4.87999998767918;489;1 A
64.6435498367907;0.6995849609375;0.411590576171875;4.88999998765394;490;1 A
64.6535498367655;0.69964599609375;0.412017822265625;4.89999998762869;491;1 A
64.6635498367402;0.699615478515625;0.40911865234375;4.90999998760344;492;1 A
64.673549836715;0.69970703125;0.40789794921875;4.91999998757819;493;1 A
64.6835498366897;0.699493408203125;0.41229248046875;4.92999998755295;494;1 A
64.6935498366645;0.699554443359375;0.415771484375;4.9399999875277;495;1 A
64.7035498366392;0.699493408203125;0.419921875;4.94999998750245;496;1 A
64.713549836614;0.69964599609375;0.419403076171875;4.9599999874772;497;1 A
64.7235498365887;0.69964599609375;0.420745849609375;4.96999998745196;498;1 A
64.7335498365635;0.699615478515625;0.416656494140625;4.97999998742671;499;1 A
64.7435498365383;0.6995849609375;0.41448974609375;4.98999998740146;500;1 A
