Time (s);WE(1).Potential (V);WE(1).Current (A);Corrected time (s);Index;Current range
0.652219998353303;-0.399688720703125;-0.0224884033203125;0;1;1 A
0.662219998328055;-0.3997802734375;-0.0190216064453125;0.00999999997475243;2;1 A
0.672219998302808;-0.399749755859375;-0.01688232421875;0.0199999999495049;3;1 A
0.68221999827756;-0.399627685546875;-0.015234375;0.0299999999242573;4;1 A
0.692219998252313;-0.399749755859375;-0.01417236328125;0.0399999998990097;5;1 A
0.702219998227065;-0.399749755859375;-0.013372802734375;0.0499999998737621;6;1 A
0.712219998201817;-0.399749755859375;-0.01260986328125;0.0599999998485146;7;1 A
0.72221999817657;-0.3997802734375;-0.0120819091796875;0.069999999823267;8;1 A
0.732219998151322;-0.39971923828125;-0.011669921875;0.0799999997980194;9;1 A
0.742219998126075;-0.399749755859375;-0.011273193359375;0.0899999997727718;10;1 A
0.752219998100827;-0.39971923828125;-0.0109039306640625;0.0999999997475243;11;1 A
0.762219998075579;-0.399749755859375;-0.01075439453125;0.109999999722277;12;1 A
0.772219998050332;-0.39971923828125;-0.0105743408203125;0.119999999697029;13;1 A
0.782219998025084;-0.399688720703125;-0.010272216796875;0.129999999671782;14;1 A
0.792219997999837;-0.399749755859375;-0.01016845703125;0.139999999646534;15;1 A
0.802219997974589;-0.399749755859375;-0.010040283203125;0.149999999621286;16;1 A
0.812219997949342;-0.399749755859375;-0.009844970703125;0.159999999596039;17;1 A
0.822219997924094;-0.399749755859375;-0.00971069335937499;0.169999999570791;18;1 A
0.832219997898846;-0.399749755859375;-0.009686279296875;0.179999999545544;19;1 A
0.842219997873599;-0.39959716796875;-0.0095947265625;0.189999999520296;20;1 A
0.852219997848351;-0.399688720703125;-0.00940856933593751;0.199999999495049;21;1 A
0.862219997823104;-0.399749755859375;-0.009417724609375;0.209999999469801;22;1 A
0.872219997797856;-0.399688720703125;-0.009381103515625;0.219999999444553;23;1 A
0.882219997772609;-0.39984130859375;-0.00925598144531251;0.229999999419306;24;1 A
0.892219997747361;-0.39971923828125;-0.0092437744140625;0.239999999394058;25;1 A
0.902219997722113;-0.39971923828125;-0.0093231201171875;0.249999999368811;26;1 A
0.912219997696866;-0.399749755859375;-0.00929870605468749;0.259999999343563;27;1 A
0.922219997671618;-0.39971923828125;-0.00925292968749999;0.269999999318316;28;1 A
0.932219997646371;-0.39971923828125;-0.0092803955078125;0.279999999293068;29;1 A
0.942219997621123;-0.39971923828125;-0.0092437744140625;0.28999999926782;30;1 A
0.952219997595876;-0.39971923828125;-0.009197998046875;0.299999999242573;31;1 A
0.962219997570628;-0.39971923828125;-0.00923767089843749;0.309999999217325;32;1 A
0.97221999754538;-0.39971923828125;-0.00925292968749999;0.319999999192078;33;1 A
0.982219997520133;-0.399688720703125;-0.00917663574218749;0.32999999916683;34;1 A
0.992219997494885;-0.399688720703125;-0.00911865234375001;0.339999999141583;35;1 A
1.00221999746964;-0.3997802734375;-0.00917663574218749;0.349999999116335;36;1 A
1.01221999744439;-0.399627685546875;-0.00913391113281251;0.359999999091087;37;1 A
1.02221999741914;-0.39971923828125;-0.0090179443359375;0.36999999906584;38;1 A
1.0322199973939;-0.39971923828125;-0.0090484619140625;0.379999999040592;39;1 A
1.04221999736865;-0.39971923828125;-0.0090484619140625;0.389999999015345;40;1 A
1.0522199973434;-0.39971923828125;-0.00897827148437499;0.399999998990097;41;1 A
1.06221999731815;-0.399627685546875;-0.00897827148437499;0.40999999896485;42;1 A
1.0722199972929;-0.39971923828125;-0.00904541015625;0.419999998939602;43;1 A
1.08221999726766;-0.399658203125;-0.00903930664062499;0.429999998914354;44;1 A
1.09221999724241;-0.399749755859375;-0.00899658203125001;0.439999998889107;45;1 A
1.10221999721716;-0.39971923828125;-0.00905456542968749;0.449999998863859;46;1 A
1.11221999719191;-0.399688720703125;-0.0090179443359375;0.459999998838612;47;1 A
1.12221999716667;-0.399749755859375;-0.0089569091796875;0.469999998813364;48;1 A
1.13221999714142;-0.399627685546875;-0.0089691162109375;0.479999998788116;49;1 A
1.14221999711617;-0.39971923828125;-0.00901184082031251;0.489999998762869;50;1 A
1.15221999709092;-0.399749755859375;-0.00896606445312501;0.499999998737621;51;1 A
1.16221999706568;-0.399658203125;-0.00891723632812499;0.509999998712374;52;1 A
1.17221999704043;-0.39971923828125;-0.0090301513671875;0.519999998687126;53;1 A
1.18221999701518;-0.399688720703125;-0.009033203125;0.529999998661879;54;1 A
1.19221999698993;-0.39971923828125;-0.00900878906249999;0.539999998636631;55;1 A
1.20221999696469;-0.39971923828125;-0.0090789794921875;0.549999998611383;56;1 A
1.21221999693944;-0.399688720703125;-0.00909423828125;0.559999998586136;57;1 A
1.22221999691419;-0.3997802734375;-0.00901184082031251;0.569999998560888;58;1 A
1.23221999688894;-0.399627685546875;-0.00902404785156249;0.579999998535641;59;1 A
1.2422199968637;-0.399749755859375;-0.0090789794921875;0.589999998510393;60;1 A
1.25221999683845;-0.399658203125;-0.0090484619140625;0.599999998485146;61;1 A
1.2622199968132;-0.399749755859375;-0.00897827148437499;0.609999998459898;62;1 A
1.27221999678795;-0.39971923828125;-0.0090179443359375;0.61999999843465;63;1 A
1.28221999676271;-0.39971923828125;-0.00900878906249999;0.629999998409403;64;1 A
1.29221999673746;-0.399749755859375;-0.0089447021484375;0.639999998384155;65;1 A
1.30221999671221;-0.399658203125;-0.008953857421875;0.649999998358908;66;1 A
1.31221999668696;-0.399688720703125;-0.0089752197265625;0.65999999833366;67;1 A
1.32221999666172;-0.39959716796875;-0.008929443359375;0.669999998308413;68;1 A
1.33221999663647;-0.399688720703125;-0.00885925292968751;0.679999998283165;69;1 A
1.34221999661122;-0.399749755859375;-0.008868408203125;0.689999998257917;70;1 A
1.35221999658597;-0.39971923828125;-0.008819580078125;0.69999999823267;71;1 A
1.36221999656073;-0.39971923828125;-0.0087158203125;0.709999998207422;72;1 A
1.37221999653548;-0.399749755859375;-0.0087554931640625;0.719999998182175;73;1 A
1.38221999651023;-0.39971923828125;-0.00876770019531251;0.729999998156927;74;1 A
1.39221999648498;-0.3997802734375;-0.0087005615234375;0.73999999813168;75;1 A
1.40221999645973;-0.399658203125;-0.0086822509765625;0.749999998106432;76;1 A
1.41221999643449;-0.39971923828125;-0.0087860107421875;0.759999998081184;77;1 A
1.42221999640924;-0.399688720703125;-0.008831787109375;0.769999998055937;78;1 A
1.43221999638399;-0.39971923828125;-0.008819580078125;0.779999998030689;79;1 A
1.44221999635874;-0.399688720703125;-0.00893554687500001;0.789999998005442;80;1 A
1.4522199963335;-0.39971923828125;-0.00895080566406251;0.799999997980194;81;1 A
1.46221999630825;-0.399749755859375;-0.00887451171875001;0.809999997954947;82;1 A
1.472219996283;-0.399688720703125;-0.00885620117187499;0.819999997929699;83;1 A
1.48221999625775;-0.399688720703125;-0.00885620117187499;0.829999997904451;84;1 A
1.49221999623251;-0.39971923828125;-0.00881042480468749;0.839999997879204;85;1 A
1.50221999620726;-0.399688720703125;-0.008709716796875;0.849999997853956;86;1 A
1.51221999618201;-0.399688720703125;-0.00874938964843749;0.859999997828709;87;1 A
1.52221999615676;-0.39971923828125;-0.008770751953125;0.869999997803461;88;1 A
1.53221999613152;-0.399688720703125;-0.008746337890625;0.879999997778214;89;1 A
1.54221999610627;-0.399658203125;-0.00877990722656249;0.889999997752966;90;1 A
1.55221999608102;-0.399658203125;-0.0088348388671875;0.899999997727718;91;1 A
1.56221999605577;-0.39971923828125;-0.00880126953125;0.909999997702471;92;1 A
1.57221999603053;-0.39971923828125;-0.00881347656250001;0.919999997677223;93;1 A
1.58221999600528;-0.399749755859375;-0.0088958740234375;0.929999997651976;94;1 A
1.59221999598003;-0.399688720703125;-0.0089111328125;0.939999997626728;95;1 A
1.60221999595478;-0.39971923828125;-0.00882568359374999;0.949999997601481;96;1 A
1.61221999592954;-0.39971923828125;-0.0088623046875;0.959999997576233;97;1 A
1.62221999590429;-0.39971923828125;-0.00894775390624999;0.969999997550985;98;1 A
1.63221999587904;-0.3997802734375;-0.00887145996093749;0.979999997525738;99;1 A
1.64221999585379;-0.39971923828125;-0.00887145996093749;0.98999999750049;100;1 A
1.65221999582855;-0.399749755859375;-0.0089263916015625;0.999999997475243;101;1 A
1.6622199958033;-0.399749755859375;-0.0088836669921875;1.00999999745;102;1 A
1.67221999577805;-0.39984130859375;-0.00884399414062501;1.01999999742475;103;1 A
1.6822199957528;-0.39971923828125;-0.00887145996093749;1.0299999973995;104;1 A
1.69221999572756;-0.399688720703125;-0.00885620117187499;1.03999999737425;105;1 A
1.70221999570231;-0.39971923828125;-0.0087921142578125;1.049999997349;106;1 A
1.71221999567706;-0.399749755859375;-0.00875244140625001;1.05999999732376;107;1 A
1.72221999565181;-0.399749755859375;-0.00877685546875;1.06999999729851;108;1 A
1.73221999562656;-0.399658203125;-0.00873718261718751;1.07999999727326;109;1 A
1.74221999560132;-0.39971923828125;-0.00869140625000001;1.08999999724801;110;1 A
1.75221999557607;-0.399749755859375;-0.008758544921875;1.09999999722277;111;1 A
1.76221999555082;-0.399749755859375;-0.008770751953125;1.10999999719752;112;1 A
1.77221999552557;-0.399658203125;-0.0086944580078125;1.11999999717227;113;1 A
1.78221999550033;-0.399688720703125;-0.0087005615234375;1.12999999714702;114;1 A
1.79221999547508;-0.399749755859375;-0.0087738037109375;1.13999999712178;115;1 A
1.80221999544983;-0.399658203125;-0.00874938964843749;1.14999999709653;116;1 A
1.81221999542458;-0.399658203125;-0.00870361328124999;1.15999999707128;117;1 A
1.82221999539934;-0.399688720703125;-0.0087738037109375;1.16999999704603;118;1 A
1.83221999537409;-0.399749755859375;-0.0087310791015625;1.17999999702079;119;1 A
1.84221999534884;-0.39971923828125;-0.00869140625000001;1.18999999699554;120;1 A
1.85221999532359;-0.39971923828125;-0.0087860107421875;1.19999999697029;121;1 A
1.86221999529835;-0.3997802734375;-0.0088348388671875;1.20999999694504;122;1 A
1.8722199952731;-0.399749755859375;-0.00881347656250001;1.2199999969198;123;1 A
1.88221999524785;-0.399627685546875;-0.0088165283203125;1.22999999689455;124;1 A
1.8922199952226;-0.399688720703125;-0.00885620117187499;1.2399999968693;125;1 A
1.90221999519736;-0.39971923828125;-0.0087890625;1.24999999684405;126;1 A
1.91221999517211;-0.399688720703125;-0.00870666503906251;1.25999999681881;127;1 A
1.92221999514686;-0.399688720703125;-0.008746337890625;1.26999999679356;128;1 A
1.93221999512161;-0.399688720703125;-0.0087615966796875;1.27999999676831;129;1 A
1.94221999509637;-0.39971923828125;-0.0086944580078125;1.28999999674306;130;1 A
1.95221999507112;-0.399688720703125;-0.00873718261718751;1.29999999671782;131;1 A
1.96221999504587;-0.399658203125;-0.00887145996093749;1.30999999669257;132;1 A
1.97221999502062;-0.399688720703125;-0.0088623046875;1.31999999666732;133;1 A
1.98221999499538;-0.399688720703125;-0.0088348388671875;1.32999999664207;134;1 A
1.99221999497013;-0.3997802734375;-0.0088958740234375;1.33999999661683;135;1 A
2.00221999494488;-0.399749755859375;-0.00887145996093749;1.34999999659158;136;1 A
2.01221999491963;-0.3997802734375;-0.00878295898437501;1.35999999656633;137;1 A
2.02221999489439;-0.39971923828125;-0.00878295898437501;1.36999999654108;138;1 A
2.03221999486914;-0.399658203125;-0.0088653564453125;1.37999999651583;139;1 A
2.04221999484389;-0.399658203125;-0.0088653564453125;1.38999999649059;140;1 A
2.05221999481864;-0.39971923828125;-0.008880615234375;1.39999999646534;141;1 A
2.0622199947934;-0.399749755859375;-0.00900878906249999;1.40999999644009;142;1 A
2.07221999476815;-0.399688720703125;-0.00904541015625;1.41999999641484;143;1 A
2.0822199947429;-0.3997802734375;-0.008941650390625;1.4299999963896;144;1 A
2.09221999471765;-0.39971923828125;-0.0089599609375;1.43999999636435;145;1 A
2.1022199946924;-0.399749755859375;-0.008984375;1.4499999963391;146;1 A
2.11221999466716;-0.399749755859375;-0.00888671874999999;1.45999999631385;147;1 A
2.12221999464191;-0.399627685546875;-0.0088623046875;1.46999999628861;148;1 A
2.13221999461666;-0.399658203125;-0.008941650390625;1.47999999626336;149;1 A
2.14221999459141;-0.399688720703125;-0.0089385986328125;1.48999999623811;150;1 A
2.15221999456617;-0.399749755859375;-0.0088958740234375;1.49999999621286;151;1 A
2.16221999454092;-0.3997802734375;-0.00898132324218751;1.50999999618762;152;1 A
2.17221999451567;-0.39971923828125;-0.00902404785156249;1.51999999616237;153;1 A
2.18221999449042;-0.39971923828125;-0.0089263916015625;1.52999999613712;154;1 A
2.19221999446518;-0.39971923828125;-0.0089385986328125;1.53999999611187;155;1 A
2.20221999443993;-0.399627685546875;-0.0089996337890625;1.54999999608663;156;1 A
2.21221999441468;-0.39971923828125;-0.00897827148437499;1.55999999606138;157;1 A
2.22221999438943;-0.399688720703125;-0.0089447021484375;1.56999999603613;158;1 A
2.23221999436419;-0.3997802734375;-0.00905456542968749;1.57999999601088;159;1 A
2.24221999433894;-0.399749755859375;-0.00911560058593749;1.58999999598564;160;1 A
2.25221999431369;-0.399749755859375;-0.0090301513671875;1.59999999596039;161;1 A
2.26221999428844;-0.39971923828125;-0.00902099609375;1.60999999593514;162;1 A
2.2722199942632;-0.39971923828125;-0.00906982421874999;1.61999999590989;163;1 A
2.28221999423795;-0.399688720703125;-0.0089691162109375;1.62999999588465;164;1 A
2.2922199942127;-0.39971923828125;-0.0088958740234375;1.6399999958594;165;1 A
2.30221999418745;-0.39971923828125;-0.00892333984375;1.64999999583415;166;1 A
2.31221999416221;-0.3997802734375;-0.0088531494140625;1.6599999958089;167;1 A
2.32221999413696;-0.3997802734375;-0.00877990722656249;1.66999999578366;168;1 A
2.33221999411171;-0.399749755859375;-0.008819580078125;1.67999999575841;169;1 A
2.34221999408646;-0.39971923828125;-0.0088531494140625;1.68999999573316;170;1 A
2.35221999406122;-0.399688720703125;-0.0088165283203125;1.69999999570791;171;1 A
2.36221999403597;-0.399688720703125;-0.0088348388671875;1.70999999568267;172;1 A
2.37221999401072;-0.39971923828125;-0.00890502929687501;1.71999999565742;173;1 A
2.38221999398547;-0.39971923828125;-0.0088836669921875;1.72999999563217;174;1 A
2.39221999396023;-0.39971923828125;-0.0088348388671875;1.73999999560692;175;1 A
2.40221999393498;-0.39971923828125;-0.0088958740234375;1.74999999558167;176;1 A
2.41221999390973;-0.39971923828125;-0.0089447021484375;1.75999999555643;177;1 A
2.42221999388448;-0.399749755859375;-0.008868408203125;1.76999999553118;178;1 A
2.43221999385923;-0.399658203125;-0.0088348388671875;1.77999999550593;179;1 A
2.44221999383399;-0.399658203125;-0.008880615234375;1.78999999548068;180;1 A
2.45221999380874;-0.399749755859375;-0.008770751953125;1.79999999545544;181;1 A
2.46221999378349;-0.399688720703125;-0.0087005615234375;1.80999999543019;182;1 A
2.47221999375824;-0.399749755859375;-0.00873413085937499;1.81999999540494;183;1 A
2.482219993733;-0.399749755859375;-0.00868835449218749;1.82999999537969;184;1 A
2.49221999370775;-0.399749755859375;-0.00859375;1.83999999535445;185;1 A
2.5022199936825;-0.39971923828125;-0.00858459472656251;1.8499999953292;186;1 A
2.51221999365725;-0.399658203125;-0.008648681640625;1.85999999530395;187;1 A
2.52221999363201;-0.399658203125;-0.0086395263671875;1.8699999952787;188;1 A
2.53221999360676;-0.399658203125;-0.0086334228515625;1.87999999525346;189;1 A
2.54221999358151;-0.399749755859375;-0.0086944580078125;1.88999999522821;190;1 A
2.55221999355626;-0.399749755859375;-0.0086944580078125;1.89999999520296;191;1 A
2.56221999353102;-0.399749755859375;-0.00863037109375001;1.90999999517771;192;1 A
2.57221999350577;-0.39971923828125;-0.00871887207031249;1.91999999515247;193;1 A
2.58221999348052;-0.39971923828125;-0.008807373046875;1.92999999512722;194;1 A
2.59221999345527;-0.399749755859375;-0.00873718261718751;1.93999999510197;195;1 A
2.60221999343003;-0.39971923828125;-0.0087432861328125;1.94999999507672;196;1 A
2.61221999340478;-0.399749755859375;-0.00880126953125;1.95999999505148;197;1 A
2.62221999337953;-0.399749755859375;-0.00873718261718751;1.96999999502623;198;1 A
2.63221999335428;-0.399658203125;-0.00866088867187501;1.97999999500098;199;1 A
2.64221999332904;-0.39971923828125;-0.0087005615234375;1.98999999497573;200;1 A
2.65221999330379;-0.399658203125;-0.00872802734375;1.99999999495049;201;1 A
2.66221999327854;-0.39971923828125;-0.00867919921875;2.00999999492524;202;1 A
2.67221999325329;-0.39971923828125;-0.00872802734375;2.01999999489999;203;1 A
2.68221999322805;-0.399688720703125;-0.00882873535156251;2.02999999487474;204;1 A
2.6922199932028;-0.39971923828125;-0.0088531494140625;2.0399999948495;205;1 A
2.70221999317755;-0.399688720703125;-0.00885925292968751;2.04999999482425;206;1 A
2.7122199931523;-0.399688720703125;-0.0089569091796875;2.059999994799;207;1 A
2.72221999312706;-0.3997802734375;-0.0089874267578125;2.06999999477375;208;1 A
2.73221999310181;-0.39971923828125;-0.00888977050781251;2.0799999947485;209;1 A
2.74221999307656;-0.39971923828125;-0.00892028808593751;2.08999999472326;210;1 A
2.75221999305131;-0.39971923828125;-0.00896606445312501;2.09999999469801;211;1 A
2.76221999302606;-0.399688720703125;-0.00884094238281249;2.10999999467276;212;1 A
2.77221999300082;-0.399658203125;-0.00880126953125;2.11999999464751;213;1 A
2.78221999297557;-0.399749755859375;-0.0088775634765625;2.12999999462227;214;1 A
2.79221999295032;-0.399749755859375;-0.0088775634765625;2.13999999459702;215;1 A
2.80221999292507;-0.39971923828125;-0.00879821777343751;2.14999999457177;216;1 A
2.81221999289983;-0.3997802734375;-0.00880126953125;2.15999999454652;217;1 A
2.82221999287458;-0.399688720703125;-0.0087890625;2.16999999452128;218;1 A
2.83221999284933;-0.39971923828125;-0.0086639404296875;2.17999999449603;219;1 A
2.84221999282408;-0.399658203125;-0.008648681640625;2.18999999447078;220;1 A
2.85221999279884;-0.39971923828125;-0.00865783691406249;2.19999999444553;221;1 A
2.86221999277359;-0.399749755859375;-0.00864257812499999;2.20999999442029;222;1 A
2.87221999274834;-0.399658203125;-0.0086029052734375;2.21999999439504;223;1 A
2.88221999272309;-0.39971923828125;-0.00868835449218749;2.22999999436979;224;1 A
2.89221999269785;-0.39971923828125;-0.00874938964843749;2.23999999434454;225;1 A
2.9022199926726;-0.39971923828125;-0.008685302734375;2.2499999943193;226;1 A
2.91221999264735;-0.39971923828125;-0.00871887207031249;2.25999999429405;227;1 A
2.9222199926221;-0.399658203125;-0.008831787109375;2.2699999942688;228;1 A
2.93221999259686;-0.399749755859375;-0.008770751953125;2.27999999424355;229;1 A
2.94221999257161;-0.399658203125;-0.0087860107421875;2.28999999421831;230;1 A
2.95221999254636;-0.3997802734375;-0.0089141845703125;2.29999999419306;231;1 A
2.96221999252111;-0.399749755859375;-0.0089263916015625;2.30999999416781;232;1 A
2.97221999249587;-0.399749755859375;-0.00885925292968751;2.31999999414256;233;1 A
2.98221999247062;-0.399749755859375;-0.00887451171875001;2.32999999411732;234;1 A
2.99221999244537;-0.399688720703125;-0.0088775634765625;2.33999999409207;235;1 A
3.00221999242012;-0.399658203125;-0.00879516601562499;2.34999999406682;236;1 A
3.01221999239488;-0.399749755859375;-0.0087432861328125;2.35999999404157;237;1 A
3.02221999236963;-0.3997802734375;-0.00879821777343751;2.36999999401633;238;1 A
3.03221999234438;-0.39984130859375;-0.0088165283203125;2.37999999399108;239;1 A
3.04221999231913;-0.3997802734375;-0.0087432861328125;2.38999999396583;240;1 A
3.05221999229389;-0.39984130859375;-0.00876464843749999;2.39999999394058;241;1 A
3.06221999226864;-0.399749755859375;-0.0087921142578125;2.40999999391533;242;1 A
3.07221999224339;-0.3997802734375;-0.00872802734375;2.41999999389009;243;1 A
3.08221999221814;-0.399658203125;-0.00875244140625001;2.42999999386484;244;1 A
3.0922199921929;-0.3997802734375;-0.00887145996093749;2.43999999383959;245;1 A
3.10221999216765;-0.3997802734375;-0.0088623046875;2.44999999381434;246;1 A
3.1122199921424;-0.399749755859375;-0.00884094238281249;2.4599999937891;247;1 A
3.12221999211715;-0.39971923828125;-0.0089263916015625;2.46999999376385;248;1 A
3.1322199920919;-0.399749755859375;-0.00892028808593751;2.4799999937386;249;1 A
3.14221999206666;-0.39971923828125;-0.00884399414062501;2.48999999371335;250;1 A
3.15221999204141;-0.399810791015625;-0.008837890625;2.49999999368811;251;1 A
3.16221999201616;-0.399658203125;-0.0088775634765625;2.50999999366286;252;1 A
3.17221999199091;-0.399749755859375;-0.00877990722656249;2.51999999363761;253;1 A
3.18221999196567;-0.399749755859375;-0.00872802734375;2.52999999361236;254;1 A
3.19221999194042;-0.39971923828125;-0.00877685546875;2.53999999358712;255;1 A
3.20221999191517;-0.3997802734375;-0.0087890625;2.54999999356187;256;1 A
3.21221999188992;-0.3997802734375;-0.008746337890625;2.55999999353662;257;1 A
3.22221999186468;-0.3997802734375;-0.00878295898437501;2.56999999351137;258;1 A
3.23221999183943;-0.399688720703125;-0.0088623046875;2.57999999348613;259;1 A
3.24221999181418;-0.399658203125;-0.00880126953125;2.58999999346088;260;1 A
3.25221999178893;-0.399749755859375;-0.008770751953125;2.59999999343563;261;1 A
3.26221999176369;-0.39971923828125;-0.00882568359374999;2.60999999341038;262;1 A
3.27221999173844;-0.39971923828125;-0.008807373046875;2.61999999338514;263;1 A
3.28221999171319;-0.399688720703125;-0.0087554931640625;2.62999999335989;264;1 A
3.29221999168794;-0.39984130859375;-0.008831787109375;2.63999999333464;265;1 A
3.3022199916627;-0.399688720703125;-0.00887145996093749;2.64999999330939;266;1 A
3.31221999163745;-0.399749755859375;-0.0087615966796875;2.65999999328415;267;1 A
3.3222199916122;-0.399749755859375;-0.0087554931640625;2.6699999932589;268;1 A
3.33221999158695;-0.399749755859375;-0.0088165283203125;2.67999999323365;269;1 A
3.34221999156171;-0.399749755859375;-0.00876770019531251;2.6899999932084;270;1 A
3.35221999153646;-0.39971923828125;-0.00869140625000001;2.69999999318316;271;1 A
3.36221999151121;-0.399688720703125;-0.00870666503906251;2.70999999315791;272;1 A
3.37221999148596;-0.39971923828125;-0.00869140625000001;2.71999999313266;273;1 A
3.38221999146072;-0.3997802734375;-0.008575439453125;2.72999999310741;274;1 A
3.39221999143547;-0.399749755859375;-0.00858154296874999;2.73999999308217;275;1 A
3.40221999141022;-0.399688720703125;-0.00863037109375001;2.74999999305692;276;1 A
3.41221999138497;-0.3997802734375;-0.00855407714843751;2.75999999303167;277;1 A
3.42221999135973;-0.3997802734375;-0.00850524902343749;2.76999999300642;278;1 A
3.43221999133448;-0.3997802734375;-0.00855407714843751;2.77999999298117;279;1 A
3.44221999130923;-0.399810791015625;-0.008575439453125;2.78999999295593;280;1 A
3.45221999128398;-0.39971923828125;-0.00855102539062499;2.79999999293068;281;1 A
3.46221999125873;-0.3997802734375;-0.0086181640625;2.80999999290543;282;1 A
3.47221999123349;-0.399749755859375;-0.00869140625000001;2.81999999288018;283;1 A
3.48221999120824;-0.399658203125;-0.008648681640625;2.82999999285494;284;1 A
3.49221999118299;-0.3997802734375;-0.00865478515625;2.83999999282969;285;1 A
3.50221999115774;-0.399749755859375;-0.008740234375;2.84999999280444;286;1 A
3.5122199911325;-0.39984130859375;-0.008740234375;2.85999999277919;287;1 A
3.52221999110725;-0.399749755859375;-0.008685302734375;2.86999999275395;288;1 A
3.532219991082;-0.3997802734375;-0.0087249755859375;2.8799999927287;289;1 A
3.54221999105675;-0.399810791015625;-0.008770751953125;2.88999999270345;290;1 A
3.55221999103151;-0.3997802734375;-0.0086822509765625;2.8999999926782;291;1 A
3.56221999100626;-0.39971923828125;-0.00868835449218749;2.90999999265296;292;1 A
3.57221999098101;-0.399749755859375;-0.0087310791015625;2.91999999262771;293;1 A
3.58221999095576;-0.399749755859375;-0.00868835449218749;2.92999999260246;294;1 A
3.59221999093052;-0.399810791015625;-0.0086517333984375;2.93999999257721;295;1 A
3.60221999090527;-0.39971923828125;-0.00873718261718751;2.94999999255197;296;1 A
3.61221999088002;-0.399749755859375;-0.00876464843749999;2.95999999252672;297;1 A
3.62221999085477;-0.399749755859375;-0.0086944580078125;2.96999999250147;298;1 A
3.63221999082953;-0.3997802734375;-0.0086944580078125;2.97999999247622;299;1 A
3.64221999080428;-0.399688720703125;-0.008758544921875;2.98999999245098;300;1 A
3.65221999077903;-0.3997802734375;-0.0086700439453125;2.99999999242573;301;1 A
3.66221999075378;-0.399749755859375;-0.0085906982421875;3.00999999240048;302;1 A
3.67221999072854;-0.399749755859375;-0.0086090087890625;3.01999999237523;303;1 A
3.68221999070329;-0.39990234375;-0.00861511230468751;3.02999999234999;304;1 A
3.69221999067804;-0.3997802734375;-0.00858459472656251;3.03999999232474;305;1 A
3.70221999065279;-0.399871826171875;-0.00864562988281251;3.04999999229949;306;1 A
3.71221999062755;-0.39971923828125;-0.0087615966796875;3.05999999227424;307;1 A
3.7222199906023;-0.399688720703125;-0.00871887207031249;3.069999992249;308;1 A
3.73221999057705;-0.399810791015625;-0.0087249755859375;3.07999999222375;309;1 A
3.7422199905518;-0.399749755859375;-0.0088531494140625;3.0899999921985;310;1 A
3.75221999052656;-0.39984130859375;-0.0088531494140625;3.09999999217325;311;1 A
3.76221999050131;-0.3997802734375;-0.00876770019531251;3.109999992148;312;1 A
3.77221999047606;-0.399810791015625;-0.008831787109375;3.11999999212276;313;1 A
3.78221999045081;-0.399749755859375;-0.0088653564453125;3.12999999209751;314;1 A
3.79221999042556;-0.39971923828125;-0.00876770019531251;3.13999999207226;315;1 A
3.80221999040032;-0.3997802734375;-0.00872192382812501;3.14999999204701;316;1 A
3.81221999037507;-0.399749755859375;-0.008758544921875;3.15999999202177;317;1 A
3.82221999034982;-0.3997802734375;-0.00871887207031249;3.16999999199652;318;1 A
3.83221999032457;-0.399749755859375;-0.00864257812499999;3.17999999197127;319;1 A
3.84221999029933;-0.39971923828125;-0.00868835449218749;3.18999999194602;320;1 A
3.85221999027408;-0.399749755859375;-0.0086822509765625;3.19999999192078;321;1 A
3.86221999024883;-0.399749755859375;-0.00859985351562501;3.20999999189553;322;1 A
3.87221999022358;-0.3997802734375;-0.008624267578125;3.21999999187028;323;1 A
3.88221999019834;-0.39971923828125;-0.0086944580078125;3.22999999184503;324;1 A
3.89221999017309;-0.3997802734375;-0.0086517333984375;3.23999999181979;325;1 A
3.90221999014784;-0.399810791015625;-0.00864257812499999;3.24999999179454;326;1 A
3.91221999012259;-0.39971923828125;-0.0086944580078125;3.25999999176929;327;1 A
3.92221999009735;-0.39984130859375;-0.00867614746093751;3.26999999174404;328;1 A
3.9322199900721;-0.399749755859375;-0.00859375;3.2799999917188;329;1 A
3.94221999004685;-0.399749755859375;-0.00860595703125;3.28999999169355;330;1 A
3.9522199900216;-0.399749755859375;-0.00865783691406249;3.2999999916683;331;1 A
3.96221998999636;-0.399749755859375;-0.00862731933593749;3.30999999164305;332;1 A
3.97221998997111;-0.399810791015625;-0.0086090087890625;3.31999999161781;333;1 A
3.98221998994586;-0.399749755859375;-0.00866088867187501;3.32999999159256;334;1 A
3.99221998992061;-0.39984130859375;-0.0086334228515625;3.33999999156731;335;1 A
4.00221998989537;-0.399749755859375;-0.0085723876953125;3.34999999154206;336;1 A
4.01221998987012;-0.3997802734375;-0.0086639404296875;3.35999999151682;337;1 A
4.02221998984487;-0.399810791015625;-0.00879821777343751;3.36999999149157;338;1 A
4.03221998981962;-0.3997802734375;-0.008770751953125;3.37999999146632;339;1 A
4.04221998979438;-0.399749755859375;-0.008807373046875;3.38999999144107;340;1 A
4.05221998976913;-0.399688720703125;-0.0088775634765625;3.39999999141583;341;1 A
4.06221998974388;-0.399749755859375;-0.008837890625;3.40999999139058;342;1 A
4.07221998971863;-0.3997802734375;-0.0087554931640625;3.41999999136533;343;1 A
4.08221998969339;-0.399658203125;-0.00875244140625001;3.42999999134008;344;1 A
4.09221998966814;-0.399810791015625;-0.00873718261718751;3.43999999131483;345;1 A
4.10221998964289;-0.39971923828125;-0.0086669921875;3.44999999128959;346;1 A
4.11221998961764;-0.39971923828125;-0.008685302734375;3.45999999126434;347;1 A
4.12221998959239;-0.399749755859375;-0.00873413085937499;3.46999999123909;348;1 A
4.13221998956715;-0.399749755859375;-0.0087158203125;3.47999999121384;349;1 A
4.1422199895419;-0.399749755859375;-0.0086944580078125;3.4899999911886;350;1 A
4.15221998951665;-0.399688720703125;-0.00876464843749999;3.49999999116335;351;1 A
4.1622199894914;-0.39984130859375;-0.0087554931640625;3.5099999911381;352;1 A
4.17221998946616;-0.399749755859375;-0.0086822509765625;3.51999999111285;353;1 A
4.18221998944091;-0.399749755859375;-0.0086700439453125;3.52999999108761;354;1 A
4.19221998941566;-0.39971923828125;-0.0087158203125;3.53999999106236;355;1 A
4.20221998939041;-0.399627685546875;-0.008636474609375;3.54999999103711;356;1 A
4.21221998936517;-0.39971923828125;-0.008575439453125;3.55999999101186;357;1 A
4.22221998933992;-0.399749755859375;-0.00861511230468751;3.56999999098662;358;1 A
4.23221998931467;-0.39984130859375;-0.00856933593750001;3.57999999096137;359;1 A
4.24221998928942;-0.39984130859375;-0.00853881835937501;3.58999999093612;360;1 A
4.25221998926418;-0.3997802734375;-0.00861206054687499;3.59999999091087;361;1 A
4.26221998923893;-0.39984130859375;-0.00864562988281251;3.60999999088563;362;1 A
4.27221998921368;-0.3997802734375;-0.0085906982421875;3.61999999086038;363;1 A
4.28221998918843;-0.399749755859375;-0.008624267578125;3.62999999083513;364;1 A
4.29221998916319;-0.3997802734375;-0.0087127685546875;3.63999999080988;365;1 A
4.30221998913794;-0.3997802734375;-0.00869140625000001;3.64999999078464;366;1 A
4.31221998911269;-0.399810791015625;-0.00864257812499999;3.65999999075939;367;1 A
4.32221998908744;-0.399658203125;-0.00873718261718751;3.66999999073414;368;1 A
4.3322199890622;-0.399810791015625;-0.0087921142578125;3.67999999070889;369;1 A
4.34221998903695;-0.399749755859375;-0.008740234375;3.68999999068365;370;1 A
4.3522199890117;-0.399749755859375;-0.008746337890625;3.6999999906584;371;1 A
4.36221998898645;-0.399749755859375;-0.0087860107421875;3.70999999063315;372;1 A
4.37221998896121;-0.3997802734375;-0.0087432861328125;3.7199999906079;373;1 A
4.38221998893596;-0.3997802734375;-0.0086944580078125;3.72999999058266;374;1 A
4.39221998891071;-0.399688720703125;-0.00876770019531251;3.73999999055741;375;1 A
4.40221998888546;-0.3997802734375;-0.00881042480468749;3.74999999053216;376;1 A
4.41221998886022;-0.3997802734375;-0.008758544921875;3.75999999050691;377;1 A
4.42221998883497;-0.399810791015625;-0.008807373046875;3.76999999048167;378;1 A
4.43221998880972;-0.3997802734375;-0.00884399414062501;3.77999999045642;379;1 A
4.44221998878447;-0.399658203125;-0.0087890625;3.78999999043117;380;1 A
4.45221998875923;-0.3997802734375;-0.008770751953125;3.79999999040592;381;1 A
4.46221998873398;-0.39971923828125;-0.00884094238281249;3.80999999038067;382;1 A
4.47221998870873;-0.3997802734375;-0.00885620117187499;3.81999999035543;383;1 A
4.48221998868348;-0.3997802734375;-0.00880126953125;3.82999999033018;384;1 A
4.49221998865823;-0.399749755859375;-0.00888671874999999;3.83999999030493;385;1 A
4.50221998863299;-0.399810791015625;-0.0089599609375;3.84999999027968;386;1 A
4.51221998860774;-0.399749755859375;-0.0088958740234375;3.85999999025444;387;1 A
4.52221998858249;-0.39971923828125;-0.0089080810546875;3.86999999022919;388;1 A
4.53221998855724;-0.399749755859375;-0.0090057373046875;3.87999999020394;389;1 A
4.542219988532;-0.399749755859375;-0.0089569091796875;3.88999999017869;390;1 A
4.55221998850675;-0.399810791015625;-0.0088470458984375;3.89999999015345;391;1 A
4.5622199884815;-0.399627685546875;-0.0088623046875;3.9099999901282;392;1 A
4.57221998845625;-0.399810791015625;-0.0088623046875;3.91999999010295;393;1 A
4.58221998843101;-0.399749755859375;-0.0088226318359375;3.9299999900777;394;1 A
4.59221998840576;-0.3997802734375;-0.0088653564453125;3.93999999005246;395;1 A
4.60221998838051;-0.3997802734375;-0.0089691162109375;3.94999999002721;396;1 A
4.61221998835526;-0.39971923828125;-0.00890502929687501;3.95999999000196;397;1 A
4.62221998833002;-0.3997802734375;-0.00885620117187499;3.96999998997671;398;1 A
4.63221998830477;-0.399749755859375;-0.008837890625;3.97999998995147;399;1 A
4.64221998827952;-0.39984130859375;-0.00878295898437501;3.98999998992622;400;1 A
4.65221998825427;-0.3997802734375;-0.0086700439453125;3.99999998990097;401;1 A
4.66221998822903;-0.399749755859375;-0.0086822509765625;4.00999998987572;402;1 A
4.67221998820378;-0.399810791015625;-0.00872192382812501;4.01999998985048;403;1 A
4.68221998817853;-0.399688720703125;-0.0086517333984375;4.02999998982523;404;1 A
4.69221998815328;-0.3997802734375;-0.0086212158203125;4.03999998979998;405;1 A
4.70221998812804;-0.39971923828125;-0.00865783691406249;4.04999998977473;406;1 A
4.71221998810279;-0.399749755859375;-0.0086181640625;4.05999998974949;407;1 A
4.72221998807754;-0.39984130859375;-0.008563232421875;4.06999998972424;408;1 A
4.73221998805229;-0.39971923828125;-0.0086517333984375;4.07999998969899;409;1 A
4.74221998802705;-0.39984130859375;-0.0087249755859375;4.08999998967374;410;1 A
4.7522199880018;-0.3997802734375;-0.00865478515625;4.0999999896485;411;1 A
4.76221998797655;-0.399749755859375;-0.0086517333984375;4.10999998962325;412;1 A
4.7722199879513;-0.39971923828125;-0.00871887207031249;4.119999989598;413;1 A
4.78221998792606;-0.39971923828125;-0.0087249755859375;4.12999998957275;414;1 A
4.79221998790081;-0.39971923828125;-0.00870666503906251;4.1399999895475;415;1 A
4.80221998787556;-0.399658203125;-0.0087615966796875;4.14999998952226;416;1 A
4.81221998785031;-0.399749755859375;-0.00876770019531251;4.15999998949701;417;1 A
4.82221998782506;-0.399749755859375;-0.00870361328124999;4.16999998947176;418;1 A
4.83221998779982;-0.3997802734375;-0.00873413085937499;4.17999998944651;419;1 A
4.84221998777457;-0.399749755859375;-0.00885009765625;4.18999998942127;420;1 A
4.85221998774932;-0.39971923828125;-0.008807373046875;4.19999998939602;421;1 A
4.86221998772407;-0.3997802734375;-0.0087432861328125;4.20999998937077;422;1 A
4.87221998769883;-0.39971923828125;-0.0088043212890625;4.21999998934552;423;1 A
4.88221998767358;-0.3997802734375;-0.008807373046875;4.22999998932028;424;1 A
4.89221998764833;-0.399749755859375;-0.008740234375;4.23999998929503;425;1 A
4.90221998762308;-0.3997802734375;-0.00873413085937499;4.24999998926978;426;1 A
4.91221998759784;-0.399688720703125;-0.0087310791015625;4.25999998924453;427;1 A
4.92221998757259;-0.39971923828125;-0.00864257812499999;4.26999998921929;428;1 A
4.93221998754734;-0.399749755859375;-0.00859680175781249;4.27999998919404;429;1 A
4.94221998752209;-0.3997802734375;-0.00866088867187501;4.28999998916879;430;1 A
4.95221998749685;-0.39971923828125;-0.00865783691406249;4.29999998914354;431;1 A
4.9622199874716;-0.399810791015625;-0.00861511230468751;4.3099999891183;432;1 A
4.97221998744635;-0.399749755859375;-0.0086639404296875;4.31999998909305;433;1 A
4.9822199874211;-0.39971923828125;-0.00867614746093751;4.3299999890678;434;1 A
4.99221998739586;-0.3997802734375;-0.00859985351562501;4.33999998904255;435;1 A
5.00221998737061;-0.399749755859375;-0.0086212158203125;4.34999998901731;436;1 A
5.01221998734536;-0.399688720703125;-0.0086944580078125;4.35999998899206;437;1 A
5.02221998732011;-0.399688720703125;-0.00864562988281251;4.36999998896681;438;1 A
5.03221998729487;-0.3997802734375;-0.00858154296874999;4.37999998894156;439;1 A
5.04221998726962;-0.399627685546875;-0.00865478515625;4.38999998891632;440;1 A
5.05221998724437;-0.399749755859375;-0.0086944580078125;4.39999998889107;441;1 A
5.06221998721912;-0.399810791015625;-0.00864562988281251;4.40999998886582;442;1 A
5.07221998719388;-0.39971923828125;-0.0086700439453125;4.41999998884057;443;1 A
5.08221998716863;-0.399688720703125;-0.0087310791015625;4.42999998881533;444;1 A
5.09221998714338;-0.399688720703125;-0.0086700439453125;4.43999998879008;445;1 A
5.10221998711813;-0.399688720703125;-0.00862731933593749;4.44999998876483;446;1 A
5.11221998709289;-0.399749755859375;-0.0087432861328125;4.45999998873958;447;1 A
5.12221998706764;-0.3997802734375;-0.00881347656250001;4.46999998871433;448;1 A
5.13221998704239;-0.399688720703125;-0.0087554931640625;4.47999998868909;449;1 A
5.14221998701714;-0.399688720703125;-0.00878295898437501;4.48999998866384;450;1 A
5.15221998699189;-0.39971923828125;-0.00881347656250001;4.49999998863859;451;1 A
5.16221998696665;-0.399658203125;-0.008758544921875;4.50999998861334;452;1 A
5.1722199869414;-0.399749755859375;-0.0087615966796875;4.5199999885881;453;1 A
5.18221998691615;-0.39971923828125;-0.00881042480468749;4.52999998856285;454;1 A
5.1922199868909;-0.399688720703125;-0.00878295898437501;4.5399999885376;455;1 A
5.20221998686566;-0.399810791015625;-0.00867919921875;4.54999998851235;456;1 A
5.21221998684041;-0.39971923828125;-0.0087249755859375;4.55999998848711;457;1 A
5.22221998681516;-0.39971923828125;-0.0087249755859375;4.56999998846186;458;1 A
5.23221998678991;-0.39971923828125;-0.00864257812499999;4.57999998843661;459;1 A
5.24221998676467;-0.399688720703125;-0.0086700439453125;4.58999998841136;460;1 A
5.25221998673942;-0.399749755859375;-0.008770751953125;4.59999998838612;461;1 A
5.26221998671417;-0.399688720703125;-0.00876770019531251;4.60999998836087;462;1 A
5.27221998668892;-0.399749755859375;-0.0087249755859375;4.61999998833562;463;1 A
5.28221998666368;-0.399627685546875;-0.00876770019531251;4.62999998831037;464;1 A
5.29221998663843;-0.39971923828125;-0.008758544921875;4.63999998828513;465;1 A
5.30221998661318;-0.3997802734375;-0.00867919921875;4.64999998825988;466;1 A
5.31221998658793;-0.399749755859375;-0.00869140625000001;4.65999998823463;467;1 A
5.32221998656269;-0.399749755859375;-0.00872802734375;4.66999998820938;468;1 A
5.33221998653744;-0.399688720703125;-0.0086639404296875;4.67999998818414;469;1 A
5.34221998651219;-0.399749755859375;-0.0086669921875;4.68999998815889;470;1 A
5.35221998648694;-0.399688720703125;-0.00873413085937499;4.69999998813364;471;1 A
5.3622199864617;-0.399749755859375;-0.0087554931640625;4.70999998810839;472;1 A
5.37221998643645;-0.3997802734375;-0.0087005615234375;4.71999998808315;473;1 A
5.3822199864112;-0.399688720703125;-0.00873718261718751;4.7299999880579;474;1 A
5.39221998638595;-0.39971923828125;-0.008758544921875;4.73999998803265;475;1 A
5.40221998636071;-0.3997802734375;-0.0087127685546875;4.7499999880074;476;1 A
5.41221998633546;-0.399688720703125;-0.00873413085937499;4.75999998798216;477;1 A
5.42221998631021;-0.39971923828125;-0.0088470458984375;4.76999998795691;478;1 A
5.43221998628496;-0.399688720703125;-0.0088348388671875;4.77999998793166;479;1 A
5.44221998625972;-0.39984130859375;-0.0087860107421875;4.78999998790641;480;1 A
5.45221998623447;-0.39971923828125;-0.00885620117187499;4.79999998788116;481;1 A
5.46221998620922;-0.39971923828125;-0.008868408203125;4.80999998785592;482;1 A
5.47221998618397;-0.39971923828125;-0.00877990722656249;4.81999998783067;483;1 A
5.48221998615873;-0.399658203125;-0.00878295898437501;4.82999998780542;484;1 A
5.49221998613348;-0.399688720703125;-0.008831787109375;4.83999998778017;485;1 A
5.50221998610823;-0.399749755859375;-0.0087615966796875;4.84999998775493;486;1 A
5.51221998608298;-0.39971923828125;-0.00870666503906251;4.85999998772968;487;1 A
5.52221998605773;-0.399658203125;-0.008807373046875;4.86999998770443;488;1 A
5.53221998603249;-0.39971923828125;-0.00882873535156251;4.87999998767918;489;1 A
5.54221998600724;-0.39971923828125;-0.00874938964843749;4.88999998765394;490;1 A
5.55221998598199;-0.399658203125;-0.00874938964843749;4.89999998762869;491;1 A
5.56221998595674;-0.399658203125;-0.0086334228515625;4.90999998760344;492;1 A
5.5722199859315;-0.399688720703125;-0.0086334228515625;4.91999998757819;493;1 A
5.58221998590625;-0.399688720703125;-0.00856628417968749;4.92999998755295;494;1 A
5.592219985881;-0.3997802734375;-0.00858459472656251;4.9399999875277;495;1 A
5.60221998585575;-0.3997802734375;-0.00853576660156249;4.94999998750245;496;1 A
5.61221998583051;-0.39971923828125;-0.0084716796875;4.9599999874772;497;1 A
5.62221998580526;-0.399658203125;-0.0085296630859375;4.96999998745196;498;1 A
5.63221998578001;-0.399658203125;-0.008575439453125;4.97999998742671;499;1 A
5.64221998575476;-0.399749755859375;-0.00852355957031251;4.98999998740146;500;1 A
