Time (s);WE(1).Potential (V);WE(1).Current (A);Corrected time (s);Index;Current range
11.7355269703706;-0.5997314453125;-0.0126434326171875;0;1;1 A
11.7455269703454;-0.599761962890625;-0.0113739013671875;0.00999999997475243;2;1 A
11.7555269703201;-0.5997314453125;-0.01085205078125;0.0199999999495049;3;1 A
11.7655269702949;-0.59979248046875;-0.0103607177734375;0.0299999999242573;4;1 A
11.7755269702697;-0.59979248046875;-0.010101318359375;0.0399999998990097;5;1 A
11.7855269702444;-0.5997314453125;-0.00998840332031251;0.0499999998737621;6;1 A
11.7955269702192;-0.59967041015625;-0.00983276367187499;0.0599999998485146;7;1 A
11.8055269701939;-0.59979248046875;-0.0096160888671875;0.069999999823267;8;1 A
11.8155269701687;-0.5997314453125;-0.00964965820312499;0.0799999997980194;9;1 A
11.8255269701434;-0.59979248046875;-0.0096099853515625;0.0899999997727718;10;1 A
11.8355269701182;-0.599700927734375;-0.00938720703125;0.0999999997475243;11;1 A
11.8455269700929;-0.599822998046875;-0.00937499999999999;0.109999999722277;12;1 A
11.8555269700677;-0.599761962890625;-0.0093658447265625;0.119999999697029;13;1 A
11.8655269700424;-0.5997314453125;-0.00926513671875;0.129999999671782;14;1 A
11.8755269700172;-0.599822998046875;-0.00917663574218749;0.139999999646534;15;1 A
11.8855269699919;-0.5997314453125;-0.0091888427734375;0.149999999621286;16;1 A
11.8955269699667;-0.59979248046875;-0.0091400146484375;0.159999999596039;17;1 A
11.9055269699414;-0.59979248046875;-0.0090301513671875;0.169999999570791;18;1 A
11.9155269699162;-0.599853515625;-0.0090789794921875;0.179999999545544;19;1 A
11.9255269698909;-0.599761962890625;-0.0091522216796875;0.189999999520296;20;1 A
11.9355269698657;-0.599761962890625;-0.0090606689453125;0.199999999495049;21;1 A
11.9455269698404;-0.599853515625;-0.00909423828125;0.209999999469801;22;1 A
11.9555269698152;-0.599761962890625;-0.00914306640625;0.219999999444553;23;1 A
11.9655269697899;-0.59979248046875;-0.0090789794921875;0.229999999419306;24;1 A
11.9755269697647;-0.59979248046875;-0.0090179443359375;0.239999999394058;25;1 A
11.9855269697395;-0.599761962890625;-0.00901184082031251;0.249999999368811;26;1 A
11.9955269697142;-0.5997314453125;-0.00903930664062499;0.259999999343563;27;1 A
12.005526969689;-0.599761962890625;-0.00890502929687501;0.269999999318316;28;1 A
12.0155269696637;-0.5997314453125;-0.0088958740234375;0.279999999293068;29;1 A
12.0255269696385;-0.599700927734375;-0.00892333984375;0.28999999926782;30;1 A
12.0355269696132;-0.5997314453125;-0.008880615234375;0.299999999242573;31;1 A
12.045526969588;-0.599761962890625;-0.00885925292968751;0.309999999217325;32;1 A
12.0555269695627;-0.59979248046875;-0.008929443359375;0.319999999192078;33;1 A
12.0655269695375;-0.59979248046875;-0.0089111328125;0.32999999916683;34;1 A
12.0755269695122;-0.599639892578125;-0.00881347656250001;0.339999999141583;35;1 A
12.085526969487;-0.59979248046875;-0.008819580078125;0.349999999116335;36;1 A
12.0955269694617;-0.5997314453125;-0.00890197753906249;0.359999999091087;37;1 A
12.1055269694365;-0.599761962890625;-0.0088348388671875;0.36999999906584;38;1 A
12.1155269694112;-0.599700927734375;-0.00881347656250001;0.379999999040592;39;1 A
12.125526969386;-0.59979248046875;-0.00892028808593751;0.389999999015345;40;1 A
12.1355269693607;-0.599761962890625;-0.00891723632812499;0.399999998990097;41;1 A
12.1455269693355;-0.5997314453125;-0.0088653564453125;0.40999999896485;42;1 A
12.1555269693102;-0.59991455078125;-0.008892822265625;0.419999998939602;43;1 A
12.165526969285;-0.599700927734375;-0.0089752197265625;0.429999998914354;44;1 A
12.1755269692597;-0.599700927734375;-0.00891723632812499;0.439999998889107;45;1 A
12.1855269692345;-0.599700927734375;-0.0089447021484375;0.449999998863859;46;1 A
12.1955269692093;-0.5997314453125;-0.00904541015625;0.459999998838612;47;1 A
12.205526969184;-0.5997314453125;-0.00899658203125001;0.469999998813364;48;1 A
12.2155269691588;-0.59967041015625;-0.00892028808593751;0.479999998788116;49;1 A
12.2255269691335;-0.5997314453125;-0.008990478515625;0.489999998762869;50;1 A
12.2355269691083;-0.59967041015625;-0.00902709960937501;0.499999998737621;51;1 A
12.245526969083;-0.599761962890625;-0.00892333984375;0.509999998712374;52;1 A
12.2555269690578;-0.599700927734375;-0.00890197753906249;0.519999998687126;53;1 A
12.2655269690325;-0.59967041015625;-0.00897216796875;0.529999998661879;54;1 A
12.2755269690073;-0.599700927734375;-0.008880615234375;0.539999998636631;55;1 A
12.285526968982;-0.599700927734375;-0.00877685546875;0.549999998611383;56;1 A
12.2955269689568;-0.59979248046875;-0.0088470458984375;0.559999998586136;57;1 A
12.3055269689315;-0.599639892578125;-0.00882873535156251;0.569999998560888;58;1 A
12.3155269689063;-0.599639892578125;-0.00872802734375;0.579999998535641;59;1 A
12.325526968881;-0.599700927734375;-0.0087615966796875;0.589999998510393;60;1 A
12.3355269688558;-0.599700927734375;-0.00882873535156251;0.599999998485146;61;1 A
12.3455269688305;-0.59979248046875;-0.00879516601562499;0.609999998459898;62;1 A
12.3555269688053;-0.599761962890625;-0.00873413085937499;0.61999999843465;63;1 A
12.36552696878;-0.5997314453125;-0.00879516601562499;0.629999998409403;64;1 A
12.3755269687548;-0.599700927734375;-0.00875244140625001;0.639999998384155;65;1 A
12.3855269687296;-0.5997314453125;-0.00866088867187501;0.649999998358908;66;1 A
12.3955269687043;-0.599822998046875;-0.0087432861328125;0.65999999833366;67;1 A
12.4055269686791;-0.599700927734375;-0.00879821777343751;0.669999998308413;68;1 A
12.4155269686538;-0.599761962890625;-0.00869140625000001;0.679999998283165;69;1 A
12.4255269686286;-0.599700927734375;-0.00865478515625;0.689999998257917;70;1 A
12.4355269686033;-0.599822998046875;-0.0087432861328125;0.69999999823267;71;1 A
12.4455269685781;-0.59967041015625;-0.00877685546875;0.709999998207422;72;1 A
12.4555269685528;-0.599700927734375;-0.00873413085937499;0.719999998182175;73;1 A
12.4655269685276;-0.599761962890625;-0.0088653564453125;0.729999998156927;74;1 A
12.4755269685023;-0.59967041015625;-0.0089111328125;0.73999999813168;75;1 A
12.4855269684771;-0.599761962890625;-0.00880126953125;0.749999998106432;76;1 A
12.4955269684518;-0.5997314453125;-0.00885009765625;0.759999998081184;77;1 A
12.5055269684266;-0.5997314453125;-0.0089111328125;0.769999998055937;78;1 A
12.5155269684013;-0.59967041015625;-0.0088531494140625;0.779999998030689;79;1 A
12.5255269683761;-0.5997314453125;-0.0087860107421875;0.789999998005442;80;1 A
12.5355269683508;-0.5997314453125;-0.008880615234375;0.799999997980194;81;1 A
12.5455269683256;-0.599700927734375;-0.00885009765625;0.809999997954947;82;1 A
12.5555269683003;-0.599700927734375;-0.00875244140625001;0.819999997929699;83;1 A
12.5655269682751;-0.599700927734375;-0.00884094238281249;0.829999997904451;84;1 A
12.5755269682498;-0.59979248046875;-0.0089599609375;0.839999997879204;85;1 A
12.5855269682246;-0.599761962890625;-0.00893249511718749;0.849999997853956;86;1 A
12.5955269681994;-0.599822998046875;-0.0089447021484375;0.859999997828709;87;1 A
12.6055269681741;-0.5997314453125;-0.009002685546875;0.869999997803461;88;1 A
12.6155269681489;-0.599761962890625;-0.0089599609375;0.879999997778214;89;1 A
12.6255269681236;-0.599761962890625;-0.008868408203125;0.889999997752966;90;1 A
12.6355269680984;-0.599853515625;-0.0088623046875;0.899999997727718;91;1 A
12.6455269680731;-0.5997314453125;-0.0088470458984375;0.909999997702471;92;1 A
12.6555269680479;-0.59979248046875;-0.00871887207031249;0.919999997677223;93;1 A
12.6655269680226;-0.599761962890625;-0.0087005615234375;0.929999997651976;94;1 A
12.6755269679974;-0.599884033203125;-0.008746337890625;0.939999997626728;95;1 A
12.6855269679721;-0.599761962890625;-0.00871887207031249;0.949999997601481;96;1 A
12.6955269679469;-0.599761962890625;-0.00865478515625;0.959999997576233;97;1 A
12.7055269679216;-0.599761962890625;-0.00867309570312499;0.969999997550985;98;1 A
12.7155269678964;-0.5997314453125;-0.00866088867187501;0.979999997525738;99;1 A
12.7255269678711;-0.599761962890625;-0.00859375;0.98999999750049;100;1 A
12.7355269678459;-0.59979248046875;-0.00862731933593749;0.999999997475243;101;1 A
12.7455269678206;-0.59979248046875;-0.0087249755859375;1.00999999745;102;1 A
12.7555269677954;-0.5997314453125;-0.0086639404296875;1.01999999742475;103;1 A
12.7655269677701;-0.5997314453125;-0.008575439453125;1.0299999973995;104;1 A
12.7755269677449;-0.599761962890625;-0.00866088867187501;1.03999999737425;105;1 A
12.7855269677196;-0.59979248046875;-0.0086639404296875;1.049999997349;106;1 A
12.7955269676944;-0.599700927734375;-0.008624267578125;1.05999999732376;107;1 A
12.8055269676692;-0.599761962890625;-0.0086700439453125;1.06999999729851;108;1 A
12.8155269676439;-0.59979248046875;-0.00872802734375;1.07999999727326;109;1 A
12.8255269676187;-0.5997314453125;-0.0086669921875;1.08999999724801;110;1 A
12.8355269675934;-0.599822998046875;-0.00863037109375001;1.09999999722277;111;1 A
12.8455269675682;-0.5997314453125;-0.0087554931640625;1.10999999719752;112;1 A
12.8555269675429;-0.599822998046875;-0.00873718261718751;1.11999999717227;113;1 A
12.8655269675177;-0.599761962890625;-0.0086944580078125;1.12999999714702;114;1 A
12.8755269674924;-0.599853515625;-0.00879821777343751;1.13999999712178;115;1 A
12.8855269674672;-0.59979248046875;-0.008837890625;1.14999999709653;116;1 A
12.8955269674419;-0.599761962890625;-0.00876770019531251;1.15999999707128;117;1 A
12.9055269674167;-0.599761962890625;-0.0087738037109375;1.16999999704603;118;1 A
12.9155269673914;-0.599822998046875;-0.008807373046875;1.17999999702079;119;1 A
12.9255269673662;-0.599761962890625;-0.0087249755859375;1.18999999699554;120;1 A
12.9355269673409;-0.599822998046875;-0.008624267578125;1.19999999697029;121;1 A
12.9455269673157;-0.5997314453125;-0.00872192382812501;1.20999999694504;122;1 A
12.9555269672904;-0.599822998046875;-0.00876770019531251;1.2199999969198;123;1 A
12.9655269672652;-0.599700927734375;-0.00867614746093751;1.22999999689455;124;1 A
12.9755269672399;-0.5997314453125;-0.008685302734375;1.2399999968693;125;1 A
12.9855269672147;-0.5997314453125;-0.0087432861328125;1.24999999684405;126;1 A
12.9955269671894;-0.599639892578125;-0.0087005615234375;1.25999999681881;127;1 A
13.0055269671642;-0.599761962890625;-0.008636474609375;1.26999999679356;128;1 A
13.015526967139;-0.5997314453125;-0.008740234375;1.27999999676831;129;1 A
13.0255269671137;-0.59979248046875;-0.0087249755859375;1.28999999674306;130;1 A
13.0355269670885;-0.599639892578125;-0.00865478515625;1.29999999671782;131;1 A
13.0455269670632;-0.599853515625;-0.008746337890625;1.30999999669257;132;1 A
13.055526967038;-0.59979248046875;-0.008819580078125;1.31999999666732;133;1 A
13.0655269670127;-0.599761962890625;-0.00877685546875;1.32999999664207;134;1 A
13.0755269669875;-0.59979248046875;-0.00876464843749999;1.33999999661683;135;1 A
13.0855269669622;-0.59979248046875;-0.0088531494140625;1.34999999659158;136;1 A
13.095526966937;-0.59979248046875;-0.008868408203125;1.35999999656633;137;1 A
13.1055269669117;-0.599761962890625;-0.0087860107421875;1.36999999654108;138;1 A
13.1155269668865;-0.599853515625;-0.008868408203125;1.37999999651583;139;1 A
13.1255269668612;-0.5997314453125;-0.00893554687500001;1.38999999649059;140;1 A
13.135526966836;-0.59979248046875;-0.0088226318359375;1.39999999646534;141;1 A
13.1455269668107;-0.599761962890625;-0.00884399414062501;1.40999999644009;142;1 A
13.1555269667855;-0.599761962890625;-0.0089080810546875;1.41999999641484;143;1 A
13.1655269667602;-0.59979248046875;-0.00888671874999999;1.4299999963896;144;1 A
13.175526966735;-0.599700927734375;-0.00890197753906249;1.43999999636435;145;1 A
13.1855269667097;-0.599761962890625;-0.00905761718750001;1.4499999963391;146;1 A
13.1955269666845;-0.599639892578125;-0.00911560058593749;1.45999999631385;147;1 A
13.2055269666592;-0.599761962890625;-0.0089385986328125;1.46999999628861;148;1 A
13.215526966634;-0.59979248046875;-0.00892333984375;1.47999999626336;149;1 A
13.2255269666088;-0.5997314453125;-0.00893554687500001;1.48999999623811;150;1 A
13.2355269665835;-0.599700927734375;-0.0088348388671875;1.49999999621286;151;1 A
13.2455269665583;-0.5997314453125;-0.00876770019531251;1.50999999618762;152;1 A
13.255526966533;-0.599761962890625;-0.008831787109375;1.51999999616237;153;1 A
13.2655269665078;-0.5997314453125;-0.008837890625;1.52999999613712;154;1 A
13.2755269664825;-0.599639892578125;-0.00873718261718751;1.53999999611187;155;1 A
13.2855269664573;-0.5997314453125;-0.0087860107421875;1.54999999608663;156;1 A
13.295526966432;-0.599761962890625;-0.008831787109375;1.55999999606138;157;1 A
13.3055269664068;-0.59979248046875;-0.00871887207031249;1.56999999603613;158;1 A
13.3155269663815;-0.599700927734375;-0.00867919921875;1.57999999601088;159;1 A
13.3255269663563;-0.59979248046875;-0.00874938964843749;1.58999999598564;160;1 A
13.335526966331;-0.59979248046875;-0.00873413085937499;1.59999999596039;161;1 A
13.3455269663058;-0.59967041015625;-0.00868835449218749;1.60999999593514;162;1 A
13.3555269662805;-0.599884033203125;-0.0086944580078125;1.61999999590989;163;1 A
13.3655269662553;-0.59967041015625;-0.00872802734375;1.62999999588465;164;1 A
13.37552696623;-0.59979248046875;-0.00859680175781249;1.6399999958594;165;1 A
13.3855269662048;-0.599700927734375;-0.008575439453125;1.64999999583415;166;1 A
13.3955269661795;-0.59979248046875;-0.0086395263671875;1.6599999958089;167;1 A
13.4055269661543;-0.599761962890625;-0.00859375;1.66999999578366;168;1 A
13.4155269661291;-0.599700927734375;-0.008502197265625;1.67999999575841;169;1 A
13.4255269661038;-0.599761962890625;-0.0085906982421875;1.68999999573316;170;1 A
13.4355269660786;-0.59967041015625;-0.0085906982421875;1.69999999570791;171;1 A
13.4455269660533;-0.599761962890625;-0.008465576171875;1.70999999568267;172;1 A
13.4555269660281;-0.59967041015625;-0.0084686279296875;1.71999999565742;173;1 A
13.4655269660028;-0.599639892578125;-0.008544921875;1.72999999563217;174;1 A
13.4755269659776;-0.59967041015625;-0.008514404296875;1.73999999560692;175;1 A
13.4855269659523;-0.5997314453125;-0.00848999023437499;1.74999999558167;176;1 A
13.4955269659271;-0.5997314453125;-0.00865478515625;1.75999999555643;177;1 A
13.5055269659018;-0.599639892578125;-0.0086517333984375;1.76999999553118;178;1 A
13.5155269658766;-0.599700927734375;-0.0086029052734375;1.77999999550593;179;1 A
13.5255269658513;-0.59967041015625;-0.0086639404296875;1.78999999548068;180;1 A
13.5355269658261;-0.599761962890625;-0.00872802734375;1.79999999545544;181;1 A
13.5455269658008;-0.59979248046875;-0.0086669921875;1.80999999543019;182;1 A
13.5555269657756;-0.599700927734375;-0.008636474609375;1.81999999540494;183;1 A
13.5655269657503;-0.599761962890625;-0.00870361328124999;1.82999999537969;184;1 A
13.5755269657251;-0.599700927734375;-0.00867309570312499;1.83999999535445;185;1 A
13.5855269656998;-0.5997314453125;-0.008563232421875;1.8499999953292;186;1 A
13.5955269656746;-0.599761962890625;-0.0085906982421875;1.85999999530395;187;1 A
13.6055269656493;-0.599761962890625;-0.00864257812499999;1.8699999952787;188;1 A
13.6155269656241;-0.599822998046875;-0.008575439453125;1.87999999525346;189;1 A
13.6255269655989;-0.599700927734375;-0.00861511230468751;1.88999999522821;190;1 A
13.6355269655736;-0.59979248046875;-0.0087005615234375;1.89999999520296;191;1 A
13.6455269655484;-0.599700927734375;-0.0086700439453125;1.90999999517771;192;1 A
13.6555269655231;-0.599822998046875;-0.00858154296874999;1.91999999515247;193;1 A
13.6655269654979;-0.599700927734375;-0.0086334228515625;1.92999999512722;194;1 A
13.6755269654726;-0.59967041015625;-0.00867309570312499;1.93999999510197;195;1 A
13.6855269654474;-0.599761962890625;-0.00856628417968749;1.94999999507672;196;1 A
13.6955269654221;-0.599700927734375;-0.0086090087890625;1.95999999505148;197;1 A
13.7055269653969;-0.59979248046875;-0.008648681640625;1.96999999502623;198;1 A
13.7155269653716;-0.599761962890625;-0.00856933593750001;1.97999999500098;199;1 A
13.7255269653464;-0.59979248046875;-0.0084808349609375;1.98999999497573;200;1 A
13.7355269653211;-0.5997314453125;-0.008544921875;1.99999999495049;201;1 A
13.7455269652959;-0.5997314453125;-0.008587646484375;2.00999999492524;202;1 A
13.7555269652706;-0.599639892578125;-0.00848999023437499;2.01999999489999;203;1 A
13.7655269652454;-0.599700927734375;-0.00853576660156249;2.02999999487474;204;1 A
13.7755269652201;-0.599822998046875;-0.0086090087890625;2.0399999948495;205;1 A
13.7855269651949;-0.599700927734375;-0.00853881835937501;2.04999999482425;206;1 A
13.7955269651696;-0.59979248046875;-0.0085113525390625;2.059999994799;207;1 A
13.8055269651444;-0.59979248046875;-0.0085784912109375;2.06999999477375;208;1 A
13.8155269651191;-0.599761962890625;-0.0085601806640625;2.0799999947485;209;1 A
13.8255269650939;-0.59979248046875;-0.0085113525390625;2.08999999472326;210;1 A
13.8355269650687;-0.59979248046875;-0.008587646484375;2.09999999469801;211;1 A
13.8455269650434;-0.599761962890625;-0.0086700439453125;2.10999999467276;212;1 A
13.8555269650182;-0.5997314453125;-0.008563232421875;2.11999999464751;213;1 A
13.8655269649929;-0.599700927734375;-0.00858154296874999;2.12999999462227;214;1 A
13.8755269649677;-0.599884033203125;-0.0086700439453125;2.13999999459702;215;1 A
13.8855269649424;-0.599761962890625;-0.0086181640625;2.14999999457177;216;1 A
13.8955269649172;-0.599822998046875;-0.00856933593750001;2.15999999454652;217;1 A
13.9055269648919;-0.599761962890625;-0.00859985351562501;2.16999999452128;218;1 A
13.9155269648667;-0.599700927734375;-0.00858459472656251;2.17999999449603;219;1 A
13.9255269648414;-0.599822998046875;-0.008453369140625;2.18999999447078;220;1 A
13.9355269648162;-0.5997314453125;-0.0084503173828125;2.19999999444553;221;1 A
13.9455269647909;-0.59979248046875;-0.008526611328125;2.20999999442029;222;1 A
13.9555269647657;-0.59967041015625;-0.0084716796875;2.21999999439504;223;1 A
13.9655269647404;-0.59979248046875;-0.00844726562500001;2.22999999436979;224;1 A
13.9755269647152;-0.5997314453125;-0.0085723876953125;2.23999999434454;225;1 A
13.9855269646899;-0.59979248046875;-0.00858154296874999;2.2499999943193;226;1 A
13.9955269646647;-0.5997314453125;-0.0085479736328125;2.25999999429405;227;1 A
14.0055269646394;-0.5997314453125;-0.00861206054687499;2.2699999942688;228;1 A
14.0155269646142;-0.5997314453125;-0.00868835449218749;2.27999999424355;229;1 A
14.0255269645889;-0.5997314453125;-0.008648681640625;2.28999999421831;230;1 A
14.0355269645637;-0.599822998046875;-0.0086334228515625;2.29999999419306;231;1 A
14.0455269645385;-0.5997314453125;-0.008746337890625;2.30999999416781;232;1 A
14.0555269645132;-0.59979248046875;-0.0086944580078125;2.31999999414256;233;1 A
14.065526964488;-0.599822998046875;-0.0086090087890625;2.32999999411732;234;1 A
14.0755269644627;-0.599822998046875;-0.00867309570312499;2.33999999409207;235;1 A
14.0855269644375;-0.59979248046875;-0.00867614746093751;2.34999999406682;236;1 A
14.0955269644122;-0.599700927734375;-0.0085601806640625;2.35999999404157;237;1 A
14.105526964387;-0.599822998046875;-0.008544921875;2.36999999401633;238;1 A
14.1155269643617;-0.599822998046875;-0.00863037109375001;2.37999999399108;239;1 A
14.1255269643365;-0.5997314453125;-0.0086181640625;2.38999999396583;240;1 A
14.1355269643112;-0.59979248046875;-0.0085418701171875;2.39999999394058;241;1 A
14.145526964286;-0.599761962890625;-0.0086029052734375;2.40999999391533;242;1 A
14.1555269642607;-0.599761962890625;-0.0085906982421875;2.41999999389009;243;1 A
14.1655269642355;-0.59979248046875;-0.0084869384765625;2.42999999386484;244;1 A
14.1755269642102;-0.59979248046875;-0.0085418701171875;2.43999999383959;245;1 A
14.185526964185;-0.5997314453125;-0.00859680175781249;2.44999999381434;246;1 A
14.1955269641597;-0.59967041015625;-0.0085418701171875;2.4599999937891;247;1 A
14.2055269641345;-0.599761962890625;-0.00846252441406251;2.46999999376385;248;1 A
14.2155269641092;-0.599761962890625;-0.008544921875;2.4799999937386;249;1 A
14.225526964084;-0.599853515625;-0.00853881835937501;2.48999999371335;250;1 A
14.2355269640587;-0.5997314453125;-0.00842895507812499;2.49999999368811;251;1 A
14.2455269640335;-0.599853515625;-0.00846252441406251;2.50999999366286;252;1 A
14.2555269640083;-0.5997314453125;-0.00852355957031251;2.51999999363761;253;1 A
14.265526963983;-0.59979248046875;-0.00845947265624999;2.52999999361236;254;1 A
14.2755269639578;-0.599822998046875;-0.00846252441406251;2.53999999358712;255;1 A
14.2855269639325;-0.599761962890625;-0.00853881835937501;2.54999999356187;256;1 A
14.2955269639073;-0.599853515625;-0.0085601806640625;2.55999999353662;257;1 A
14.305526963882;-0.59979248046875;-0.0084991455078125;2.56999999351137;258;1 A
14.3155269638568;-0.599884033203125;-0.00858154296874999;2.57999999348613;259;1 A
14.3255269638315;-0.599761962890625;-0.0086395263671875;2.58999999346088;260;1 A
14.3355269638063;-0.599761962890625;-0.00853576660156249;2.59999999343563;261;1 A
14.345526963781;-0.59979248046875;-0.008563232421875;2.60999999341038;262;1 A
14.3555269637558;-0.59979248046875;-0.00865783691406249;2.61999999338514;263;1 A
14.3655269637305;-0.599761962890625;-0.00865783691406249;2.62999999335989;264;1 A
14.3755269637053;-0.599761962890625;-0.00859985351562501;2.63999999333464;265;1 A
14.38552696368;-0.59979248046875;-0.00867919921875;2.64999999330939;266;1 A
14.3955269636548;-0.5997314453125;-0.00873413085937499;2.65999999328415;267;1 A
14.4055269636295;-0.599761962890625;-0.00860595703125;2.6699999932589;268;1 A
14.4155269636043;-0.59979248046875;-0.0086181640625;2.67999999323365;269;1 A
14.425526963579;-0.599761962890625;-0.00872192382812501;2.6899999932084;270;1 A
14.4355269635538;-0.59967041015625;-0.008685302734375;2.69999999318316;271;1 A
14.4455269635286;-0.599761962890625;-0.0086517333984375;2.70999999315791;272;1 A
14.4555269635033;-0.599700927734375;-0.0087860107421875;2.71999999313266;273;1 A
14.4655269634781;-0.599761962890625;-0.008837890625;2.72999999310741;274;1 A
14.4755269634528;-0.599639892578125;-0.0087890625;2.73999999308217;275;1 A
14.4855269634276;-0.59979248046875;-0.008831787109375;2.74999999305692;276;1 A
14.4955269634023;-0.599700927734375;-0.0089111328125;2.75999999303167;277;1 A
14.5055269633771;-0.5997314453125;-0.00877685546875;2.76999999300642;278;1 A
14.5155269633518;-0.5997314453125;-0.0087615966796875;2.77999999298117;279;1 A
14.5255269633266;-0.599822998046875;-0.008868408203125;2.78999999295593;280;1 A
14.5355269633013;-0.5997314453125;-0.008807373046875;2.79999999293068;281;1 A
14.5455269632761;-0.599761962890625;-0.008746337890625;2.80999999290543;282;1 A
14.5555269632508;-0.59991455078125;-0.0087860107421875;2.81999999288018;283;1 A
14.5655269632256;-0.599761962890625;-0.0088623046875;2.82999999285494;284;1 A
14.5755269632003;-0.5997314453125;-0.0087615966796875;2.83999999282969;285;1 A
14.5855269631751;-0.599700927734375;-0.00871887207031249;2.84999999280444;286;1 A
14.5955269631498;-0.599761962890625;-0.00879516601562499;2.85999999277919;287;1 A
14.6055269631246;-0.5997314453125;-0.00870361328124999;2.86999999275395;288;1 A
14.6155269630993;-0.599639892578125;-0.0086395263671875;2.8799999927287;289;1 A
14.6255269630741;-0.599761962890625;-0.008685302734375;2.88999999270345;290;1 A
14.6355269630488;-0.599700927734375;-0.0086639404296875;2.8999999926782;291;1 A
14.6455269630236;-0.5997314453125;-0.008544921875;2.90999999265296;292;1 A
14.6555269629984;-0.599700927734375;-0.0085601806640625;2.91999999262771;293;1 A
14.6655269629731;-0.5997314453125;-0.00862731933593749;2.92999999260246;294;1 A
14.6755269629479;-0.59967041015625;-0.008587646484375;2.93999999257721;295;1 A
14.6855269629226;-0.599639892578125;-0.00850830078125001;2.94999999255197;296;1 A
14.6955269628974;-0.59967041015625;-0.0086181640625;2.95999999252672;297;1 A
14.7055269628721;-0.5997314453125;-0.00860595703125;2.96999999250147;298;1 A
14.7155269628469;-0.599700927734375;-0.008514404296875;2.97999999247622;299;1 A
14.7255269628216;-0.599700927734375;-0.00856933593750001;2.98999999245098;300;1 A
14.7355269627964;-0.5997314453125;-0.0086334228515625;2.99999999242573;301;1 A
14.7455269627711;-0.59979248046875;-0.00860595703125;3.00999999240048;302;1 A
14.7555269627459;-0.599700927734375;-0.0085906982421875;3.01999999237523;303;1 A
14.7655269627206;-0.599761962890625;-0.00867919921875;3.02999999234999;304;1 A
14.7755269626954;-0.5997314453125;-0.00864257812499999;3.03999999232474;305;1 A
14.7855269626701;-0.5997314453125;-0.008563232421875;3.04999999229949;306;1 A
14.7955269626449;-0.599884033203125;-0.00867309570312499;3.05999999227424;307;1 A
14.8055269626196;-0.599761962890625;-0.00877685546875;3.069999992249;308;1 A
14.8155269625944;-0.599761962890625;-0.00872802734375;3.07999999222375;309;1 A
14.8255269625691;-0.599700927734375;-0.0087615966796875;3.0899999921985;310;1 A
14.8355269625439;-0.599761962890625;-0.008807373046875;3.09999999217325;311;1 A
14.8455269625186;-0.599700927734375;-0.0087890625;3.109999992148;312;1 A
14.8555269624934;-0.599700927734375;-0.0087005615234375;3.11999999212276;313;1 A
14.8655269624682;-0.599761962890625;-0.00878295898437501;3.12999999209751;314;1 A
14.8755269624429;-0.59967041015625;-0.00884399414062501;3.13999999207226;315;1 A
14.8855269624177;-0.59979248046875;-0.0087432861328125;3.14999999204701;316;1 A
14.8955269623924;-0.5997314453125;-0.0088043212890625;3.15999999202177;317;1 A
14.9055269623672;-0.5997314453125;-0.0089111328125;3.16999999199652;318;1 A
14.9155269623419;-0.59967041015625;-0.0088653564453125;3.17999999197127;319;1 A
14.9255269623167;-0.599761962890625;-0.008837890625;3.18999999194602;320;1 A
14.9355269622914;-0.599700927734375;-0.00890502929687501;3.19999999192078;321;1 A
14.9455269622662;-0.5997314453125;-0.0088775634765625;3.20999999189553;322;1 A
14.9555269622409;-0.59967041015625;-0.00877685546875;3.21999999187028;323;1 A
14.9655269622157;-0.5997314453125;-0.00877990722656249;3.22999999184503;324;1 A
14.9755269621904;-0.59979248046875;-0.0088165283203125;3.23999999181979;325;1 A
14.9855269621652;-0.599761962890625;-0.008697509765625;3.24999999179454;326;1 A
14.9955269621399;-0.599822998046875;-0.0086700439453125;3.25999999176929;327;1 A
15.0055269621147;-0.599761962890625;-0.008740234375;3.26999999174404;328;1 A
15.0155269620894;-0.5997314453125;-0.00872802734375;3.2799999917188;329;1 A
15.0255269620642;-0.59979248046875;-0.0086334228515625;3.28999999169355;330;1 A
15.0355269620389;-0.599822998046875;-0.0086822509765625;3.2999999916683;331;1 A
15.0455269620137;-0.5997314453125;-0.0087615966796875;3.30999999164305;332;1 A
15.0555269619884;-0.5997314453125;-0.00865478515625;3.31999999161781;333;1 A
15.0655269619632;-0.59979248046875;-0.0086822509765625;3.32999999159256;334;1 A
15.075526961938;-0.599853515625;-0.0087615966796875;3.33999999156731;335;1 A
15.0855269619127;-0.599761962890625;-0.008740234375;3.34999999154206;336;1 A
15.0955269618875;-0.599761962890625;-0.00865783691406249;3.35999999151682;337;1 A
15.1055269618622;-0.5997314453125;-0.0087310791015625;3.36999999149157;338;1 A
15.115526961837;-0.599700927734375;-0.00872192382812501;3.37999999146632;339;1 A
15.1255269618117;-0.5997314453125;-0.0086181640625;3.38999999144107;340;1 A
15.1355269617865;-0.5997314453125;-0.008636474609375;3.39999999141583;341;1 A
15.1455269617612;-0.599700927734375;-0.0087158203125;3.40999999139058;342;1 A
15.155526961736;-0.599639892578125;-0.00864562988281251;3.41999999136533;343;1 A
15.1655269617107;-0.59979248046875;-0.008624267578125;3.42999999134008;344;1 A
15.1755269616855;-0.599761962890625;-0.00875244140625001;3.43999999131483;345;1 A
15.1855269616602;-0.599761962890625;-0.00879516601562499;3.44999999128959;346;1 A
15.195526961635;-0.599761962890625;-0.00874938964843749;3.45999999126434;347;1 A
15.2055269616097;-0.59979248046875;-0.00882568359374999;3.46999999123909;348;1 A
15.2155269615845;-0.599822998046875;-0.00892028808593751;3.47999999121384;349;1 A
15.2255269615592;-0.599761962890625;-0.008831787109375;3.4899999911886;350;1 A
15.235526961534;-0.599822998046875;-0.0088043212890625;3.49999999116335;351;1 A
15.2455269615087;-0.5997314453125;-0.0089111328125;3.5099999911381;352;1 A
15.2555269614835;-0.599761962890625;-0.008837890625;3.51999999111285;353;1 A
15.2655269614582;-0.599761962890625;-0.00875244140625001;3.52999999108761;354;1 A
15.275526961433;-0.599822998046875;-0.00885009765625;3.53999999106236;355;1 A
15.2855269614078;-0.59979248046875;-0.00890502929687501;3.54999999103711;356;1 A
15.2955269613825;-0.599700927734375;-0.008770751953125;3.55999999101186;357;1 A
15.3055269613573;-0.5997314453125;-0.008685302734375;3.56999999098662;358;1 A
15.315526961332;-0.599853515625;-0.0087127685546875;3.57999999096137;359;1 A
15.3255269613068;-0.599761962890625;-0.00863037109375001;3.58999999093612;360;1 A
15.3355269612815;-0.59979248046875;-0.008514404296875;3.59999999091087;361;1 A
15.3455269612563;-0.599700927734375;-0.0085723876953125;3.60999999088563;362;1 A
15.355526961231;-0.5997314453125;-0.00856933593750001;3.61999999086038;363;1 A
15.3655269612058;-0.599761962890625;-0.00847473144531249;3.62999999083513;364;1 A
15.3755269611805;-0.599761962890625;-0.0084991455078125;3.63999999080988;365;1 A
15.3855269611553;-0.59979248046875;-0.008526611328125;3.64999999078464;366;1 A
15.39552696113;-0.599639892578125;-0.0084503173828125;3.65999999075939;367;1 A
15.4055269611048;-0.599853515625;-0.00836181640625;3.66999999073414;368;1 A
15.4155269610795;-0.5997314453125;-0.00844726562500001;3.67999999070889;369;1 A
15.4255269610543;-0.599822998046875;-0.00843505859375;3.68999999068365;370;1 A
15.435526961029;-0.599700927734375;-0.0083465576171875;3.6999999906584;371;1 A
15.4455269610038;-0.599761962890625;-0.00838623046875001;3.70999999063315;372;1 A
15.4555269609785;-0.59979248046875;-0.00843505859375;3.7199999906079;373;1 A
15.4655269609533;-0.599761962890625;-0.00841369628906249;3.72999999058266;374;1 A
15.4755269609281;-0.59979248046875;-0.0084228515625;3.73999999055741;375;1 A
15.4855269609028;-0.599700927734375;-0.00852050781249999;3.74999999053216;376;1 A
15.4955269608776;-0.599822998046875;-0.0084991455078125;3.75999999050691;377;1 A
15.5055269608523;-0.599822998046875;-0.0083953857421875;3.76999999048167;378;1 A
15.5155269608271;-0.59979248046875;-0.00847473144531249;3.77999999045642;379;1 A
15.5255269608018;-0.59979248046875;-0.008544921875;3.78999999043117;380;1 A
15.5355269607766;-0.599761962890625;-0.00841369628906249;3.79999999040592;381;1 A
15.5455269607513;-0.599853515625;-0.0084228515625;3.80999999038067;382;1 A
15.5555269607261;-0.599822998046875;-0.00847778320312501;3.81999999035543;383;1 A
15.5655269607008;-0.5997314453125;-0.00845947265624999;3.82999999033018;384;1 A
15.5755269606756;-0.5997314453125;-0.0084197998046875;3.83999999030493;385;1 A
15.5855269606503;-0.599761962890625;-0.00850830078125001;3.84999999027968;386;1 A
15.5955269606251;-0.5997314453125;-0.008526611328125;3.85999999025444;387;1 A
15.6055269605998;-0.599853515625;-0.0084259033203125;3.86999999022919;388;1 A
15.6155269605746;-0.599822998046875;-0.00850524902343749;3.87999999020394;389;1 A
15.6255269605493;-0.599761962890625;-0.00861206054687499;3.88999999017869;390;1 A
15.6355269605241;-0.59967041015625;-0.00858459472656251;3.89999999015345;391;1 A
15.6455269604988;-0.599884033203125;-0.0085906982421875;3.9099999901282;392;1 A
15.6555269604736;-0.599761962890625;-0.008709716796875;3.91999999010295;393;1 A
15.6655269604483;-0.599761962890625;-0.0087310791015625;3.9299999900777;394;1 A
15.6755269604231;-0.599639892578125;-0.00869140625000001;3.93999999005246;395;1 A
15.6855269603979;-0.599853515625;-0.00873718261718751;3.94999999002721;396;1 A
15.6955269603726;-0.59979248046875;-0.0088226318359375;3.95999999000196;397;1 A
15.7055269603474;-0.59979248046875;-0.0087249755859375;3.96999998997671;398;1 A
15.7155269603221;-0.599853515625;-0.00870666503906251;3.97999998995147;399;1 A
15.7255269602969;-0.5997314453125;-0.0087860107421875;3.98999998992622;400;1 A
15.7355269602716;-0.599761962890625;-0.00877685546875;3.99999998990097;401;1 A
15.7455269602464;-0.5997314453125;-0.0087310791015625;4.00999998987572;402;1 A
15.7555269602211;-0.59991455078125;-0.008807373046875;4.01999998985048;403;1 A
15.7655269601959;-0.59979248046875;-0.0088653564453125;4.02999998982523;404;1 A
15.7755269601706;-0.599700927734375;-0.00873718261718751;4.03999998979998;405;1 A
15.7855269601454;-0.599822998046875;-0.0087310791015625;4.04999998977473;406;1 A
15.7955269601201;-0.599884033203125;-0.0088165283203125;4.05999998974949;407;1 A
15.8055269600949;-0.59979248046875;-0.0087921142578125;4.06999998972424;408;1 A
15.8155269600696;-0.5997314453125;-0.00875244140625001;4.07999998969899;409;1 A
15.8255269600444;-0.599700927734375;-0.0088958740234375;4.08999998967374;410;1 A
15.8355269600191;-0.599700927734375;-0.00898132324218751;4.0999999896485;411;1 A
15.8455269599939;-0.59979248046875;-0.00892028808593751;4.10999998962325;412;1 A
15.8555269599686;-0.5997314453125;-0.00893249511718749;4.119999989598;413;1 A
15.8655269599434;-0.5997314453125;-0.0089996337890625;4.12999998957275;414;1 A
15.8755269599181;-0.599700927734375;-0.00890502929687501;4.1399999895475;415;1 A
15.8855269598929;-0.5997314453125;-0.00880126953125;4.14999998952226;416;1 A
15.8955269598677;-0.599761962890625;-0.0088531494140625;4.15999998949701;417;1 A
15.9055269598424;-0.5997314453125;-0.0087890625;4.16999998947176;418;1 A
15.9155269598172;-0.599609375;-0.00870361328124999;4.17999998944651;419;1 A
15.9255269597919;-0.599761962890625;-0.008758544921875;4.18999998942127;420;1 A
15.9355269597667;-0.5997314453125;-0.00881347656250001;4.19999998939602;421;1 A
15.9455269597414;-0.599761962890625;-0.0087310791015625;4.20999998937077;422;1 A
15.9555269597162;-0.5997314453125;-0.00867309570312499;4.21999998934552;423;1 A
15.9655269596909;-0.599761962890625;-0.008770751953125;4.22999998932028;424;1 A
15.9755269596657;-0.599700927734375;-0.00877685546875;4.23999998929503;425;1 A
15.9855269596404;-0.599761962890625;-0.00868835449218749;4.24999998926978;426;1 A
15.9955269596152;-0.59991455078125;-0.0087890625;4.25999998924453;427;1 A
16.0055269595899;-0.599700927734375;-0.0088348388671875;4.26999998921929;428;1 A
16.0155269595647;-0.599761962890625;-0.008740234375;4.27999998919404;429;1 A
16.0255269595394;-0.599761962890625;-0.0087432861328125;4.28999998916879;430;1 A
16.0355269595142;-0.599761962890625;-0.00885925292968751;4.29999998914354;431;1 A
16.0455269594889;-0.59979248046875;-0.0088165283203125;4.3099999891183;432;1 A
16.0555269594637;-0.599700927734375;-0.00872192382812501;4.31999998909305;433;1 A
16.0655269594384;-0.5997314453125;-0.00881042480468749;4.3299999890678;434;1 A
16.0755269594132;-0.599639892578125;-0.0088165283203125;4.33999998904255;435;1 A
16.0855269593879;-0.599761962890625;-0.00868835449218749;4.34999998901731;436;1 A
16.0955269593627;-0.599700927734375;-0.0087249755859375;4.35999998899206;437;1 A
16.1055269593375;-0.599700927734375;-0.00876770019531251;4.36999998896681;438;1 A
16.1155269593122;-0.59967041015625;-0.0086822509765625;4.37999998894156;439;1 A
16.125526959287;-0.599700927734375;-0.00866088867187501;4.38999998891632;440;1 A
16.1355269592617;-0.599761962890625;-0.0087432861328125;4.39999998889107;441;1 A
16.1455269592365;-0.599761962890625;-0.0086944580078125;4.40999998886582;442;1 A
16.1555269592112;-0.599761962890625;-0.0085784912109375;4.41999998884057;443;1 A
16.165526959186;-0.599700927734375;-0.00859375;4.42999998881533;444;1 A
16.1755269591607;-0.5997314453125;-0.0086395263671875;4.43999998879008;445;1 A
16.1855269591355;-0.5997314453125;-0.00855102539062499;4.44999998876483;446;1 A
16.1955269591102;-0.59967041015625;-0.00853881835937501;4.45999998873958;447;1 A
16.205526959085;-0.599822998046875;-0.00861511230468751;4.46999998871433;448;1 A
16.2155269590597;-0.5997314453125;-0.0085906982421875;4.47999998868909;449;1 A
16.2255269590345;-0.599761962890625;-0.00856628417968749;4.48999998866384;450;1 A
16.2355269590092;-0.599884033203125;-0.00862731933593749;4.49999998863859;451;1 A
16.245526958984;-0.599700927734375;-0.008685302734375;4.50999998861334;452;1 A
16.2555269589587;-0.59979248046875;-0.00856628417968749;4.5199999885881;453;1 A
16.2655269589335;-0.5997314453125;-0.00859375;4.52999998856285;454;1 A
16.2755269589082;-0.59979248046875;-0.00869140625000001;4.5399999885376;455;1 A
16.285526958883;-0.59967041015625;-0.0086517333984375;4.54999998851235;456;1 A
16.2955269588577;-0.5997314453125;-0.0086090087890625;4.55999998848711;457;1 A
16.3055269588325;-0.599700927734375;-0.0086700439453125;4.56999998846186;458;1 A
16.3155269588073;-0.59967041015625;-0.00865478515625;4.57999998843661;459;1 A
16.325526958782;-0.599761962890625;-0.008563232421875;4.58999998841136;460;1 A
16.3355269587568;-0.599700927734375;-0.0086090087890625;4.59999998838612;461;1 A
16.3455269587315;-0.599761962890625;-0.00868835449218749;4.60999998836087;462;1 A
16.3555269587063;-0.59967041015625;-0.00859985351562501;4.61999998833562;463;1 A
16.365526958681;-0.5997314453125;-0.0085479736328125;4.62999998831037;464;1 A
16.3755269586558;-0.599700927734375;-0.0086029052734375;4.63999998828513;465;1 A
16.3855269586305;-0.599700927734375;-0.008587646484375;4.64999998825988;466;1 A
16.3955269586053;-0.59967041015625;-0.00853271484375;4.65999998823463;467;1 A
16.40552695858;-0.599700927734375;-0.008575439453125;4.66999998820938;468;1 A
16.4155269585548;-0.59967041015625;-0.0086639404296875;4.67999998818414;469;1 A
16.4255269585295;-0.59979248046875;-0.008587646484375;4.68999998815889;470;1 A
16.4355269585043;-0.599761962890625;-0.0085296630859375;4.69999998813364;471;1 A
16.445526958479;-0.5997314453125;-0.00861206054687499;4.70999998810839;472;1 A
16.4555269584538;-0.5997314453125;-0.00855407714843751;4.71999998808315;473;1 A
16.4655269584285;-0.599761962890625;-0.0084686279296875;4.7299999880579;474;1 A
16.4755269584033;-0.599822998046875;-0.00849304199218751;4.73999998803265;475;1 A
16.485526958378;-0.5997314453125;-0.0085174560546875;4.7499999880074;476;1 A
16.4955269583528;-0.5997314453125;-0.00841064453125;4.75999998798216;477;1 A
16.5055269583276;-0.599700927734375;-0.00839843749999999;4.76999998795691;478;1 A
16.5155269583023;-0.599853515625;-0.00848388671875;4.77999998793166;479;1 A
16.5255269582771;-0.59967041015625;-0.0084259033203125;4.78999998790641;480;1 A
16.5355269582518;-0.5997314453125;-0.0083648681640625;4.79999998788116;481;1 A
16.5455269582266;-0.599700927734375;-0.008441162109375;4.80999998785592;482;1 A
16.5555269582013;-0.599700927734375;-0.00847778320312501;4.81999998783067;483;1 A
16.5655269581761;-0.59979248046875;-0.0084381103515625;4.82999998780542;484;1 A
16.5755269581508;-0.599700927734375;-0.00850524902343749;4.83999998778017;485;1 A
16.5855269581256;-0.599761962890625;-0.00860595703125;4.84999998775493;486;1 A
16.5955269581003;-0.599639892578125;-0.00858459472656251;4.85999998772968;487;1 A
16.6055269580751;-0.5997314453125;-0.00855407714843751;4.86999998770443;488;1 A
16.6155269580498;-0.59979248046875;-0.00868835449218749;4.87999998767918;489;1 A
16.6255269580246;-0.59979248046875;-0.008740234375;4.88999998765394;490;1 A
16.6355269579993;-0.599700927734375;-0.0086822509765625;4.89999998762869;491;1 A
16.6455269579741;-0.599700927734375;-0.008746337890625;4.90999998760344;492;1 A
16.6555269579488;-0.59979248046875;-0.008807373046875;4.91999998757819;493;1 A
16.6655269579236;-0.599761962890625;-0.00873413085937499;4.92999998755295;494;1 A
16.6755269578983;-0.59979248046875;-0.00870666503906251;4.9399999875277;495;1 A
16.6855269578731;-0.599761962890625;-0.008770751953125;4.94999998750245;496;1 A
16.6955269578478;-0.599700927734375;-0.00872802734375;4.9599999874772;497;1 A
16.7055269578226;-0.599822998046875;-0.0086029052734375;4.96999998745196;498;1 A
16.7155269577974;-0.599853515625;-0.008648681640625;4.97999998742671;499;1 A
16.7255269577721;-0.59979248046875;-0.0086700439453125;4.98999998740146;500;1 A
