Time (s);WE(1).Potential (V);WE(1).Current (A);Corrected time (s);Index;Current range;Overload
17.3967259560775;-0.892333984375;-2.3406982421875;0;1;1 A;Current overload
17.4067259560522;-0.95977783203125;-1.77886962890625;0.00999999997475243;2;1 A;
17.416725956027;-0.9503173828125;-1.3861083984375;0.0199999999495049;3;1 A;
17.4267259560017;-0.95001220703125;-1.18438720703125;0.0299999999242573;4;1 A;
17.4367259559765;-0.94970703125;-1.0601806640625;0.0399999998990097;5;1 A;
17.4467259559513;-0.94970703125;-0.9722900390625;0.0499999998737621;6;1 A;
17.456725955926;-0.94970703125;-0.9075927734375;0.0599999998485146;7;1 A;
17.4667259559008;-0.94970703125;-0.85968017578125;0.069999999823267;8;1 A;
17.4767259558755;-0.95001220703125;-0.8209228515625;0.0799999997980194;9;1 A;
17.4867259558503;-0.94940185546875;-0.787353515625;0.0899999997727718;10;1 A;
17.496725955825;-0.94970703125;-0.7647705078125;0.0999999997475243;11;1 A;
17.5067259557998;-0.94970703125;-0.7464599609375;0.109999999722277;12;1 A;
17.5167259557745;-0.9490966796875;-0.72357177734375;0.119999999697029;13;1 A;
17.5267259557493;-0.9503173828125;-0.70892333984375;0.129999999671782;14;1 A;
17.536725955724;-0.9490966796875;-0.70098876953125;0.139999999646534;15;1 A;
17.5467259556988;-0.94940185546875;-0.68603515625;0.149999999621286;16;1 A;
17.5567259556735;-0.94940185546875;-0.675048828125;0.159999999596039;17;1 A;
17.5667259556483;-0.94940185546875;-0.67626953125;0.169999999570791;18;1 A;
17.576725955623;-0.94940185546875;-0.67138671875;0.179999999545544;19;1 A;
17.5867259555978;-0.94970703125;-0.6610107421875;0.189999999520296;20;1 A;
17.5967259555725;-0.94940185546875;-0.66192626953125;0.199999999495049;21;1 A;
17.6067259555473;-0.94970703125;-0.6646728515625;0.209999999469801;22;1 A;
17.616725955522;-0.94940185546875;-0.6573486328125;0.219999999444553;23;1 A;
17.6267259554968;-0.94970703125;-0.65277099609375;0.229999999419306;24;1 A;
17.6367259554715;-0.9490966796875;-0.6634521484375;0.239999999394058;25;1 A;
17.6467259554463;-0.94940185546875;-0.6597900390625;0.249999999368811;26;1 A;
17.6567259554211;-0.94970703125;-0.65277099609375;0.259999999343563;27;1 A;
17.6667259553958;-0.94940185546875;-0.6561279296875;0.269999999318316;28;1 A;
17.6767259553706;-0.94940185546875;-0.6549072265625;0.279999999293068;29;1 A;
17.6867259553453;-0.94970703125;-0.64727783203125;0.28999999926782;30;1 A;
17.6967259553201;-0.94940185546875;-0.64361572265625;0.299999999242573;31;1 A;
17.7067259552948;-0.94879150390625;-0.64849853515625;0.309999999217325;32;1 A;
17.7167259552696;-0.94970703125;-0.643310546875;0.319999999192078;33;1 A;
17.7267259552443;-0.94970703125;-0.6304931640625;0.32999999916683;34;1 A;
17.7367259552191;-0.94970703125;-0.63507080078125;0.339999999141583;35;1 A;
17.7467259551938;-0.94940185546875;-0.638427734375;0.349999999116335;36;1 A;
17.7567259551686;-0.94970703125;-0.633544921875;0.359999999091087;37;1 A;
17.7667259551433;-0.94970703125;-0.63690185546875;0.36999999906584;38;1 A;
17.7767259551181;-0.95001220703125;-0.640869140625;0.379999999040592;39;1 A;
17.7867259550928;-0.9490966796875;-0.6390380859375;0.389999999015345;40;1 A;
17.7967259550676;-0.94970703125;-0.6317138671875;0.399999998990097;41;1 A;
17.8067259550423;-0.94940185546875;-0.64239501953125;0.40999999896485;42;1 A;
17.8167259550171;-0.94940185546875;-0.64422607421875;0.419999998939602;43;1 A;
17.8267259549918;-0.94940185546875;-0.63629150390625;0.429999998914354;44;1 A;
17.8367259549666;-0.9490966796875;-0.64056396484375;0.439999998889107;45;1 A;
17.8467259549413;-0.94970703125;-0.64453125;0.449999998863859;46;1 A;
17.8567259549161;-0.94940185546875;-0.63812255859375;0.459999998838612;47;1 A;
17.8667259548909;-0.9490966796875;-0.63385009765625;0.469999998813364;48;1 A;
17.8767259548656;-0.94970703125;-0.6427001953125;0.479999998788116;49;1 A;
17.8867259548404;-0.94970703125;-0.64178466796875;0.489999998762869;50;1 A;
17.8967259548151;-0.94940185546875;-0.634765625;0.499999998737621;51;1 A;
17.9067259547899;-0.94940185546875;-0.63751220703125;0.509999998712374;52;1 A;
17.9167259547646;-0.94970703125;-0.64117431640625;0.519999998687126;53;1 A;
17.9267259547394;-0.94970703125;-0.63720703125;0.529999998661879;54;1 A;
17.9367259547141;-0.94940185546875;-0.63507080078125;0.539999998636631;55;1 A;
17.9467259546889;-0.94940185546875;-0.634765625;0.549999998611383;56;1 A;
17.9567259546636;-0.94940185546875;-0.6280517578125;0.559999998586136;57;1 A;
17.9667259546384;-0.94970703125;-0.62225341796875;0.569999998560888;58;1 A;
17.9767259546131;-0.94940185546875;-0.63201904296875;0.579999998535641;59;1 A;
17.9867259545879;-0.94940185546875;-0.63812255859375;0.589999998510393;60;1 A;
17.9967259545626;-0.94940185546875;-0.63201904296875;0.599999998485146;61;1 A;
18.0067259545374;-0.9503173828125;-0.63018798828125;0.609999998459898;62;1 A;
18.0167259545121;-0.94970703125;-0.63812255859375;0.61999999843465;63;1 A;
18.0267259544869;-0.94940185546875;-0.63568115234375;0.629999998409403;64;1 A;
18.0367259544616;-0.95001220703125;-0.628662109375;0.639999998384155;65;1 A;
18.0467259544364;-0.94970703125;-0.635986328125;0.649999998358908;66;1 A;
18.0567259544111;-0.94940185546875;-0.63323974609375;0.65999999833366;67;1 A;
18.0667259543859;-0.94940185546875;-0.6231689453125;0.669999998308413;68;1 A;
18.0767259543607;-0.9490966796875;-0.62744140625;0.679999998283165;69;1 A;
18.0867259543354;-0.94940185546875;-0.6341552734375;0.689999998257917;70;1 A;
18.0967259543102;-0.94970703125;-0.6280517578125;0.69999999823267;71;1 A;
18.1067259542849;-0.94940185546875;-0.62591552734375;0.709999998207422;72;1 A;
18.1167259542597;-0.94970703125;-0.6341552734375;0.719999998182175;73;1 A;
18.1267259542344;-0.94879150390625;-0.6329345703125;0.729999998156927;74;1 A;
18.1367259542092;-0.94970703125;-0.62957763671875;0.73999999813168;75;1 A;
18.1467259541839;-0.94940185546875;-0.63720703125;0.749999998106432;76;1 A;
18.1567259541587;-0.95001220703125;-0.64544677734375;0.759999998081184;77;1 A;
18.1667259541334;-0.94940185546875;-0.64422607421875;0.769999998055937;78;1 A;
18.1767259541082;-0.94940185546875;-0.64453125;0.779999998030689;79;1 A;
18.1867259540829;-0.94940185546875;-0.6494140625;0.789999998005442;80;1 A;
18.1967259540577;-0.9490966796875;-0.643310546875;0.799999997980194;81;1 A;
18.2067259540324;-0.94970703125;-0.63751220703125;0.809999997954947;82;1 A;
18.2167259540072;-0.94970703125;-0.63873291015625;0.819999997929699;83;1 A;
18.2267259539819;-0.94940185546875;-0.6365966796875;0.829999997904451;84;1 A;
18.2367259539567;-0.94940185546875;-0.62835693359375;0.839999997879204;85;1 A;
18.2467259539314;-0.94970703125;-0.6243896484375;0.849999997853956;86;1 A;
18.2567259539062;-0.9490966796875;-0.6317138671875;0.859999997828709;87;1 A;
18.266725953881;-0.95001220703125;-0.63262939453125;0.869999997803461;88;1 A;
18.2767259538557;-0.94970703125;-0.63140869140625;0.879999997778214;89;1 A;
18.2867259538305;-0.95001220703125;-0.64208984375;0.889999997752966;90;1 A;
18.2967259538052;-0.94970703125;-0.64178466796875;0.899999997727718;91;1 A;
18.30672595378;-0.95001220703125;-0.634765625;0.909999997702471;92;1 A;
18.3167259537547;-0.95001220703125;-0.63568115234375;0.919999997677223;93;1 A;
18.3267259537295;-0.94940185546875;-0.64117431640625;0.929999997651976;94;1 A;
18.3367259537042;-0.94970703125;-0.63720703125;0.939999997626728;95;1 A;
18.346725953679;-0.95001220703125;-0.63140869140625;0.949999997601481;96;1 A;
18.3567259536537;-0.9490966796875;-0.63690185546875;0.959999997576233;97;1 A;
18.3667259536285;-0.9490966796875;-0.635986328125;0.969999997550985;98;1 A;
18.3767259536032;-0.95001220703125;-0.6341552734375;0.979999997525738;99;1 A;
18.386725953578;-0.94970703125;-0.64117431640625;0.98999999750049;100;1 A;
18.3967259535527;-0.94940185546875;-0.64544677734375;0.999999997475243;101;1 A;
18.4067259535275;-0.94970703125;-0.6414794921875;1.00999999745;102;1 A;
18.4167259535022;-0.94940185546875;-0.6427001953125;1.01999999742475;103;1 A;
18.426725953477;-0.95001220703125;-0.65277099609375;1.0299999973995;104;1 A;
18.4367259534517;-0.94970703125;-0.650634765625;1.03999999737425;105;1 A;
18.4467259534265;-0.94940185546875;-0.64453125;1.049999997349;106;1 A;
18.4567259534012;-0.94970703125;-0.6488037109375;1.05999999732376;107;1 A;
18.466725953376;-0.9490966796875;-0.65338134765625;1.06999999729851;108;1 A;
18.4767259533508;-0.9503173828125;-0.6488037109375;1.07999999727326;109;1 A;
18.4867259533255;-0.94970703125;-0.64666748046875;1.08999999724801;110;1 A;
18.4967259533003;-0.94970703125;-0.64910888671875;1.09999999722277;111;1 A;
18.506725953275;-0.94970703125;-0.64453125;1.10999999719752;112;1 A;
18.5167259532498;-0.95001220703125;-0.63873291015625;1.11999999717227;113;1 A;
18.5267259532245;-0.94940185546875;-0.6451416015625;1.12999999714702;114;1 A;
18.5367259531993;-0.94970703125;-0.64483642578125;1.13999999712178;115;1 A;
18.546725953174;-0.94940185546875;-0.63629150390625;1.14999999709653;116;1 A;
18.5567259531488;-0.94970703125;-0.64239501953125;1.15999999707128;117;1 A;
18.5667259531235;-0.94970703125;-0.648193359375;1.16999999704603;118;1 A;
18.5767259530983;-0.94970703125;-0.64239501953125;1.17999999702079;119;1 A;
18.586725953073;-0.94940185546875;-0.63446044921875;1.18999999699554;120;1 A;
18.5967259530478;-0.9490966796875;-0.63720703125;1.19999999697029;121;1 A;
18.6067259530225;-0.94970703125;-0.63201904296875;1.20999999694504;122;1 A;
18.6167259529973;-0.94940185546875;-0.6280517578125;1.2199999969198;123;1 A;
18.626725952972;-0.95001220703125;-0.62957763671875;1.22999999689455;124;1 A;
18.6367259529468;-0.95001220703125;-0.63201904296875;1.2399999968693;125;1 A;
18.6467259529215;-0.94940185546875;-0.62713623046875;1.24999999684405;126;1 A;
18.6567259528963;-0.94970703125;-0.62774658203125;1.25999999681881;127;1 A;
18.666725952871;-0.94970703125;-0.6378173828125;1.26999999679356;128;1 A;
18.6767259528458;-0.94970703125;-0.63323974609375;1.27999999676831;129;1 A;
18.6867259528206;-0.94970703125;-0.62744140625;1.28999999674306;130;1 A;
18.6967259527953;-0.94940185546875;-0.62896728515625;1.29999999671782;131;1 A;
18.7067259527701;-0.95001220703125;-0.6268310546875;1.30999999669257;132;1 A;
18.7167259527448;-0.94940185546875;-0.62225341796875;1.31999999666732;133;1 A;
18.7267259527196;-0.9490966796875;-0.621337890625;1.32999999664207;134;1 A;
18.7367259526943;-0.94970703125;-0.62744140625;1.33999999661683;135;1 A;
18.7467259526691;-0.94940185546875;-0.62469482421875;1.34999999659158;136;1 A;
18.7567259526438;-0.94940185546875;-0.621337890625;1.35999999656633;137;1 A;
18.7667259526186;-0.94940185546875;-0.62957763671875;1.36999999654108;138;1 A;
18.7767259525933;-0.95001220703125;-0.631103515625;1.37999999651583;139;1 A;
18.7867259525681;-0.94970703125;-0.626220703125;1.38999999649059;140;1 A;
18.7967259525428;-0.94940185546875;-0.628662109375;1.39999999646534;141;1 A;
18.8067259525176;-0.94940185546875;-0.63446044921875;1.40999999644009;142;1 A;
18.8167259524923;-0.94970703125;-0.631103515625;1.41999999641484;143;1 A;
18.8267259524671;-0.94970703125;-0.62835693359375;1.4299999963896;144;1 A;
18.8367259524418;-0.94970703125;-0.63812255859375;1.43999999636435;145;1 A;
18.8467259524166;-0.94970703125;-0.638427734375;1.4499999963391;146;1 A;
18.8567259523913;-0.94970703125;-0.63323974609375;1.45999999631385;147;1 A;
18.8667259523661;-0.94970703125;-0.6378173828125;1.46999999628861;148;1 A;
18.8767259523408;-0.94970703125;-0.6396484375;1.47999999626336;149;1 A;
18.8867259523156;-0.94970703125;-0.6341552734375;1.48999999623811;150;1 A;
18.8967259522904;-0.95001220703125;-0.6292724609375;1.49999999621286;151;1 A;
18.9067259522651;-0.94970703125;-0.633544921875;1.50999999618762;152;1 A;
18.9167259522399;-0.94970703125;-0.633544921875;1.51999999616237;153;1 A;
18.9267259522146;-0.95001220703125;-0.63385009765625;1.52999999613712;154;1 A;
18.9367259521894;-0.94940185546875;-0.64300537109375;1.53999999611187;155;1 A;
18.9467259521641;-0.9490966796875;-0.64605712890625;1.54999999608663;156;1 A;
18.9567259521389;-0.95001220703125;-0.64117431640625;1.55999999606138;157;1 A;
18.9667259521136;-0.9490966796875;-0.63812255859375;1.56999999603613;158;1 A;
18.9767259520884;-0.95001220703125;-0.64422607421875;1.57999999601088;159;1 A;
18.9867259520631;-0.94940185546875;-0.64208984375;1.58999999598564;160;1 A;
18.9967259520379;-0.94940185546875;-0.63323974609375;1.59999999596039;161;1 A;
19.0067259520126;-0.94970703125;-0.6402587890625;1.60999999593514;162;1 A;
19.0167259519874;-0.94970703125;-0.6396484375;1.61999999590989;163;1 A;
19.0267259519621;-0.94970703125;-0.63140869140625;1.62999999588465;164;1 A;
19.0367259519369;-0.95001220703125;-0.6329345703125;1.6399999958594;165;1 A;
19.0467259519116;-0.94940185546875;-0.63690185546875;1.64999999583415;166;1 A;
19.0567259518864;-0.94940185546875;-0.63446044921875;1.6599999958089;167;1 A;
19.0667259518611;-0.95001220703125;-0.6298828125;1.66999999578366;168;1 A;
19.0767259518359;-0.94940185546875;-0.6390380859375;1.67999999575841;169;1 A;
19.0867259518106;-0.94940185546875;-0.63720703125;1.68999999573316;170;1 A;
19.0967259517854;-0.9503173828125;-0.63446044921875;1.69999999570791;171;1 A;
19.1067259517602;-0.95001220703125;-0.6414794921875;1.70999999568267;172;1 A;
19.1167259517349;-0.94970703125;-0.64361572265625;1.71999999565742;173;1 A;
19.1267259517097;-0.94970703125;-0.63720703125;1.72999999563217;174;1 A;
19.1367259516844;-0.94970703125;-0.6329345703125;1.73999999560692;175;1 A;
19.1467259516592;-0.94970703125;-0.6341552734375;1.74999999558167;176;1 A;
19.1567259516339;-0.94940185546875;-0.6304931640625;1.75999999555643;177;1 A;
19.1667259516087;-0.94970703125;-0.62713623046875;1.76999999553118;178;1 A;
19.1767259515834;-0.94970703125;-0.634765625;1.77999999550593;179;1 A;
19.1867259515582;-0.94970703125;-0.63995361328125;1.78999999548068;180;1 A;
19.1967259515329;-0.94879150390625;-0.63751220703125;1.79999999545544;181;1 A;
19.2067259515077;-0.94970703125;-0.63720703125;1.80999999543019;182;1 A;
19.2167259514824;-0.94970703125;-0.6427001953125;1.81999999540494;183;1 A;
19.2267259514572;-0.9490966796875;-0.63934326171875;1.82999999537969;184;1 A;
19.2367259514319;-0.95001220703125;-0.63507080078125;1.83999999535445;185;1 A;
19.2467259514067;-0.9490966796875;-0.6439208984375;1.8499999953292;186;1 A;
19.2567259513814;-0.94970703125;-0.65032958984375;1.85999999530395;187;1 A;
19.2667259513562;-0.94940185546875;-0.6475830078125;1.8699999952787;188;1 A;
19.2767259513309;-0.95001220703125;-0.6512451171875;1.87999999525346;189;1 A;
19.2867259513057;-0.94940185546875;-0.65582275390625;1.88999999522821;190;1 A;
19.2967259512805;-0.94970703125;-0.64910888671875;1.89999999520296;191;1 A;
19.3067259512552;-0.94970703125;-0.64178466796875;1.90999999517771;192;1 A;
19.31672595123;-0.94940185546875;-0.648193359375;1.91999999515247;193;1 A;
19.3267259512047;-0.94970703125;-0.648193359375;1.92999999512722;194;1 A;
19.3367259511795;-0.94970703125;-0.6451416015625;1.93999999510197;195;1 A;
19.3467259511542;-0.94970703125;-0.6500244140625;1.94999999507672;196;1 A;
19.356725951129;-0.94940185546875;-0.64971923828125;1.95999999505148;197;1 A;
19.3667259511037;-0.94970703125;-0.64056396484375;1.96999999502623;198;1 A;
19.3767259510785;-0.95001220703125;-0.63629150390625;1.97999999500098;199;1 A;
19.3867259510532;-0.94940185546875;-0.64178466796875;1.98999999497573;200;1 A;
19.396725951028;-0.94940185546875;-0.640869140625;1.99999999495049;201;1 A;
19.4067259510027;-0.95001220703125;-0.6378173828125;2.00999999492524;202;1 A;
19.4167259509775;-0.94940185546875;-0.64117431640625;2.01999999489999;203;1 A;
19.4267259509522;-0.95001220703125;-0.6414794921875;2.02999999487474;204;1 A;
19.436725950927;-0.94970703125;-0.63812255859375;2.0399999948495;205;1 A;
19.4467259509017;-0.95001220703125;-0.63629150390625;2.04999999482425;206;1 A;
19.4567259508765;-0.94940185546875;-0.64117431640625;2.059999994799;207;1 A;
19.4667259508512;-0.9490966796875;-0.63690185546875;2.06999999477375;208;1 A;
19.476725950826;-0.94940185546875;-0.63262939453125;2.0799999947485;209;1 A;
19.4867259508007;-0.9503173828125;-0.63873291015625;2.08999999472326;210;1 A;
19.4967259507755;-0.94970703125;-0.63995361328125;2.09999999469801;211;1 A;
19.5067259507503;-0.95001220703125;-0.63446044921875;2.10999999467276;212;1 A;
19.516725950725;-0.95001220703125;-0.631103515625;2.11999999464751;213;1 A;
19.5267259506998;-0.94970703125;-0.628662109375;2.12999999462227;214;1 A;
19.5367259506745;-0.94940185546875;-0.6231689453125;2.13999999459702;215;1 A;
19.5467259506493;-0.94970703125;-0.6201171875;2.14999999457177;216;1 A;
19.556725950624;-0.95001220703125;-0.63140869140625;2.15999999454652;217;1 A;
19.5667259505988;-0.94940185546875;-0.63385009765625;2.16999999452128;218;1 A;
19.5767259505735;-0.94940185546875;-0.628662109375;2.17999999449603;219;1 A;
19.5867259505483;-0.94970703125;-0.63507080078125;2.18999999447078;220;1 A;
19.596725950523;-0.95001220703125;-0.64178466796875;2.19999999444553;221;1 A;
19.6067259504978;-0.95001220703125;-0.63751220703125;2.20999999442029;222;1 A;
19.6167259504725;-0.94940185546875;-0.6298828125;2.21999999439504;223;1 A;
19.6267259504473;-0.94970703125;-0.63232421875;2.22999999436979;224;1 A;
19.636725950422;-0.9503173828125;-0.631103515625;2.23999999434454;225;1 A;
19.6467259503968;-0.94970703125;-0.628662109375;2.2499999943193;226;1 A;
19.6567259503715;-0.94970703125;-0.63629150390625;2.25999999429405;227;1 A;
19.6667259503463;-0.94940185546875;-0.634765625;2.2699999942688;228;1 A;
19.676725950321;-0.95001220703125;-0.62957763671875;2.27999999424355;229;1 A;
19.6867259502958;-0.9490966796875;-0.628662109375;2.28999999421831;230;1 A;
19.6967259502705;-0.94970703125;-0.6365966796875;2.29999999419306;231;1 A;
19.7067259502453;-0.94970703125;-0.63568115234375;2.30999999416781;232;1 A;
19.7167259502201;-0.94970703125;-0.6298828125;2.31999999414256;233;1 A;
19.7267259501948;-0.9490966796875;-0.6396484375;2.32999999411732;234;1 A;
19.7367259501696;-0.94970703125;-0.6378173828125;2.33999999409207;235;1 A;
19.7467259501443;-0.94940185546875;-0.62896728515625;2.34999999406682;236;1 A;
19.7567259501191;-0.94940185546875;-0.63262939453125;2.35999999404157;237;1 A;
19.7667259500938;-0.94879150390625;-0.63568115234375;2.36999999401633;238;1 A;
19.7767259500686;-0.94970703125;-0.634765625;2.37999999399108;239;1 A;
19.7867259500433;-0.94940185546875;-0.63018798828125;2.38999999396583;240;1 A;
19.7967259500181;-0.94970703125;-0.6396484375;2.39999999394058;241;1 A;
19.8067259499928;-0.94940185546875;-0.63690185546875;2.40999999391533;242;1 A;
19.8167259499676;-0.94940185546875;-0.63507080078125;2.41999999389009;243;1 A;
19.8267259499423;-0.94940185546875;-0.638427734375;2.42999999386484;244;1 A;
19.8367259499171;-0.94970703125;-0.6390380859375;2.43999999383959;245;1 A;
19.8467259498918;-0.94970703125;-0.63232421875;2.44999999381434;246;1 A;
19.8567259498666;-0.94970703125;-0.6292724609375;2.4599999937891;247;1 A;
19.8667259498413;-0.95001220703125;-0.6353759765625;2.46999999376385;248;1 A;
19.8767259498161;-0.94970703125;-0.63446044921875;2.4799999937386;249;1 A;
19.8867259497908;-0.94940185546875;-0.63018798828125;2.48999999371335;250;1 A;
19.8967259497656;-0.95001220703125;-0.63934326171875;2.49999999368811;251;1 A;
19.9067259497403;-0.94970703125;-0.640869140625;2.50999999366286;252;1 A;
19.9167259497151;-0.9490966796875;-0.63568115234375;2.51999999363761;253;1 A;
19.9267259496899;-0.94970703125;-0.635986328125;2.52999999361236;254;1 A;
19.9367259496646;-0.94940185546875;-0.64361572265625;2.53999999358712;255;1 A;
19.9467259496394;-0.95001220703125;-0.64300537109375;2.54999999356187;256;1 A;
19.9567259496141;-0.95001220703125;-0.634765625;2.55999999353662;257;1 A;
19.9667259495889;-0.95001220703125;-0.645751953125;2.56999999351137;258;1 A;
19.9767259495636;-0.94970703125;-0.64697265625;2.57999999348613;259;1 A;
19.9867259495384;-0.95001220703125;-0.6390380859375;2.58999999346088;260;1 A;
19.9967259495131;-0.9490966796875;-0.6427001953125;2.59999999343563;261;1 A;
20.0067259494879;-0.95001220703125;-0.6475830078125;2.60999999341038;262;1 A;
20.0167259494626;-0.94940185546875;-0.64361572265625;2.61999999338514;263;1 A;
20.0267259494374;-0.94970703125;-0.640869140625;2.62999999335989;264;1 A;
20.0367259494121;-0.95001220703125;-0.64727783203125;2.63999999333464;265;1 A;
20.0467259493869;-0.94970703125;-0.64300537109375;2.64999999330939;266;1 A;
20.0567259493616;-0.94940185546875;-0.6390380859375;2.65999999328415;267;1 A;
20.0667259493364;-0.95001220703125;-0.6414794921875;2.6699999932589;268;1 A;
20.0767259493111;-0.94940185546875;-0.643310546875;2.67999999323365;269;1 A;
20.0867259492859;-0.95001220703125;-0.64178466796875;2.6899999932084;270;1 A;
20.0967259492606;-0.94970703125;-0.64056396484375;2.69999999318316;271;1 A;
20.1067259492354;-0.95001220703125;-0.64605712890625;2.70999999315791;272;1 A;
20.1167259492101;-0.9490966796875;-0.64544677734375;2.71999999313266;273;1 A;
20.1267259491849;-0.94970703125;-0.640869140625;2.72999999310741;274;1 A;
20.1367259491597;-0.94970703125;-0.6439208984375;2.73999999308217;275;1 A;
20.1467259491344;-0.94940185546875;-0.64910888671875;2.74999999305692;276;1 A;
20.1567259491092;-0.94970703125;-0.6463623046875;2.75999999303167;277;1 A;
20.1667259490839;-0.94970703125;-0.64605712890625;2.76999999300642;278;1 A;
20.1767259490587;-0.94970703125;-0.648193359375;2.77999999298117;279;1 A;
20.1867259490334;-0.94940185546875;-0.64208984375;2.78999999295593;280;1 A;
20.1967259490082;-0.94970703125;-0.6396484375;2.79999999293068;281;1 A;
20.2067259489829;-0.94940185546875;-0.6463623046875;2.80999999290543;282;1 A;
20.2167259489577;-0.94940185546875;-0.643310546875;2.81999999288018;283;1 A;
20.2267259489324;-0.94940185546875;-0.63751220703125;2.82999999285494;284;1 A;
20.2367259489072;-0.94940185546875;-0.6396484375;2.83999999282969;285;1 A;
20.2467259488819;-0.94970703125;-0.6427001953125;2.84999999280444;286;1 A;
20.2567259488567;-0.94970703125;-0.63934326171875;2.85999999277919;287;1 A;
20.2667259488314;-0.94940185546875;-0.6353759765625;2.86999999275395;288;1 A;
20.2767259488062;-0.94970703125;-0.63934326171875;2.8799999927287;289;1 A;
20.2867259487809;-0.95001220703125;-0.63751220703125;2.88999999270345;290;1 A;
20.2967259487557;-0.95001220703125;-0.6341552734375;2.8999999926782;291;1 A;
20.3067259487304;-0.94940185546875;-0.6353759765625;2.90999999265296;292;1 A;
20.3167259487052;-0.94970703125;-0.63934326171875;2.91999999262771;293;1 A;
20.32672594868;-0.9503173828125;-0.6365966796875;2.92999999260246;294;1 A;
20.3367259486547;-0.94970703125;-0.63323974609375;2.93999999257721;295;1 A;
20.3467259486295;-0.94940185546875;-0.63812255859375;2.94999999255197;296;1 A;
20.3567259486042;-0.95001220703125;-0.63812255859375;2.95999999252672;297;1 A;
20.366725948579;-0.95001220703125;-0.6365966796875;2.96999999250147;298;1 A;
20.3767259485537;-0.94970703125;-0.64178466796875;2.97999999247622;299;1 A;
20.3867259485285;-0.94940185546875;-0.63812255859375;2.98999999245098;300;1 A;
20.3967259485032;-0.95001220703125;-0.6329345703125;2.99999999242573;301;1 A;
20.406725948478;-0.94940185546875;-0.63385009765625;3.00999999240048;302;1 A;
20.4167259484527;-0.94970703125;-0.6402587890625;3.01999999237523;303;1 A;
20.4267259484275;-0.94970703125;-0.6390380859375;3.02999999234999;304;1 A;
20.4367259484022;-0.94970703125;-0.63446044921875;3.03999999232474;305;1 A;
20.446725948377;-0.94970703125;-0.634765625;3.04999999229949;306;1 A;
20.4567259483517;-0.94940185546875;-0.6341552734375;3.05999999227424;307;1 A;
20.4667259483265;-0.95001220703125;-0.6268310546875;3.069999992249;308;1 A;
20.4767259483012;-0.94879150390625;-0.62591552734375;3.07999999222375;309;1 A;
20.486725948276;-0.95001220703125;-0.62652587890625;3.0899999921985;310;1 A;
20.4967259482507;-0.94970703125;-0.6207275390625;3.09999999217325;311;1 A;
20.5067259482255;-0.94940185546875;-0.61676025390625;3.109999992148;312;1 A;
20.5167259482002;-0.94970703125;-0.62103271484375;3.11999999212276;313;1 A;
20.526725948175;-0.94940185546875;-0.6195068359375;3.12999999209751;314;1 A;
20.5367259481498;-0.94970703125;-0.6170654296875;3.13999999207226;315;1 A;
20.5467259481245;-0.94970703125;-0.62530517578125;3.14999999204701;316;1 A;
20.5567259480993;-0.94940185546875;-0.62835693359375;3.15999999202177;317;1 A;
20.566725948074;-0.94940185546875;-0.6243896484375;3.16999999199652;318;1 A;
20.5767259480488;-0.94940185546875;-0.6231689453125;3.17999999197127;319;1 A;
20.5867259480235;-0.94940185546875;-0.631103515625;3.18999999194602;320;1 A;
20.5967259479983;-0.94970703125;-0.631103515625;3.19999999192078;321;1 A;
20.606725947973;-0.94970703125;-0.62774658203125;3.20999999189553;322;1 A;
20.6167259479478;-0.9490966796875;-0.6396484375;3.21999999187028;323;1 A;
20.6267259479225;-0.94940185546875;-0.6451416015625;3.22999999184503;324;1 A;
20.6367259478973;-0.94940185546875;-0.64117431640625;3.23999999181979;325;1 A;
20.646725947872;-0.94940185546875;-0.6451416015625;3.24999999179454;326;1 A;
20.6567259478468;-0.94970703125;-0.65765380859375;3.25999999176929;327;1 A;
20.6667259478215;-0.94970703125;-0.65887451171875;3.26999999174404;328;1 A;
20.6767259477963;-0.94970703125;-0.655517578125;3.2799999917188;329;1 A;
20.686725947771;-0.94940185546875;-0.66253662109375;3.28999999169355;330;1 A;
20.6967259477458;-0.94940185546875;-0.66192626953125;3.2999999916683;331;1 A;
20.7067259477205;-0.94970703125;-0.6561279296875;3.30999999164305;332;1 A;
20.7167259476953;-0.95001220703125;-0.65521240234375;3.31999999161781;333;1 A;
20.72672594767;-0.94970703125;-0.65399169921875;3.32999999159256;334;1 A;
20.7367259476448;-0.95001220703125;-0.64788818359375;3.33999999156731;335;1 A;
20.7467259476196;-0.94970703125;-0.6396484375;3.34999999154206;336;1 A;
20.7567259475943;-0.94940185546875;-0.64483642578125;3.35999999151682;337;1 A;
20.7667259475691;-0.95001220703125;-0.6463623046875;3.36999999149157;338;1 A;
20.7767259475438;-0.94940185546875;-0.64208984375;3.37999999146632;339;1 A;
20.7867259475186;-0.94940185546875;-0.64453125;3.38999999144107;340;1 A;
20.7967259474933;-0.94970703125;-0.64483642578125;3.39999999141583;341;1 A;
20.8067259474681;-0.94970703125;-0.64544677734375;3.40999999139058;342;1 A;
20.8167259474428;-0.94940185546875;-0.64544677734375;3.41999999136533;343;1 A;
20.8267259474176;-0.94940185546875;-0.6512451171875;3.42999999134008;344;1 A;
20.8367259473923;-0.94970703125;-0.64849853515625;3.43999999131483;345;1 A;
20.8467259473671;-0.9503173828125;-0.64453125;3.44999999128959;346;1 A;
20.8567259473418;-0.95001220703125;-0.6475830078125;3.45999999126434;347;1 A;
20.8667259473166;-0.94970703125;-0.64788818359375;3.46999999123909;348;1 A;
20.8767259472913;-0.94940185546875;-0.643310546875;3.47999999121384;349;1 A;
20.8867259472661;-0.94970703125;-0.64208984375;3.4899999911886;350;1 A;
20.8967259472408;-0.94970703125;-0.64208984375;3.49999999116335;351;1 A;
20.9067259472156;-0.94970703125;-0.6341552734375;3.5099999911381;352;1 A;
20.9167259471903;-0.9503173828125;-0.63507080078125;3.51999999111285;353;1 A;
20.9267259471651;-0.94970703125;-0.643310546875;3.52999999108761;354;1 A;
20.9367259471398;-0.95001220703125;-0.64361572265625;3.53999999106236;355;1 A;
20.9467259471146;-0.94940185546875;-0.64117431640625;3.54999999103711;356;1 A;
20.9567259470894;-0.94970703125;-0.643310546875;3.55999999101186;357;1 A;
20.9667259470641;-0.94970703125;-0.64453125;3.56999999098662;358;1 A;
20.9767259470389;-0.94970703125;-0.64239501953125;3.57999999096137;359;1 A;
20.9867259470136;-0.94970703125;-0.6378173828125;3.58999999093612;360;1 A;
20.9967259469884;-0.9490966796875;-0.64178466796875;3.59999999091087;361;1 A;
21.0067259469631;-0.94940185546875;-0.6390380859375;3.60999999088563;362;1 A;
21.0167259469379;-0.95001220703125;-0.63507080078125;3.61999999086038;363;1 A;
21.0267259469126;-0.94940185546875;-0.63934326171875;3.62999999083513;364;1 A;
21.0367259468874;-0.94970703125;-0.64361572265625;3.63999999080988;365;1 A;
21.0467259468621;-0.94970703125;-0.643310546875;3.64999999078464;366;1 A;
21.0567259468369;-0.95001220703125;-0.64422607421875;3.65999999075939;367;1 A;
21.0667259468116;-0.9490966796875;-0.6488037109375;3.66999999073414;368;1 A;
21.0767259467864;-0.94940185546875;-0.64788818359375;3.67999999070889;369;1 A;
21.0867259467611;-0.9490966796875;-0.64605712890625;3.68999999068365;370;1 A;
21.0967259467359;-0.94970703125;-0.6494140625;3.6999999906584;371;1 A;
21.1067259467106;-0.95001220703125;-0.6494140625;3.70999999063315;372;1 A;
21.1167259466854;-0.94970703125;-0.645751953125;3.7199999906079;373;1 A;
21.1267259466601;-0.94970703125;-0.64483642578125;3.72999999058266;374;1 A;
21.1367259466349;-0.9503173828125;-0.64605712890625;3.73999999055741;375;1 A;
21.1467259466096;-0.94970703125;-0.64666748046875;3.74999999053216;376;1 A;
21.1567259465844;-0.94970703125;-0.64300537109375;3.75999999050691;377;1 A;
21.1667259465592;-0.95001220703125;-0.64727783203125;3.76999999048167;378;1 A;
21.1767259465339;-0.94940185546875;-0.6439208984375;3.77999999045642;379;1 A;
21.1867259465087;-0.94970703125;-0.6414794921875;3.78999999043117;380;1 A;
21.1967259464834;-0.94940185546875;-0.64300537109375;3.79999999040592;381;1 A;
21.2067259464582;-0.94940185546875;-0.64361572265625;3.80999999038067;382;1 A;
21.2167259464329;-0.94940185546875;-0.6396484375;3.81999999035543;383;1 A;
21.2267259464077;-0.94970703125;-0.6353759765625;3.82999999033018;384;1 A;
21.2367259463824;-0.94970703125;-0.6341552734375;3.83999999030493;385;1 A;
21.2467259463572;-0.94940185546875;-0.63079833984375;3.84999999027968;386;1 A;
21.2567259463319;-0.95001220703125;-0.63079833984375;3.85999999025444;387;1 A;
21.2667259463067;-0.94940185546875;-0.6329345703125;3.86999999022919;388;1 A;
21.2767259462814;-0.94970703125;-0.6353759765625;3.87999999020394;389;1 A;
21.2867259462562;-0.95001220703125;-0.63629150390625;3.88999999017869;390;1 A;
21.2967259462309;-0.95001220703125;-0.63873291015625;3.89999999015345;391;1 A;
21.3067259462057;-0.94970703125;-0.64361572265625;3.9099999901282;392;1 A;
21.3167259461804;-0.94940185546875;-0.63934326171875;3.91999999010295;393;1 A;
21.3267259461552;-0.95001220703125;-0.6365966796875;3.9299999900777;394;1 A;
21.3367259461299;-0.94940185546875;-0.63751220703125;3.93999999005246;395;1 A;
21.3467259461047;-0.95001220703125;-0.6365966796875;3.94999999002721;396;1 A;
21.3567259460795;-0.94970703125;-0.63568115234375;3.95999999000196;397;1 A;
21.3667259460542;-0.95001220703125;-0.6341552734375;3.96999998997671;398;1 A;
21.376725946029;-0.94970703125;-0.63507080078125;3.97999998995147;399;1 A;
21.3867259460037;-0.94970703125;-0.63140869140625;3.98999998992622;400;1 A;
21.3967259459785;-0.94940185546875;-0.63079833984375;3.99999998990097;401;1 A;
21.4067259459532;-0.94970703125;-0.63446044921875;4.00999998987572;402;1 A;
21.416725945928;-0.95001220703125;-0.63812255859375;4.01999998985048;403;1 A;
21.4267259459027;-0.94970703125;-0.643310546875;4.02999998982523;404;1 A;
21.4367259458775;-0.94940185546875;-0.64849853515625;4.03999998979998;405;1 A;
21.4467259458522;-0.95001220703125;-0.650634765625;4.04999998977473;406;1 A;
21.456725945827;-0.95001220703125;-0.6488037109375;4.05999998974949;407;1 A;
21.4667259458017;-0.95001220703125;-0.64483642578125;4.06999998972424;408;1 A;
21.4767259457765;-0.95001220703125;-0.64971923828125;4.07999998969899;409;1 A;
21.4867259457512;-0.94970703125;-0.64971923828125;4.08999998967374;410;1 A;
21.496725945726;-0.94940185546875;-0.650634765625;4.0999999896485;411;1 A;
21.5067259457007;-0.95001220703125;-0.6536865234375;4.10999998962325;412;1 A;
21.5167259456755;-0.94940185546875;-0.65185546875;4.119999989598;413;1 A;
21.5267259456502;-0.94970703125;-0.64910888671875;4.12999998957275;414;1 A;
21.536725945625;-0.94940185546875;-0.64666748046875;4.1399999895475;415;1 A;
21.5467259455997;-0.94970703125;-0.65032958984375;4.14999998952226;416;1 A;
21.5567259455745;-0.95001220703125;-0.64697265625;4.15999998949701;417;1 A;
21.5667259455493;-0.95001220703125;-0.643310546875;4.16999998947176;418;1 A;
21.576725945524;-0.94970703125;-0.6463623046875;4.17999998944651;419;1 A;
21.5867259454988;-0.94940185546875;-0.6451416015625;4.18999998942127;420;1 A;
21.5967259454735;-0.94970703125;-0.64544677734375;4.19999998939602;421;1 A;
21.6067259454483;-0.94970703125;-0.64453125;4.20999998937077;422;1 A;
21.616725945423;-0.94940185546875;-0.6451416015625;4.21999998934552;423;1 A;
21.6267259453978;-0.94940185546875;-0.64239501953125;4.22999998932028;424;1 A;
21.6367259453725;-0.9490966796875;-0.6402587890625;4.23999998929503;425;1 A;
21.6467259453473;-0.9490966796875;-0.64788818359375;4.24999998926978;426;1 A;
21.656725945322;-0.94970703125;-0.64910888671875;4.25999998924453;427;1 A;
21.6667259452968;-0.94970703125;-0.64666748046875;4.26999998921929;428;1 A;
21.6767259452715;-0.94970703125;-0.64910888671875;4.27999998919404;429;1 A;
21.6867259452463;-0.94970703125;-0.64849853515625;4.28999998916879;430;1 A;
21.696725945221;-0.94970703125;-0.64544677734375;4.29999998914354;431;1 A;
21.7067259451958;-0.95001220703125;-0.640869140625;4.3099999891183;432;1 A;
21.7167259451705;-0.94940185546875;-0.64178466796875;4.31999998909305;433;1 A;
21.7267259451453;-0.94970703125;-0.635986328125;4.3299999890678;434;1 A;
21.73672594512;-0.9503173828125;-0.63690185546875;4.33999998904255;435;1 A;
21.7467259450948;-0.94970703125;-0.63720703125;4.34999998901731;436;1 A;
21.7567259450695;-0.95001220703125;-0.63751220703125;4.35999998899206;437;1 A;
21.7667259450443;-0.95001220703125;-0.6378173828125;4.36999998896681;438;1 A;
21.7767259450191;-0.95001220703125;-0.638427734375;4.37999998894156;439;1 A;
21.7867259449938;-0.94970703125;-0.6396484375;4.38999998891632;440;1 A;
21.7967259449686;-0.94940185546875;-0.63629150390625;4.39999998889107;441;1 A;
21.8067259449433;-0.95001220703125;-0.63690185546875;4.40999998886582;442;1 A;
21.8167259449181;-0.94940185546875;-0.63873291015625;4.41999998884057;443;1 A;
21.8267259448928;-0.94970703125;-0.6378173828125;4.42999998881533;444;1 A;
21.8367259448676;-0.94970703125;-0.63720703125;4.43999998879008;445;1 A;
21.8467259448423;-0.95001220703125;-0.6378173828125;4.44999998876483;446;1 A;
21.8567259448171;-0.94940185546875;-0.6353759765625;4.45999998873958;447;1 A;
21.8667259447918;-0.94970703125;-0.63018798828125;4.46999998871433;448;1 A;
21.8767259447666;-0.94970703125;-0.62652587890625;4.47999998868909;449;1 A;
21.8867259447413;-0.94970703125;-0.628662109375;4.48999998866384;450;1 A;
21.8967259447161;-0.95001220703125;-0.6268310546875;4.49999998863859;451;1 A;
21.9067259446908;-0.94970703125;-0.628662109375;4.50999998861334;452;1 A;
21.9167259446656;-0.9490966796875;-0.62957763671875;4.5199999885881;453;1 A;
21.9267259446403;-0.94940185546875;-0.6317138671875;4.52999998856285;454;1 A;
21.9367259446151;-0.9490966796875;-0.633544921875;4.5399999885376;455;1 A;
21.9467259445898;-0.94940185546875;-0.63323974609375;4.54999998851235;456;1 A;
21.9567259445646;-0.95001220703125;-0.63873291015625;4.55999998848711;457;1 A;
21.9667259445393;-0.9503173828125;-0.63812255859375;4.56999998846186;458;1 A;
21.9767259445141;-0.95001220703125;-0.63995361328125;4.57999998843661;459;1 A;
21.9867259444889;-0.94970703125;-0.64849853515625;4.58999998841136;460;1 A;
21.9967259444636;-0.95001220703125;-0.650634765625;4.59999998838612;461;1 A;
22.0067259444384;-0.94970703125;-0.65277099609375;4.60999998836087;462;1 A;
22.0167259444131;-0.94970703125;-0.6573486328125;4.61999998833562;463;1 A;
22.0267259443879;-0.95001220703125;-0.66436767578125;4.62999998831037;464;1 A;
22.0367259443626;-0.94970703125;-0.6646728515625;4.63999998828513;465;1 A;
22.0467259443374;-0.9490966796875;-0.6610107421875;4.64999998825988;466;1 A;
22.0567259443121;-0.94940185546875;-0.6640625;4.65999998823463;467;1 A;
22.0667259442869;-0.95001220703125;-0.66070556640625;4.66999998820938;468;1 A;
22.0767259442616;-0.94970703125;-0.65948486328125;4.67999998818414;469;1 A;
22.0867259442364;-0.94940185546875;-0.6573486328125;4.68999998815889;470;1 A;
22.0967259442111;-0.94940185546875;-0.65673828125;4.69999998813364;471;1 A;
22.1067259441859;-0.9490966796875;-0.65765380859375;4.70999998810839;472;1 A;
22.1167259441606;-0.94940185546875;-0.65521240234375;4.71999998808315;473;1 A;
22.1267259441354;-0.94940185546875;-0.6585693359375;4.7299999880579;474;1 A;
22.1367259441101;-0.95001220703125;-0.66070556640625;4.73999998803265;475;1 A;
22.1467259440849;-0.94970703125;-0.66253662109375;4.7499999880074;476;1 A;
22.1567259440596;-0.94970703125;-0.6671142578125;4.75999998798216;477;1 A;
22.1667259440344;-0.94970703125;-0.6640625;4.76999998795691;478;1 A;
22.1767259440091;-0.94940185546875;-0.66375732421875;4.77999998793166;479;1 A;
22.1867259439839;-0.94970703125;-0.66131591796875;4.78999998790641;480;1 A;
22.1967259439587;-0.95001220703125;-0.6622314453125;4.79999998788116;481;1 A;
22.2067259439334;-0.94970703125;-0.66253662109375;4.80999998785592;482;1 A;
22.2167259439082;-0.95001220703125;-0.6646728515625;4.81999998783067;483;1 A;
22.2267259438829;-0.94940185546875;-0.6689453125;4.82999998780542;484;1 A;
22.2367259438577;-0.94970703125;-0.66375732421875;4.83999998778017;485;1 A;
22.2467259438324;-0.94970703125;-0.6646728515625;4.84999998775493;486;1 A;
22.2567259438072;-0.94940185546875;-0.65948486328125;4.85999998772968;487;1 A;
22.2667259437819;-0.94940185546875;-0.65643310546875;4.86999998770443;488;1 A;
22.2767259437567;-0.94970703125;-0.65277099609375;4.87999998767918;489;1 A;
22.2867259437314;-0.94970703125;-0.65673828125;4.88999998765394;490;1 A;
22.2967259437062;-0.94970703125;-0.6591796875;4.89999998762869;491;1 A;
22.3067259436809;-0.95001220703125;-0.65673828125;4.90999998760344;492;1 A;
22.3167259436557;-0.95001220703125;-0.6524658203125;4.91999998757819;493;1 A;
22.3267259436304;-0.95001220703125;-0.650634765625;4.92999998755295;494;1 A;
22.3367259436052;-0.94940185546875;-0.6494140625;4.9399999875277;495;1 A;
22.3467259435799;-0.94940185546875;-0.64727783203125;4.94999998750245;496;1 A;
22.3567259435547;-0.94940185546875;-0.64605712890625;4.9599999874772;497;1 A;
22.3667259435294;-0.95001220703125;-0.64453125;4.96999998745196;498;1 A;
22.3767259435042;-0.94970703125;-0.63995361328125;4.97999998742671;499;1 A;
22.386725943479;-0.94970703125;-0.64483642578125;4.98999998740146;500;1 A;
