Time (s);WE(1).Potential (V);WE(1).Current (A);Corrected time (s);Index;Current range;Overload
38.0969089038146;-0.88958740234375;-2.34130859375;0;1;1 A;Current overload
38.1069089037893;-0.9527587890625;-2.0245361328125;0.00999999997475243;2;1 A;Current overload
38.1169089037641;-1.00067138671875;-1.46240234375;0.0199999999495049;3;1 A;
38.1269089037388;-1.00006103515625;-1.23138427734375;0.0299999999242573;4;1 A;
38.1369089037136;-1.00006103515625;-1.09222412109375;0.0399999998990097;5;1 A;
38.1469089036883;-0.99945068359375;-0.9967041015625;0.0499999998737621;6;1 A;
38.1569089036631;-0.999755859375;-0.9332275390625;0.0599999998485146;7;1 A;
38.1669089036378;-1.0003662109375;-0.8831787109375;0.069999999823267;8;1 A;
38.1769089036126;-0.999755859375;-0.84503173828125;0.0799999997980194;9;1 A;
38.1869089035873;-1.00006103515625;-0.81695556640625;0.0899999997727718;10;1 A;
38.1969089035621;-0.999755859375;-0.7861328125;0.0999999997475243;11;1 A;
38.2069089035368;-0.999755859375;-0.75775146484375;0.109999999722277;12;1 A;
38.2169089035116;-1.00006103515625;-0.7379150390625;0.119999999697029;13;1 A;
38.2269089034863;-0.99945068359375;-0.723876953125;0.129999999671782;14;1 A;
38.2369089034611;-0.999755859375;-0.70404052734375;0.139999999646534;15;1 A;
38.2469089034358;-0.999755859375;-0.6890869140625;0.149999999621286;16;1 A;
38.2569089034106;-0.99945068359375;-0.6884765625;0.159999999596039;17;1 A;
38.2669089033853;-1.00006103515625;-0.68115234375;0.169999999570791;18;1 A;
38.2769089033601;-0.999755859375;-0.67169189453125;0.179999999545544;19;1 A;
38.2869089033348;-0.99945068359375;-0.67474365234375;0.189999999520296;20;1 A;
38.2969089033096;-0.999755859375;-0.675048828125;0.199999999495049;21;1 A;
38.3069089032844;-1.00006103515625;-0.67230224609375;0.209999999469801;22;1 A;
38.3169089032591;-0.999755859375;-0.66925048828125;0.219999999444553;23;1 A;
38.3269089032339;-0.99945068359375;-0.6744384765625;0.229999999419306;24;1 A;
38.3369089032086;-0.99945068359375;-0.675048828125;0.239999999394058;25;1 A;
38.3469089031834;-1.00006103515625;-0.6683349609375;0.249999999368811;26;1 A;
38.3569089031581;-0.999755859375;-0.672607421875;0.259999999343563;27;1 A;
38.3669089031329;-0.999755859375;-0.66864013671875;0.269999999318316;28;1 A;
38.3769089031076;-0.99945068359375;-0.662841796875;0.279999999293068;29;1 A;
38.3869089030824;-0.999755859375;-0.65521240234375;0.28999999926782;30;1 A;
38.3969089030571;-0.99945068359375;-0.65460205078125;0.299999999242573;31;1 A;
38.4069089030319;-0.999755859375;-0.65399169921875;0.309999999217325;32;1 A;
38.4169089030066;-0.999755859375;-0.64300537109375;0.319999999192078;33;1 A;
38.4269089029814;-0.999755859375;-0.64971923828125;0.32999999916683;34;1 A;
38.4369089029561;-0.999755859375;-0.6494140625;0.339999999141583;35;1 A;
38.4469089029309;-0.999755859375;-0.64117431640625;0.349999999116335;36;1 A;
38.4569089029056;-0.999755859375;-0.64117431640625;0.359999999091087;37;1 A;
38.4669089028804;-0.99945068359375;-0.64422607421875;0.36999999906584;38;1 A;
38.4769089028551;-0.99945068359375;-0.64544677734375;0.379999999040592;39;1 A;
38.4869089028299;-0.99945068359375;-0.6390380859375;0.389999999015345;40;1 A;
38.4969089028046;-1.0003662109375;-0.648193359375;0.399999998990097;41;1 A;
38.5069089027794;-0.99945068359375;-0.6512451171875;0.40999999896485;42;1 A;
38.5169089027542;-0.99945068359375;-0.64727783203125;0.419999998939602;43;1 A;
38.5269089027289;-0.99945068359375;-0.6500244140625;0.429999998914354;44;1 A;
38.5369089027037;-0.99945068359375;-0.65155029296875;0.439999998889107;45;1 A;
38.5469089026784;-1.00006103515625;-0.6463623046875;0.449999998863859;46;1 A;
38.5569089026532;-0.99945068359375;-0.64453125;0.459999998838612;47;1 A;
38.5669089026279;-0.999755859375;-0.65185546875;0.469999998813364;48;1 A;
38.5769089026027;-0.999755859375;-0.64971923828125;0.479999998788116;49;1 A;
38.5869089025774;-0.999755859375;-0.6488037109375;0.489999998762869;50;1 A;
38.5969089025522;-1.00006103515625;-0.65521240234375;0.499999998737621;51;1 A;
38.6069089025269;-0.999755859375;-0.66009521484375;0.509999998712374;52;1 A;
38.6169089025017;-0.999755859375;-0.65826416015625;0.519999998687126;53;1 A;
38.6269089024764;-0.99945068359375;-0.657958984375;0.529999998661879;54;1 A;
38.6369089024512;-1.00006103515625;-0.660400390625;0.539999998636631;55;1 A;
38.6469089024259;-0.999755859375;-0.65826416015625;0.549999998611383;56;1 A;
38.6569089024007;-0.999755859375;-0.65338134765625;0.559999998586136;57;1 A;
38.6669089023754;-1.00006103515625;-0.65704345703125;0.569999998560888;58;1 A;
38.6769089023502;-1.0003662109375;-0.65521240234375;0.579999998535641;59;1 A;
38.6869089023249;-0.99945068359375;-0.64910888671875;0.589999998510393;60;1 A;
38.6969089022997;-0.999755859375;-0.64727783203125;0.599999998485146;61;1 A;
38.7069089022744;-0.999755859375;-0.6475830078125;0.609999998459898;62;1 A;
38.7169089022492;-1.00006103515625;-0.6451416015625;0.61999999843465;63;1 A;
38.726908902224;-0.99945068359375;-0.6390380859375;0.629999998409403;64;1 A;
38.7369089021987;-1.00006103515625;-0.643310546875;0.639999998384155;65;1 A;
38.7469089021735;-0.9991455078125;-0.6414794921875;0.649999998358908;66;1 A;
38.7569089021482;-0.99945068359375;-0.634765625;0.65999999833366;67;1 A;
38.766908902123;-0.99945068359375;-0.6396484375;0.669999998308413;68;1 A;
38.7769089020977;-0.9991455078125;-0.643310546875;0.679999998283165;69;1 A;
38.7869089020725;-0.999755859375;-0.64422607421875;0.689999998257917;70;1 A;
38.7969089020472;-0.999755859375;-0.64361572265625;0.69999999823267;71;1 A;
38.806908902022;-0.999755859375;-0.65277099609375;0.709999998207422;72;1 A;
38.8169089019967;-0.99945068359375;-0.6512451171875;0.719999998182175;73;1 A;
38.8269089019715;-0.99945068359375;-0.64453125;0.729999998156927;74;1 A;
38.8369089019462;-1.0003662109375;-0.643310546875;0.73999999813168;75;1 A;
38.846908901921;-0.99945068359375;-0.6439208984375;0.749999998106432;76;1 A;
38.8569089018957;-0.99945068359375;-0.64239501953125;0.759999998081184;77;1 A;
38.8669089018705;-0.9991455078125;-0.64453125;0.769999998055937;78;1 A;
38.8769089018452;-1.0003662109375;-0.65093994140625;0.779999998030689;79;1 A;
38.88690890182;-1.00006103515625;-0.64483642578125;0.789999998005442;80;1 A;
38.8969089017947;-1.0003662109375;-0.64300537109375;0.799999997980194;81;1 A;
38.9069089017695;-1.00006103515625;-0.64697265625;0.809999997954947;82;1 A;
38.9169089017443;-1.00006103515625;-0.6439208984375;0.819999997929699;83;1 A;
38.926908901719;-1.00006103515625;-0.6396484375;0.829999997904451;84;1 A;
38.9369089016938;-0.99945068359375;-0.63873291015625;0.839999997879204;85;1 A;
38.9469089016685;-0.999755859375;-0.6463623046875;0.849999997853956;86;1 A;
38.9569089016433;-1.0003662109375;-0.64178466796875;0.859999997828709;87;1 A;
38.966908901618;-0.9991455078125;-0.64117431640625;0.869999997803461;88;1 A;
38.9769089015928;-0.999755859375;-0.64453125;0.879999997778214;89;1 A;
38.9869089015675;-1.00006103515625;-0.64422607421875;0.889999997752966;90;1 A;
38.9969089015423;-0.99945068359375;-0.6396484375;0.899999997727718;91;1 A;
39.006908901517;-0.99945068359375;-0.6396484375;0.909999997702471;92;1 A;
39.0169089014918;-0.999755859375;-0.6402587890625;0.919999997677223;93;1 A;
39.0269089014665;-1.00006103515625;-0.63720703125;0.929999997651976;94;1 A;
39.0369089014413;-1.00006103515625;-0.63690185546875;0.939999997626728;95;1 A;
39.046908901416;-0.999755859375;-0.64361572265625;0.949999997601481;96;1 A;
39.0569089013908;-0.99945068359375;-0.6439208984375;0.959999997576233;97;1 A;
39.0669089013655;-1.00006103515625;-0.6402587890625;0.969999997550985;98;1 A;
39.0769089013403;-0.9991455078125;-0.64605712890625;0.979999997525738;99;1 A;
39.086908901315;-0.999755859375;-0.64849853515625;0.98999999750049;100;1 A;
39.0969089012898;-0.99945068359375;-0.6451416015625;0.999999997475243;101;1 A;
39.1069089012645;-0.99945068359375;-0.64605712890625;1.00999999745;102;1 A;
39.1169089012393;-0.99945068359375;-0.6494140625;1.01999999742475;103;1 A;
39.1269089012141;-0.99945068359375;-0.6488037109375;1.0299999973995;104;1 A;
39.1369089011888;-0.999755859375;-0.64666748046875;1.03999999737425;105;1 A;
39.1469089011636;-0.999755859375;-0.65460205078125;1.049999997349;106;1 A;
39.1569089011383;-1.00006103515625;-0.655517578125;1.05999999732376;107;1 A;
39.1669089011131;-0.999755859375;-0.64788818359375;1.06999999729851;108;1 A;
39.1769089010878;-1.00006103515625;-0.65093994140625;1.07999999727326;109;1 A;
39.1869089010626;-0.9991455078125;-0.65338134765625;1.08999999724801;110;1 A;
39.1969089010373;-1.00006103515625;-0.6463623046875;1.09999999722277;111;1 A;
39.2069089010121;-1.00006103515625;-0.6396484375;1.10999999719752;112;1 A;
39.2169089009868;-0.999755859375;-0.645751953125;1.11999999717227;113;1 A;
39.2269089009616;-0.999755859375;-0.6475830078125;1.12999999714702;114;1 A;
39.2369089009363;-0.999755859375;-0.6475830078125;1.13999999712178;115;1 A;
39.2469089009111;-0.99945068359375;-0.65032958984375;1.14999999709653;116;1 A;
39.2569089008858;-0.99945068359375;-0.6512451171875;1.15999999707128;117;1 A;
39.2669089008606;-1.0003662109375;-0.6463623046875;1.16999999704603;118;1 A;
39.2769089008353;-0.999755859375;-0.6427001953125;1.17999999702079;119;1 A;
39.2869089008101;-1.00006103515625;-0.6500244140625;1.18999999699554;120;1 A;
39.2969089007848;-0.999755859375;-0.64971923828125;1.19999999697029;121;1 A;
39.3069089007596;-0.999755859375;-0.64422607421875;1.20999999694504;122;1 A;
39.3169089007343;-0.999755859375;-0.648193359375;1.2199999969198;123;1 A;
39.3269089007091;-1.0003662109375;-0.6488037109375;1.22999999689455;124;1 A;
39.3369089006839;-0.99945068359375;-0.64453125;1.2399999968693;125;1 A;
39.3469089006586;-0.99945068359375;-0.6427001953125;1.24999999684405;126;1 A;
39.3569089006334;-1.00006103515625;-0.64697265625;1.25999999681881;127;1 A;
39.3669089006081;-0.999755859375;-0.64453125;1.26999999679356;128;1 A;
39.3769089005829;-0.999755859375;-0.643310546875;1.27999999676831;129;1 A;
39.3869089005576;-0.99945068359375;-0.653076171875;1.28999999674306;130;1 A;
39.3969089005324;-0.999755859375;-0.65185546875;1.29999999671782;131;1 A;
39.4069089005071;-0.99945068359375;-0.64849853515625;1.30999999669257;132;1 A;
39.4169089004819;-0.999755859375;-0.64697265625;1.31999999666732;133;1 A;
39.4269089004566;-0.999755859375;-0.6475830078125;1.32999999664207;134;1 A;
39.4369089004314;-0.999755859375;-0.64178466796875;1.33999999661683;135;1 A;
39.4469089004061;-0.99945068359375;-0.6402587890625;1.34999999659158;136;1 A;
39.4569089003809;-0.999755859375;-0.64544677734375;1.35999999656633;137;1 A;
39.4669089003556;-0.999755859375;-0.64697265625;1.36999999654108;138;1 A;
39.4769089003304;-0.9991455078125;-0.6463623046875;1.37999999651583;139;1 A;
39.4869089003051;-0.99945068359375;-0.6475830078125;1.38999999649059;140;1 A;
39.4969089002799;-0.99945068359375;-0.65155029296875;1.39999999646534;141;1 A;
39.5069089002546;-0.999755859375;-0.6488037109375;1.40999999644009;142;1 A;
39.5169089002294;-0.9991455078125;-0.64727783203125;1.41999999641484;143;1 A;
39.5269089002041;-1.00006103515625;-0.654296875;1.4299999963896;144;1 A;
39.5369089001789;-1.00006103515625;-0.65460205078125;1.43999999636435;145;1 A;
39.5469089001537;-0.99945068359375;-0.648193359375;1.4499999963391;146;1 A;
39.5569089001284;-0.999755859375;-0.648193359375;1.45999999631385;147;1 A;
39.5669089001032;-0.99945068359375;-0.6494140625;1.46999999628861;148;1 A;
39.5769089000779;-1.0003662109375;-0.64300537109375;1.47999999626336;149;1 A;
39.5869089000527;-0.999755859375;-0.6390380859375;1.48999999623811;150;1 A;
39.5969089000274;-1.00006103515625;-0.6427001953125;1.49999999621286;151;1 A;
39.6069089000022;-1.00006103515625;-0.6396484375;1.50999999618762;152;1 A;
39.6169088999769;-0.99945068359375;-0.6390380859375;1.51999999616237;153;1 A;
39.6269088999517;-1.00006103515625;-0.64208984375;1.52999999613712;154;1 A;
39.6369088999264;-0.99945068359375;-0.638427734375;1.53999999611187;155;1 A;
39.6469088999012;-0.999755859375;-0.633544921875;1.54999999608663;156;1 A;
39.6569088998759;-0.999755859375;-0.634765625;1.55999999606138;157;1 A;
39.6669088998507;-0.999755859375;-0.6439208984375;1.56999999603613;158;1 A;
39.6769088998254;-0.999755859375;-0.645751953125;1.57999999601088;159;1 A;
39.6869088998002;-0.99945068359375;-0.64544677734375;1.58999999598564;160;1 A;
39.6969088997749;-1.00006103515625;-0.6500244140625;1.59999999596039;161;1 A;
39.7069088997497;-1.00006103515625;-0.6488037109375;1.60999999593514;162;1 A;
39.7169088997244;-0.99945068359375;-0.64697265625;1.61999999590989;163;1 A;
39.7269088996992;-1.00006103515625;-0.64727783203125;1.62999999588465;164;1 A;
39.7369088996739;-0.99945068359375;-0.64697265625;1.6399999958594;165;1 A;
39.7469088996487;-0.9991455078125;-0.64056396484375;1.64999999583415;166;1 A;
39.7569088996235;-0.999755859375;-0.6365966796875;1.6599999958089;167;1 A;
39.7669088995982;-1.0003662109375;-0.638427734375;1.66999999578366;168;1 A;
39.776908899573;-0.999755859375;-0.6353759765625;1.67999999575841;169;1 A;
39.7869088995477;-0.999755859375;-0.631103515625;1.68999999573316;170;1 A;
39.7969088995225;-0.99945068359375;-0.6341552734375;1.69999999570791;171;1 A;
39.8069088994972;-0.999755859375;-0.631103515625;1.70999999568267;172;1 A;
39.816908899472;-0.99945068359375;-0.62713623046875;1.71999999565742;173;1 A;
39.8269088994467;-0.99945068359375;-0.6292724609375;1.72999999563217;174;1 A;
39.8369088994215;-0.999755859375;-0.63629150390625;1.73999999560692;175;1 A;
39.8469088993962;-1.00006103515625;-0.6365966796875;1.74999999558167;176;1 A;
39.856908899371;-0.9991455078125;-0.63140869140625;1.75999999555643;177;1 A;
39.8669088993457;-0.999755859375;-0.6353759765625;1.76999999553118;178;1 A;
39.8769088993205;-0.99945068359375;-0.6353759765625;1.77999999550593;179;1 A;
39.8869088992952;-0.999755859375;-0.62774658203125;1.78999999548068;180;1 A;
39.89690889927;-0.999755859375;-0.62652587890625;1.79999999545544;181;1 A;
39.9069088992447;-0.999755859375;-0.62957763671875;1.80999999543019;182;1 A;
39.9169088992195;-0.999755859375;-0.6329345703125;1.81999999540494;183;1 A;
39.9269088991942;-0.999755859375;-0.63140869140625;1.82999999537969;184;1 A;
39.936908899169;-0.999755859375;-0.63995361328125;1.83999999535445;185;1 A;
39.9469088991438;-0.99945068359375;-0.638427734375;1.8499999953292;186;1 A;
39.9569088991185;-0.999755859375;-0.63507080078125;1.85999999530395;187;1 A;
39.9669088990933;-1.00006103515625;-0.63507080078125;1.8699999952787;188;1 A;
39.976908899068;-0.99945068359375;-0.6402587890625;1.87999999525346;189;1 A;
39.9869088990428;-0.9991455078125;-0.635986328125;1.88999999522821;190;1 A;
39.9969088990175;-0.999755859375;-0.63385009765625;1.89999999520296;191;1 A;
40.0069088989923;-0.99945068359375;-0.64117431640625;1.90999999517771;192;1 A;
40.016908898967;-1.00006103515625;-0.6402587890625;1.91999999515247;193;1 A;
40.0269088989418;-1.00006103515625;-0.643310546875;1.92999999512722;194;1 A;
40.0369088989165;-1.0003662109375;-0.648193359375;1.93999999510197;195;1 A;
40.0469088988913;-0.999755859375;-0.6494140625;1.94999999507672;196;1 A;
40.056908898866;-0.999755859375;-0.645751953125;1.95999999505148;197;1 A;
40.0669088988408;-0.99945068359375;-0.64117431640625;1.96999999502623;198;1 A;
40.0769088988155;-0.999755859375;-0.64422607421875;1.97999999500098;199;1 A;
40.0869088987903;-0.99945068359375;-0.6439208984375;1.98999999497573;200;1 A;
40.096908898765;-0.999755859375;-0.64300537109375;1.99999999495049;201;1 A;
40.1069088987398;-0.999755859375;-0.65155029296875;2.00999999492524;202;1 A;
40.1169088987145;-0.99945068359375;-0.65399169921875;2.01999999489999;203;1 A;
40.1269088986893;-0.999755859375;-0.65399169921875;2.02999999487474;204;1 A;
40.136908898664;-0.99945068359375;-0.6536865234375;2.0399999948495;205;1 A;
40.1469088986388;-0.999755859375;-0.65460205078125;2.04999999482425;206;1 A;
40.1569088986136;-0.999755859375;-0.650634765625;2.059999994799;207;1 A;
40.1669088985883;-0.99945068359375;-0.64849853515625;2.06999999477375;208;1 A;
40.1769088985631;-0.99945068359375;-0.65093994140625;2.0799999947485;209;1 A;
40.1869088985378;-0.999755859375;-0.64849853515625;2.08999999472326;210;1 A;
40.1969088985126;-0.9991455078125;-0.645751953125;2.09999999469801;211;1 A;
40.2069088984873;-1.00006103515625;-0.64910888671875;2.10999999467276;212;1 A;
40.2169088984621;-0.99945068359375;-0.65155029296875;2.11999999464751;213;1 A;
40.2269088984368;-0.99945068359375;-0.65216064453125;2.12999999462227;214;1 A;
40.2369088984116;-0.999755859375;-0.65460205078125;2.13999999459702;215;1 A;
40.2469088983863;-0.99945068359375;-0.6689453125;2.14999999457177;216;1 A;
40.2569088983611;-0.99945068359375;-0.66741943359375;2.15999999454652;217;1 A;
40.2669088983358;-0.9991455078125;-0.66497802734375;2.16999999452128;218;1 A;
40.2769088983106;-1.00006103515625;-0.6689453125;2.17999999449603;219;1 A;
40.2869088982853;-1.00006103515625;-0.667724609375;2.18999999447078;220;1 A;
40.2969088982601;-0.999755859375;-0.66162109375;2.19999999444553;221;1 A;
40.3069088982348;-0.999755859375;-0.65765380859375;2.20999999442029;222;1 A;
40.3169088982096;-0.999755859375;-0.66253662109375;2.21999999439504;223;1 A;
40.3269088981843;-0.999755859375;-0.66162109375;2.22999999436979;224;1 A;
40.3369088981591;-0.99945068359375;-0.66070556640625;2.23999999434454;225;1 A;
40.3469088981338;-0.99945068359375;-0.667724609375;2.2499999943193;226;1 A;
40.3569088981086;-0.999755859375;-0.6646728515625;2.25999999429405;227;1 A;
40.3669088980834;-1.00006103515625;-0.6573486328125;2.2699999942688;228;1 A;
40.3769088980581;-1.00006103515625;-0.65338134765625;2.27999999424355;229;1 A;
40.3869088980329;-0.99945068359375;-0.65521240234375;2.28999999421831;230;1 A;
40.3969088980076;-0.99884033203125;-0.6549072265625;2.29999999419306;231;1 A;
40.4069088979824;-0.99945068359375;-0.65032958984375;2.30999999416781;232;1 A;
40.4169088979571;-1.00006103515625;-0.6549072265625;2.31999999414256;233;1 A;
40.4269088979319;-1.00006103515625;-0.654296875;2.32999999411732;234;1 A;
40.4369088979066;-0.999755859375;-0.654296875;2.33999999409207;235;1 A;
40.4469088978814;-0.999755859375;-0.660400390625;2.34999999406682;236;1 A;
40.4569088978561;-0.99945068359375;-0.66162109375;2.35999999404157;237;1 A;
40.4669088978309;-0.99945068359375;-0.6640625;2.36999999401633;238;1 A;
40.4769088978056;-0.999755859375;-0.657958984375;2.37999999399108;239;1 A;
40.4869088977804;-0.999755859375;-0.6573486328125;2.38999999396583;240;1 A;
40.4969088977551;-0.9991455078125;-0.65155029296875;2.39999999394058;241;1 A;
40.5069088977299;-0.99945068359375;-0.65032958984375;2.40999999391533;242;1 A;
40.5169088977046;-1.00006103515625;-0.650634765625;2.41999999389009;243;1 A;
40.5269088976794;-0.99945068359375;-0.650634765625;2.42999999386484;244;1 A;
40.5369088976541;-1.00006103515625;-0.65185546875;2.43999999383959;245;1 A;
40.5469088976289;-0.999755859375;-0.65032958984375;2.44999999381434;246;1 A;
40.5569088976036;-0.99945068359375;-0.6512451171875;2.4599999937891;247;1 A;
40.5669088975784;-0.999755859375;-0.648193359375;2.46999999376385;248;1 A;
40.5769088975532;-0.99945068359375;-0.65155029296875;2.4799999937386;249;1 A;
40.5869088975279;-1.00006103515625;-0.657958984375;2.48999999371335;250;1 A;
40.5969088975027;-0.99945068359375;-0.660400390625;2.49999999368811;251;1 A;
40.6069088974774;-0.999755859375;-0.6634521484375;2.50999999366286;252;1 A;
40.6169088974522;-0.99945068359375;-0.66650390625;2.51999999363761;253;1 A;
40.6269088974269;-0.99945068359375;-0.667724609375;2.52999999361236;254;1 A;
40.6369088974017;-0.999755859375;-0.6646728515625;2.53999999358712;255;1 A;
40.6469088973764;-1.0003662109375;-0.66131591796875;2.54999999356187;256;1 A;
40.6569088973512;-1.00006103515625;-0.6622314453125;2.55999999353662;257;1 A;
40.6669088973259;-0.99945068359375;-0.6591796875;2.56999999351137;258;1 A;
40.6769088973007;-0.999755859375;-0.66375732421875;2.57999999348613;259;1 A;
40.6869088972754;-0.9991455078125;-0.6671142578125;2.58999999346088;260;1 A;
40.6969088972502;-0.99945068359375;-0.66864013671875;2.59999999343563;261;1 A;
40.7069088972249;-0.999755859375;-0.66925048828125;2.60999999341038;262;1 A;
40.7169088971997;-0.999755859375;-0.66680908203125;2.61999999338514;263;1 A;
40.7269088971744;-0.99945068359375;-0.67047119140625;2.62999999335989;264;1 A;
40.7369088971492;-0.9991455078125;-0.667724609375;2.63999999333464;265;1 A;
40.7469088971239;-1.0003662109375;-0.66680908203125;2.64999999330939;266;1 A;
40.7569088970987;-1.00006103515625;-0.67138671875;2.65999999328415;267;1 A;
40.7669088970734;-0.999755859375;-0.6707763671875;2.6699999932589;268;1 A;
40.7769088970482;-1.00006103515625;-0.672607421875;2.67999999323365;269;1 A;
40.786908897023;-0.999755859375;-0.6744384765625;2.6899999932084;270;1 A;
40.7969088969977;-0.99945068359375;-0.6768798828125;2.69999999318316;271;1 A;
40.8069088969725;-1.00006103515625;-0.67230224609375;2.70999999315791;272;1 A;
40.8169088969472;-1.00006103515625;-0.66680908203125;2.71999999313266;273;1 A;
40.826908896922;-0.99945068359375;-0.667724609375;2.72999999310741;274;1 A;
40.8369088968967;-0.99945068359375;-0.6658935546875;2.73999999308217;275;1 A;
40.8469088968715;-1.00006103515625;-0.6640625;2.74999999305692;276;1 A;
40.8569088968462;-0.999755859375;-0.66009521484375;2.75999999303167;277;1 A;
40.866908896821;-0.99945068359375;-0.65704345703125;2.76999999300642;278;1 A;
40.8769088967957;-0.999755859375;-0.65521240234375;2.77999999298117;279;1 A;
40.8869088967705;-1.0003662109375;-0.65399169921875;2.78999999295593;280;1 A;
40.8969088967452;-1.00006103515625;-0.66131591796875;2.79999999293068;281;1 A;
40.90690889672;-0.9991455078125;-0.6622314453125;2.80999999290543;282;1 A;
40.9169088966947;-0.99945068359375;-0.66558837890625;2.81999999288018;283;1 A;
40.9269088966695;-0.999755859375;-0.6719970703125;2.82999999285494;284;1 A;
40.9369088966442;-0.999755859375;-0.672607421875;2.83999999282969;285;1 A;
40.946908896619;-0.99945068359375;-0.67657470703125;2.84999999280444;286;1 A;
40.9569088965937;-0.99945068359375;-0.67718505859375;2.85999999277919;287;1 A;
40.9669088965685;-0.999755859375;-0.6787109375;2.86999999275395;288;1 A;
40.9769088965433;-0.99945068359375;-0.67169189453125;2.8799999927287;289;1 A;
40.986908896518;-0.99884033203125;-0.6683349609375;2.88999999270345;290;1 A;
40.9969088964928;-0.999755859375;-0.66986083984375;2.8999999926782;291;1 A;
41.0069088964675;-1.00006103515625;-0.67138671875;2.90999999265296;292;1 A;
41.0169088964423;-0.999755859375;-0.67535400390625;2.91999999262771;293;1 A;
41.026908896417;-0.99945068359375;-0.675048828125;2.92999999260246;294;1 A;
41.0369088963918;-0.999755859375;-0.679931640625;2.93999999257721;295;1 A;
41.0469088963665;-1.00006103515625;-0.67657470703125;2.94999999255197;296;1 A;
41.0569088963413;-1.00006103515625;-0.67779541015625;2.95999999252672;297;1 A;
41.066908896316;-0.999755859375;-0.67413330078125;2.96999999250147;298;1 A;
41.0769088962908;-0.99945068359375;-0.66864013671875;2.97999999247622;299;1 A;
41.0869088962655;-0.999755859375;-0.66802978515625;2.98999999245098;300;1 A;
41.0969088962403;-1.00006103515625;-0.6671142578125;2.99999999242573;301;1 A;
41.106908896215;-0.999755859375;-0.66741943359375;3.00999999240048;302;1 A;
41.1169088961898;-0.99945068359375;-0.66680908203125;3.01999999237523;303;1 A;
41.1269088961645;-0.99945068359375;-0.66802978515625;3.02999999234999;304;1 A;
41.1369088961393;-0.99945068359375;-0.6707763671875;3.03999999232474;305;1 A;
41.146908896114;-0.999755859375;-0.66436767578125;3.04999999229949;306;1 A;
41.1569088960888;-0.99945068359375;-0.66741943359375;3.05999999227424;307;1 A;
41.1669088960635;-0.99945068359375;-0.6646728515625;3.069999992249;308;1 A;
41.1769088960383;-0.99945068359375;-0.6634521484375;3.07999999222375;309;1 A;
41.1869088960131;-1.00006103515625;-0.66375732421875;3.0899999921985;310;1 A;
41.1969088959878;-0.999755859375;-0.66375732421875;3.09999999217325;311;1 A;
41.2069088959626;-0.999755859375;-0.6634521484375;3.109999992148;312;1 A;
41.2169088959373;-0.99945068359375;-0.660400390625;3.11999999212276;313;1 A;
41.2269088959121;-0.999755859375;-0.6640625;3.12999999209751;314;1 A;
41.2369088958868;-0.999755859375;-0.66497802734375;3.13999999207226;315;1 A;
41.2469088958616;-0.999755859375;-0.65887451171875;3.14999999204701;316;1 A;
41.2569088958363;-1.00006103515625;-0.6573486328125;3.15999999202177;317;1 A;
41.2669088958111;-1.0003662109375;-0.65093994140625;3.16999999199652;318;1 A;
41.2769088957858;-0.999755859375;-0.64483642578125;3.17999999197127;319;1 A;
41.2869088957606;-0.999755859375;-0.640869140625;3.18999999194602;320;1 A;
41.2969088957353;-0.9991455078125;-0.6402587890625;3.19999999192078;321;1 A;
41.3069088957101;-1.00006103515625;-0.64239501953125;3.20999999189553;322;1 A;
41.3169088956848;-0.9991455078125;-0.64056396484375;3.21999999187028;323;1 A;
41.3269088956596;-0.99945068359375;-0.645751953125;3.22999999184503;324;1 A;
41.3369088956343;-0.99945068359375;-0.64544677734375;3.23999999181979;325;1 A;
41.3469088956091;-0.99945068359375;-0.64910888671875;3.24999999179454;326;1 A;
41.3569088955838;-1.00006103515625;-0.65185546875;3.25999999176929;327;1 A;
41.3669088955586;-0.99945068359375;-0.6512451171875;3.26999999174404;328;1 A;
41.3769088955333;-0.999755859375;-0.6512451171875;3.2799999917188;329;1 A;
41.3869088955081;-0.99945068359375;-0.65032958984375;3.28999999169355;330;1 A;
41.3969088954829;-1.00006103515625;-0.6512451171875;3.2999999916683;331;1 A;
41.4069088954576;-0.999755859375;-0.65185546875;3.30999999164305;332;1 A;
41.4169088954324;-0.99945068359375;-0.6488037109375;3.31999999161781;333;1 A;
41.4269088954071;-0.999755859375;-0.64971923828125;3.32999999159256;334;1 A;
41.4369088953819;-0.999755859375;-0.6488037109375;3.33999999156731;335;1 A;
41.4469088953566;-0.9991455078125;-0.6500244140625;3.34999999154206;336;1 A;
41.4569088953314;-0.9991455078125;-0.6475830078125;3.35999999151682;337;1 A;
41.4669088953061;-1.00006103515625;-0.65277099609375;3.36999999149157;338;1 A;
41.4769088952809;-0.999755859375;-0.650634765625;3.37999999146632;339;1 A;
41.4869088952556;-0.9991455078125;-0.64697265625;3.38999999144107;340;1 A;
41.4969088952304;-1.0003662109375;-0.6561279296875;3.39999999141583;341;1 A;
41.5069088952051;-1.00006103515625;-0.65948486328125;3.40999999139058;342;1 A;
41.5169088951799;-0.99945068359375;-0.6597900390625;3.41999999136533;343;1 A;
41.5269088951546;-0.9991455078125;-0.6573486328125;3.42999999134008;344;1 A;
41.5369088951294;-0.999755859375;-0.66131591796875;3.43999999131483;345;1 A;
41.5469088951041;-1.00006103515625;-0.66314697265625;3.44999999128959;346;1 A;
41.5569088950789;-0.999755859375;-0.66558837890625;3.45999999126434;347;1 A;
41.5669088950536;-0.999755859375;-0.67169189453125;3.46999999123909;348;1 A;
41.5769088950284;-1.00006103515625;-0.66864013671875;3.47999999121384;349;1 A;
41.5869088950031;-0.9991455078125;-0.66741943359375;3.4899999911886;350;1 A;
41.5969088949779;-0.999755859375;-0.6683349609375;3.49999999116335;351;1 A;
41.6069088949527;-1.00067138671875;-0.67657470703125;3.5099999911381;352;1 A;
41.6169088949274;-0.999755859375;-0.672607421875;3.51999999111285;353;1 A;
41.6269088949022;-1.00006103515625;-0.66680908203125;3.52999999108761;354;1 A;
41.6369088948769;-0.99945068359375;-0.67291259765625;3.53999999106236;355;1 A;
41.6469088948517;-0.99945068359375;-0.667724609375;3.54999999103711;356;1 A;
41.6569088948264;-1.0003662109375;-0.6646728515625;3.55999999101186;357;1 A;
41.6669088948012;-1.00006103515625;-0.67138671875;3.56999999098662;358;1 A;
41.6769088947759;-0.99945068359375;-0.670166015625;3.57999999096137;359;1 A;
41.6869088947507;-1.00006103515625;-0.66802978515625;3.58999999093612;360;1 A;
41.6969088947254;-0.999755859375;-0.6646728515625;3.59999999091087;361;1 A;
41.7069088947002;-0.999755859375;-0.6695556640625;3.60999999088563;362;1 A;
41.7169088946749;-0.999755859375;-0.66558837890625;3.61999999086038;363;1 A;
41.7269088946497;-0.999755859375;-0.6591796875;3.62999999083513;364;1 A;
41.7369088946244;-1.00067138671875;-0.66375732421875;3.63999999080988;365;1 A;
41.7469088945992;-0.99945068359375;-0.66497802734375;3.64999999078464;366;1 A;
41.7569088945739;-0.999755859375;-0.662841796875;3.65999999075939;367;1 A;
41.7669088945487;-0.99945068359375;-0.66162109375;3.66999999073414;368;1 A;
41.7769088945234;-0.999755859375;-0.667724609375;3.67999999070889;369;1 A;
41.7869088944982;-0.99945068359375;-0.6671142578125;3.68999999068365;370;1 A;
41.7969088944729;-1.0003662109375;-0.66619873046875;3.6999999906584;371;1 A;
41.8069088944477;-0.999755859375;-0.67047119140625;3.70999999063315;372;1 A;
41.8169088944225;-0.999755859375;-0.66619873046875;3.7199999906079;373;1 A;
41.8269088943972;-1.00006103515625;-0.662841796875;3.72999999058266;374;1 A;
41.836908894372;-0.999755859375;-0.66436767578125;3.73999999055741;375;1 A;
41.8469088943467;-0.999755859375;-0.670166015625;3.74999999053216;376;1 A;
41.8569088943215;-0.999755859375;-0.67352294921875;3.75999999050691;377;1 A;
41.8669088942962;-0.999755859375;-0.66680908203125;3.76999999048167;378;1 A;
41.876908894271;-0.999755859375;-0.68206787109375;3.77999999045642;379;1 A;
41.8869088942457;-0.999755859375;-0.682373046875;3.78999999043117;380;1 A;
41.8969088942205;-0.999755859375;-0.67840576171875;3.79999999040592;381;1 A;
41.9069088941952;-0.999755859375;-0.684814453125;3.80999999038067;382;1 A;
41.91690889417;-0.999755859375;-0.68572998046875;3.81999999035543;383;1 A;
41.9269088941447;-0.999755859375;-0.68389892578125;3.82999999033018;384;1 A;
41.9369088941195;-0.999755859375;-0.67626953125;3.83999999030493;385;1 A;
41.9469088940942;-0.99945068359375;-0.68389892578125;3.84999999027968;386;1 A;
41.956908894069;-0.99945068359375;-0.68145751953125;3.85999999025444;387;1 A;
41.9669088940437;-0.99945068359375;-0.67474365234375;3.86999999022919;388;1 A;
41.9769088940185;-1.00006103515625;-0.67596435546875;3.87999999020394;389;1 A;
41.9869088939932;-0.99945068359375;-0.6756591796875;3.88999999017869;390;1 A;
41.996908893968;-1.00006103515625;-0.6732177734375;3.89999999015345;391;1 A;
42.0069088939428;-0.99945068359375;-0.66925048828125;3.9099999901282;392;1 A;
42.0169088939175;-0.9991455078125;-0.6756591796875;3.91999999010295;393;1 A;
42.0269088938923;-0.999755859375;-0.6744384765625;3.9299999900777;394;1 A;
42.036908893867;-1.0003662109375;-0.66558837890625;3.93999999005246;395;1 A;
42.0469088938418;-0.9991455078125;-0.68023681640625;3.94999999002721;396;1 A;
42.0569088938165;-0.999755859375;-0.6793212890625;3.95999999000196;397;1 A;
42.0669088937913;-0.9991455078125;-0.673828125;3.96999998997671;398;1 A;
42.076908893766;-0.99945068359375;-0.6707763671875;3.97999998995147;399;1 A;
42.0869088937408;-0.999755859375;-0.67047119140625;3.98999998992622;400;1 A;
42.0969088937155;-0.99945068359375;-0.66192626953125;3.99999998990097;401;1 A;
42.1069088936903;-0.9991455078125;-0.6573486328125;4.00999998987572;402;1 A;
42.116908893665;-1.0003662109375;-0.67169189453125;4.01999998985048;403;1 A;
42.1269088936398;-0.9991455078125;-0.673828125;4.02999998982523;404;1 A;
42.1369088936145;-0.999755859375;-0.66925048828125;4.03999998979998;405;1 A;
42.1469088935893;-0.999755859375;-0.67413330078125;4.04999998977473;406;1 A;
42.156908893564;-0.999755859375;-0.68267822265625;4.05999998974949;407;1 A;
42.1669088935388;-1.00006103515625;-0.6781005859375;4.06999998972424;408;1 A;
42.1769088935135;-1.00006103515625;-0.6756591796875;4.07999998969899;409;1 A;
42.1869088934883;-0.999755859375;-0.687255859375;4.08999998967374;410;1 A;
42.196908893463;-0.9991455078125;-0.68756103515625;4.0999999896485;411;1 A;
42.2069088934378;-0.999755859375;-0.67413330078125;4.10999998962325;412;1 A;
42.2169088934126;-1.0003662109375;-0.68511962890625;4.119999989598;413;1 A;
42.2269088933873;-0.99945068359375;-0.68206787109375;4.12999998957275;414;1 A;
42.2369088933621;-0.999755859375;-0.675048828125;4.1399999895475;415;1 A;
42.2469088933368;-0.999755859375;-0.67230224609375;4.14999998952226;416;1 A;
42.2569088933116;-0.9991455078125;-0.68389892578125;4.15999998949701;417;1 A;
42.2669088932863;-0.999755859375;-0.68023681640625;4.16999998947176;418;1 A;
42.2769088932611;-0.999755859375;-0.6744384765625;4.17999998944651;419;1 A;
42.2869088932358;-0.99945068359375;-0.68450927734375;4.18999998942127;420;1 A;
42.2969088932106;-0.99945068359375;-0.68023681640625;4.19999998939602;421;1 A;
42.3069088931853;-1.00006103515625;-0.6689453125;4.20999998937077;422;1 A;
42.3169088931601;-0.9991455078125;-0.6695556640625;4.21999998934552;423;1 A;
42.3269088931348;-0.99945068359375;-0.68267822265625;4.22999998932028;424;1 A;
42.3369088931096;-0.999755859375;-0.67962646484375;4.23999998929503;425;1 A;
42.3469088930843;-0.9991455078125;-0.677490234375;4.24999998926978;426;1 A;
42.3569088930591;-1.00006103515625;-0.69091796875;4.25999998924453;427;1 A;
42.3669088930338;-0.99945068359375;-0.689697265625;4.26999998921929;428;1 A;
42.3769088930086;-0.99945068359375;-0.68084716796875;4.27999998919404;429;1 A;
42.3869088929833;-0.99945068359375;-0.69122314453125;4.28999998916879;430;1 A;
42.3969088929581;-0.99945068359375;-0.69580078125;4.29999998914354;431;1 A;
42.4069088929328;-0.999755859375;-0.6878662109375;4.3099999891183;432;1 A;
42.4169088929076;-1.00006103515625;-0.67718505859375;4.31999998909305;433;1 A;
42.4269088928824;-0.999755859375;-0.693359375;4.3299999890678;434;1 A;
42.4369088928571;-0.99945068359375;-0.68359375;4.33999998904255;435;1 A;
42.4469088928319;-0.99945068359375;-0.67474365234375;4.34999998901731;436;1 A;
42.4569088928066;-1.00067138671875;-0.68450927734375;4.35999998899206;437;1 A;
42.4669088927814;-1.00006103515625;-0.68817138671875;4.36999998896681;438;1 A;
42.4769088927561;-1.00006103515625;-0.68359375;4.37999998894156;439;1 A;
42.4869088927309;-0.999755859375;-0.68267822265625;4.38999998891632;440;1 A;
42.4969088927056;-0.99853515625;-0.7037353515625;4.39999998889107;441;1 A;
42.5069088926804;-0.999755859375;-0.69976806640625;4.40999998886582;442;1 A;
42.5169088926551;-0.999755859375;-0.69427490234375;4.41999998884057;443;1 A;
42.5269088926299;-1.00006103515625;-0.7098388671875;4.42999998881533;444;1 A;
42.5369088926046;-1.00006103515625;-0.70709228515625;4.43999998879008;445;1 A;
42.5469088925794;-0.999755859375;-0.694580078125;4.44999998876483;446;1 A;
42.5569088925541;-0.99945068359375;-0.692138671875;4.45999998873958;447;1 A;
42.5669088925289;-0.99945068359375;-0.70037841796875;4.46999998871433;448;1 A;
42.5769088925036;-0.99945068359375;-0.69427490234375;4.47999998868909;449;1 A;
42.5869088924784;-0.999755859375;-0.68572998046875;4.48999998866384;450;1 A;
42.5969088924531;-1.00006103515625;-0.714111328125;4.49999998863859;451;1 A;
42.6069088924279;-0.999755859375;-0.7086181640625;4.50999998861334;452;1 A;
42.6169088924026;-0.999755859375;-0.6976318359375;4.5199999885881;453;1 A;
42.6269088923774;-0.999755859375;-0.70281982421875;4.52999998856285;454;1 A;
42.6369088923522;-1.00006103515625;-0.7098388671875;4.5399999885376;455;1 A;
42.6469088923269;-1.00006103515625;-0.6982421875;4.54999998851235;456;1 A;
42.6569088923017;-0.999755859375;-0.6890869140625;4.55999998848711;457;1 A;
42.6669088922764;-0.99853515625;-0.71624755859375;4.56999998846186;458;1 A;
42.6769088922512;-0.99945068359375;-0.70892333984375;4.57999998843661;459;1 A;
42.6869088922259;-0.999755859375;-0.69580078125;4.58999998841136;460;1 A;
42.6969088922007;-1.00006103515625;-0.70343017578125;4.59999998838612;461;1 A;
42.7069088921754;-1.0003662109375;-0.70709228515625;4.60999998836087;462;1 A;
42.7169088921502;-1.0003662109375;-0.6964111328125;4.61999998833562;463;1 A;
42.7269088921249;-0.999755859375;-0.69366455078125;4.62999998831037;464;1 A;
42.7369088920997;-0.999755859375;-0.70709228515625;4.63999998828513;465;1 A;
42.7469088920744;-1.00006103515625;-0.7000732421875;4.64999998825988;466;1 A;
42.7569088920492;-0.99945068359375;-0.684814453125;4.65999998823463;467;1 A;
42.7669088920239;-1.00067138671875;-0.7037353515625;4.66999998820938;468;1 A;
42.7769088919987;-1.0003662109375;-0.70465087890625;4.67999998818414;469;1 A;
42.7869088919734;-1.00006103515625;-0.68878173828125;4.68999998815889;470;1 A;
42.7969088919482;-0.9991455078125;-0.6915283203125;4.69999998813364;471;1 A;
42.8069088919229;-1.0003662109375;-0.70404052734375;4.70999998810839;472;1 A;
42.8169088918977;-1.0003662109375;-0.69854736328125;4.71999998808315;473;1 A;
42.8269088918724;-1.00006103515625;-0.694580078125;4.7299999880579;474;1 A;
42.8369088918472;-0.999755859375;-0.71380615234375;4.73999998803265;475;1 A;
42.846908891822;-0.99945068359375;-0.716552734375;4.7499999880074;476;1 A;
42.8569088917967;-0.99945068359375;-0.70343017578125;4.75999998798216;477;1 A;
42.8669088917715;-0.99945068359375;-0.71197509765625;4.76999998795691;478;1 A;
42.8769088917462;-0.999755859375;-0.723876953125;4.77999998793166;479;1 A;
42.886908891721;-1.00006103515625;-0.7135009765625;4.78999998790641;480;1 A;
42.8969088916957;-1.00006103515625;-0.70220947265625;4.79999998788116;481;1 A;
42.9069088916705;-0.99945068359375;-0.72265625;4.80999998785592;482;1 A;
42.9169088916452;-0.9991455078125;-0.7183837890625;4.81999998783067;483;1 A;
42.92690889162;-1.00006103515625;-0.70159912109375;4.82999998780542;484;1 A;
42.9369088915947;-1.00006103515625;-0.71929931640625;4.83999998778017;485;1 A;
42.9469088915695;-0.999755859375;-0.72418212890625;4.84999998775493;486;1 A;
42.9569088915442;-0.9991455078125;-0.71319580078125;4.85999998772968;487;1 A;
42.966908891519;-0.99945068359375;-0.7037353515625;4.86999998770443;488;1 A;
42.9769088914937;-0.999755859375;-0.72601318359375;4.87999998767918;489;1 A;
42.9869088914685;-1.00006103515625;-0.714111328125;4.88999998765394;490;1 A;
42.9969088914432;-1.00006103515625;-0.70098876953125;4.89999998762869;491;1 A;
43.006908891418;-1.00006103515625;-0.71624755859375;4.90999998760344;492;1 A;
43.0169088913927;-0.99945068359375;-0.72021484375;4.91999998757819;493;1 A;
43.0269088913675;-0.99945068359375;-0.70098876953125;4.92999998755295;494;1 A;
43.0369088913423;-0.999755859375;-0.7012939453125;4.9399999875277;495;1 A;
43.046908891317;-0.999755859375;-0.71990966796875;4.94999998750245;496;1 A;
43.0569088912918;-0.99945068359375;-0.7086181640625;4.9599999874772;497;1 A;
43.0669088912665;-0.999755859375;-0.69732666015625;4.96999998745196;498;1 A;
43.0769088912413;-0.99945068359375;-0.7208251953125;4.97999998742671;499;1 A;
43.086908891216;-0.9991455078125;-0.72296142578125;4.98999998740146;500;1 A;
