Time (s);WE(1).Potential (V);WE(1).Current (A);Corrected time (s);Index;Current range
0.505225998724427;-0.3997802734375;-0.024462890625;0;1;1 A
0.515225998699179;-0.39971923828125;-0.02061767578125;0.00999999997475243;2;1 A
0.525225998673932;-0.39984130859375;-0.0181671142578125;0.0199999999495049;3;1 A
0.535225998648684;-0.399749755859375;-0.016424560546875;0.0299999999242573;4;1 A
0.545225998623437;-0.39984130859375;-0.01514892578125;0.0399999998990097;5;1 A
0.555225998598189;-0.399749755859375;-0.0141693115234375;0.0499999998737621;6;1 A
0.565225998572942;-0.3997802734375;-0.0133636474609375;0.0599999998485146;7;1 A
0.575225998547694;-0.399749755859375;-0.012701416015625;0.069999999823267;8;1 A
0.585225998522446;-0.39971923828125;-0.0121734619140625;0.0799999997980194;9;1 A
0.595225998497199;-0.399749755859375;-0.0117462158203125;0.0899999997727718;10;1 A
0.605225998471951;-0.39971923828125;-0.01136474609375;0.0999999997475243;11;1 A
0.615225998446704;-0.3997802734375;-0.01102294921875;0.109999999722277;12;1 A
0.625225998421456;-0.3997802734375;-0.010772705078125;0.119999999697029;13;1 A
0.635225998396209;-0.399688720703125;-0.0105224609375;0.129999999671782;14;1 A
0.645225998370961;-0.39971923828125;-0.0099945068359375;0.139999999646534;15;1 A
0.655225998345713;-0.39971923828125;-0.010076904296875;0.149999999621286;16;1 A
0.665225998320466;-0.399658203125;-0.009906005859375;0.159999999596039;17;1 A
0.675225998295218;-0.3997802734375;-0.009765625;0.169999999570791;18;1 A
0.685225998269971;-0.39971923828125;-0.0096405029296875;0.179999999545544;19;1 A
0.695225998244723;-0.39971923828125;-0.00950927734375;0.189999999520296;20;1 A
0.705225998219476;-0.39971923828125;-0.00943908691406251;0.199999999495049;21;1 A
0.715225998194228;-0.39971923828125;-0.00933837890625;0.209999999469801;22;1 A
0.72522599816898;-0.399749755859375;-0.0093231201171875;0.219999999444553;23;1 A
0.735225998143733;-0.3997802734375;-0.00927124023437501;0.229999999419306;24;1 A
0.745225998118485;-0.3997802734375;-0.0092041015625;0.239999999394058;25;1 A
0.755225998093238;-0.3997802734375;-0.0092132568359375;0.249999999368811;26;1 A
0.76522599806799;-0.399810791015625;-0.00914306640625;0.259999999343563;27;1 A
0.775225998042743;-0.3997802734375;-0.0090972900390625;0.269999999318316;28;1 A
0.785225998017495;-0.399749755859375;-0.009063720703125;0.279999999293068;29;1 A
0.795225997992247;-0.399749755859375;-0.009033203125;0.28999999926782;30;1 A
0.805225997967;-0.399749755859375;-0.00900878906249999;0.299999999242573;31;1 A
0.815225997941752;-0.399688720703125;-0.0089752197265625;0.309999999217325;32;1 A
0.825225997916505;-0.399810791015625;-0.00899353027343749;0.319999999192078;33;1 A
0.835225997891257;-0.399810791015625;-0.00898132324218751;0.32999999916683;34;1 A
0.845225997866009;-0.399688720703125;-0.00895080566406251;0.339999999141583;35;1 A
0.855225997840762;-0.3997802734375;-0.00892333984375;0.349999999116335;36;1 A
0.865225997815514;-0.399749755859375;-0.00890197753906249;0.359999999091087;37;1 A
0.875225997790267;-0.3997802734375;-0.00889892578125;0.36999999906584;38;1 A
0.885225997765019;-0.39971923828125;-0.0088653564453125;0.379999999040592;39;1 A
0.895225997739772;-0.399749755859375;-0.00882873535156251;0.389999999015345;40;1 A
0.905225997714524;-0.399658203125;-0.008831787109375;0.399999998990097;41;1 A
0.915225997689276;-0.39971923828125;-0.00881042480468749;0.40999999896485;42;1 A
0.925225997664029;-0.399658203125;-0.008770751953125;0.419999998939602;43;1 A
0.935225997638781;-0.399749755859375;-0.0087249755859375;0.429999998914354;44;1 A
0.945225997613534;-0.399688720703125;-0.0087310791015625;0.439999998889107;45;1 A
0.955225997588286;-0.3997802734375;-0.008758544921875;0.449999998863859;46;1 A
0.965225997563039;-0.39971923828125;-0.00874938964843749;0.459999998838612;47;1 A
0.975225997537791;-0.39971923828125;-0.00876464843749999;0.469999998813364;48;1 A
0.985225997512543;-0.399749755859375;-0.0087738037109375;0.479999998788116;49;1 A
0.995225997487296;-0.3997802734375;-0.0087738037109375;0.489999998762869;50;1 A
1.00522599746205;-0.399810791015625;-0.00876464843749999;0.499999998737621;51;1 A
1.0152259974368;-0.399749755859375;-0.00873718261718751;0.509999998712374;52;1 A
1.02522599741155;-0.399749755859375;-0.008758544921875;0.519999998687126;53;1 A
1.03522599738631;-0.39971923828125;-0.00876770019531251;0.529999998661879;54;1 A
1.04522599736106;-0.3997802734375;-0.0087554931640625;0.539999998636631;55;1 A
1.05522599733581;-0.3997802734375;-0.008746337890625;0.549999998611383;56;1 A
1.06522599731056;-0.3997802734375;-0.008758544921875;0.559999998586136;57;1 A
1.07522599728532;-0.3997802734375;-0.00873413085937499;0.569999998560888;58;1 A
1.08522599726007;-0.399749755859375;-0.00872802734375;0.579999998535641;59;1 A
1.09522599723482;-0.399749755859375;-0.0087554931640625;0.589999998510393;60;1 A
1.10522599720957;-0.399749755859375;-0.00879821777343751;0.599999998485146;61;1 A
1.11522599718433;-0.399658203125;-0.0088226318359375;0.609999998459898;62;1 A
1.12522599715908;-0.39971923828125;-0.00882568359374999;0.61999999843465;63;1 A
1.13522599713383;-0.399749755859375;-0.00880126953125;0.629999998409403;64;1 A
1.14522599710858;-0.39971923828125;-0.0088226318359375;0.639999998384155;65;1 A
1.15522599708333;-0.39971923828125;-0.00885009765625;0.649999998358908;66;1 A
1.16522599705809;-0.399749755859375;-0.0088348388671875;0.65999999833366;67;1 A
1.17522599703284;-0.399810791015625;-0.00884094238281249;0.669999998308413;68;1 A
1.18522599700759;-0.39971923828125;-0.00885925292968751;0.679999998283165;69;1 A
1.19522599698234;-0.399749755859375;-0.00885009765625;0.689999998257917;70;1 A
1.2052259969571;-0.399749755859375;-0.008831787109375;0.69999999823267;71;1 A
1.21522599693185;-0.399749755859375;-0.0087890625;0.709999998207422;72;1 A
1.2252259969066;-0.399749755859375;-0.00881042480468749;0.719999998182175;73;1 A
1.23522599688135;-0.3997802734375;-0.00878295898437501;0.729999998156927;74;1 A
1.24522599685611;-0.399810791015625;-0.0087554931640625;0.73999999813168;75;1 A
1.25522599683086;-0.39984130859375;-0.00875244140625001;0.749999998106432;76;1 A
1.26522599680561;-0.399749755859375;-0.0087554931640625;0.759999998081184;77;1 A
1.27522599678036;-0.3997802734375;-0.00876770019531251;0.769999998055937;78;1 A
1.28522599675512;-0.39984130859375;-0.0087432861328125;0.779999998030689;79;1 A
1.29522599672987;-0.399749755859375;-0.0087310791015625;0.789999998005442;80;1 A
1.30522599670462;-0.39984130859375;-0.0087158203125;0.799999997980194;81;1 A
1.31522599667937;-0.3997802734375;-0.00870361328124999;0.809999997954947;82;1 A
1.32522599665413;-0.399810791015625;-0.00869140625000001;0.819999997929699;83;1 A
1.33522599662888;-0.39971923828125;-0.008685302734375;0.829999997904451;84;1 A
1.34522599660363;-0.399810791015625;-0.00869140625000001;0.839999997879204;85;1 A
1.35522599657838;-0.39971923828125;-0.008709716796875;0.849999997853956;86;1 A
1.36522599655314;-0.399749755859375;-0.008697509765625;0.859999997828709;87;1 A
1.37522599652789;-0.399749755859375;-0.00869140625000001;0.869999997803461;88;1 A
1.38522599650264;-0.399749755859375;-0.008697509765625;0.879999997778214;89;1 A
1.39522599647739;-0.399749755859375;-0.0087127685546875;0.889999997752966;90;1 A
1.40522599645215;-0.399749755859375;-0.0087005615234375;0.899999997727718;91;1 A
1.4152259964269;-0.399749755859375;-0.0086822509765625;0.909999997702471;92;1 A
1.42522599640165;-0.39971923828125;-0.0087432861328125;0.919999997677223;93;1 A
1.4352259963764;-0.399749755859375;-0.0087432861328125;0.929999997651976;94;1 A
1.44522599635116;-0.39971923828125;-0.0087158203125;0.939999997626728;95;1 A
1.45522599632591;-0.399749755859375;-0.0087310791015625;0.949999997601481;96;1 A
1.46522599630066;-0.399688720703125;-0.0087432861328125;0.959999997576233;97;1 A
1.47522599627541;-0.3997802734375;-0.00875244140625001;0.969999997550985;98;1 A
1.48522599625016;-0.39971923828125;-0.0087127685546875;0.979999997525738;99;1 A
1.49522599622492;-0.399749755859375;-0.0086822509765625;0.98999999750049;100;1 A
1.50522599619967;-0.399749755859375;-0.00867919921875;0.999999997475243;101;1 A
1.51522599617442;-0.39984130859375;-0.00867614746093751;1.00999999745;102;1 A
1.52522599614917;-0.399749755859375;-0.00869140625000001;1.01999999742475;103;1 A
1.53522599612393;-0.399749755859375;-0.00869140625000001;1.0299999973995;104;1 A
1.54522599609868;-0.39984130859375;-0.008746337890625;1.03999999737425;105;1 A
1.55522599607343;-0.399749755859375;-0.0088043212890625;1.049999997349;106;1 A
1.56522599604818;-0.399749755859375;-0.00881042480468749;1.05999999732376;107;1 A
1.57522599602294;-0.399749755859375;-0.0088226318359375;1.06999999729851;108;1 A
1.58522599599769;-0.399749755859375;-0.00885009765625;1.07999999727326;109;1 A
1.59522599597244;-0.399749755859375;-0.0088653564453125;1.08999999724801;110;1 A
1.60522599594719;-0.3997802734375;-0.00887145996093749;1.09999999722277;111;1 A
1.61522599592195;-0.399749755859375;-0.0088653564453125;1.10999999719752;112;1 A
1.6252259958967;-0.399749755859375;-0.00889892578125;1.11999999717227;113;1 A
1.63522599587145;-0.399749755859375;-0.00889892578125;1.12999999714702;114;1 A
1.6452259958462;-0.39971923828125;-0.00890502929687501;1.13999999712178;115;1 A
1.65522599582096;-0.399810791015625;-0.0089080810546875;1.14999999709653;116;1 A
1.66522599579571;-0.39971923828125;-0.00892333984375;1.15999999707128;117;1 A
1.67522599577046;-0.39971923828125;-0.00890502929687501;1.16999999704603;118;1 A
1.68522599574521;-0.399749755859375;-0.0088836669921875;1.17999999702079;119;1 A
1.69522599571997;-0.3997802734375;-0.00885620117187499;1.18999999699554;120;1 A
1.70522599569472;-0.399688720703125;-0.00885620117187499;1.19999999697029;121;1 A
1.71522599566947;-0.399749755859375;-0.00884094238281249;1.20999999694504;122;1 A
1.72522599564422;-0.399749755859375;-0.0088165283203125;1.2199999969198;123;1 A
1.73522599561898;-0.39971923828125;-0.00876464843749999;1.22999999689455;124;1 A
1.74522599559373;-0.399688720703125;-0.0087615966796875;1.2399999968693;125;1 A
1.75522599556848;-0.3997802734375;-0.00873718261718751;1.24999999684405;126;1 A
1.76522599554323;-0.399749755859375;-0.0086944580078125;1.25999999681881;127;1 A
1.77522599551799;-0.399749755859375;-0.00856933593750001;1.26999999679356;128;1 A
1.78522599549274;-0.399810791015625;-0.00867919921875;1.27999999676831;129;1 A
1.79522599546749;-0.39971923828125;-0.00867919921875;1.28999999674306;130;1 A
1.80522599544224;-0.39984130859375;-0.00865478515625;1.29999999671782;131;1 A
1.81522599541699;-0.39971923828125;-0.00864257812499999;1.30999999669257;132;1 A
1.82522599539175;-0.399810791015625;-0.00864257812499999;1.31999999666732;133;1 A
1.8352259953665;-0.399749755859375;-0.00867919921875;1.32999999664207;134;1 A
1.84522599534125;-0.399810791015625;-0.00867919921875;1.33999999661683;135;1 A
1.855225995316;-0.399810791015625;-0.0086669921875;1.34999999659158;136;1 A
1.86522599529076;-0.3997802734375;-0.0086639404296875;1.35999999656633;137;1 A
1.87522599526551;-0.3997802734375;-0.0086669921875;1.36999999654108;138;1 A
1.88522599524026;-0.39971923828125;-0.008648681640625;1.37999999651583;139;1 A
1.89522599521501;-0.3997802734375;-0.00865478515625;1.38999999649059;140;1 A
1.90522599518977;-0.3997802734375;-0.00867919921875;1.39999999646534;141;1 A
1.91522599516452;-0.399749755859375;-0.0086822509765625;1.40999999644009;142;1 A
1.92522599513927;-0.39971923828125;-0.008697509765625;1.41999999641484;143;1 A
1.93522599511402;-0.3997802734375;-0.00868835449218749;1.4299999963896;144;1 A
1.94522599508878;-0.399688720703125;-0.0087127685546875;1.43999999636435;145;1 A
1.95522599506353;-0.399749755859375;-0.00870666503906251;1.4499999963391;146;1 A
1.96522599503828;-0.39971923828125;-0.008685302734375;1.45999999631385;147;1 A
1.97522599501303;-0.399749755859375;-0.0086669921875;1.46999999628861;148;1 A
1.98522599498779;-0.399688720703125;-0.0086334228515625;1.47999999626336;149;1 A
1.99522599496254;-0.399810791015625;-0.0086212158203125;1.48999999623811;150;1 A
2.00522599493729;-0.399749755859375;-0.00870361328124999;1.49999999621286;151;1 A
2.01522599491204;-0.399749755859375;-0.0085479736328125;1.50999999618762;152;1 A
2.0252259948868;-0.399749755859375;-0.00856933593750001;1.51999999616237;153;1 A
2.03522599486155;-0.39971923828125;-0.00850830078125001;1.52999999613712;154;1 A
2.0452259948363;-0.3997802734375;-0.0085113525390625;1.53999999611187;155;1 A
2.05522599481105;-0.399810791015625;-0.008526611328125;1.54999999608663;156;1 A
2.06522599478581;-0.3997802734375;-0.00858154296874999;1.55999999606138;157;1 A
2.07522599476056;-0.39971923828125;-0.00858459472656251;1.56999999603613;158;1 A
2.08522599473531;-0.399810791015625;-0.008544921875;1.57999999601088;159;1 A
2.09522599471006;-0.399749755859375;-0.00849304199218751;1.58999999598564;160;1 A
2.10522599468482;-0.399749755859375;-0.00845947265624999;1.59999999596039;161;1 A
2.11522599465957;-0.3997802734375;-0.0084197998046875;1.60999999593514;162;1 A
2.12522599463432;-0.399749755859375;-0.0083740234375;1.61999999590989;163;1 A
2.13522599460907;-0.399658203125;-0.00832214355468749;1.62999999588465;164;1 A
2.14522599458383;-0.399749755859375;-0.0083038330078125;1.6399999958594;165;1 A
2.15522599455858;-0.39971923828125;-0.0082733154296875;1.64999999583415;166;1 A
2.16522599453333;-0.39971923828125;-0.00824890136718751;1.6599999958089;167;1 A
2.17522599450808;-0.39971923828125;-0.008251953125;1.66999999578366;168;1 A
2.18522599448283;-0.39971923828125;-0.008258056640625;1.67999999575841;169;1 A
2.19522599445759;-0.39971923828125;-0.00824584960937499;1.68999999573316;170;1 A
2.20522599443234;-0.399688720703125;-0.00821838378906251;1.69999999570791;171;1 A
2.21522599440709;-0.399749755859375;-0.00816955566406249;1.70999999568267;172;1 A
2.22522599438184;-0.399749755859375;-0.00817260742187501;1.71999999565742;173;1 A
2.2352259943566;-0.3997802734375;-0.00816955566406249;1.72999999563217;174;1 A
2.24522599433135;-0.39971923828125;-0.00815734863281251;1.73999999560692;175;1 A
2.2552259943061;-0.39971923828125;-0.008135986328125;1.74999999558167;176;1 A
2.26522599428085;-0.399658203125;-0.00813903808593749;1.75999999555643;177;1 A
2.27522599425561;-0.3997802734375;-0.00813903808593749;1.76999999553118;178;1 A
2.28522599423036;-0.3997802734375;-0.0081024169921875;1.77999999550593;179;1 A
2.29522599420511;-0.3997802734375;-0.0080718994140625;1.78999999548068;180;1 A
2.30522599417986;-0.399810791015625;-0.0080718994140625;1.79999999545544;181;1 A
2.31522599415462;-0.399749755859375;-0.00806579589843751;1.80999999543019;182;1 A
2.32522599412937;-0.3997802734375;-0.00806884765625;1.81999999540494;183;1 A
2.33522599410412;-0.399810791015625;-0.0080596923828125;1.82999999537969;184;1 A
2.34522599407887;-0.399749755859375;-0.00809631347656251;1.83999999535445;185;1 A
2.35522599405363;-0.39971923828125;-0.00811157226562501;1.8499999953292;186;1 A
2.36522599402838;-0.3997802734375;-0.0081146240234375;1.85999999530395;187;1 A
2.37522599400313;-0.39984130859375;-0.00812683105468751;1.8699999952787;188;1 A
2.38522599397788;-0.399810791015625;-0.0081939697265625;1.87999999525346;189;1 A
2.39522599395264;-0.399810791015625;-0.00827636718749999;1.88999999522821;190;1 A
2.40522599392739;-0.399688720703125;-0.008343505859375;1.89999999520296;191;1 A
2.41522599390214;-0.39971923828125;-0.008392333984375;1.90999999517771;192;1 A
2.42522599387689;-0.39971923828125;-0.00844421386718749;1.91999999515247;193;1 A
2.43522599385165;-0.399627685546875;-0.00844421386718749;1.92999999512722;194;1 A
2.4452259938264;-0.399749755859375;-0.0084075927734375;1.93999999510197;195;1 A
2.45522599380115;-0.399749755859375;-0.00838623046875001;1.94999999507672;196;1 A
2.4652259937759;-0.399658203125;-0.0084075927734375;1.95999999505148;197;1 A
2.47522599375066;-0.39984130859375;-0.0084228515625;1.96999999502623;198;1 A
2.48522599372541;-0.399749755859375;-0.0084228515625;1.97999999500098;199;1 A
2.49522599370016;-0.399749755859375;-0.00843200683593751;1.98999999497573;200;1 A
2.50522599367491;-0.399688720703125;-0.008453369140625;1.99999999495049;201;1 A
2.51522599364966;-0.39971923828125;-0.008453369140625;2.00999999492524;202;1 A
2.52522599362442;-0.399810791015625;-0.008441162109375;2.01999999489999;203;1 A
2.53522599359917;-0.399749755859375;-0.00841674804687501;2.02999999487474;204;1 A
2.54522599357392;-0.399810791015625;-0.00839843749999999;2.0399999948495;205;1 A
2.55522599354867;-0.39971923828125;-0.00841064453125;2.04999999482425;206;1 A
2.56522599352343;-0.3997802734375;-0.0083892822265625;2.059999994799;207;1 A
2.57522599349818;-0.399688720703125;-0.0083953857421875;2.06999999477375;208;1 A
2.58522599347293;-0.3997802734375;-0.00841674804687501;2.0799999947485;209;1 A
2.59522599344768;-0.3997802734375;-0.00843505859375;2.08999999472326;210;1 A
2.60522599342244;-0.3997802734375;-0.0084381103515625;2.09999999469801;211;1 A
2.61522599339719;-0.39971923828125;-0.00844726562500001;2.10999999467276;212;1 A
2.62522599337194;-0.399749755859375;-0.00849609375;2.11999999464751;213;1 A
2.63522599334669;-0.39971923828125;-0.0085418701171875;2.12999999462227;214;1 A
2.64522599332145;-0.3997802734375;-0.00856628417968749;2.13999999459702;215;1 A
2.6552259932962;-0.399749755859375;-0.008563232421875;2.14999999457177;216;1 A
2.66522599327095;-0.39971923828125;-0.0085906982421875;2.15999999454652;217;1 A
2.6752259932457;-0.3997802734375;-0.00858459472656251;2.16999999452128;218;1 A
2.68522599322046;-0.399688720703125;-0.00855407714843751;2.17999999449603;219;1 A
2.69522599319521;-0.3997802734375;-0.00853881835937501;2.18999999447078;220;1 A
2.70522599316996;-0.39971923828125;-0.0085784912109375;2.19999999444553;221;1 A
2.71522599314471;-0.399749755859375;-0.00859985351562501;2.20999999442029;222;1 A
2.72522599311947;-0.39971923828125;-0.00861511230468751;2.21999999439504;223;1 A
2.73522599309422;-0.3997802734375;-0.0085784912109375;2.22999999436979;224;1 A
2.74522599306897;-0.39971923828125;-0.0086334228515625;2.23999999434454;225;1 A
2.75522599304372;-0.399749755859375;-0.00865478515625;2.2499999943193;226;1 A
2.76522599301848;-0.39971923828125;-0.00864257812499999;2.25999999429405;227;1 A
2.77522599299323;-0.3997802734375;-0.008648681640625;2.2699999942688;228;1 A
2.78522599296798;-0.3997802734375;-0.0086669921875;2.27999999424355;229;1 A
2.79522599294273;-0.3997802734375;-0.00867919921875;2.28999999421831;230;1 A
2.80522599291749;-0.399749755859375;-0.00870666503906251;2.29999999419306;231;1 A
2.81522599289224;-0.3997802734375;-0.008624267578125;2.30999999416781;232;1 A
2.82522599286699;-0.399810791015625;-0.0086181640625;2.31999999414256;233;1 A
2.83522599284174;-0.3997802734375;-0.0086090087890625;2.32999999411732;234;1 A
2.84522599281649;-0.3997802734375;-0.00860595703125;2.33999999409207;235;1 A
2.85522599279125;-0.39984130859375;-0.00858154296874999;2.34999999406682;236;1 A
2.865225992766;-0.3997802734375;-0.008587646484375;2.35999999404157;237;1 A
2.87522599274075;-0.3997802734375;-0.0085723876953125;2.36999999401633;238;1 A
2.8852259927155;-0.399749755859375;-0.0085418701171875;2.37999999399108;239;1 A
2.89522599269026;-0.399688720703125;-0.0085296630859375;2.38999999396583;240;1 A
2.90522599266501;-0.3997802734375;-0.00855102539062499;2.39999999394058;241;1 A
2.91522599263976;-0.399749755859375;-0.0085479736328125;2.40999999391533;242;1 A
2.92522599261451;-0.399688720703125;-0.00853881835937501;2.41999999389009;243;1 A
2.93522599258927;-0.3997802734375;-0.008526611328125;2.42999999386484;244;1 A
2.94522599256402;-0.39971923828125;-0.00853881835937501;2.43999999383959;245;1 A
2.95522599253877;-0.399749755859375;-0.0085418701171875;2.44999999381434;246;1 A
2.96522599251352;-0.39971923828125;-0.0085174560546875;2.4599999937891;247;1 A
2.97522599248828;-0.39971923828125;-0.0085174560546875;2.46999999376385;248;1 A
2.98522599246303;-0.399688720703125;-0.0085296630859375;2.4799999937386;249;1 A
2.99522599243778;-0.399749755859375;-0.00855102539062499;2.48999999371335;250;1 A
3.00522599241253;-0.3997802734375;-0.00855102539062499;2.49999999368811;251;1 A
3.01522599238729;-0.3997802734375;-0.00855712890625;2.50999999366286;252;1 A
3.02522599236204;-0.399688720703125;-0.00856628417968749;2.51999999363761;253;1 A
3.03522599233679;-0.3997802734375;-0.008563232421875;2.52999999361236;254;1 A
3.04522599231154;-0.3997802734375;-0.00855407714843751;2.53999999358712;255;1 A
3.0552259922863;-0.3997802734375;-0.0085479736328125;2.54999999356187;256;1 A
3.06522599226105;-0.3997802734375;-0.0084991455078125;2.55999999353662;257;1 A
3.0752259922358;-0.399749755859375;-0.0085723876953125;2.56999999351137;258;1 A
3.08522599221055;-0.39984130859375;-0.00858459472656251;2.57999999348613;259;1 A
3.09522599218531;-0.399688720703125;-0.0086029052734375;2.58999999346088;260;1 A
3.10522599216006;-0.399871826171875;-0.0086334228515625;2.59999999343563;261;1 A
3.11522599213481;-0.3997802734375;-0.00864257812499999;2.60999999341038;262;1 A
3.12522599210956;-0.3997802734375;-0.00867309570312499;2.61999999338514;263;1 A
3.13522599208432;-0.399688720703125;-0.00870361328124999;2.62999999335989;264;1 A
3.14522599205907;-0.399749755859375;-0.00875244140625001;2.63999999333464;265;1 A
3.15522599203382;-0.399688720703125;-0.0087890625;2.64999999330939;266;1 A
3.16522599200857;-0.399749755859375;-0.00879516601562499;2.65999999328415;267;1 A
3.17522599198333;-0.399749755859375;-0.00880126953125;2.6699999932589;268;1 A
3.18522599195808;-0.3997802734375;-0.00882568359374999;2.67999999323365;269;1 A
3.19522599193283;-0.39971923828125;-0.00884094238281249;2.6899999932084;270;1 A
3.20522599190758;-0.39971923828125;-0.008831787109375;2.69999999318316;271;1 A
3.21522599188233;-0.39971923828125;-0.00881042480468749;2.70999999315791;272;1 A
3.22522599185709;-0.399658203125;-0.00881042480468749;2.71999999313266;273;1 A
3.23522599183184;-0.39971923828125;-0.0088043212890625;2.72999999310741;274;1 A
3.24522599180659;-0.399658203125;-0.00880126953125;2.73999999308217;275;1 A
3.25522599178134;-0.39971923828125;-0.0087921142578125;2.74999999305692;276;1 A
3.2652259917561;-0.399688720703125;-0.0088165283203125;2.75999999303167;277;1 A
3.27522599173085;-0.399749755859375;-0.008837890625;2.76999999300642;278;1 A
3.2852259917056;-0.3997802734375;-0.008831787109375;2.77999999298117;279;1 A
3.29522599168035;-0.3997802734375;-0.00877685546875;2.78999999295593;280;1 A
3.30522599165511;-0.3997802734375;-0.0088043212890625;2.79999999293068;281;1 A
3.31522599162986;-0.39971923828125;-0.00876464843749999;2.80999999290543;282;1 A
3.32522599160461;-0.3997802734375;-0.00872802734375;2.81999999288018;283;1 A
3.33522599157936;-0.3997802734375;-0.00871887207031249;2.82999999285494;284;1 A
3.34522599155412;-0.3997802734375;-0.008746337890625;2.83999999282969;285;1 A
3.35522599152887;-0.399749755859375;-0.008746337890625;2.84999999280444;286;1 A
3.36522599150362;-0.39984130859375;-0.00872802734375;2.85999999277919;287;1 A
3.37522599147837;-0.3997802734375;-0.008709716796875;2.86999999275395;288;1 A
3.38522599145313;-0.399810791015625;-0.008685302734375;2.8799999927287;289;1 A
3.39522599142788;-0.399810791015625;-0.00863037109375001;2.88999999270345;290;1 A
3.40522599140263;-0.399810791015625;-0.0085723876953125;2.8999999926782;291;1 A
3.41522599137738;-0.39971923828125;-0.00850524902343749;2.90999999265296;292;1 A
3.42522599135214;-0.3997802734375;-0.00848999023437499;2.91999999262771;293;1 A
3.43522599132689;-0.399810791015625;-0.00847473144531249;2.92999999260246;294;1 A
3.44522599130164;-0.399688720703125;-0.008453369140625;2.93999999257721;295;1 A
3.45522599127639;-0.399749755859375;-0.00844421386718749;2.94999999255197;296;1 A
3.46522599125115;-0.39971923828125;-0.0084197998046875;2.95999999252672;297;1 A
3.4752259912259;-0.3997802734375;-0.0084381103515625;2.96999999250147;298;1 A
3.48522599120065;-0.399688720703125;-0.00843505859375;2.97999999247622;299;1 A
3.4952259911754;-0.399688720703125;-0.0084381103515625;2.98999999245098;300;1 A
3.50522599115016;-0.399749755859375;-0.00846252441406251;2.99999999242573;301;1 A
3.51522599112491;-0.3997802734375;-0.00846252441406251;3.00999999240048;302;1 A
3.52522599109966;-0.39971923828125;-0.008465576171875;3.01999999237523;303;1 A
3.53522599107441;-0.399749755859375;-0.0084503173828125;3.02999999234999;304;1 A
3.54522599104916;-0.399749755859375;-0.0084686279296875;3.03999999232474;305;1 A
3.55522599102392;-0.399749755859375;-0.00845947265624999;3.04999999229949;306;1 A
3.56522599099867;-0.399810791015625;-0.0084197998046875;3.05999999227424;307;1 A
3.57522599097342;-0.399749755859375;-0.0083282470703125;3.069999992249;308;1 A
3.58522599094817;-0.39984130859375;-0.00835571289062501;3.07999999222375;309;1 A
3.59522599092293;-0.3997802734375;-0.00834045410156251;3.0899999921985;310;1 A
3.60522599089768;-0.399749755859375;-0.0083038330078125;3.09999999217325;311;1 A
3.61522599087243;-0.39971923828125;-0.008319091796875;3.109999992148;312;1 A
3.62522599084718;-0.39971923828125;-0.008343505859375;3.11999999212276;313;1 A
3.63522599082194;-0.39971923828125;-0.008258056640625;3.12999999209751;314;1 A
3.64522599079669;-0.399749755859375;-0.00830078125;3.13999999207226;315;1 A
3.65522599077144;-0.399810791015625;-0.008349609375;3.14999999204701;316;1 A
3.66522599074619;-0.399749755859375;-0.0083648681640625;3.15999999202177;317;1 A
3.67522599072095;-0.399688720703125;-0.008380126953125;3.16999999199652;318;1 A
3.6852259906957;-0.399749755859375;-0.00837097167968751;3.17999999197127;319;1 A
3.69522599067045;-0.399810791015625;-0.00835571289062501;3.18999999194602;320;1 A
3.7052259906452;-0.399688720703125;-0.008380126953125;3.19999999192078;321;1 A
3.71522599061996;-0.399749755859375;-0.0083770751953125;3.20999999189553;322;1 A
3.72522599059471;-0.39971923828125;-0.00838623046875001;3.21999999187028;323;1 A
3.73522599056946;-0.39971923828125;-0.0083892822265625;3.22999999184503;324;1 A
3.74522599054421;-0.399688720703125;-0.00843200683593751;3.23999999181979;325;1 A
3.75522599051897;-0.399749755859375;-0.008441162109375;3.24999999179454;326;1 A
3.76522599049372;-0.399688720703125;-0.008441162109375;3.25999999176929;327;1 A
3.77522599046847;-0.399749755859375;-0.008453369140625;3.26999999174404;328;1 A
3.78522599044322;-0.39971923828125;-0.0084564208984375;3.2799999917188;329;1 A
3.79522599041798;-0.39971923828125;-0.00844726562500001;3.28999999169355;330;1 A
3.80522599039273;-0.399749755859375;-0.00842895507812499;3.2999999916683;331;1 A
3.81522599036748;-0.399749755859375;-0.0084259033203125;3.30999999164305;332;1 A
3.82522599034223;-0.39984130859375;-0.00848388671875;3.31999999161781;333;1 A
3.83522599031699;-0.399810791015625;-0.00850524902343749;3.32999999159256;334;1 A
3.84522599029174;-0.3997802734375;-0.00853271484375;3.33999999156731;335;1 A
3.85522599026649;-0.3997802734375;-0.0085296630859375;3.34999999154206;336;1 A
3.86522599024124;-0.399810791015625;-0.00856933593750001;3.35999999151682;337;1 A
3.87522599021599;-0.3997802734375;-0.008514404296875;3.36999999149157;338;1 A
3.88522599019075;-0.39984130859375;-0.0085723876953125;3.37999999146632;339;1 A
3.8952259901655;-0.399749755859375;-0.00850524902343749;3.38999999144107;340;1 A
3.90522599014025;-0.3997802734375;-0.008587646484375;3.39999999141583;341;1 A
3.915225990115;-0.399749755859375;-0.0085601806640625;3.40999999139058;342;1 A
3.92522599008976;-0.399749755859375;-0.00853881835937501;3.41999999136533;343;1 A
3.93522599006451;-0.3997802734375;-0.0084991455078125;3.42999999134008;344;1 A
3.94522599003926;-0.39971923828125;-0.008526611328125;3.43999999131483;345;1 A
3.95522599001401;-0.39971923828125;-0.008544921875;3.44999999128959;346;1 A
3.96522598998877;-0.399688720703125;-0.0085479736328125;3.45999999126434;347;1 A
3.97522598996352;-0.399749755859375;-0.00855712890625;3.46999999123909;348;1 A
3.98522598993827;-0.39971923828125;-0.0085601806640625;3.47999999121384;349;1 A
3.99522598991302;-0.399749755859375;-0.00856933593750001;3.4899999911886;350;1 A
4.00522598988778;-0.399688720703125;-0.00855102539062499;3.49999999116335;351;1 A
4.01522598986253;-0.399749755859375;-0.00852050781249999;3.5099999911381;352;1 A
4.02522598983728;-0.39971923828125;-0.00853881835937501;3.51999999111285;353;1 A
4.03522598981203;-0.399749755859375;-0.0085296630859375;3.52999999108761;354;1 A
4.04522598978679;-0.399749755859375;-0.00850524902343749;3.53999999106236;355;1 A
4.05522598976154;-0.399810791015625;-0.00848999023437499;3.54999999103711;356;1 A
4.06522598973629;-0.3997802734375;-0.00849609375;3.55999999101186;357;1 A
4.07522598971104;-0.399749755859375;-0.008502197265625;3.56999999098662;358;1 A
4.0852259896858;-0.399810791015625;-0.00849609375;3.57999999096137;359;1 A
4.09522598966055;-0.399810791015625;-0.008502197265625;3.58999999093612;360;1 A
4.1052259896353;-0.399810791015625;-0.0084808349609375;3.59999999091087;361;1 A
4.11522598961005;-0.39971923828125;-0.0084686279296875;3.60999999088563;362;1 A
4.12522598958481;-0.399810791015625;-0.0084686279296875;3.61999999086038;363;1 A
4.13522598955956;-0.3997802734375;-0.008453369140625;3.62999999083513;364;1 A
4.14522598953431;-0.3997802734375;-0.00845947265624999;3.63999999080988;365;1 A
4.15522598950906;-0.3997802734375;-0.00845947265624999;3.64999999078464;366;1 A
4.16522598948382;-0.399749755859375;-0.00837097167968751;3.65999999075939;367;1 A
4.17522598945857;-0.399810791015625;-0.008465576171875;3.66999999073414;368;1 A
4.18522598943332;-0.399749755859375;-0.00850830078125001;3.67999999070889;369;1 A
4.19522598940807;-0.399749755859375;-0.0085601806640625;3.68999999068365;370;1 A
4.20522598938282;-0.39971923828125;-0.00855407714843751;3.6999999906584;371;1 A
4.21522598935758;-0.3997802734375;-0.00863037109375001;3.70999999063315;372;1 A
4.22522598933233;-0.3997802734375;-0.00867309570312499;3.7199999906079;373;1 A
4.23522598930708;-0.3997802734375;-0.0086822509765625;3.72999999058266;374;1 A
4.24522598928183;-0.399688720703125;-0.008697509765625;3.73999999055741;375;1 A
4.25522598925659;-0.399688720703125;-0.0086944580078125;3.74999999053216;376;1 A
4.26522598923134;-0.399688720703125;-0.0087005615234375;3.75999999050691;377;1 A
4.27522598920609;-0.399749755859375;-0.00867614746093751;3.76999999048167;378;1 A
4.28522598918084;-0.39971923828125;-0.00861511230468751;3.77999999045642;379;1 A
4.2952259891556;-0.39971923828125;-0.00856628417968749;3.78999999043117;380;1 A
4.30522598913035;-0.399749755859375;-0.00855712890625;3.79999999040592;381;1 A
4.3152259891051;-0.399749755859375;-0.00853576660156249;3.80999999038067;382;1 A
4.32522598907985;-0.3997802734375;-0.0085296630859375;3.81999999035543;383;1 A
4.33522598905461;-0.399749755859375;-0.00850524902343749;3.82999999033018;384;1 A
4.34522598902936;-0.399749755859375;-0.008526611328125;3.83999999030493;385;1 A
4.35522598900411;-0.39971923828125;-0.00852050781249999;3.84999999027968;386;1 A
4.36522598897886;-0.3997802734375;-0.0085113525390625;3.85999999025444;387;1 A
4.37522598895362;-0.399749755859375;-0.0085113525390625;3.86999999022919;388;1 A
4.38522598892837;-0.39984130859375;-0.0085113525390625;3.87999999020394;389;1 A
4.39522598890312;-0.3997802734375;-0.00850524902343749;3.88999999017869;390;1 A
4.40522598887787;-0.3997802734375;-0.00847473144531249;3.89999999015345;391;1 A
4.41522598885263;-0.399749755859375;-0.00844726562500001;3.9099999901282;392;1 A
4.42522598882738;-0.39971923828125;-0.0084716796875;3.91999999010295;393;1 A
4.43522598880213;-0.39971923828125;-0.0084716796875;3.9299999900777;394;1 A
4.44522598877688;-0.39971923828125;-0.0084869384765625;3.93999999005246;395;1 A
4.45522598875164;-0.39971923828125;-0.00847778320312501;3.94999999002721;396;1 A
4.46522598872639;-0.39971923828125;-0.00849609375;3.95999999000196;397;1 A
4.47522598870114;-0.399749755859375;-0.0085174560546875;3.96999998997671;398;1 A
4.48522598867589;-0.399658203125;-0.008502197265625;3.97999998995147;399;1 A
4.49522598865065;-0.39971923828125;-0.00850524902343749;3.98999998992622;400;1 A
4.5052259886254;-0.39971923828125;-0.008514404296875;3.99999998990097;401;1 A
4.51522598860015;-0.399749755859375;-0.0085418701171875;4.00999998987572;402;1 A
4.5252259885749;-0.3997802734375;-0.00858154296874999;4.01999998985048;403;1 A
4.53522598854966;-0.39971923828125;-0.00859680175781249;4.02999998982523;404;1 A
4.54522598852441;-0.399749755859375;-0.0086334228515625;4.03999998979998;405;1 A
4.55522598849916;-0.399658203125;-0.00864257812499999;4.04999998977473;406;1 A
4.56522598847391;-0.399749755859375;-0.0086334228515625;4.05999998974949;407;1 A
4.57522598844866;-0.399749755859375;-0.008624267578125;4.06999998972424;408;1 A
4.58522598842342;-0.3997802734375;-0.0086212158203125;4.07999998969899;409;1 A
4.59522598839817;-0.399688720703125;-0.0086212158203125;4.08999998967374;410;1 A
4.60522598837292;-0.39971923828125;-0.00859985351562501;4.0999999896485;411;1 A
4.61522598834767;-0.399749755859375;-0.0085784912109375;4.10999998962325;412;1 A
4.62522598832243;-0.3997802734375;-0.00856933593750001;4.119999989598;413;1 A
4.63522598829718;-0.399749755859375;-0.0085418701171875;4.12999998957275;414;1 A
4.64522598827193;-0.39984130859375;-0.00853881835937501;4.1399999895475;415;1 A
4.65522598824668;-0.3997802734375;-0.0085174560546875;4.14999998952226;416;1 A
4.66522598822144;-0.3997802734375;-0.00852050781249999;4.15999998949701;417;1 A
4.67522598819619;-0.3997802734375;-0.00848999023437499;4.16999998947176;418;1 A
4.68522598817094;-0.399749755859375;-0.0084686279296875;4.17999998944651;419;1 A
4.69522598814569;-0.39971923828125;-0.0084686279296875;4.18999998942127;420;1 A
4.70522598812045;-0.399749755859375;-0.0084716796875;4.19999998939602;421;1 A
4.7152259880952;-0.39971923828125;-0.0084564208984375;4.20999998937077;422;1 A
4.72522598806995;-0.399688720703125;-0.00843505859375;4.21999998934552;423;1 A
4.7352259880447;-0.39971923828125;-0.00841369628906249;4.22999998932028;424;1 A
4.74522598801946;-0.399688720703125;-0.0084075927734375;4.23999998929503;425;1 A
4.75522598799421;-0.399749755859375;-0.00841369628906249;4.24999998926978;426;1 A
4.76522598796896;-0.399688720703125;-0.0083953857421875;4.25999998924453;427;1 A
4.77522598794371;-0.39971923828125;-0.00837097167968751;4.26999998921929;428;1 A
4.78522598791847;-0.399749755859375;-0.008349609375;4.27999998919404;429;1 A
4.79522598789322;-0.39971923828125;-0.008331298828125;4.28999998916879;430;1 A
4.80522598786797;-0.399688720703125;-0.00832214355468749;4.29999998914354;431;1 A
4.81522598784272;-0.39971923828125;-0.0083343505859375;4.3099999891183;432;1 A
4.82522598781748;-0.39984130859375;-0.00835571289062501;4.31999998909305;433;1 A
4.83522598779223;-0.399688720703125;-0.0083648681640625;4.3299999890678;434;1 A
4.84522598776698;-0.399810791015625;-0.00838317871093749;4.33999998904255;435;1 A
4.85522598774173;-0.399749755859375;-0.0083953857421875;4.34999998901731;436;1 A
4.86522598771649;-0.3997802734375;-0.00843200683593751;4.35999998899206;437;1 A
4.87522598769124;-0.399749755859375;-0.00847473144531249;4.36999998896681;438;1 A
4.88522598766599;-0.39984130859375;-0.0084716796875;4.37999998894156;439;1 A
4.89522598764074;-0.39971923828125;-0.00849609375;4.38999998891632;440;1 A
4.90522598761549;-0.3997802734375;-0.00847473144531249;4.39999998889107;441;1 A
4.91522598759025;-0.399749755859375;-0.008502197265625;4.40999998886582;442;1 A
4.925225987565;-0.39971923828125;-0.00849304199218751;4.41999998884057;443;1 A
4.93522598753975;-0.399749755859375;-0.00848388671875;4.42999998881533;444;1 A
4.9452259875145;-0.399749755859375;-0.0085174560546875;4.43999998879008;445;1 A
4.95522598748926;-0.39971923828125;-0.008514404296875;4.44999998876483;446;1 A
4.96522598746401;-0.39971923828125;-0.00849304199218751;4.45999998873958;447;1 A
4.97522598743876;-0.39971923828125;-0.008453369140625;4.46999998871433;448;1 A
4.98522598741351;-0.39971923828125;-0.00843505859375;4.47999998868909;449;1 A
4.99522598738827;-0.39971923828125;-0.00839843749999999;4.48999998866384;450;1 A
5.00522598736302;-0.39971923828125;-0.0083465576171875;4.49999998863859;451;1 A
5.01522598733777;-0.3997802734375;-0.0083160400390625;4.50999998861334;452;1 A
5.02522598731252;-0.399627685546875;-0.0083282470703125;4.5199999885881;453;1 A
5.03522598728728;-0.39971923828125;-0.00831298828125;4.52999998856285;454;1 A
5.04522598726203;-0.399749755859375;-0.00832519531250001;4.5399999885376;455;1 A
5.05522598723678;-0.399749755859375;-0.00833740234374999;4.54999998851235;456;1 A
5.06522598721153;-0.3997802734375;-0.0083892822265625;4.55999998848711;457;1 A
5.07522598718629;-0.3997802734375;-0.0084259033203125;4.56999998846186;458;1 A
5.08522598716104;-0.3997802734375;-0.0083953857421875;4.57999998843661;459;1 A
5.09522598713579;-0.39971923828125;-0.00841674804687501;4.58999998841136;460;1 A
5.10522598711054;-0.3997802734375;-0.00846252441406251;4.59999998838612;461;1 A
5.1152259870853;-0.3997802734375;-0.00844726562500001;4.60999998836087;462;1 A
5.12522598706005;-0.399749755859375;-0.00842895507812499;4.61999998833562;463;1 A
5.1352259870348;-0.399688720703125;-0.0083892822265625;4.62999998831037;464;1 A
5.14522598700955;-0.399810791015625;-0.00838623046875001;4.63999998828513;465;1 A
5.15522598698431;-0.39971923828125;-0.0083587646484375;4.64999998825988;466;1 A
5.16522598695906;-0.399749755859375;-0.008331298828125;4.65999998823463;467;1 A
5.17522598693381;-0.399749755859375;-0.0083038330078125;4.66999998820938;468;1 A
5.18522598690856;-0.399688720703125;-0.00830078125;4.67999998818414;469;1 A
5.19522598688332;-0.399749755859375;-0.0082733154296875;4.68999998815889;470;1 A
5.20522598685807;-0.399749755859375;-0.0082244873046875;4.69999998813364;471;1 A
5.21522598683282;-0.399688720703125;-0.00821533203124999;4.70999998810839;472;1 A
5.22522598680757;-0.39971923828125;-0.0082366943359375;4.71999998808315;473;1 A
5.23522598678232;-0.399749755859375;-0.00823364257812501;4.7299999880579;474;1 A
5.24522598675708;-0.399749755859375;-0.0082275390625;4.73999998803265;475;1 A
5.25522598673183;-0.39971923828125;-0.0082244873046875;4.7499999880074;476;1 A
5.26522598670658;-0.399688720703125;-0.0082672119140625;4.75999998798216;477;1 A
5.27522598668133;-0.399749755859375;-0.0083038330078125;4.76999998795691;478;1 A
5.28522598665609;-0.399749755859375;-0.00830078125;4.77999998793166;479;1 A
5.29522598663084;-0.39971923828125;-0.00827941894531251;4.78999998790641;480;1 A
5.30522598660559;-0.39984130859375;-0.0082672119140625;4.79999998788116;481;1 A
5.31522598658034;-0.399749755859375;-0.0082672119140625;4.80999998785592;482;1 A
5.3252259865551;-0.399749755859375;-0.008270263671875;4.81999998783067;483;1 A
5.33522598652985;-0.39971923828125;-0.00827941894531251;4.82999998780542;484;1 A
5.3452259865046;-0.399810791015625;-0.008319091796875;4.83999998778017;485;1 A
5.35522598647935;-0.399810791015625;-0.00833740234374999;4.84999998775493;486;1 A
5.36522598645411;-0.3997802734375;-0.00835571289062501;4.85999998772968;487;1 A
5.37522598642886;-0.399810791015625;-0.008380126953125;4.86999998770443;488;1 A
5.38522598640361;-0.3997802734375;-0.0084075927734375;4.87999998767918;489;1 A
5.39522598637836;-0.399749755859375;-0.0084197998046875;4.88999998765394;490;1 A
5.40522598635312;-0.3997802734375;-0.00841674804687501;4.89999998762869;491;1 A
5.41522598632787;-0.39971923828125;-0.00842895507812499;4.90999998760344;492;1 A
5.42522598630262;-0.3997802734375;-0.0084564208984375;4.91999998757819;493;1 A
5.43522598627737;-0.399658203125;-0.0084716796875;4.92999998755295;494;1 A
5.44522598625213;-0.399688720703125;-0.00848999023437499;4.9399999875277;495;1 A
5.45522598622688;-0.399749755859375;-0.00849304199218751;4.94999998750245;496;1 A
5.46522598620163;-0.399749755859375;-0.008502197265625;4.9599999874772;497;1 A
5.47522598617638;-0.39971923828125;-0.00850830078125001;4.96999998745196;498;1 A
5.48522598615114;-0.399688720703125;-0.008502197265625;4.97999998742671;499;1 A
5.49522598612589;-0.399749755859375;-0.00848999023437499;4.98999998740146;500;1 A
5.50522598610064;-0.399688720703125;-0.0084716796875;4.99999998737621;501;1 A
5.51522598607539;-0.3997802734375;-0.0084381103515625;5.00999998735097;502;1 A
5.52522598605015;-0.39971923828125;-0.00835571289062501;5.01999998732572;503;1 A
5.5352259860249;-0.399749755859375;-0.00838317871093749;5.02999998730047;504;1 A
5.54522598599965;-0.3997802734375;-0.00840148925781251;5.03999998727522;505;1 A
5.5552259859744;-0.39971923828125;-0.00841674804687501;5.04999998724998;506;1 A
5.56522598594916;-0.399749755859375;-0.0084503173828125;5.05999998722473;507;1 A
5.57522598592391;-0.39971923828125;-0.0084259033203125;5.06999998719948;508;1 A
5.58522598589866;-0.3997802734375;-0.008526611328125;5.07999998717423;509;1 A
5.59522598587341;-0.399749755859375;-0.0085479736328125;5.08999998714899;510;1 A
5.60522598584816;-0.399810791015625;-0.00855712890625;5.09999998712374;511;1 A
5.61522598582292;-0.3997802734375;-0.00855712890625;5.10999998709849;512;1 A
5.62522598579767;-0.399749755859375;-0.00859375;5.11999998707324;513;1 A
5.63522598577242;-0.39971923828125;-0.0086029052734375;5.129999987048;514;1 A
5.64522598574717;-0.399688720703125;-0.00859985351562501;5.13999998702275;515;1 A
5.65522598572193;-0.39971923828125;-0.00860595703125;5.1499999869975;516;1 A
5.66522598569668;-0.399810791015625;-0.008636474609375;5.15999998697225;517;1 A
5.67522598567143;-0.39971923828125;-0.0085784912109375;5.169999986947;518;1 A
5.68522598564618;-0.399749755859375;-0.00862731933593749;5.17999998692176;519;1 A
5.69522598562094;-0.399749755859375;-0.0086700439453125;5.18999998689651;520;1 A
5.70522598559569;-0.399688720703125;-0.00873718261718751;5.19999998687126;521;1 A
5.71522598557044;-0.39971923828125;-0.00875244140625001;5.20999998684601;522;1 A
5.72522598554519;-0.399627685546875;-0.00874938964843749;5.21999998682077;523;1 A
5.73522598551995;-0.399688720703125;-0.00873413085937499;5.22999998679552;524;1 A
5.7452259854947;-0.399658203125;-0.008740234375;5.23999998677027;525;1 A
5.75522598546945;-0.39971923828125;-0.00871887207031249;5.24999998674502;526;1 A
5.7652259854442;-0.39971923828125;-0.008685302734375;5.25999998671978;527;1 A
5.77522598541896;-0.399749755859375;-0.0086395263671875;5.26999998669453;528;1 A
5.78522598539371;-0.399810791015625;-0.00862731933593749;5.27999998666928;529;1 A
5.79522598536846;-0.399749755859375;-0.008624267578125;5.28999998664403;530;1 A
5.80522598534321;-0.3997802734375;-0.00861511230468751;5.29999998661879;531;1 A
5.81522598531797;-0.399688720703125;-0.00861206054687499;5.30999998659354;532;1 A
5.82522598529272;-0.399810791015625;-0.0086395263671875;5.31999998656829;533;1 A
5.83522598526747;-0.399749755859375;-0.00864257812499999;5.32999998654304;534;1 A
5.84522598524222;-0.39984130859375;-0.0086334228515625;5.3399999865178;535;1 A
5.85522598521698;-0.399810791015625;-0.00860595703125;5.34999998649255;536;1 A
5.86522598519173;-0.39984130859375;-0.00859680175781249;5.3599999864673;537;1 A
5.87522598516648;-0.399749755859375;-0.0086029052734375;5.36999998644205;538;1 A
5.88522598514123;-0.399749755859375;-0.00858154296874999;5.37999998641681;539;1 A
5.89522598511599;-0.399749755859375;-0.00855407714843751;5.38999998639156;540;1 A
5.90522598509074;-0.399749755859375;-0.0085296630859375;5.39999998636631;541;1 A
5.91522598506549;-0.3997802734375;-0.0085174560546875;5.40999998634106;542;1 A
5.92522598504024;-0.39971923828125;-0.00850524902343749;5.41999998631582;543;1 A
5.93522598501499;-0.39971923828125;-0.00847778320312501;5.42999998629057;544;1 A
5.94522598498975;-0.39971923828125;-0.00847778320312501;5.43999998626532;545;1 A
5.9552259849645;-0.39971923828125;-0.00846252441406251;5.44999998624007;546;1 A
5.96522598493925;-0.399688720703125;-0.0084381103515625;5.45999998621483;547;1 A
5.975225984914;-0.399688720703125;-0.00839843749999999;5.46999998618958;548;1 A
5.98522598488876;-0.399749755859375;-0.0083770751953125;5.47999998616433;549;1 A
5.99522598486351;-0.399810791015625;-0.008343505859375;5.48999998613908;550;1 A
6.00522598483826;-0.399688720703125;-0.00832519531250001;5.49999998611383;551;1 A
6.01522598481301;-0.399627685546875;-0.008331298828125;5.50999998608859;552;1 A
6.02522598478777;-0.39971923828125;-0.00833740234374999;5.51999998606334;553;1 A
6.03522598476252;-0.3997802734375;-0.008380126953125;5.52999998603809;554;1 A
6.04522598473727;-0.3997802734375;-0.00838317871093749;5.53999998601284;555;1 A
6.05522598471202;-0.399749755859375;-0.00836791992187499;5.5499999859876;556;1 A
6.06522598468678;-0.399810791015625;-0.0083648681640625;5.55999998596235;557;1 A
6.07522598466153;-0.399749755859375;-0.00838317871093749;5.5699999859371;558;1 A
6.08522598463628;-0.399749755859375;-0.008392333984375;5.57999998591185;559;1 A
6.09522598461103;-0.399810791015625;-0.008392333984375;5.58999998588661;560;1 A
6.10522598458579;-0.399810791015625;-0.008392333984375;5.59999998586136;561;1 A
6.11522598456054;-0.399749755859375;-0.0084228515625;5.60999998583611;562;1 A
6.12522598453529;-0.399810791015625;-0.0084197998046875;5.61999998581086;563;1 A
6.13522598451004;-0.39971923828125;-0.0084228515625;5.62999998578562;564;1 A
6.1452259844848;-0.3997802734375;-0.008441162109375;5.63999998576037;565;1 A
6.15522598445955;-0.39971923828125;-0.00841064453125;5.64999998573512;566;1 A
6.1652259844343;-0.399749755859375;-0.00836791992187499;5.65999998570987;567;1 A
6.17522598440905;-0.399749755859375;-0.0083343505859375;5.66999998568463;568;1 A
6.18522598438381;-0.399749755859375;-0.0083160400390625;5.67999998565938;569;1 A
6.19522598435856;-0.399749755859375;-0.0083038330078125;5.68999998563413;570;1 A
6.20522598433331;-0.399749755859375;-0.0082977294921875;5.69999998560888;571;1 A
6.21522598430806;-0.39971923828125;-0.00830993652343751;5.70999998558364;572;1 A
6.22522598428282;-0.399627685546875;-0.00836181640625;5.71999998555839;573;1 A
6.23522598425757;-0.39984130859375;-0.0083953857421875;5.72999998553314;574;1 A
6.24522598423232;-0.39971923828125;-0.0083953857421875;5.73999998550789;575;1 A
6.25522598420707;-0.39971923828125;-0.00840148925781251;5.74999998548265;576;1 A
6.26522598418182;-0.3997802734375;-0.00836791992187499;5.7599999854574;577;1 A
6.27522598415658;-0.3997802734375;-0.00838317871093749;5.76999998543215;578;1 A
6.28522598413133;-0.39971923828125;-0.0083282470703125;5.7799999854069;579;1 A
6.29522598410608;-0.3997802734375;-0.008349609375;5.78999998538166;580;1 A
6.30522598408083;-0.399810791015625;-0.0083648681640625;5.79999998535641;581;1 A
6.31522598405559;-0.39971923828125;-0.00836181640625;5.80999998533116;582;1 A
6.32522598403034;-0.39971923828125;-0.0083465576171875;5.81999998530591;583;1 A
6.33522598400509;-0.399810791015625;-0.00835571289062501;5.82999998528066;584;1 A
6.34522598397984;-0.3997802734375;-0.0083587646484375;5.83999998525542;585;1 A
6.3552259839546;-0.3997802734375;-0.00837097167968751;5.84999998523017;586;1 A
6.36522598392935;-0.3997802734375;-0.0083892822265625;5.85999998520492;587;1 A
6.3752259839041;-0.3997802734375;-0.0084197998046875;5.86999998517967;588;1 A
6.38522598387885;-0.39971923828125;-0.0084686279296875;5.87999998515443;589;1 A
6.39522598385361;-0.399749755859375;-0.00848999023437499;5.88999998512918;590;1 A
6.40522598382836;-0.399688720703125;-0.00848999023437499;5.89999998510393;591;1 A
6.41522598380311;-0.3997802734375;-0.008465576171875;5.90999998507868;592;1 A
6.42522598377786;-0.39971923828125;-0.0084808349609375;5.91999998505344;593;1 A
6.43522598375262;-0.39984130859375;-0.0083160400390625;5.92999998502819;594;1 A
6.44522598372737;-0.39971923828125;-0.0083953857421875;5.93999998500294;595;1 A
6.45522598370212;-0.399749755859375;-0.00841674804687501;5.94999998497769;596;1 A
6.46522598367687;-0.399658203125;-0.00850524902343749;5.95999998495245;597;1 A
6.47522598365163;-0.399749755859375;-0.00855407714843751;5.9699999849272;598;1 A
6.48522598362638;-0.399688720703125;-0.00859375;5.97999998490195;599;1 A
6.49522598360113;-0.399749755859375;-0.00859985351562501;5.9899999848767;600;1 A
6.50522598357588;-0.399688720703125;-0.00859985351562501;5.99999998485146;601;1 A
6.51522598355064;-0.3997802734375;-0.008575439453125;6.00999998482621;602;1 A
6.52522598352539;-0.399688720703125;-0.0085479736328125;6.01999998480096;603;1 A
6.53522598350014;-0.399749755859375;-0.00848999023437499;6.02999998477571;604;1 A
6.54522598347489;-0.39984130859375;-0.0084686279296875;6.03999998475047;605;1 A
6.55522598344965;-0.399749755859375;-0.00841674804687501;6.04999998472522;606;1 A
6.5652259834244;-0.3997802734375;-0.008392333984375;6.05999998469997;607;1 A
6.57522598339915;-0.39971923828125;-0.00838317871093749;6.06999998467472;608;1 A
6.5852259833739;-0.399810791015625;-0.00839843749999999;6.07999998464948;609;1 A
6.59522598334866;-0.399749755859375;-0.00841674804687501;6.08999998462423;610;1 A
6.60522598332341;-0.3997802734375;-0.00841064453125;6.09999998459898;611;1 A
6.61522598329816;-0.399749755859375;-0.00849609375;6.10999998457373;612;1 A
6.62522598327291;-0.399810791015625;-0.00841674804687501;6.11999998454849;613;1 A
6.63522598324766;-0.39971923828125;-0.0084075927734375;6.12999998452324;614;1 A
6.64522598322242;-0.3997802734375;-0.00841674804687501;6.13999998449799;615;1 A
6.65522598319717;-0.399810791015625;-0.0084259033203125;6.14999998447274;616;1 A
6.66522598317192;-0.399749755859375;-0.00844726562500001;6.1599999844475;617;1 A
6.67522598314667;-0.399749755859375;-0.008465576171875;6.16999998442225;618;1 A
6.68522598312143;-0.399658203125;-0.0084716796875;6.179999984397;619;1 A
6.69522598309618;-0.39971923828125;-0.00848388671875;6.18999998437175;620;1 A
6.70522598307093;-0.399688720703125;-0.0084869384765625;6.1999999843465;621;1 A
6.71522598304568;-0.3997802734375;-0.0084991455078125;6.20999998432126;622;1 A
6.72522598302044;-0.39971923828125;-0.00850830078125001;6.21999998429601;623;1 A
6.73522598299519;-0.3997802734375;-0.0084869384765625;6.22999998427076;624;1 A
6.74522598296994;-0.399749755859375;-0.00850830078125001;6.23999998424551;625;1 A
6.75522598294469;-0.399749755859375;-0.0085113525390625;6.24999998422027;626;1 A
6.76522598291945;-0.39971923828125;-0.0085296630859375;6.25999998419502;627;1 A
6.7752259828942;-0.399749755859375;-0.008544921875;6.26999998416977;628;1 A
6.78522598286895;-0.399810791015625;-0.0085784912109375;6.27999998414452;629;1 A
6.7952259828437;-0.39971923828125;-0.0086029052734375;6.28999998411928;630;1 A
6.80522598281846;-0.399810791015625;-0.0086029052734375;6.29999998409403;631;1 A
6.81522598279321;-0.399749755859375;-0.00861511230468751;6.30999998406878;632;1 A
6.82522598276796;-0.399810791015625;-0.0086639404296875;6.31999998404353;633;1 A
6.83522598274271;-0.399749755859375;-0.00867614746093751;6.32999998401829;634;1 A
6.84522598271747;-0.399749755859375;-0.0087249755859375;6.33999998399304;635;1 A
6.85522598269222;-0.3997802734375;-0.00872802734375;6.34999998396779;636;1 A
6.86522598266697;-0.3997802734375;-0.00874938964843749;6.35999998394254;637;1 A
6.87522598264172;-0.3997802734375;-0.008770751953125;6.3699999839173;638;1 A
6.88522598261648;-0.39971923828125;-0.008758544921875;6.37999998389205;639;1 A
6.89522598259123;-0.399749755859375;-0.008740234375;6.3899999838668;640;1 A
6.90522598256598;-0.3997802734375;-0.00870666503906251;6.39999998384155;641;1 A
6.91522598254073;-0.3997802734375;-0.0086639404296875;6.40999998381631;642;1 A
6.92522598251549;-0.3997802734375;-0.008624267578125;6.41999998379106;643;1 A
6.93522598249024;-0.399749755859375;-0.008587646484375;6.42999998376581;644;1 A
6.94522598246499;-0.399749755859375;-0.008587646484375;6.43999998374056;645;1 A
6.95522598243974;-0.399749755859375;-0.0085601806640625;6.44999998371532;646;1 A
6.96522598241449;-0.399688720703125;-0.00853881835937501;6.45999998369007;647;1 A
6.97522598238925;-0.399688720703125;-0.00850830078125001;6.46999998366482;648;1 A
6.985225982364;-0.399688720703125;-0.00850524902343749;6.47999998363957;649;1 A
6.99522598233875;-0.39984130859375;-0.00848999023437499;6.48999998361433;650;1 A
7.0052259823135;-0.399749755859375;-0.008465576171875;6.49999998358908;651;1 A
7.01522598228826;-0.39971923828125;-0.00845947265624999;6.50999998356383;652;1 A
7.02522598226301;-0.3997802734375;-0.0084381103515625;6.51999998353858;653;1 A
7.03522598223776;-0.399688720703125;-0.008465576171875;6.52999998351333;654;1 A
7.04522598221251;-0.399810791015625;-0.0084686279296875;6.53999998348809;655;1 A
7.05522598218727;-0.3997802734375;-0.0084564208984375;6.54999998346284;656;1 A
7.06522598216202;-0.399749755859375;-0.0084808349609375;6.55999998343759;657;1 A
7.07522598213677;-0.3997802734375;-0.008465576171875;6.56999998341234;658;1 A
7.08522598211152;-0.399871826171875;-0.00841369628906249;6.5799999833871;659;1 A
7.09522598208628;-0.3997802734375;-0.00827941894531251;6.58999998336185;660;1 A
7.10522598206103;-0.39971923828125;-0.00840148925781251;6.5999999833366;661;1 A
7.11522598203578;-0.399688720703125;-0.00839843749999999;6.60999998331135;662;1 A
7.12522598201053;-0.39971923828125;-0.00836791992187499;6.61999998328611;663;1 A
7.13522598198529;-0.3997802734375;-0.0083282470703125;6.62999998326086;664;1 A
7.14522598196004;-0.399749755859375;-0.0083282470703125;6.63999998323561;665;1 A
7.15522598193479;-0.399749755859375;-0.00827636718749999;6.64999998321036;666;1 A
7.16522598190954;-0.39971923828125;-0.00824890136718751;6.65999998318512;667;1 A
7.1752259818843;-0.399749755859375;-0.00823364257812501;6.66999998315987;668;1 A
7.18522598185905;-0.39971923828125;-0.00823364257812501;6.67999998313462;669;1 A
7.1952259818338;-0.39971923828125;-0.0082275390625;6.68999998310937;670;1 A
7.20522598180855;-0.399658203125;-0.00820312500000001;6.69999998308413;671;1 A
7.21522598178331;-0.3997802734375;-0.008258056640625;6.70999998305888;672;1 A
7.22522598175806;-0.39971923828125;-0.00828857421875;6.71999998303363;673;1 A
7.23522598173281;-0.399749755859375;-0.00833740234374999;6.72999998300838;674;1 A
7.24522598170756;-0.399688720703125;-0.0082855224609375;6.73999998298314;675;1 A
7.25522598168232;-0.399749755859375;-0.00828857421875;6.74999998295789;676;1 A
7.26522598165707;-0.3997802734375;-0.008331298828125;6.75999998293264;677;1 A
7.27522598163182;-0.399688720703125;-0.008319091796875;6.76999998290739;678;1 A
7.28522598160657;-0.3997802734375;-0.00832519531250001;6.77999998288215;679;1 A
7.29522598158132;-0.399688720703125;-0.00833740234374999;6.7899999828569;680;1 A
7.30522598155608;-0.3997802734375;-0.0083465576171875;6.79999998283165;681;1 A
7.31522598153083;-0.399749755859375;-0.00836791992187499;6.8099999828064;682;1 A
7.32522598150558;-0.399749755859375;-0.00836791992187499;6.81999998278116;683;1 A
7.33522598148033;-0.3997802734375;-0.008349609375;6.82999998275591;684;1 A
7.34522598145509;-0.399810791015625;-0.00836181640625;6.83999998273066;685;1 A
7.35522598142984;-0.39971923828125;-0.0083648681640625;6.84999998270541;686;1 A
7.36522598140459;-0.399749755859375;-0.0083770751953125;6.85999998268016;687;1 A
7.37522598137934;-0.3997802734375;-0.008380126953125;6.86999998265492;688;1 A
7.3852259813541;-0.39971923828125;-0.008404541015625;6.87999998262967;689;1 A
7.39522598132885;-0.399810791015625;-0.0084259033203125;6.88999998260442;690;1 A
7.4052259813036;-0.399688720703125;-0.00843505859375;6.89999998257917;691;1 A
7.41522598127835;-0.399749755859375;-0.00845947265624999;6.90999998255393;692;1 A
7.42522598125311;-0.39971923828125;-0.00849609375;6.91999998252868;693;1 A
7.43522598122786;-0.399749755859375;-0.00849304199218751;6.92999998250343;694;1 A
7.44522598120261;-0.39971923828125;-0.0084991455078125;6.93999998247818;695;1 A
7.45522598117736;-0.399749755859375;-0.008465576171875;6.94999998245294;696;1 A
7.46522598115212;-0.39971923828125;-0.00847473144531249;6.95999998242769;697;1 A
7.47522598112687;-0.39971923828125;-0.00844726562500001;6.96999998240244;698;1 A
7.48522598110162;-0.3997802734375;-0.0084228515625;6.97999998237719;699;1 A
7.49522598107637;-0.39971923828125;-0.00841674804687501;6.98999998235195;700;1 A
