Time (s);WE(1).Potential (V);WE(1).Current (A);Corrected time (s);Index;Current range
8.72338397797557;-0.299835205078125;-0.00794372558593751;0;1;1 A
8.73338397795033;-0.29986572265625;-0.0081634521484375;0.00999999997475243;2;1 A
8.74338397792508;-0.2998046875;-0.008258056640625;0.0199999999495049;3;1 A
8.75338397789983;-0.2998046875;-0.0082977294921875;0.0299999999242573;4;1 A
8.76338397787458;-0.299713134765625;-0.0082977294921875;0.0399999998990097;5;1 A
8.77338397784933;-0.2998046875;-0.0083282470703125;0.0499999998737621;6;1 A
8.78338397782409;-0.2998046875;-0.008331298828125;0.0599999998485146;7;1 A
8.79338397779884;-0.299774169921875;-0.00833740234374999;0.069999999823267;8;1 A
8.80338397777359;-0.299835205078125;-0.0083160400390625;0.0799999997980194;9;1 A
8.81338397774834;-0.299774169921875;-0.00830993652343751;0.0899999997727718;10;1 A
8.8233839777231;-0.299835205078125;-0.00830688476562499;0.0999999997475243;11;1 A
8.83338397769785;-0.299835205078125;-0.00830078125;0.109999999722277;12;1 A
8.8433839776726;-0.2998046875;-0.0082855224609375;0.119999999697029;13;1 A
8.85338397764735;-0.2998046875;-0.0083038330078125;0.129999999671782;14;1 A
8.86338397762211;-0.2998046875;-0.00830993652343751;0.139999999646534;15;1 A
8.87338397759686;-0.299835205078125;-0.00830993652343751;0.149999999621286;16;1 A
8.88338397757161;-0.299774169921875;-0.00828857421875;0.159999999596039;17;1 A
8.89338397754636;-0.299835205078125;-0.0082977294921875;0.169999999570791;18;1 A
8.90338397752112;-0.299835205078125;-0.0082977294921875;0.179999999545544;19;1 A
8.91338397749587;-0.299896240234375;-0.0082977294921875;0.189999999520296;20;1 A
8.92338397747062;-0.299835205078125;-0.00828857421875;0.199999999495049;21;1 A
8.93338397744537;-0.2998046875;-0.0082733154296875;0.209999999469801;22;1 A
8.94338397742013;-0.299835205078125;-0.008258056640625;0.219999999444553;23;1 A
8.95338397739488;-0.29986572265625;-0.00823974609375;0.229999999419306;24;1 A
8.96338397736963;-0.299835205078125;-0.00820312500000001;0.239999999394058;25;1 A
8.97338397734438;-0.2998046875;-0.00819091796875;0.249999999368811;26;1 A
8.98338397731914;-0.29974365234375;-0.00816650390625;0.259999999343563;27;1 A
8.99338397729389;-0.299774169921875;-0.0081634521484375;0.269999999318316;28;1 A
9.00338397726864;-0.299835205078125;-0.00815429687499999;0.279999999293068;29;1 A
9.01338397724339;-0.299835205078125;-0.00816650390625;0.28999999926782;30;1 A
9.02338397721815;-0.299774169921875;-0.0081817626953125;0.299999999242573;31;1 A
9.0333839771929;-0.299774169921875;-0.008197021484375;0.309999999217325;32;1 A
9.04338397716765;-0.299774169921875;-0.00819091796875;0.319999999192078;33;1 A
9.0533839771424;-0.299774169921875;-0.00820007324218749;0.32999999916683;34;1 A
9.06338397711716;-0.299774169921875;-0.0082122802734375;0.339999999141583;35;1 A
9.07338397709191;-0.2998046875;-0.00820312500000001;0.349999999116335;36;1 A
9.08338397706666;-0.299835205078125;-0.0081634521484375;0.359999999091087;37;1 A
9.09338397704141;-0.2998046875;-0.0081512451171875;0.36999999906584;38;1 A
9.10338397701616;-0.299774169921875;-0.0081451416015625;0.379999999040592;39;1 A
9.11338397699092;-0.299835205078125;-0.0081512451171875;0.389999999015345;40;1 A
9.12338397696567;-0.29986572265625;-0.00815734863281251;0.399999998990097;41;1 A
9.13338397694042;-0.299835205078125;-0.00818481445312499;0.40999999896485;42;1 A
9.14338397691517;-0.2998046875;-0.0081939697265625;0.419999998939602;43;1 A
9.15338397688993;-0.29986572265625;-0.008197021484375;0.429999998914354;44;1 A
9.16338397686468;-0.299835205078125;-0.0081634521484375;0.439999998889107;45;1 A
9.17338397683943;-0.299835205078125;-0.00817260742187501;0.449999998863859;46;1 A
9.18338397681418;-0.2998046875;-0.0081634521484375;0.459999998838612;47;1 A
9.19338397678894;-0.299835205078125;-0.00816955566406249;0.469999998813364;48;1 A
9.20338397676369;-0.2998046875;-0.00815429687499999;0.479999998788116;49;1 A
9.21338397673844;-0.299835205078125;-0.00815429687499999;0.489999998762869;50;1 A
9.22338397671319;-0.2998046875;-0.008135986328125;0.499999998737621;51;1 A
9.23338397668795;-0.2998046875;-0.00812683105468751;0.509999998712374;52;1 A
9.2433839766627;-0.299835205078125;-0.00814208984375001;0.519999998687126;53;1 A
9.25338397663745;-0.2996826171875;-0.0081787109375;0.529999998661879;54;1 A
9.2633839766122;-0.299835205078125;-0.0081939697265625;0.539999998636631;55;1 A
9.27338397658696;-0.299713134765625;-0.0082122802734375;0.549999998611383;56;1 A
9.28338397656171;-0.299835205078125;-0.0082061767578125;0.559999998586136;57;1 A
9.29338397653646;-0.299774169921875;-0.0082366943359375;0.569999998560888;58;1 A
9.30338397651121;-0.29974365234375;-0.0082672119140625;0.579999998535641;59;1 A
9.31338397648597;-0.299835205078125;-0.00831298828125;0.589999998510393;60;1 A
9.32338397646072;-0.299835205078125;-0.0083343505859375;0.599999998485146;61;1 A
9.33338397643547;-0.299896240234375;-0.008349609375;0.609999998459898;62;1 A
9.34338397641022;-0.299835205078125;-0.0083770751953125;0.61999999843465;63;1 A
9.35338397638498;-0.29986572265625;-0.00836181640625;0.629999998409403;64;1 A
9.36338397635973;-0.29986572265625;-0.0081756591796875;0.639999998384155;65;1 A
9.37338397633448;-0.2999267578125;-0.00830688476562499;0.649999998358908;66;1 A
9.38338397630923;-0.2998046875;-0.00829467773437501;0.65999999833366;67;1 A
9.39338397628399;-0.299896240234375;-0.00826416015625001;0.669999998308413;68;1 A
9.40338397625874;-0.299835205078125;-0.0082366943359375;0.679999998283165;69;1 A
9.41338397623349;-0.299896240234375;-0.00821838378906251;0.689999998257917;70;1 A
9.42338397620824;-0.299835205078125;-0.0081787109375;0.69999999823267;71;1 A
9.43338397618299;-0.299835205078125;-0.0081512451171875;0.709999998207422;72;1 A
9.44338397615775;-0.299835205078125;-0.00812377929687499;0.719999998182175;73;1 A
9.4533839761325;-0.299774169921875;-0.00811157226562501;0.729999998156927;74;1 A
9.46338397610725;-0.2998046875;-0.00812377929687499;0.73999999813168;75;1 A
9.473383976082;-0.299774169921875;-0.00814208984375001;0.749999998106432;76;1 A
9.48338397605676;-0.2998046875;-0.00813903808593749;0.759999998081184;77;1 A
9.49338397603151;-0.299774169921875;-0.00817260742187501;0.769999998055937;78;1 A
9.50338397600626;-0.299835205078125;-0.008209228515625;0.779999998030689;79;1 A
9.51338397598101;-0.29974365234375;-0.0082275390625;0.789999998005442;80;1 A
9.52338397595577;-0.299774169921875;-0.00821533203124999;0.799999997980194;81;1 A
9.53338397593052;-0.299774169921875;-0.00823974609375;0.809999997954947;82;1 A
9.54338397590527;-0.2998046875;-0.00823974609375;0.819999997929699;83;1 A
9.55338397588002;-0.2998046875;-0.00823974609375;0.829999997904451;84;1 A
9.56338397585478;-0.2999267578125;-0.008209228515625;0.839999997879204;85;1 A
9.57338397582953;-0.29986572265625;-0.00820007324218749;0.849999997853956;86;1 A
9.58338397580428;-0.299835205078125;-0.00816955566406249;0.859999997828709;87;1 A
9.59338397577903;-0.299835205078125;-0.00814208984375001;0.869999997803461;88;1 A
9.60338397575379;-0.299835205078125;-0.00810852050781249;0.879999997778214;89;1 A
9.61338397572854;-0.29986572265625;-0.008087158203125;0.889999997752966;90;1 A
9.62338397570329;-0.2998046875;-0.0080718994140625;0.899999997727718;91;1 A
9.63338397567804;-0.299835205078125;-0.0080596923828125;0.909999997702471;92;1 A
9.6433839756528;-0.299835205078125;-0.00803222656249999;0.919999997677223;93;1 A
9.65338397562755;-0.299896240234375;-0.00804443359375;0.929999997651976;94;1 A
9.6633839756023;-0.299896240234375;-0.00804748535156249;0.939999997626728;95;1 A
9.67338397557705;-0.2998046875;-0.00806274414062499;0.949999997601481;96;1 A
9.68338397555181;-0.2998046875;-0.00806274414062499;0.959999997576233;97;1 A
9.69338397552656;-0.299835205078125;-0.0081024169921875;0.969999997550985;98;1 A
9.70338397550131;-0.299835205078125;-0.00814208984375001;0.979999997525738;99;1 A
9.71338397547606;-0.29974365234375;-0.00817260742187501;0.98999999750049;100;1 A
9.72338397545082;-0.2998046875;-0.00818481445312499;0.999999997475243;101;1 A
9.73338397542557;-0.299774169921875;-0.00823364257812501;1.00999999745;102;1 A
9.74338397540032;-0.299835205078125;-0.00827636718749999;1.01999999742475;103;1 A
9.75338397537507;-0.299774169921875;-0.00830993652343751;1.0299999973995;104;1 A
9.76338397534983;-0.299835205078125;-0.00829467773437501;1.03999999737425;105;1 A
9.77338397532458;-0.2998046875;-0.00829467773437501;1.049999997349;106;1 A
9.78338397529933;-0.2998046875;-0.00830078125;1.05999999732376;107;1 A
9.79338397527408;-0.2998046875;-0.0083160400390625;1.06999999729851;108;1 A
9.80338397524883;-0.29986572265625;-0.00834045410156251;1.07999999727326;109;1 A
9.81338397522359;-0.29986572265625;-0.00838317871093749;1.08999999724801;110;1 A
9.82338397519834;-0.2998046875;-0.00841674804687501;1.09999999722277;111;1 A
9.83338397517309;-0.299896240234375;-0.0084503173828125;1.10999999719752;112;1 A
9.84338397514784;-0.2998046875;-0.00845947265624999;1.11999999717227;113;1 A
9.8533839751226;-0.299896240234375;-0.00849609375;1.12999999714702;114;1 A
9.86338397509735;-0.29986572265625;-0.00850830078125001;1.13999999712178;115;1 A
9.8733839750721;-0.29986572265625;-0.0085113525390625;1.14999999709653;116;1 A
9.88338397504685;-0.29986572265625;-0.00848999023437499;1.15999999707128;117;1 A
9.89338397502161;-0.2998046875;-0.008514404296875;1.16999999704603;118;1 A
9.90338397499636;-0.299774169921875;-0.0085479736328125;1.17999999702079;119;1 A
9.91338397497111;-0.299774169921875;-0.00856933593750001;1.18999999699554;120;1 A
9.92338397494586;-0.2998046875;-0.0085784912109375;1.19999999697029;121;1 A
9.93338397492062;-0.2998046875;-0.008587646484375;1.20999999694504;122;1 A
9.94338397489537;-0.2998046875;-0.00859680175781249;1.2199999969198;123;1 A
9.95338397487012;-0.299774169921875;-0.00859680175781249;1.22999999689455;124;1 A
9.96338397484487;-0.2998046875;-0.0085784912109375;1.2399999968693;125;1 A
9.97338397481963;-0.29974365234375;-0.00859680175781249;1.24999999684405;126;1 A
9.98338397479438;-0.2998046875;-0.008587646484375;1.25999999681881;127;1 A
9.99338397476913;-0.299835205078125;-0.00858154296874999;1.26999999679356;128;1 A
10.0033839747439;-0.299774169921875;-0.0085113525390625;1.27999999676831;129;1 A
10.0133839747186;-0.2998046875;-0.0085784912109375;1.28999999674306;130;1 A
10.0233839746934;-0.299835205078125;-0.0085784912109375;1.29999999671782;131;1 A
10.0333839746681;-0.299835205078125;-0.00850830078125001;1.30999999669257;132;1 A
10.0433839746429;-0.299835205078125;-0.008514404296875;1.31999999666732;133;1 A
10.0533839746176;-0.29986572265625;-0.008514404296875;1.32999999664207;134;1 A
10.0633839745924;-0.2998046875;-0.00843505859375;1.33999999661683;135;1 A
10.0733839745672;-0.299896240234375;-0.00848999023437499;1.34999999659158;136;1 A
10.0833839745419;-0.299835205078125;-0.008465576171875;1.35999999656633;137;1 A
10.0933839745167;-0.29986572265625;-0.0084808349609375;1.36999999654108;138;1 A
10.1033839744914;-0.2998046875;-0.008465576171875;1.37999999651583;139;1 A
10.1133839744662;-0.299835205078125;-0.0085296630859375;1.38999999649059;140;1 A
10.1233839744409;-0.2998046875;-0.00853881835937501;1.39999999646534;141;1 A
10.1333839744157;-0.2998046875;-0.0085723876953125;1.40999999644009;142;1 A
10.1433839743904;-0.299835205078125;-0.00859375;1.41999999641484;143;1 A
10.1533839743652;-0.29974365234375;-0.0086181640625;1.4299999963896;144;1 A
10.1633839743399;-0.2998046875;-0.00861511230468751;1.43999999636435;145;1 A
10.1733839743147;-0.29974365234375;-0.00866088867187501;1.4499999963391;146;1 A
10.1833839742894;-0.29986572265625;-0.0086669921875;1.45999999631385;147;1 A
10.1933839742642;-0.29986572265625;-0.00861206054687499;1.46999999628861;148;1 A
10.2033839742389;-0.2998046875;-0.00861206054687499;1.47999999626336;149;1 A
10.2133839742137;-0.29974365234375;-0.00860595703125;1.48999999623811;150;1 A
10.2233839741884;-0.29986572265625;-0.00859680175781249;1.49999999621286;151;1 A
10.2333839741632;-0.299774169921875;-0.00856933593750001;1.50999999618762;152;1 A
10.2433839741379;-0.29986572265625;-0.00852050781249999;1.51999999616237;153;1 A
10.2533839741127;-0.299896240234375;-0.00850524902343749;1.52999999613712;154;1 A
10.2633839740874;-0.29986572265625;-0.00846252441406251;1.53999999611187;155;1 A
10.2733839740622;-0.29986572265625;-0.0084259033203125;1.54999999608663;156;1 A
10.283383974037;-0.2998046875;-0.0083740234375;1.55999999606138;157;1 A
10.2933839740117;-0.299835205078125;-0.00835571289062501;1.56999999603613;158;1 A
10.3033839739865;-0.29986572265625;-0.00833740234374999;1.57999999601088;159;1 A
10.3133839739612;-0.299896240234375;-0.008319091796875;1.58999999598564;160;1 A
10.323383973936;-0.299835205078125;-0.0083160400390625;1.59999999596039;161;1 A
10.3333839739107;-0.2998046875;-0.00832214355468749;1.60999999593514;162;1 A
10.3433839738855;-0.2998046875;-0.00830993652343751;1.61999999590989;163;1 A
10.3533839738602;-0.2998046875;-0.0082977294921875;1.62999999588465;164;1 A
10.363383973835;-0.2998046875;-0.00829162597656249;1.6399999958594;165;1 A
10.3733839738097;-0.2998046875;-0.00830688476562499;1.64999999583415;166;1 A
10.3833839737845;-0.2998046875;-0.00830993652343751;1.6599999958089;167;1 A
10.3933839737592;-0.299774169921875;-0.00830078125;1.66999999578366;168;1 A
10.403383973734;-0.299835205078125;-0.0083038330078125;1.67999999575841;169;1 A
10.4133839737087;-0.29974365234375;-0.0083343505859375;1.68999999573316;170;1 A
10.4233839736835;-0.299835205078125;-0.008331298828125;1.69999999570791;171;1 A
10.4333839736582;-0.299835205078125;-0.00836181640625;1.70999999568267;172;1 A
10.443383973633;-0.29986572265625;-0.0083648681640625;1.71999999565742;173;1 A
10.4533839736077;-0.2998046875;-0.0083892822265625;1.72999999563217;174;1 A
10.4633839735825;-0.299835205078125;-0.0083740234375;1.73999999560692;175;1 A
10.4733839735572;-0.2998046875;-0.0083648681640625;1.74999999558167;176;1 A
10.483383973532;-0.299835205078125;-0.0083038330078125;1.75999999555643;177;1 A
10.4933839735068;-0.299835205078125;-0.00830993652343751;1.76999999553118;178;1 A
10.5033839734815;-0.2998046875;-0.008343505859375;1.77999999550593;179;1 A
10.5133839734563;-0.299835205078125;-0.00835571289062501;1.78999999548068;180;1 A
10.523383973431;-0.299896240234375;-0.0083343505859375;1.79999999545544;181;1 A
10.5333839734058;-0.2998046875;-0.00830688476562499;1.80999999543019;182;1 A
10.5433839733805;-0.29986572265625;-0.0082855224609375;1.81999999540494;183;1 A
10.5533839733553;-0.299835205078125;-0.0082733154296875;1.82999999537969;184;1 A
10.56338397333;-0.2998046875;-0.0082275390625;1.83999999535445;185;1 A
10.5733839733048;-0.2998046875;-0.00823059082031249;1.8499999953292;186;1 A
10.5833839732795;-0.2998046875;-0.0082275390625;1.85999999530395;187;1 A
10.5933839732543;-0.29974365234375;-0.0082427978515625;1.8699999952787;188;1 A
10.603383973229;-0.2998046875;-0.00824584960937499;1.87999999525346;189;1 A
10.6133839732038;-0.299774169921875;-0.00827636718749999;1.88999999522821;190;1 A
10.6233839731785;-0.2998046875;-0.0083160400390625;1.89999999520296;191;1 A
10.6333839731533;-0.299774169921875;-0.0083343505859375;1.90999999517771;192;1 A
10.643383973128;-0.299835205078125;-0.00834045410156251;1.91999999515247;193;1 A
10.6533839731028;-0.299774169921875;-0.00836181640625;1.92999999512722;194;1 A
10.6633839730775;-0.29986572265625;-0.008343505859375;1.93999999510197;195;1 A
10.6733839730523;-0.299774169921875;-0.00834045410156251;1.94999999507672;196;1 A
10.683383973027;-0.2998046875;-0.00830078125;1.95999999505148;197;1 A
10.6933839730018;-0.2998046875;-0.00830078125;1.96999999502623;198;1 A
10.7033839729766;-0.29986572265625;-0.00828857421875;1.97999999500098;199;1 A
10.7133839729513;-0.299835205078125;-0.008258056640625;1.98999999497573;200;1 A
10.7233839729261;-0.2998046875;-0.00823974609375;1.99999999495049;201;1 A
10.7333839729008;-0.29986572265625;-0.00826110839843749;2.00999999492524;202;1 A
10.7433839728756;-0.29974365234375;-0.0082977294921875;2.01999999489999;203;1 A
10.7533839728503;-0.299896240234375;-0.00834045410156251;2.02999999487474;204;1 A
10.7633839728251;-0.299774169921875;-0.00833740234374999;2.0399999948495;205;1 A
10.7733839727998;-0.2998046875;-0.00837097167968751;2.04999999482425;206;1 A
10.7833839727746;-0.299835205078125;-0.00838317871093749;2.059999994799;207;1 A
10.7933839727493;-0.299835205078125;-0.00836181640625;2.06999999477375;208;1 A
10.8033839727241;-0.299835205078125;-0.0083282470703125;2.0799999947485;209;1 A
10.8133839726988;-0.299774169921875;-0.00830993652343751;2.08999999472326;210;1 A
10.8233839726736;-0.299835205078125;-0.0082672119140625;2.09999999469801;211;1 A
10.8333839726483;-0.2998046875;-0.00824584960937499;2.10999999467276;212;1 A
10.8433839726231;-0.299835205078125;-0.0082275390625;2.11999999464751;213;1 A
10.8533839725978;-0.2998046875;-0.0082366943359375;2.12999999462227;214;1 A
10.8633839725726;-0.29986572265625;-0.00823364257812501;2.13999999459702;215;1 A
10.8733839725473;-0.299774169921875;-0.00824890136718751;2.14999999457177;216;1 A
10.8833839725221;-0.2998046875;-0.008221435546875;2.15999999454652;217;1 A
10.8933839724968;-0.2998046875;-0.00823059082031249;2.16999999452128;218;1 A
10.9033839724716;-0.29986572265625;-0.00823059082031249;2.17999999449603;219;1 A
10.9133839724464;-0.299835205078125;-0.008221435546875;2.18999999447078;220;1 A
10.9233839724211;-0.29986572265625;-0.0081939697265625;2.19999999444553;221;1 A
10.9333839723959;-0.2998046875;-0.00818786621093751;2.20999999442029;222;1 A
10.9433839723706;-0.2998046875;-0.0081787109375;2.21999999439504;223;1 A
10.9533839723454;-0.299774169921875;-0.00817260742187501;2.22999999436979;224;1 A
10.9633839723201;-0.2998046875;-0.00815429687499999;2.23999999434454;225;1 A
10.9733839722949;-0.29986572265625;-0.00820312500000001;2.2499999943193;226;1 A
10.9833839722696;-0.299774169921875;-0.0082061767578125;2.25999999429405;227;1 A
10.9933839722444;-0.29986572265625;-0.00823974609375;2.2699999942688;228;1 A
11.0033839722191;-0.29986572265625;-0.008251953125;2.27999999424355;229;1 A
11.0133839721939;-0.2998046875;-0.00828857421875;2.28999999421831;230;1 A
11.0233839721686;-0.29974365234375;-0.0083038330078125;2.29999999419306;231;1 A
11.0333839721434;-0.29986572265625;-0.00829162597656249;2.30999999416781;232;1 A
11.0433839721181;-0.2998046875;-0.00828857421875;2.31999999414256;233;1 A
11.0533839720929;-0.299774169921875;-0.00830688476562499;2.32999999411732;234;1 A
11.0633839720676;-0.299774169921875;-0.0083282470703125;2.33999999409207;235;1 A
11.0733839720424;-0.29974365234375;-0.0083740234375;2.34999999406682;236;1 A
11.0833839720171;-0.29986572265625;-0.0083892822265625;2.35999999404157;237;1 A
11.0933839719919;-0.299713134765625;-0.0084259033203125;2.36999999401633;238;1 A
11.1033839719667;-0.299835205078125;-0.0084381103515625;2.37999999399108;239;1 A
11.1133839719414;-0.299835205078125;-0.0084228515625;2.38999999396583;240;1 A
11.1233839719162;-0.2998046875;-0.00838317871093749;2.39999999394058;241;1 A
11.1333839718909;-0.299835205078125;-0.008349609375;2.40999999391533;242;1 A
11.1433839718657;-0.299774169921875;-0.00830688476562499;2.41999999389009;243;1 A
11.1533839718404;-0.2998046875;-0.0082672119140625;2.42999999386484;244;1 A
11.1633839718152;-0.299835205078125;-0.008209228515625;2.43999999383959;245;1 A
11.1733839717899;-0.29986572265625;-0.0082122802734375;2.44999999381434;246;1 A
11.1833839717647;-0.2998046875;-0.008209228515625;2.4599999937891;247;1 A
11.1933839717394;-0.299896240234375;-0.0082244873046875;2.46999999376385;248;1 A
11.2033839717142;-0.299835205078125;-0.008197021484375;2.4799999937386;249;1 A
11.2133839716889;-0.29986572265625;-0.00814208984375001;2.48999999371335;250;1 A
11.2233839716637;-0.29986572265625;-0.0081634521484375;2.49999999368811;251;1 A
11.2333839716384;-0.29986572265625;-0.00806274414062499;2.50999999366286;252;1 A
11.2433839716132;-0.2998046875;-0.00806884765625;2.51999999363761;253;1 A
11.2533839715879;-0.299835205078125;-0.008135986328125;2.52999999361236;254;1 A
11.2633839715627;-0.299774169921875;-0.00814208984375001;2.53999999358712;255;1 A
11.2733839715374;-0.29986572265625;-0.00815429687499999;2.54999999356187;256;1 A
11.2833839715122;-0.29974365234375;-0.0081451416015625;2.55999999353662;257;1 A
11.2933839714869;-0.299835205078125;-0.00812377929687499;2.56999999351137;258;1 A
11.3033839714617;-0.299835205078125;-0.0081146240234375;2.57999999348613;259;1 A
11.3133839714365;-0.2998046875;-0.0081024169921875;2.58999999346088;260;1 A
11.3233839714112;-0.2998046875;-0.00808105468750001;2.59999999343563;261;1 A
11.333383971386;-0.299774169921875;-0.00808105468750001;2.60999999341038;262;1 A
11.3433839713607;-0.299835205078125;-0.0080535888671875;2.61999999338514;263;1 A
11.3533839713355;-0.299774169921875;-0.0079986572265625;2.62999999335989;264;1 A
11.3633839713102;-0.299835205078125;-0.00794067382812499;2.63999999333464;265;1 A
11.373383971285;-0.29986572265625;-0.0079315185546875;2.64999999330939;266;1 A
11.3833839712597;-0.2998046875;-0.0079071044921875;2.65999999328415;267;1 A
11.3933839712345;-0.29986572265625;-0.007904052734375;2.6699999932589;268;1 A
11.4033839712092;-0.2998046875;-0.00787353515625;2.67999999323365;269;1 A
11.413383971184;-0.2998046875;-0.00787963867187499;2.6899999932084;270;1 A
11.4233839711587;-0.299835205078125;-0.00789489746093749;2.69999999318316;271;1 A
11.4333839711335;-0.299835205078125;-0.0079315185546875;2.70999999315791;272;1 A
11.4433839711082;-0.299774169921875;-0.00797119140624999;2.71999999313266;273;1 A
11.453383971083;-0.299835205078125;-0.008038330078125;2.72999999310741;274;1 A
11.4633839710577;-0.299835205078125;-0.0080718994140625;2.73999999308217;275;1 A
11.4733839710325;-0.299835205078125;-0.00808105468750001;2.74999999305692;276;1 A
11.4833839710072;-0.29986572265625;-0.00800170898437499;2.75999999303167;277;1 A
11.493383970982;-0.299835205078125;-0.00803527832031251;2.76999999300642;278;1 A
11.5033839709567;-0.29974365234375;-0.0080413818359375;2.77999999298117;279;1 A
11.5133839709315;-0.299774169921875;-0.0080413818359375;2.78999999295593;280;1 A
11.5233839709063;-0.299835205078125;-0.008038330078125;2.79999999293068;281;1 A
11.533383970881;-0.2998046875;-0.00804443359375;2.80999999290543;282;1 A
11.5433839708558;-0.29986572265625;-0.00805053710937501;2.81999999288018;283;1 A
11.5533839708305;-0.299774169921875;-0.00806579589843751;2.82999999285494;284;1 A
11.5633839708053;-0.299835205078125;-0.008074951171875;2.83999999282969;285;1 A
11.57338397078;-0.29974365234375;-0.00810546875;2.84999999280444;286;1 A
11.5833839707548;-0.299774169921875;-0.0081207275390625;2.85999999277919;287;1 A
11.5933839707295;-0.299774169921875;-0.0081512451171875;2.86999999275395;288;1 A
11.6033839707043;-0.299835205078125;-0.0081146240234375;2.8799999927287;289;1 A
11.613383970679;-0.29986572265625;-0.0081787109375;2.88999999270345;290;1 A
11.6233839706538;-0.299835205078125;-0.0081756591796875;2.8999999926782;291;1 A
11.6333839706285;-0.2998046875;-0.0081756591796875;2.90999999265296;292;1 A
11.6433839706033;-0.2998046875;-0.0081634521484375;2.91999999262771;293;1 A
11.653383970578;-0.2998046875;-0.0081756591796875;2.92999999260246;294;1 A
11.6633839705528;-0.2998046875;-0.00816650390625;2.93999999257721;295;1 A
11.6733839705275;-0.299896240234375;-0.0081756591796875;2.94999999255197;296;1 A
11.6833839705023;-0.29986572265625;-0.0081512451171875;2.95999999252672;297;1 A
11.693383970477;-0.2998046875;-0.0081787109375;2.96999999250147;298;1 A
11.7033839704518;-0.29986572265625;-0.0081817626953125;2.97999999247622;299;1 A
11.7133839704265;-0.2998046875;-0.00819091796875;2.98999999245098;300;1 A
11.7233839704013;-0.299774169921875;-0.00820007324218749;2.99999999242573;301;1 A
11.7333839703761;-0.299774169921875;-0.0082244873046875;3.00999999240048;302;1 A
11.7433839703508;-0.299835205078125;-0.00823364257812501;3.01999999237523;303;1 A
11.7533839703256;-0.2998046875;-0.00823974609375;3.02999999234999;304;1 A
11.7633839703003;-0.2998046875;-0.008221435546875;3.03999999232474;305;1 A
11.7733839702751;-0.2998046875;-0.00824584960937499;3.04999999229949;306;1 A
11.7833839702498;-0.299835205078125;-0.00820312500000001;3.05999999227424;307;1 A
11.7933839702246;-0.299774169921875;-0.00823974609375;3.069999992249;308;1 A
11.8033839701993;-0.299774169921875;-0.0082366943359375;3.07999999222375;309;1 A
11.8133839701741;-0.299835205078125;-0.008251953125;3.0899999921985;310;1 A
11.8233839701488;-0.299774169921875;-0.008258056640625;3.09999999217325;311;1 A
11.8333839701236;-0.2998046875;-0.00823364257812501;3.109999992148;312;1 A
11.8433839700983;-0.2998046875;-0.00820007324218749;3.11999999212276;313;1 A
11.8533839700731;-0.2998046875;-0.008270263671875;3.12999999209751;314;1 A
11.8633839700478;-0.299835205078125;-0.008282470703125;3.13999999207226;315;1 A
11.8733839700226;-0.299835205078125;-0.008282470703125;3.14999999204701;316;1 A
11.8833839699973;-0.299896240234375;-0.0082550048828125;3.15999999202177;317;1 A
11.8933839699721;-0.299835205078125;-0.008258056640625;3.16999999199652;318;1 A
11.9033839699468;-0.299713134765625;-0.008221435546875;3.17999999197127;319;1 A
11.9133839699216;-0.299896240234375;-0.00821533203124999;3.18999999194602;320;1 A
11.9233839698963;-0.2998046875;-0.00817260742187501;3.19999999192078;321;1 A
11.9333839698711;-0.299835205078125;-0.00815429687499999;3.20999999189553;322;1 A
11.9433839698459;-0.299835205078125;-0.00813903808593749;3.21999999187028;323;1 A
11.9533839698206;-0.2998046875;-0.0080841064453125;3.22999999184503;324;1 A
11.9633839697954;-0.29986572265625;-0.00811157226562501;3.23999999181979;325;1 A
11.9733839697701;-0.299713134765625;-0.00813903808593749;3.24999999179454;326;1 A
11.9833839697449;-0.2998046875;-0.00816650390625;3.25999999176929;327;1 A
11.9933839697196;-0.299713134765625;-0.0082122802734375;3.26999999174404;328;1 A
12.0033839696944;-0.29986572265625;-0.00823364257812501;3.2799999917188;329;1 A
12.0133839696691;-0.29974365234375;-0.00828857421875;3.28999999169355;330;1 A
12.0233839696439;-0.299835205078125;-0.00830688476562499;3.2999999916683;331;1 A
12.0333839696186;-0.299774169921875;-0.00832214355468749;3.30999999164305;332;1 A
12.0433839695934;-0.299774169921875;-0.008319091796875;3.31999999161781;333;1 A
12.0533839695681;-0.29986572265625;-0.008343505859375;3.32999999159256;334;1 A
12.0633839695429;-0.299835205078125;-0.0083587646484375;3.33999999156731;335;1 A
12.0733839695176;-0.299774169921875;-0.00838623046875001;3.34999999154206;336;1 A
12.0833839694924;-0.299835205078125;-0.0083892822265625;3.35999999151682;337;1 A
12.0933839694671;-0.299896240234375;-0.00841369628906249;3.36999999149157;338;1 A
12.1033839694419;-0.299835205078125;-0.0084197998046875;3.37999999146632;339;1 A
12.1133839694166;-0.299835205078125;-0.00841064453125;3.38999999144107;340;1 A
12.1233839693914;-0.29986572265625;-0.008380126953125;3.39999999141583;341;1 A
12.1333839693662;-0.29986572265625;-0.0083770751953125;3.40999999139058;342;1 A
12.1433839693409;-0.29986572265625;-0.00836181640625;3.41999999136533;343;1 A
12.1533839693157;-0.299835205078125;-0.00835266113281249;3.42999999134008;344;1 A
12.1633839692904;-0.2998046875;-0.008331298828125;3.43999999131483;345;1 A
12.1733839692652;-0.29974365234375;-0.0083282470703125;3.44999999128959;346;1 A
12.1833839692399;-0.299835205078125;-0.0083160400390625;3.45999999126434;347;1 A
12.1933839692147;-0.299774169921875;-0.00830993652343751;3.46999999123909;348;1 A
12.2033839691894;-0.299835205078125;-0.00829162597656249;3.47999999121384;349;1 A
12.2133839691642;-0.299774169921875;-0.00830078125;3.4899999911886;350;1 A
12.2233839691389;-0.299835205078125;-0.0082977294921875;3.49999999116335;351;1 A
12.2333839691137;-0.299774169921875;-0.00830993652343751;3.5099999911381;352;1 A
12.2433839690884;-0.299835205078125;-0.00832214355468749;3.51999999111285;353;1 A
12.2533839690632;-0.29974365234375;-0.00836181640625;3.52999999108761;354;1 A
12.2633839690379;-0.2998046875;-0.00836791992187499;3.53999999106236;355;1 A
12.2733839690127;-0.299774169921875;-0.008380126953125;3.54999999103711;356;1 A
12.2833839689874;-0.299835205078125;-0.00838317871093749;3.55999999101186;357;1 A
12.2933839689622;-0.299835205078125;-0.0084075927734375;3.56999999098662;358;1 A
12.3033839689369;-0.2998046875;-0.00839843749999999;3.57999999096137;359;1 A
12.3133839689117;-0.2998046875;-0.00838623046875001;3.58999999093612;360;1 A
12.3233839688864;-0.299835205078125;-0.008380126953125;3.59999999091087;361;1 A
12.3333839688612;-0.299835205078125;-0.008392333984375;3.60999999088563;362;1 A
12.343383968836;-0.2998046875;-0.00839843749999999;3.61999999086038;363;1 A
12.3533839688107;-0.29986572265625;-0.008404541015625;3.62999999083513;364;1 A
12.3633839687855;-0.299774169921875;-0.0083953857421875;3.63999999080988;365;1 A
12.3733839687602;-0.299835205078125;-0.0084259033203125;3.64999999078464;366;1 A
12.383383968735;-0.299835205078125;-0.0084197998046875;3.65999999075939;367;1 A
12.3933839687097;-0.2998046875;-0.0084228515625;3.66999999073414;368;1 A
12.4033839686845;-0.299774169921875;-0.00839843749999999;3.67999999070889;369;1 A
12.4133839686592;-0.299774169921875;-0.00844726562500001;3.68999999068365;370;1 A
12.423383968634;-0.299835205078125;-0.00844421386718749;3.6999999906584;371;1 A
12.4333839686087;-0.299774169921875;-0.00843505859375;3.70999999063315;372;1 A
12.4433839685835;-0.2998046875;-0.0084381103515625;3.7199999906079;373;1 A
12.4533839685582;-0.299774169921875;-0.00849609375;3.72999999058266;374;1 A
12.463383968533;-0.29986572265625;-0.00850830078125001;3.73999999055741;375;1 A
12.4733839685077;-0.299774169921875;-0.00852050781249999;3.74999999053216;376;1 A
12.4833839684825;-0.299835205078125;-0.00852355957031251;3.75999999050691;377;1 A
12.4933839684572;-0.2998046875;-0.008544921875;3.76999999048167;378;1 A
12.503383968432;-0.299774169921875;-0.0085418701171875;3.77999999045642;379;1 A
12.5133839684067;-0.299774169921875;-0.00852050781249999;3.78999999043117;380;1 A
12.5233839683815;-0.299835205078125;-0.0084991455078125;3.79999999040592;381;1 A
12.5333839683562;-0.2998046875;-0.0085113525390625;3.80999999038067;382;1 A
12.543383968331;-0.2998046875;-0.0085174560546875;3.81999999035543;383;1 A
12.5533839683058;-0.2998046875;-0.00853271484375;3.82999999033018;384;1 A
12.5633839682805;-0.29974365234375;-0.008526611328125;3.83999999030493;385;1 A
12.5733839682553;-0.299835205078125;-0.0085479736328125;3.84999999027968;386;1 A
12.58338396823;-0.299835205078125;-0.00853271484375;3.85999999025444;387;1 A
12.5933839682048;-0.299835205078125;-0.00852355957031251;3.86999999022919;388;1 A
12.6033839681795;-0.2998046875;-0.00849304199218751;3.87999999020394;389;1 A
12.6133839681543;-0.2998046875;-0.00849304199218751;3.88999999017869;390;1 A
12.623383968129;-0.2998046875;-0.00850524902343749;3.89999999015345;391;1 A
12.6333839681038;-0.29974365234375;-0.0085113525390625;3.9099999901282;392;1 A
12.6433839680785;-0.29974365234375;-0.0085174560546875;3.91999999010295;393;1 A
12.6533839680533;-0.299774169921875;-0.00855407714843751;3.9299999900777;394;1 A
12.663383968028;-0.29986572265625;-0.008563232421875;3.93999999005246;395;1 A
12.6733839680028;-0.299774169921875;-0.0085601806640625;3.94999999002721;396;1 A
12.6833839679775;-0.2998046875;-0.0085296630859375;3.95999999000196;397;1 A
12.6933839679523;-0.299835205078125;-0.00853576660156249;3.96999998997671;398;1 A
12.703383967927;-0.299896240234375;-0.00852355957031251;3.97999998995147;399;1 A
12.7133839679018;-0.29974365234375;-0.00849609375;3.98999998992622;400;1 A
12.7233839678765;-0.2998046875;-0.008465576171875;3.99999998990097;401;1 A
12.7333839678513;-0.299835205078125;-0.008465576171875;4.00999998987572;402;1 A
12.743383967826;-0.299835205078125;-0.00844726562500001;4.01999998985048;403;1 A
12.7533839678008;-0.299835205078125;-0.00846252441406251;4.02999998982523;404;1 A
12.7633839677756;-0.2998046875;-0.0084564208984375;4.03999998979998;405;1 A
12.7733839677503;-0.29986572265625;-0.00850830078125001;4.04999998977473;406;1 A
12.7833839677251;-0.2998046875;-0.008514404296875;4.05999998974949;407;1 A
12.7933839676998;-0.299896240234375;-0.008544921875;4.06999998972424;408;1 A
12.8033839676746;-0.299835205078125;-0.00853271484375;4.07999998969899;409;1 A
12.8133839676493;-0.299835205078125;-0.00852355957031251;4.08999998967374;410;1 A
12.8233839676241;-0.2999267578125;-0.0084869384765625;4.0999999896485;411;1 A
12.8333839675988;-0.299774169921875;-0.0084228515625;4.10999998962325;412;1 A
12.8433839675736;-0.299774169921875;-0.00835266113281249;4.119999989598;413;1 A
12.8533839675483;-0.2998046875;-0.008319091796875;4.12999998957275;414;1 A
12.8633839675231;-0.2998046875;-0.008258056640625;4.1399999895475;415;1 A
12.8733839674978;-0.2998046875;-0.008209228515625;4.14999998952226;416;1 A
12.8833839674726;-0.2998046875;-0.0081512451171875;4.15999998949701;417;1 A
12.8933839674473;-0.299774169921875;-0.00813903808593749;4.16999998947176;418;1 A
12.9033839674221;-0.299835205078125;-0.00810852050781249;4.17999998944651;419;1 A
12.9133839673968;-0.29974365234375;-0.0080596923828125;4.18999998942127;420;1 A
12.9233839673716;-0.2998046875;-0.00802001953125001;4.19999998939602;421;1 A
12.9333839673463;-0.2998046875;-0.00801696777343749;4.20999998937077;422;1 A
12.9433839673211;-0.299835205078125;-0.008013916015625;4.21999998934552;423;1 A
12.9533839672958;-0.2998046875;-0.00801696777343749;4.22999998932028;424;1 A
12.9633839672706;-0.2998046875;-0.00798645019531249;4.23999998929503;425;1 A
12.9733839672454;-0.299713134765625;-0.00798645019531249;4.24999998926978;426;1 A
12.9833839672201;-0.299835205078125;-0.00797424316406251;4.25999998924453;427;1 A
12.9933839671949;-0.2998046875;-0.00792846679687501;4.26999998921929;428;1 A
13.0033839671696;-0.2998046875;-0.0079376220703125;4.27999998919404;429;1 A
13.0133839671444;-0.299835205078125;-0.00794677734375;4.28999998916879;430;1 A
13.0233839671191;-0.29986572265625;-0.007720947265625;4.29999998914354;431;1 A
13.0333839670939;-0.2999267578125;-0.00777282714843749;4.3099999891183;432;1 A
13.0433839670686;-0.299835205078125;-0.0077789306640625;4.31999998909305;433;1 A
13.0533839670434;-0.299835205078125;-0.0077850341796875;4.3299999890678;434;1 A
13.0633839670181;-0.299774169921875;-0.00782470703125;4.33999998904255;435;1 A
13.0733839669929;-0.2998046875;-0.007830810546875;4.34999998901731;436;1 A
13.0833839669676;-0.2998046875;-0.0078125;4.35999998899206;437;1 A
13.0933839669424;-0.2998046875;-0.0078399658203125;4.36999998896681;438;1 A
13.1033839669171;-0.299835205078125;-0.0077667236328125;4.37999998894156;439;1 A
13.1133839668919;-0.299774169921875;-0.00769653320312499;4.38999998891632;440;1 A
13.1233839668666;-0.2998046875;-0.0077850341796875;4.39999998889107;441;1 A
13.1333839668414;-0.29974365234375;-0.007794189453125;4.40999998886582;442;1 A
13.1433839668161;-0.29986572265625;-0.0078094482421875;4.41999998884057;443;1 A
13.1533839667909;-0.299774169921875;-0.007843017578125;4.42999998881533;444;1 A
13.1633839667657;-0.299835205078125;-0.0078582763671875;4.43999998879008;445;1 A
13.1733839667404;-0.299835205078125;-0.0079071044921875;4.44999998876483;446;1 A
13.1833839667152;-0.2998046875;-0.00794067382812499;4.45999998873958;447;1 A
13.1933839666899;-0.29986572265625;-0.00794677734375;4.46999998871433;448;1 A
13.2033839666647;-0.299835205078125;-0.0079193115234375;4.47999998868909;449;1 A
13.2133839666394;-0.299835205078125;-0.0079193115234375;4.48999998866384;450;1 A
13.2233839666142;-0.2998046875;-0.0078460693359375;4.49999998863859;451;1 A
13.2333839665889;-0.29986572265625;-0.00792236328125;4.50999998861334;452;1 A
13.2433839665637;-0.29986572265625;-0.00795593261718749;4.5199999885881;453;1 A
13.2533839665384;-0.299835205078125;-0.0079986572265625;4.52999998856285;454;1 A
13.2633839665132;-0.299835205078125;-0.0080291748046875;4.5399999885376;455;1 A
13.2733839664879;-0.2998046875;-0.00806884765625;4.54999998851235;456;1 A
13.2833839664627;-0.299774169921875;-0.0080596923828125;4.55999998848711;457;1 A
13.2933839664374;-0.2998046875;-0.0080841064453125;4.56999998846186;458;1 A
13.3033839664122;-0.299835205078125;-0.0080718994140625;4.57999998843661;459;1 A
13.3133839663869;-0.299774169921875;-0.00804443359375;4.58999998841136;460;1 A
13.3233839663617;-0.2998046875;-0.00800170898437499;4.59999998838612;461;1 A
13.3333839663364;-0.2998046875;-0.00797424316406251;4.60999998836087;462;1 A
13.3433839663112;-0.299896240234375;-0.007952880859375;4.61999998833562;463;1 A
13.3533839662859;-0.299774169921875;-0.0079376220703125;4.62999998831037;464;1 A
13.3633839662607;-0.299835205078125;-0.0079193115234375;4.63999998828513;465;1 A
13.3733839662355;-0.299774169921875;-0.0079345703125;4.64999998825988;466;1 A
13.3833839662102;-0.29986572265625;-0.007916259765625;4.65999998823463;467;1 A
13.393383966185;-0.29986572265625;-0.00792541503906249;4.66999998820938;468;1 A
13.4033839661597;-0.2998046875;-0.00791320800781251;4.67999998818414;469;1 A
13.4133839661345;-0.2998046875;-0.00794067382812499;4.68999998815889;470;1 A
13.4233839661092;-0.29986572265625;-0.00794677734375;4.69999998813364;471;1 A
13.433383966084;-0.29986572265625;-0.00792846679687501;4.70999998810839;472;1 A
13.4433839660587;-0.299896240234375;-0.00792236328125;4.71999998808315;473;1 A
13.4533839660335;-0.299896240234375;-0.00794372558593751;4.7299999880579;474;1 A
13.4633839660082;-0.299896240234375;-0.0079345703125;4.73999998803265;475;1 A
13.473383965983;-0.299835205078125;-0.0079315185546875;4.7499999880074;476;1 A
13.4833839659577;-0.2998046875;-0.00791015624999999;4.75999998798216;477;1 A
13.4933839659325;-0.299835205078125;-0.00792846679687501;4.76999998795691;478;1 A
13.5033839659072;-0.299774169921875;-0.00794372558593751;4.77999998793166;479;1 A
13.513383965882;-0.299774169921875;-0.00797424316406251;4.78999998790641;480;1 A
13.5233839658567;-0.29974365234375;-0.0079803466796875;4.79999998788116;481;1 A
13.5333839658315;-0.299774169921875;-0.0079833984375;4.80999998785592;482;1 A
13.5433839658062;-0.299835205078125;-0.0079681396484375;4.81999998783067;483;1 A
13.553383965781;-0.299774169921875;-0.00794067382812499;4.82999998780542;484;1 A
13.5633839657557;-0.299774169921875;-0.00791015624999999;4.83999998778017;485;1 A
13.5733839657305;-0.2998046875;-0.0079376220703125;4.84999998775493;486;1 A
13.5833839657053;-0.29986572265625;-0.00795898437500001;4.85999998772968;487;1 A
13.59338396568;-0.299774169921875;-0.00802001953125001;4.86999998770443;488;1 A
13.6033839656548;-0.2998046875;-0.00805053710937501;4.87999998767918;489;1 A
13.6133839656295;-0.299835205078125;-0.0081024169921875;4.88999998765394;490;1 A
13.6233839656043;-0.299835205078125;-0.00809326171874999;4.89999998762869;491;1 A
13.633383965579;-0.29986572265625;-0.00810852050781249;4.90999998760344;492;1 A
13.6433839655538;-0.2998046875;-0.0080902099609375;4.91999998757819;493;1 A
13.6533839655285;-0.2998046875;-0.008087158203125;4.92999998755295;494;1 A
13.6633839655033;-0.29974365234375;-0.00808105468750001;4.9399999875277;495;1 A
13.673383965478;-0.299835205078125;-0.0080902099609375;4.94999998750245;496;1 A
13.6833839654528;-0.299774169921875;-0.00807800292968749;4.9599999874772;497;1 A
13.6933839654275;-0.299835205078125;-0.00810546875;4.96999998745196;498;1 A
13.7033839654023;-0.299835205078125;-0.00811157226562501;4.97999998742671;499;1 A
13.713383965377;-0.29986572265625;-0.0081298828125;4.98999998740146;500;1 A
13.7233839653518;-0.2998046875;-0.00812377929687499;4.99999998737621;501;1 A
13.7333839653265;-0.29986572265625;-0.00812683105468751;5.00999998735097;502;1 A
13.7433839653013;-0.299896240234375;-0.00812683105468751;5.01999998732572;503;1 A
13.753383965276;-0.299774169921875;-0.0081298828125;5.02999998730047;504;1 A
13.7633839652508;-0.299835205078125;-0.0081329345703125;5.03999998727522;505;1 A
13.7733839652255;-0.29974365234375;-0.0081451416015625;5.04999998724998;506;1 A
13.7833839652003;-0.299835205078125;-0.0081451416015625;5.05999998722473;507;1 A
13.7933839651751;-0.299835205078125;-0.0081512451171875;5.06999998719948;508;1 A
13.8033839651498;-0.2998046875;-0.00811767578125;5.07999998717423;509;1 A
13.8133839651246;-0.2998046875;-0.00816650390625;5.08999998714899;510;1 A
13.8233839650993;-0.299774169921875;-0.0081756591796875;5.09999998712374;511;1 A
13.8333839650741;-0.299835205078125;-0.00816650390625;5.10999998709849;512;1 A
13.8433839650488;-0.2998046875;-0.0081756591796875;5.11999998707324;513;1 A
13.8533839650236;-0.29986572265625;-0.00816955566406249;5.129999987048;514;1 A
13.8633839649983;-0.299835205078125;-0.00818786621093751;5.13999998702275;515;1 A
13.8733839649731;-0.299896240234375;-0.0081787109375;5.1499999869975;516;1 A
13.8833839649478;-0.299774169921875;-0.00820007324218749;5.15999998697225;517;1 A
13.8933839649226;-0.299896240234375;-0.008209228515625;5.169999986947;518;1 A
13.9033839648973;-0.299835205078125;-0.0082366943359375;5.17999998692176;519;1 A
13.9133839648721;-0.299835205078125;-0.0082366943359375;5.18999998689651;520;1 A
13.9233839648468;-0.29974365234375;-0.00823974609375;5.19999998687126;521;1 A
13.9333839648216;-0.2998046875;-0.008258056640625;5.20999998684601;522;1 A
13.9433839647963;-0.2998046875;-0.008319091796875;5.21999998682077;523;1 A
13.9533839647711;-0.29974365234375;-0.0083282470703125;5.22999998679552;524;1 A
13.9633839647458;-0.299774169921875;-0.008331298828125;5.23999998677027;525;1 A
13.9733839647206;-0.29974365234375;-0.00837097167968751;5.24999998674502;526;1 A
13.9833839646953;-0.29986572265625;-0.0083953857421875;5.25999998671978;527;1 A
13.9933839646701;-0.29974365234375;-0.00843505859375;5.26999998669453;528;1 A
14.0033839646449;-0.29986572265625;-0.00842895507812499;5.27999998666928;529;1 A
14.0133839646196;-0.29974365234375;-0.00841674804687501;5.28999998664403;530;1 A
14.0233839645944;-0.299835205078125;-0.0084564208984375;5.29999998661879;531;1 A
14.0333839645691;-0.2998046875;-0.0084503173828125;5.30999998659354;532;1 A
14.0433839645439;-0.299774169921875;-0.0084228515625;5.31999998656829;533;1 A
14.0533839645186;-0.2998046875;-0.0083953857421875;5.32999998654304;534;1 A
14.0633839644934;-0.299774169921875;-0.0083160400390625;5.3399999865178;535;1 A
14.0733839644681;-0.299835205078125;-0.0083038330078125;5.34999998649255;536;1 A
14.0833839644429;-0.29974365234375;-0.008258056640625;5.3599999864673;537;1 A
14.0933839644176;-0.299896240234375;-0.00824890136718751;5.36999998644205;538;1 A
14.1033839643924;-0.299774169921875;-0.008209228515625;5.37999998641681;539;1 A
14.1133839643671;-0.29986572265625;-0.00801696777343749;5.38999998639156;540;1 A
14.1233839643419;-0.299835205078125;-0.00814208984375001;5.39999998636631;541;1 A
14.1333839643166;-0.299835205078125;-0.0081817626953125;5.40999998634106;542;1 A
14.1433839642914;-0.2998046875;-0.00820312500000001;5.41999998631582;543;1 A
14.1533839642661;-0.299774169921875;-0.00821533203124999;5.42999998629057;544;1 A
14.1633839642409;-0.2998046875;-0.00821838378906251;5.43999998626532;545;1 A
14.1733839642156;-0.299774169921875;-0.00824890136718751;5.44999998624007;546;1 A
14.1833839641904;-0.2998046875;-0.0082550048828125;5.45999998621483;547;1 A
14.1933839641652;-0.299835205078125;-0.008258056640625;5.46999998618958;548;1 A
14.2033839641399;-0.299774169921875;-0.0082427978515625;5.47999998616433;549;1 A
14.2133839641147;-0.299774169921875;-0.00830688476562499;5.48999998613908;550;1 A
14.2233839640894;-0.29986572265625;-0.008282470703125;5.49999998611383;551;1 A
14.2333839640642;-0.299774169921875;-0.00830688476562499;5.50999998608859;552;1 A
14.2433839640389;-0.299774169921875;-0.00830993652343751;5.51999998606334;553;1 A
14.2533839640137;-0.29986572265625;-0.00829467773437501;5.52999998603809;554;1 A
14.2633839639884;-0.2998046875;-0.008221435546875;5.53999998601284;555;1 A
14.2733839639632;-0.299835205078125;-0.00829162597656249;5.5499999859876;556;1 A
14.2833839639379;-0.299835205078125;-0.007952880859375;5.55999998596235;557;1 A
14.2933839639127;-0.2998046875;-0.008209228515625;5.5699999859371;558;1 A
14.3033839638874;-0.29974365234375;-0.00828857421875;5.57999998591185;559;1 A
14.3133839638622;-0.2999267578125;-0.00830688476562499;5.58999998588661;560;1 A
14.3233839638369;-0.2998046875;-0.008251953125;5.59999998586136;561;1 A
14.3333839638117;-0.2998046875;-0.008349609375;5.60999998583611;562;1 A
14.3433839637864;-0.299774169921875;-0.008349609375;5.61999998581086;563;1 A
14.3533839637612;-0.299774169921875;-0.00832214355468749;5.62999998578562;564;1 A
14.3633839637359;-0.299835205078125;-0.00829467773437501;5.63999998576037;565;1 A
14.3733839637107;-0.2998046875;-0.00827636718749999;5.64999998573512;566;1 A
14.3833839636854;-0.29986572265625;-0.0082427978515625;5.65999998570987;567;1 A
14.3933839636602;-0.2998046875;-0.00821838378906251;5.66999998568463;568;1 A
14.403383963635;-0.299774169921875;-0.00819091796875;5.67999998565938;569;1 A
14.4133839636097;-0.299774169921875;-0.0082122802734375;5.68999998563413;570;1 A
14.4233839635845;-0.29986572265625;-0.00821533203124999;5.69999998560888;571;1 A
14.4333839635592;-0.299835205078125;-0.00821838378906251;5.70999998558364;572;1 A
14.443383963534;-0.2998046875;-0.008221435546875;5.71999998555839;573;1 A
14.4533839635087;-0.29974365234375;-0.0082550048828125;5.72999998553314;574;1 A
14.4633839634835;-0.2998046875;-0.0082733154296875;5.73999998550789;575;1 A
14.4733839634582;-0.299835205078125;-0.00829162597656249;5.74999998548265;576;1 A
14.483383963433;-0.299835205078125;-0.00829162597656249;5.7599999854574;577;1 A
14.4933839634077;-0.29986572265625;-0.0083038330078125;5.76999998543215;578;1 A
14.5033839633825;-0.2998046875;-0.00828857421875;5.7799999854069;579;1 A
14.5133839633572;-0.29986572265625;-0.008282470703125;5.78999998538166;580;1 A
14.523383963332;-0.299774169921875;-0.0082672119140625;5.79999998535641;581;1 A
14.5333839633067;-0.299835205078125;-0.0082733154296875;5.80999998533116;582;1 A
14.5433839632815;-0.299835205078125;-0.0082550048828125;5.81999998530591;583;1 A
14.5533839632562;-0.29986572265625;-0.0082366943359375;5.82999998528066;584;1 A
14.563383963231;-0.29974365234375;-0.00823059082031249;5.83999998525542;585;1 A
14.5733839632057;-0.2998046875;-0.00821533203124999;5.84999998523017;586;1 A
14.5833839631805;-0.2998046875;-0.0082275390625;5.85999998520492;587;1 A
14.5933839631552;-0.299835205078125;-0.0081939697265625;5.86999998517967;588;1 A
14.60338396313;-0.2998046875;-0.00811157226562501;5.87999998515443;589;1 A
14.6133839631048;-0.299713134765625;-0.008135986328125;5.88999998512918;590;1 A
14.6233839630795;-0.2998046875;-0.00812683105468751;5.89999998510393;591;1 A
14.6333839630543;-0.299774169921875;-0.0081329345703125;5.90999998507868;592;1 A
14.643383963029;-0.299835205078125;-0.00811767578125;5.91999998505344;593;1 A
14.6533839630038;-0.29974365234375;-0.00810852050781249;5.92999998502819;594;1 A
14.6633839629785;-0.2998046875;-0.0080902099609375;5.93999998500294;595;1 A
14.6733839629533;-0.299774169921875;-0.008099365234375;5.94999998497769;596;1 A
14.683383962928;-0.299835205078125;-0.00810546875;5.95999998495245;597;1 A
14.6933839629028;-0.299835205078125;-0.0081329345703125;5.9699999849272;598;1 A
14.7033839628775;-0.299835205078125;-0.0081146240234375;5.97999998490195;599;1 A
14.7133839628523;-0.299774169921875;-0.0081024169921875;5.9899999848767;600;1 A
14.723383962827;-0.299774169921875;-0.00808105468750001;5.99999998485146;601;1 A
14.7333839628018;-0.299896240234375;-0.00809631347656251;6.00999998482621;602;1 A
14.7433839627765;-0.299835205078125;-0.00810546875;6.01999998480096;603;1 A
14.7533839627513;-0.299896240234375;-0.00814208984375001;6.02999998477571;604;1 A
14.763383962726;-0.2998046875;-0.0081329345703125;6.03999998475047;605;1 A
14.7733839627008;-0.29986572265625;-0.0081756591796875;6.04999998472522;606;1 A
14.7833839626755;-0.2998046875;-0.00818786621093751;6.05999998469997;607;1 A
14.7933839626503;-0.299835205078125;-0.00818786621093751;6.06999998467472;608;1 A
14.803383962625;-0.29974365234375;-0.00816650390625;6.07999998464948;609;1 A
14.8133839625998;-0.2998046875;-0.0081451416015625;6.08999998462423;610;1 A
14.8233839625746;-0.299835205078125;-0.00816955566406249;6.09999998459898;611;1 A
14.8333839625493;-0.2998046875;-0.00806884765625;6.10999998457373;612;1 A
14.8433839625241;-0.2998046875;-0.00810852050781249;6.11999998454849;613;1 A
14.8533839624988;-0.299774169921875;-0.00812377929687499;6.12999998452324;614;1 A
14.8633839624736;-0.299835205078125;-0.00809631347656251;6.13999998449799;615;1 A
14.8733839624483;-0.299774169921875;-0.0080230712890625;6.14999998447274;616;1 A
14.8833839624231;-0.2998046875;-0.00802001953125001;6.1599999844475;617;1 A
14.8933839623978;-0.2998046875;-0.00802001953125001;6.16999998442225;618;1 A
14.9033839623726;-0.2998046875;-0.00801696777343749;6.179999984397;619;1 A
14.9133839623473;-0.299835205078125;-0.00800476074218751;6.18999998437175;620;1 A
14.9233839623221;-0.299835205078125;-0.00797119140624999;6.1999999843465;621;1 A
14.9333839622968;-0.29986572265625;-0.007965087890625;6.20999998432126;622;1 A
14.9433839622716;-0.29986572265625;-0.007952880859375;6.21999998429601;623;1 A
14.9533839622463;-0.299896240234375;-0.0079193115234375;6.22999998427076;624;1 A
14.9633839622211;-0.299774169921875;-0.007904052734375;6.23999998424551;625;1 A
14.9733839621958;-0.299835205078125;-0.0079315185546875;6.24999998422027;626;1 A
14.9833839621706;-0.2998046875;-0.0079498291015625;6.25999998419502;627;1 A
14.9933839621453;-0.2998046875;-0.0079620361328125;6.26999998416977;628;1 A
15.0033839621201;-0.299774169921875;-0.00795593261718749;6.27999998414452;629;1 A
15.0133839620948;-0.29974365234375;-0.007965087890625;6.28999998411928;630;1 A
15.0233839620696;-0.2998046875;-0.00797424316406251;6.29999998409403;631;1 A
15.0333839620444;-0.299713134765625;-0.0079925537109375;6.30999998406878;632;1 A
15.0433839620191;-0.2998046875;-0.0079925537109375;6.31999998404353;633;1 A
15.0533839619939;-0.29974365234375;-0.0080078125;6.32999998401829;634;1 A
15.0633839619686;-0.299774169921875;-0.00800476074218751;6.33999998399304;635;1 A
15.0733839619434;-0.299774169921875;-0.0080108642578125;6.34999998396779;636;1 A
15.0833839619181;-0.2998046875;-0.00800170898437499;6.35999998394254;637;1 A
15.0933839618929;-0.299774169921875;-0.0080413818359375;6.3699999839173;638;1 A
15.1033839618676;-0.299896240234375;-0.0080596923828125;6.37999998389205;639;1 A
15.1133839618424;-0.299774169921875;-0.00806274414062499;6.3899999838668;640;1 A
15.1233839618171;-0.2998046875;-0.00803527832031251;6.39999998384155;641;1 A
15.1333839617919;-0.299896240234375;-0.00799560546875;6.40999998381631;642;1 A
15.1433839617666;-0.299835205078125;-0.008026123046875;6.41999998379106;643;1 A
15.1533839617414;-0.2998046875;-0.0080230712890625;6.42999998376581;644;1 A
15.1633839617161;-0.2998046875;-0.0080108642578125;6.43999998374056;645;1 A
15.1733839616909;-0.2998046875;-0.00803222656249999;6.44999998371532;646;1 A
15.1833839616656;-0.2998046875;-0.008026123046875;6.45999998369007;647;1 A
15.1933839616404;-0.29986572265625;-0.0080108642578125;6.46999998366482;648;1 A
15.2033839616151;-0.29974365234375;-0.00799560546875;6.47999998363957;649;1 A
15.2133839615899;-0.2999267578125;-0.00798645019531249;6.48999998361433;650;1 A
15.2233839615647;-0.299774169921875;-0.00803527832031251;6.49999998358908;651;1 A
15.2333839615394;-0.299835205078125;-0.0080413818359375;6.50999998356383;652;1 A
15.2433839615142;-0.2998046875;-0.00803527832031251;6.51999998353858;653;1 A
15.2533839614889;-0.2998046875;-0.00804443359375;6.52999998351333;654;1 A
15.2633839614637;-0.299774169921875;-0.008013916015625;6.53999998348809;655;1 A
15.2733839614384;-0.29986572265625;-0.007977294921875;6.54999998346284;656;1 A
15.2833839614132;-0.299774169921875;-0.007965087890625;6.55999998343759;657;1 A
15.2933839613879;-0.2998046875;-0.0079986572265625;6.56999998341234;658;1 A
15.3033839613627;-0.2998046875;-0.00800476074218751;6.5799999833871;659;1 A
15.3133839613374;-0.299774169921875;-0.00800476074218751;6.58999998336185;660;1 A
15.3233839613122;-0.299774169921875;-0.00801696777343749;6.5999999833366;661;1 A
15.3333839612869;-0.299835205078125;-0.00805053710937501;6.60999998331135;662;1 A
15.3433839612617;-0.299835205078125;-0.0080718994140625;6.61999998328611;663;1 A
15.3533839612364;-0.299774169921875;-0.00806579589843751;6.62999998326086;664;1 A
15.3633839612112;-0.2998046875;-0.0080902099609375;6.63999998323561;665;1 A
15.3733839611859;-0.299774169921875;-0.0081634521484375;6.64999998321036;666;1 A
15.3833839611607;-0.29986572265625;-0.0081756591796875;6.65999998318512;667;1 A
15.3933839611354;-0.2998046875;-0.0082061767578125;6.66999998315987;668;1 A
15.4033839611102;-0.2998046875;-0.00821533203124999;6.67999998313462;669;1 A
15.4133839610849;-0.299835205078125;-0.00824890136718751;6.68999998310937;670;1 A
15.4233839610597;-0.2998046875;-0.00826416015625001;6.69999998308413;671;1 A
15.4333839610345;-0.2998046875;-0.00824584960937499;6.70999998305888;672;1 A
15.4433839610092;-0.299835205078125;-0.00823059082031249;6.71999998303363;673;1 A
15.453383960984;-0.29986572265625;-0.0082366943359375;6.72999998300838;674;1 A
15.4633839609587;-0.299774169921875;-0.00823974609375;6.73999998298314;675;1 A
15.4733839609335;-0.299835205078125;-0.0082366943359375;6.74999998295789;676;1 A
15.4833839609082;-0.299774169921875;-0.00821533203124999;6.75999998293264;677;1 A
15.493383960883;-0.299835205078125;-0.00823364257812501;6.76999998290739;678;1 A
15.5033839608577;-0.299774169921875;-0.00823364257812501;6.77999998288215;679;1 A
15.5133839608325;-0.299835205078125;-0.0082061767578125;6.7899999828569;680;1 A
15.5233839608072;-0.299835205078125;-0.00816955566406249;6.79999998283165;681;1 A
15.533383960782;-0.299835205078125;-0.0081451416015625;6.8099999828064;682;1 A
15.5433839607567;-0.29974365234375;-0.00812683105468751;6.81999998278116;683;1 A
15.5533839607315;-0.299835205078125;-0.00811767578125;6.82999998275591;684;1 A
15.5633839607062;-0.299774169921875;-0.0081024169921875;6.83999998273066;685;1 A
15.573383960681;-0.2998046875;-0.0081298828125;6.84999998270541;686;1 A
15.5833839606557;-0.299774169921875;-0.0081512451171875;6.85999998268016;687;1 A
15.5933839606305;-0.2998046875;-0.00816650390625;6.86999998265492;688;1 A
15.6033839606052;-0.29974365234375;-0.00818786621093751;6.87999998262967;689;1 A
15.61338396058;-0.299774169921875;-0.0082244873046875;6.88999998260442;690;1 A
15.6233839605547;-0.299835205078125;-0.008251953125;6.89999998257917;691;1 A
15.6333839605295;-0.299774169921875;-0.00826416015625001;6.90999998255393;692;1 A
15.6433839605043;-0.299835205078125;-0.0082672119140625;6.91999998252868;693;1 A
15.653383960479;-0.2998046875;-0.00827636718749999;6.92999998250343;694;1 A
15.6633839604538;-0.2998046875;-0.008282470703125;6.93999998247818;695;1 A
15.6733839604285;-0.299835205078125;-0.0083038330078125;6.94999998245294;696;1 A
15.6833839604033;-0.299774169921875;-0.0082977294921875;6.95999998242769;697;1 A
15.693383960378;-0.299774169921875;-0.0083465576171875;6.96999998240244;698;1 A
15.7033839603528;-0.299774169921875;-0.00837097167968751;6.97999998237719;699;1 A
15.7133839603275;-0.299835205078125;-0.008380126953125;6.98999998235195;700;1 A
