Time (s);WE(1).Potential (V);WE(1).Current (A);Corrected time (s);Index;Current range
23.8608379397572;0.6009521484375;1.0479736328125;0;1;1 A
23.8708379397319;0.599884033203125;0.750732421875;0.00999999997475243;2;1 A
23.8808379397067;0.59979248046875;0.61737060546875;0.0199999999495049;3;1 A
23.8908379396814;0.5997314453125;0.535888671875;0.0299999999242573;4;1 A
23.9008379396562;0.599761962890625;0.48126220703125;0.0399999998990097;5;1 A
23.9108379396309;0.59954833984375;0.4417724609375;0.0499999998737621;6;1 A
23.9208379396057;0.599609375;0.411773681640625;0.0599999998485146;7;1 A
23.9308379395804;0.599609375;0.387725830078125;0.069999999823267;8;1 A
23.9408379395552;0.59967041015625;0.3685302734375;0.0799999997980194;9;1 A
23.9508379395299;0.599578857421875;0.35333251953125;0.0899999997727718;10;1 A
23.9608379395047;0.599639892578125;0.34088134765625;0.0999999997475243;11;1 A
23.9708379394795;0.599609375;0.329620361328125;0.109999999722277;12;1 A
23.9808379394542;0.5997314453125;0.319976806640625;0.119999999697029;13;1 A
23.990837939429;0.599517822265625;0.312469482421875;0.129999999671782;14;1 A
24.0008379394037;0.599609375;0.30657958984375;0.139999999646534;15;1 A
24.0108379393785;0.599700927734375;0.300262451171875;0.149999999621286;16;1 A
24.0208379393532;0.599609375;0.29510498046875;0.159999999596039;17;1 A
24.030837939328;0.599578857421875;0.290374755859375;0.169999999570791;18;1 A
24.0408379393027;0.599609375;0.286102294921875;0.179999999545544;19;1 A
24.0508379392775;0.599639892578125;0.282012939453125;0.189999999520296;20;1 A
24.0608379392522;0.599578857421875;0.279022216796875;0.199999999495049;21;1 A
24.070837939227;0.599578857421875;0.277130126953125;0.209999999469801;22;1 A
24.0808379392017;0.59954833984375;0.27496337890625;0.219999999444553;23;1 A
24.0908379391765;0.599578857421875;0.2725830078125;0.229999999419306;24;1 A
24.1008379391512;0.599609375;0.271087646484375;0.239999999394058;25;1 A
24.110837939126;0.599517822265625;0.270111083984375;0.249999999368811;26;1 A
24.1208379391007;0.599578857421875;0.2689208984375;0.259999999343563;27;1 A
24.1308379390755;0.59967041015625;0.2667236328125;0.269999999318316;28;1 A
24.1408379390502;0.599578857421875;0.264434814453125;0.279999999293068;29;1 A
24.150837939025;0.599517822265625;0.262603759765625;0.28999999926782;30;1 A
24.1608379389997;0.599609375;0.26068115234375;0.299999999242573;31;1 A
24.1708379389745;0.599578857421875;0.258575439453125;0.309999999217325;32;1 A
24.1808379389493;0.599639892578125;0.256683349609375;0.319999999192078;33;1 A
24.190837938924;0.599517822265625;0.25616455078125;0.32999999916683;34;1 A
24.2008379388988;0.599578857421875;0.2557373046875;0.339999999141583;35;1 A
24.2108379388735;0.599609375;0.254150390625;0.349999999116335;36;1 A
24.2208379388483;0.59967041015625;0.253204345703125;0.359999999091087;37;1 A
24.230837938823;0.599517822265625;0.252471923828125;0.36999999906584;38;1 A
24.2408379387978;0.59967041015625;0.252105712890625;0.379999999040592;39;1 A
24.2508379387725;0.59967041015625;0.251190185546875;0.389999999015345;40;1 A
24.2608379387473;0.599639892578125;0.250823974609375;0.399999998990097;41;1 A
24.270837938722;0.599609375;0.251373291015625;0.40999999896485;42;1 A
24.2808379386968;0.59954833984375;0.25115966796875;0.419999998939602;43;1 A
24.2908379386715;0.599609375;0.250732421875;0.429999998914354;44;1 A
24.3008379386463;0.599609375;0.250640869140625;0.439999998889107;45;1 A
24.310837938621;0.59954833984375;0.25152587890625;0.449999998863859;46;1 A
24.3208379385958;0.599517822265625;0.2525634765625;0.459999998838612;47;1 A
24.3308379385705;0.599578857421875;0.2523193359375;0.469999998813364;48;1 A
24.3408379385453;0.59954833984375;0.252593994140625;0.479999998788116;49;1 A
24.35083793852;0.5994873046875;0.2532958984375;0.489999998762869;50;1 A
24.3608379384948;0.599578857421875;0.253753662109375;0.499999998737621;51;1 A
24.3708379384695;0.59967041015625;0.253692626953125;0.509999998712374;52;1 A
24.3808379384443;0.599578857421875;0.253143310546875;0.519999998687126;53;1 A
24.3908379384191;0.5994873046875;0.253570556640625;0.529999998661879;54;1 A
24.4008379383938;0.599578857421875;0.25439453125;0.539999998636631;55;1 A
24.4108379383686;0.59954833984375;0.2540283203125;0.549999998611383;56;1 A
24.4208379383433;0.599639892578125;0.253570556640625;0.559999998586136;57;1 A
24.4308379383181;0.599456787109375;0.253692626953125;0.569999998560888;58;1 A
24.4408379382928;0.599639892578125;0.254119873046875;0.579999998535641;59;1 A
24.4508379382676;0.599609375;0.2530517578125;0.589999998510393;60;1 A
24.4608379382423;0.59967041015625;0.2525634765625;0.599999998485146;61;1 A
24.4708379382171;0.599578857421875;0.253265380859375;0.609999998459898;62;1 A
24.4808379381918;0.599639892578125;0.25372314453125;0.61999999843465;63;1 A
24.4908379381666;0.599609375;0.253204345703125;0.629999998409403;64;1 A
24.5008379381413;0.599609375;0.25177001953125;0.639999998384155;65;1 A
24.5108379381161;0.59954833984375;0.250885009765625;0.649999998358908;66;1 A
24.5208379380908;0.599517822265625;0.250885009765625;0.65999999833366;67;1 A
24.5308379380656;0.599639892578125;0.250152587890625;0.669999998308413;68;1 A
24.5408379380403;0.59954833984375;0.249847412109375;0.679999998283165;69;1 A
24.5508379380151;0.59954833984375;0.250030517578125;0.689999998257917;70;1 A
24.5608379379898;0.599517822265625;0.2510986328125;0.69999999823267;71;1 A
24.5708379379646;0.599609375;0.250396728515625;0.709999998207422;72;1 A
24.5808379379394;0.599639892578125;0.2491455078125;0.719999998182175;73;1 A
24.5908379379141;0.5994873046875;0.248626708984375;0.729999998156927;74;1 A
24.6008379378889;0.599578857421875;0.248016357421875;0.73999999813168;75;1 A
24.6108379378636;0.59954833984375;0.247406005859375;0.749999998106432;76;1 A
24.6208379378384;0.599639892578125;0.247039794921875;0.759999998081184;77;1 A
24.6308379378131;0.5994873046875;0.247344970703125;0.769999998055937;78;1 A
24.6408379377879;0.599609375;0.24847412109375;0.779999998030689;79;1 A
24.6508379377626;0.59954833984375;0.249420166015625;0.789999998005442;80;1 A
24.6608379377374;0.59967041015625;0.251068115234375;0.799999997980194;81;1 A
24.6708379377121;0.599517822265625;0.2529296875;0.809999997954947;82;1 A
24.6808379376869;0.599639892578125;0.254425048828125;0.819999997929699;83;1 A
24.6908379376616;0.59967041015625;0.25579833984375;0.829999997904451;84;1 A
24.7008379376364;0.599639892578125;0.25653076171875;0.839999997879204;85;1 A
24.7108379376111;0.59954833984375;0.258087158203125;0.849999997853956;86;1 A
24.7208379375859;0.599639892578125;0.259368896484375;0.859999997828709;87;1 A
24.7308379375606;0.599639892578125;0.259552001953125;0.869999997803461;88;1 A
24.7408379375354;0.599609375;0.260589599609375;0.879999997778214;89;1 A
24.7508379375101;0.599578857421875;0.26043701171875;0.889999997752966;90;1 A
24.7608379374849;0.59954833984375;0.260223388671875;0.899999997727718;91;1 A
24.7708379374596;0.59967041015625;0.2593994140625;0.909999997702471;92;1 A
24.7808379374344;0.59954833984375;0.261138916015625;0.919999997677223;93;1 A
24.7908379374092;0.599517822265625;0.259796142578125;0.929999997651976;94;1 A
24.8008379373839;0.5994873046875;0.258544921875;0.939999997626728;95;1 A
24.8108379373587;0.599578857421875;0.257843017578125;0.949999997601481;96;1 A
24.8208379373334;0.599578857421875;0.26068115234375;0.959999997576233;97;1 A
24.8308379373082;0.599517822265625;0.259521484375;0.969999997550985;98;1 A
24.8408379372829;0.59954833984375;0.258636474609375;0.979999997525738;99;1 A
24.8508379372577;0.599517822265625;0.2579345703125;0.98999999750049;100;1 A
24.8608379372324;0.599639892578125;0.25927734375;0.999999997475243;101;1 A
24.8708379372072;0.599456787109375;0.259002685546875;1.00999999745;102;1 A
24.8808379371819;0.59954833984375;0.259246826171875;1.01999999742475;103;1 A
24.8908379371567;0.59954833984375;0.25994873046875;1.0299999973995;104;1 A
24.9008379371314;0.599639892578125;0.264617919921875;1.03999999737425;105;1 A
24.9108379371062;0.599578857421875;0.263641357421875;1.049999997349;106;1 A
24.9208379370809;0.59967041015625;0.262786865234375;1.05999999732376;107;1 A
24.9308379370557;0.59954833984375;0.2625732421875;1.06999999729851;108;1 A
24.9408379370304;0.599609375;0.26593017578125;1.07999999727326;109;1 A
24.9508379370052;0.599609375;0.264373779296875;1.08999999724801;110;1 A
24.9608379369799;0.599639892578125;0.26361083984375;1.09999999722277;111;1 A
24.9708379369547;0.59954833984375;0.26251220703125;1.10999999719752;112;1 A
24.9808379369294;0.599578857421875;0.26519775390625;1.11999999717227;113;1 A
24.9908379369042;0.59954833984375;0.262939453125;1.12999999714702;114;1 A
25.000837936879;0.599517822265625;0.26123046875;1.13999999712178;115;1 A
25.0108379368537;0.59954833984375;0.2601318359375;1.14999999709653;116;1 A
25.0208379368285;0.59954833984375;0.2598876953125;1.15999999707128;117;1 A
25.0308379368032;0.599517822265625;0.260040283203125;1.16999999704603;118;1 A
25.040837936778;0.5994873046875;0.259552001953125;1.17999999702079;119;1 A
25.0508379367527;0.599578857421875;0.258087158203125;1.18999999699554;120;1 A
25.0608379367275;0.59954833984375;0.25872802734375;1.19999999697029;121;1 A
25.0708379367022;0.5994873046875;0.25750732421875;1.20999999694504;122;1 A
25.080837936677;0.599578857421875;0.257598876953125;1.2199999969198;123;1 A
25.0908379366517;0.59954833984375;0.2576904296875;1.22999999689455;124;1 A
25.1008379366265;0.599639892578125;0.260772705078125;1.2399999968693;125;1 A
25.1108379366012;0.599578857421875;0.2603759765625;1.24999999684405;126;1 A
25.120837936576;0.599639892578125;0.260101318359375;1.25999999681881;127;1 A
25.1308379365507;0.599639892578125;0.259796142578125;1.26999999679356;128;1 A
25.1408379365255;0.599639892578125;0.260009765625;1.27999999676831;129;1 A
25.1508379365002;0.599578857421875;0.260955810546875;1.28999999674306;130;1 A
25.160837936475;0.599639892578125;0.261383056640625;1.29999999671782;131;1 A
25.1708379364497;0.599639892578125;0.260284423828125;1.30999999669257;132;1 A
25.1808379364245;0.599609375;0.259796142578125;1.31999999666732;133;1 A
25.1908379363992;0.599578857421875;0.25860595703125;1.32999999664207;134;1 A
25.200837936374;0.599578857421875;0.257232666015625;1.33999999661683;135;1 A
25.2108379363488;0.599609375;0.255645751953125;1.34999999659158;136;1 A
25.2208379363235;0.599639892578125;0.255096435546875;1.35999999656633;137;1 A
25.2308379362983;0.599578857421875;0.25567626953125;1.36999999654108;138;1 A
25.240837936273;0.59954833984375;0.256103515625;1.37999999651583;139;1 A
25.2508379362478;0.599578857421875;0.25567626953125;1.38999999649059;140;1 A
25.2608379362225;0.599609375;0.257110595703125;1.39999999646534;141;1 A
25.2708379361973;0.59954833984375;0.255584716796875;1.40999999644009;142;1 A
25.280837936172;0.599609375;0.2547607421875;1.41999999641484;143;1 A
25.2908379361468;0.599578857421875;0.25311279296875;1.4299999963896;144;1 A
25.3008379361215;0.599609375;0.25372314453125;1.43999999636435;145;1 A
25.3108379360963;0.59954833984375;0.2535400390625;1.4499999963391;146;1 A
25.320837936071;0.59967041015625;0.252685546875;1.45999999631385;147;1 A
25.3308379360458;0.59954833984375;0.252044677734375;1.46999999628861;148;1 A
25.3408379360205;0.599639892578125;0.25384521484375;1.47999999626336;149;1 A
25.3508379359953;0.59954833984375;0.254119873046875;1.48999999623811;150;1 A
25.36083793597;0.599609375;0.2548828125;1.49999999621286;151;1 A
25.3708379359448;0.599578857421875;0.25482177734375;1.50999999618762;152;1 A
25.3808379359195;0.599578857421875;0.25640869140625;1.51999999616237;153;1 A
25.3908379358943;0.599609375;0.256439208984375;1.52999999613712;154;1 A
25.400837935869;0.599639892578125;0.256134033203125;1.53999999611187;155;1 A
25.4108379358438;0.59954833984375;0.25555419921875;1.54999999608663;156;1 A
25.4208379358186;0.599639892578125;0.256744384765625;1.55999999606138;157;1 A
25.4308379357933;0.599609375;0.255218505859375;1.56999999603613;158;1 A
25.4408379357681;0.599517822265625;0.253875732421875;1.57999999601088;159;1 A
25.4508379357428;0.599609375;0.253265380859375;1.58999999598564;160;1 A
25.4608379357176;0.599578857421875;0.25738525390625;1.59999999596039;161;1 A
25.4708379356923;0.599578857421875;0.254852294921875;1.60999999593514;162;1 A
25.4808379356671;0.599517822265625;0.253326416015625;1.61999999590989;163;1 A
25.4908379356418;0.59954833984375;0.251678466796875;1.62999999588465;164;1 A
25.5008379356166;0.599578857421875;0.2528076171875;1.6399999958594;165;1 A
25.5108379355913;0.5994873046875;0.253173828125;1.64999999583415;166;1 A
25.5208379355661;0.599609375;0.252716064453125;1.6599999958089;167;1 A
25.5308379355408;0.5994873046875;0.2525634765625;1.66999999578366;168;1 A
25.5408379355156;0.599609375;0.257537841796875;1.67999999575841;169;1 A
25.5508379354903;0.599517822265625;0.25579833984375;1.68999999573316;170;1 A
25.5608379354651;0.599609375;0.254119873046875;1.69999999570791;171;1 A
25.5708379354398;0.59954833984375;0.25311279296875;1.70999999568267;172;1 A
25.5808379354146;0.59967041015625;0.255096435546875;1.71999999565742;173;1 A
25.5908379353893;0.59954833984375;0.253753662109375;1.72999999563217;174;1 A
25.6008379353641;0.599609375;0.25323486328125;1.73999999560692;175;1 A
25.6108379353389;0.599609375;0.252410888671875;1.74999999558167;176;1 A
25.6208379353136;0.59967041015625;0.254058837890625;1.75999999555643;177;1 A
25.6308379352884;0.599578857421875;0.254486083984375;1.76999999553118;178;1 A
25.6408379352631;0.599609375;0.254241943359375;1.77999999550593;179;1 A
25.6508379352379;0.599609375;0.25469970703125;1.78999999548068;180;1 A
25.6608379352126;0.599639892578125;0.25689697265625;1.79999999545544;181;1 A
25.6708379351874;0.599609375;0.257110595703125;1.80999999543019;182;1 A
25.6808379351621;0.599609375;0.257781982421875;1.81999999540494;183;1 A
25.6908379351369;0.59954833984375;0.257476806640625;1.82999999537969;184;1 A
25.7008379351116;0.599578857421875;0.260894775390625;1.83999999535445;185;1 A
25.7108379350864;0.5994873046875;0.26068115234375;1.8499999953292;186;1 A
25.7208379350611;0.599517822265625;0.260284423828125;1.85999999530395;187;1 A
25.7308379350359;0.599609375;0.258758544921875;1.8699999952787;188;1 A
25.7408379350106;0.59954833984375;0.25823974609375;1.87999999525346;189;1 A
25.7508379349854;0.59954833984375;0.25653076171875;1.88999999522821;190;1 A
25.7608379349601;0.59954833984375;0.25372314453125;1.89999999520296;191;1 A
25.7708379349349;0.599517822265625;0.251068115234375;1.90999999517771;192;1 A
25.7808379349096;0.599609375;0.2510986328125;1.91999999515247;193;1 A
25.7908379348844;0.59954833984375;0.250152587890625;1.92999999512722;194;1 A
25.8008379348591;0.599609375;0.24957275390625;1.93999999510197;195;1 A
25.8108379348339;0.599517822265625;0.24774169921875;1.94999999507672;196;1 A
25.8208379348087;0.5997314453125;0.249481201171875;1.95999999505148;197;1 A
25.8308379347834;0.599639892578125;0.25030517578125;1.96999999502623;198;1 A
25.8408379347582;0.599639892578125;0.24920654296875;1.97999999500098;199;1 A
25.8508379347329;0.59954833984375;0.248931884765625;1.98999999497573;200;1 A
25.8608379347077;0.599609375;0.250335693359375;1.99999999495049;201;1 A
25.8708379346824;0.599517822265625;0.250244140625;2.00999999492524;202;1 A
25.8808379346572;0.599609375;0.250396728515625;2.01999999489999;203;1 A
25.8908379346319;0.599639892578125;0.250030517578125;2.02999999487474;204;1 A
25.9008379346067;0.599639892578125;0.251373291015625;2.0399999948495;205;1 A
25.9108379345814;0.599578857421875;0.25;2.04999999482425;206;1 A
25.9208379345562;0.599578857421875;0.2496337890625;2.059999994799;207;1 A
25.9308379345309;0.599578857421875;0.2490234375;2.06999999477375;208;1 A
25.9408379345057;0.599578857421875;0.250762939453125;2.0799999947485;209;1 A
25.9508379344804;0.59954833984375;0.2489013671875;2.08999999472326;210;1 A
25.9608379344552;0.599639892578125;0.247772216796875;2.09999999469801;211;1 A
25.9708379344299;0.599578857421875;0.246612548828125;2.10999999467276;212;1 A
25.9808379344047;0.599578857421875;0.246429443359375;2.11999999464751;213;1 A
25.9908379343794;0.599517822265625;0.247222900390625;2.12999999462227;214;1 A
26.0008379343542;0.599578857421875;0.248077392578125;2.13999999459702;215;1 A
26.0108379343289;0.599578857421875;0.24755859375;2.14999999457177;216;1 A
26.0208379343037;0.599639892578125;0.250152587890625;2.15999999454652;217;1 A
26.0308379342785;0.59954833984375;0.249786376953125;2.16999999452128;218;1 A
26.0408379342532;0.59967041015625;0.249481201171875;2.17999999449603;219;1 A
26.050837934228;0.599639892578125;0.248931884765625;2.18999999447078;220;1 A
26.0608379342027;0.599639892578125;0.251190185546875;2.19999999444553;221;1 A
26.0708379341775;0.599609375;0.24932861328125;2.20999999442029;222;1 A
26.0808379341522;0.59967041015625;0.246734619140625;2.21999999439504;223;1 A
26.090837934127;0.59954833984375;0.245574951171875;2.22999999436979;224;1 A
26.1008379341017;0.599578857421875;0.248443603515625;2.23999999434454;225;1 A
26.1108379340765;0.599578857421875;0.247161865234375;2.2499999943193;226;1 A
26.1208379340512;0.599578857421875;0.247100830078125;2.25999999429405;227;1 A
26.130837934026;0.599639892578125;0.24688720703125;2.2699999942688;228;1 A
26.1408379340007;0.599578857421875;0.249847412109375;2.27999999424355;229;1 A
26.1508379339755;0.59954833984375;0.24835205078125;2.28999999421831;230;1 A
26.1608379339502;0.59954833984375;0.246551513671875;2.29999999419306;231;1 A
26.170837933925;0.599609375;0.245025634765625;2.30999999416781;232;1 A
26.1808379338997;0.59954833984375;0.24652099609375;2.31999999414256;233;1 A
26.1908379338745;0.599517822265625;0.24578857421875;2.32999999411732;234;1 A
26.2008379338492;0.59954833984375;0.246368408203125;2.33999999409207;235;1 A
26.210837933824;0.59954833984375;0.24615478515625;2.34999999406682;236;1 A
26.2208379337987;0.599609375;0.249267578125;2.35999999404157;237;1 A
26.2308379337735;0.599517822265625;0.247833251953125;2.36999999401633;238;1 A
26.2408379337483;0.599578857421875;0.2474365234375;2.37999999399108;239;1 A
26.250837933723;0.59954833984375;0.246185302734375;2.38999999396583;240;1 A
26.2608379336978;0.599639892578125;0.24676513671875;2.39999999394058;241;1 A
26.2708379336725;0.599609375;0.246856689453125;2.40999999391533;242;1 A
26.2808379336473;0.599609375;0.244964599609375;2.41999999389009;243;1 A
26.290837933622;0.599609375;0.24395751953125;2.42999999386484;244;1 A
26.3008379335968;0.599609375;0.24542236328125;2.43999999383959;245;1 A
26.3108379335715;0.599578857421875;0.24493408203125;2.44999999381434;246;1 A
26.3208379335463;0.599609375;0.245574951171875;2.4599999937891;247;1 A
26.330837933521;0.599639892578125;0.246307373046875;2.46999999376385;248;1 A
26.3408379334958;0.59954833984375;0.250213623046875;2.4799999937386;249;1 A
26.3508379334705;0.599609375;0.248779296875;2.48999999371335;250;1 A
26.3608379334453;0.599517822265625;0.24859619140625;2.49999999368811;251;1 A
26.37083793342;0.599578857421875;0.2491455078125;2.50999999366286;252;1 A
26.3808379333948;0.599578857421875;0.25201416015625;2.51999999363761;253;1 A
26.3908379333695;0.599517822265625;0.25103759765625;2.52999999361236;254;1 A
26.4008379333443;0.599578857421875;0.249755859375;2.53999999358712;255;1 A
26.410837933319;0.59954833984375;0.249359130859375;2.54999999356187;256;1 A
26.4208379332938;0.599578857421875;0.251983642578125;2.55999999353662;257;1 A
26.4308379332685;0.599517822265625;0.25274658203125;2.56999999351137;258;1 A
26.4408379332433;0.599578857421875;0.253875732421875;2.57999999348613;259;1 A
26.4508379332181;0.599517822265625;0.25469970703125;2.58999999346088;260;1 A
26.4608379331928;0.5997314453125;0.2574462890625;2.59999999343563;261;1 A
26.4708379331676;0.59954833984375;0.257110595703125;2.60999999341038;262;1 A
26.4808379331423;0.599609375;0.256195068359375;2.61999999338514;263;1 A
26.4908379331171;0.599578857421875;0.254180908203125;2.62999999335989;264;1 A
26.5008379330918;0.59967041015625;0.25579833984375;2.63999999333464;265;1 A
26.5108379330666;0.599578857421875;0.252349853515625;2.64999999330939;266;1 A
26.5208379330413;0.599639892578125;0.250640869140625;2.65999999328415;267;1 A
26.5308379330161;0.599578857421875;0.249237060546875;2.6699999932589;268;1 A
26.5408379329908;0.59967041015625;0.25006103515625;2.67999999323365;269;1 A
26.5508379329656;0.59954833984375;0.25091552734375;2.6899999932084;270;1 A
26.5608379329403;0.599578857421875;0.251800537109375;2.69999999318316;271;1 A
26.5708379329151;0.599609375;0.2528076171875;2.70999999315791;272;1 A
26.5808379328898;0.599700927734375;0.256378173828125;2.71999999313266;273;1 A
26.5908379328646;0.599609375;0.255401611328125;2.72999999310741;274;1 A
26.6008379328393;0.599517822265625;0.25482177734375;2.73999999308217;275;1 A
26.6108379328141;0.599609375;0.253326416015625;2.74999999305692;276;1 A
26.6208379327888;0.59954833984375;0.255157470703125;2.75999999303167;277;1 A
26.6308379327636;0.599517822265625;0.25457763671875;2.76999999300642;278;1 A
26.6408379327383;0.599578857421875;0.253387451171875;2.77999999298117;279;1 A
26.6508379327131;0.599578857421875;0.251495361328125;2.78999999295593;280;1 A
26.6608379326879;0.599609375;0.25030517578125;2.79999999293068;281;1 A
26.6708379326626;0.599578857421875;0.25067138671875;2.80999999290543;282;1 A
26.6808379326374;0.599639892578125;0.250823974609375;2.81999999288018;283;1 A
26.6908379326121;0.599609375;0.250579833984375;2.82999999285494;284;1 A
26.7008379325869;0.599700927734375;0.251495361328125;2.83999999282969;285;1 A
26.7108379325616;0.599578857421875;0.250823974609375;2.84999999280444;286;1 A
26.7208379325364;0.59967041015625;0.2498779296875;2.85999999277919;287;1 A
26.7308379325111;0.59954833984375;0.247955322265625;2.86999999275395;288;1 A
26.7408379324859;0.599639892578125;0.2481689453125;2.8799999927287;289;1 A
26.7508379324606;0.599609375;0.246978759765625;2.88999999270345;290;1 A
26.7608379324354;0.59967041015625;0.246734619140625;2.8999999926782;291;1 A
26.7708379324101;0.599639892578125;0.24676513671875;2.90999999265296;292;1 A
26.7808379323849;0.599578857421875;0.247589111328125;2.91999999262771;293;1 A
26.7908379323596;0.599578857421875;0.2490234375;2.92999999260246;294;1 A
26.8008379323344;0.599578857421875;0.249908447265625;2.93999999257721;295;1 A
26.8108379323091;0.599609375;0.249237060546875;2.94999999255197;296;1 A
26.8208379322839;0.599578857421875;0.249755859375;2.95999999252672;297;1 A
26.8308379322586;0.599578857421875;0.249847412109375;2.96999999250147;298;1 A
26.8408379322334;0.599578857421875;0.249847412109375;2.97999999247622;299;1 A
26.8508379322082;0.59954833984375;0.248687744140625;2.98999999245098;300;1 A
26.8608379321829;0.599578857421875;0.251129150390625;2.99999999242573;301;1 A
26.8708379321577;0.599517822265625;0.250701904296875;3.00999999240048;302;1 A
26.8808379321324;0.599609375;0.25054931640625;3.01999999237523;303;1 A
26.8908379321072;0.599578857421875;0.250579833984375;3.02999999234999;304;1 A
26.9008379320819;0.599639892578125;0.251556396484375;3.03999999232474;305;1 A
26.9108379320567;0.5994873046875;0.25274658203125;3.04999999229949;306;1 A
26.9208379320314;0.59967041015625;0.253387451171875;3.05999999227424;307;1 A
26.9308379320062;0.599578857421875;0.25311279296875;3.069999992249;308;1 A
26.9408379319809;0.59967041015625;0.25555419921875;3.07999999222375;309;1 A
26.9508379319557;0.599578857421875;0.2559814453125;3.0899999921985;310;1 A
26.9608379319304;0.59967041015625;0.25616455078125;3.09999999217325;311;1 A
26.9708379319052;0.599639892578125;0.25640869140625;3.109999992148;312;1 A
26.9808379318799;0.59967041015625;0.2578125;3.11999999212276;313;1 A
26.9908379318547;0.599578857421875;0.257843017578125;3.12999999209751;314;1 A
27.0008379318294;0.599639892578125;0.2574462890625;3.13999999207226;315;1 A
27.0108379318042;0.59967041015625;0.257232666015625;3.14999999204701;316;1 A
27.0208379317789;0.599578857421875;0.2611083984375;3.15999999202177;317;1 A
27.0308379317537;0.59967041015625;0.257354736328125;3.16999999199652;318;1 A
27.0408379317284;0.599578857421875;0.256072998046875;3.17999999197127;319;1 A
27.0508379317032;0.599609375;0.25537109375;3.18999999194602;320;1 A
27.060837931678;0.599517822265625;0.257598876953125;3.19999999192078;321;1 A
27.0708379316527;0.599578857421875;0.258514404296875;3.20999999189553;322;1 A
27.0808379316275;0.599578857421875;0.2584228515625;3.21999999187028;323;1 A
27.0908379316022;0.599609375;0.2591552734375;3.22999999184503;324;1 A
27.100837931577;0.599609375;0.261016845703125;3.23999999181979;325;1 A
27.1108379315517;0.59954833984375;0.259796142578125;3.24999999179454;326;1 A
27.1208379315265;0.599609375;0.258392333984375;3.25999999176929;327;1 A
27.1308379315012;0.59954833984375;0.257354736328125;3.26999999174404;328;1 A
27.140837931476;0.599609375;0.259674072265625;3.2799999917188;329;1 A
27.1508379314507;0.599578857421875;0.2576904296875;3.28999999169355;330;1 A
27.1608379314255;0.599639892578125;0.25677490234375;3.2999999916683;331;1 A
27.1708379314002;0.599578857421875;0.255462646484375;3.30999999164305;332;1 A
27.180837931375;0.599639892578125;0.25555419921875;3.31999999161781;333;1 A
27.1908379313497;0.599517822265625;0.254486083984375;3.32999999159256;334;1 A
27.2008379313245;0.599700927734375;0.253204345703125;3.33999999156731;335;1 A
27.2108379312992;0.599639892578125;0.251861572265625;3.34999999154206;336;1 A
27.220837931274;0.59967041015625;0.252349853515625;3.35999999151682;337;1 A
27.2308379312487;0.599609375;0.252960205078125;3.36999999149157;338;1 A
27.2408379312235;0.59954833984375;0.255584716796875;3.37999999146632;339;1 A
27.2508379311982;0.599609375;0.254486083984375;3.38999999144107;340;1 A
27.260837931173;0.599578857421875;0.256591796875;3.39999999141583;341;1 A
27.2708379311478;0.59954833984375;0.256561279296875;3.40999999139058;342;1 A
27.2808379311225;0.59954833984375;0.256591796875;3.41999999136533;343;1 A
27.2908379310973;0.599456787109375;0.255096435546875;3.42999999134008;344;1 A
27.300837931072;0.599578857421875;0.25701904296875;3.43999999131483;345;1 A
27.3108379310468;0.59954833984375;0.257354736328125;3.44999999128959;346;1 A
27.3208379310215;0.599639892578125;0.25567626953125;3.45999999126434;347;1 A
27.3308379309963;0.599578857421875;0.252685546875;3.46999999123909;348;1 A
27.340837930971;0.59967041015625;0.2523193359375;3.47999999121384;349;1 A
27.3508379309458;0.59942626953125;0.25146484375;3.4899999911886;350;1 A
27.3608379309205;0.59967041015625;0.25115966796875;3.49999999116335;351;1 A
27.3708379308953;0.5994873046875;0.250885009765625;3.5099999911381;352;1 A
27.38083793087;0.599609375;0.25628662109375;3.51999999111285;353;1 A
27.3908379308448;0.599578857421875;0.25494384765625;3.52999999108761;354;1 A
27.4008379308195;0.599639892578125;0.253936767578125;3.53999999106236;355;1 A
27.4108379307943;0.599609375;0.253204345703125;3.54999999103711;356;1 A
27.420837930769;0.599609375;0.256103515625;3.55999999101186;357;1 A
27.4308379307438;0.59954833984375;0.25531005859375;3.56999999098662;358;1 A
27.4408379307185;0.599609375;0.255340576171875;3.57999999096137;359;1 A
27.4508379306933;0.599578857421875;0.254150390625;3.58999999093612;360;1 A
27.460837930668;0.59954833984375;0.253875732421875;3.59999999091087;361;1 A
27.4708379306428;0.59954833984375;0.253875732421875;3.60999999088563;362;1 A
27.4808379306176;0.599517822265625;0.253448486328125;3.61999999086038;363;1 A
27.4908379305923;0.599578857421875;0.251678466796875;3.62999999083513;364;1 A
27.5008379305671;0.599578857421875;0.252044677734375;3.63999999080988;365;1 A
27.5108379305418;0.59954833984375;0.25079345703125;3.64999999078464;366;1 A
27.5208379305166;0.599639892578125;0.249755859375;3.65999999075939;367;1 A
27.5308379304913;0.599578857421875;0.250335693359375;3.66999999073414;368;1 A
27.5408379304661;0.599639892578125;0.253143310546875;3.67999999070889;369;1 A
27.5508379304408;0.5994873046875;0.2515869140625;3.68999999068365;370;1 A
27.5608379304156;0.599639892578125;0.25128173828125;3.6999999906584;371;1 A
27.5708379303903;0.59954833984375;0.250640869140625;3.70999999063315;372;1 A
27.5808379303651;0.599639892578125;0.252044677734375;3.7199999906079;373;1 A
27.5908379303398;0.599609375;0.25079345703125;3.72999999058266;374;1 A
27.6008379303146;0.59967041015625;0.249725341796875;3.73999999055741;375;1 A
27.6108379302893;0.599578857421875;0.24969482421875;3.74999999053216;376;1 A
27.6208379302641;0.599609375;0.251312255859375;3.75999999050691;377;1 A
27.6308379302388;0.599578857421875;0.251800537109375;3.76999999048167;378;1 A
27.6408379302136;0.59967041015625;0.25164794921875;3.77999999045642;379;1 A
27.6508379301883;0.599639892578125;0.250823974609375;3.78999999043117;380;1 A
27.6608379301631;0.599609375;0.252349853515625;3.79999999040592;381;1 A
27.6708379301378;0.599639892578125;0.251617431640625;3.80999999038067;382;1 A
27.6808379301126;0.59967041015625;0.251861572265625;3.81999999035543;383;1 A
27.6908379300874;0.59954833984375;0.251220703125;3.82999999033018;384;1 A
27.7008379300621;0.59954833984375;0.253509521484375;3.83999999030493;385;1 A
27.7108379300369;0.599578857421875;0.253143310546875;3.84999999027968;386;1 A
27.7208379300116;0.599578857421875;0.25250244140625;3.85999999025444;387;1 A
27.7308379299864;0.599578857421875;0.25225830078125;3.86999999022919;388;1 A
27.7408379299611;0.59954833984375;0.25421142578125;3.87999999020394;389;1 A
27.7508379299359;0.59954833984375;0.256195068359375;3.88999999017869;390;1 A
27.7608379299106;0.59954833984375;0.256561279296875;3.89999999015345;391;1 A
27.7708379298854;0.59954833984375;0.2552490234375;3.9099999901282;392;1 A
27.7808379298601;0.599578857421875;0.256683349609375;3.91999999010295;393;1 A
27.7908379298349;0.599517822265625;0.256072998046875;3.9299999900777;394;1 A
27.8008379298096;0.599609375;0.254730224609375;3.93999999005246;395;1 A
27.8108379297844;0.599578857421875;0.25341796875;3.94999999002721;396;1 A
27.8208379297591;0.59967041015625;0.253875732421875;3.95999999000196;397;1 A
27.8308379297339;0.599609375;0.252716064453125;3.96999998997671;398;1 A
27.8408379297086;0.599639892578125;0.252532958984375;3.97999998995147;399;1 A
27.8508379296834;0.59967041015625;0.252288818359375;3.98999998992622;400;1 A
27.8608379296581;0.599609375;0.25628662109375;3.99999998990097;401;1 A
27.8708379296329;0.59954833984375;0.2559814453125;4.00999998987572;402;1 A
27.8808379296077;0.599639892578125;0.254974365234375;4.01999998985048;403;1 A
27.8908379295824;0.599639892578125;0.25299072265625;4.02999998982523;404;1 A
27.9008379295572;0.599578857421875;0.253326416015625;4.03999998979998;405;1 A
27.9108379295319;0.59954833984375;0.253875732421875;4.04999998977473;406;1 A
27.9208379295067;0.599578857421875;0.253448486328125;4.05999998974949;407;1 A
27.9308379294814;0.599578857421875;0.253265380859375;4.06999998972424;408;1 A
27.9408379294562;0.599639892578125;0.25396728515625;4.07999998969899;409;1 A
27.9508379294309;0.59954833984375;0.25384521484375;4.08999998967374;410;1 A
27.9608379294057;0.59954833984375;0.25341796875;4.0999999896485;411;1 A
27.9708379293804;0.59954833984375;0.252777099609375;4.10999998962325;412;1 A
27.9808379293552;0.59954833984375;0.256256103515625;4.119999989598;413;1 A
27.9908379293299;0.599517822265625;0.254638671875;4.12999998957275;414;1 A
28.0008379293047;0.599578857421875;0.25286865234375;4.1399999895475;415;1 A
28.0108379292794;0.599578857421875;0.251922607421875;4.14999998952226;416;1 A
28.0208379292542;0.599639892578125;0.2540283203125;4.15999998949701;417;1 A
28.0308379292289;0.599517822265625;0.255401611328125;4.16999998947176;418;1 A
28.0408379292037;0.599639892578125;0.25592041015625;4.17999998944651;419;1 A
28.0508379291784;0.599578857421875;0.254913330078125;4.18999998942127;420;1 A
28.0608379291532;0.599609375;0.2554931640625;4.19999998939602;421;1 A
28.0708379291279;0.599517822265625;0.255401611328125;4.20999998937077;422;1 A
28.0808379291027;0.599700927734375;0.25494384765625;4.21999998934552;423;1 A
28.0908379290775;0.599639892578125;0.25494384765625;4.22999998932028;424;1 A
28.1008379290522;0.59954833984375;0.258575439453125;4.23999998929503;425;1 A
28.110837929027;0.599609375;0.257476806640625;4.24999998926978;426;1 A
28.1208379290017;0.599609375;0.2572021484375;4.25999998924453;427;1 A
28.1308379289765;0.599609375;0.25799560546875;4.26999998921929;428;1 A
28.1408379289512;0.59967041015625;0.260589599609375;4.27999998919404;429;1 A
28.150837928926;0.599578857421875;0.260986328125;4.28999998916879;430;1 A
28.1608379289007;0.599609375;0.260467529296875;4.29999998914354;431;1 A
28.1708379288755;0.59954833984375;0.2589111328125;4.3099999891183;432;1 A
28.1808379288502;0.59954833984375;0.258758544921875;4.31999998909305;433;1 A
28.190837928825;0.59954833984375;0.2578125;4.3299999890678;434;1 A
28.2008379287997;0.59954833984375;0.25689697265625;4.33999998904255;435;1 A
28.2108379287745;0.599609375;0.25555419921875;4.34999998901731;436;1 A
28.2208379287492;0.599639892578125;0.25762939453125;4.35999998899206;437;1 A
28.230837928724;0.59954833984375;0.25799560546875;4.36999998896681;438;1 A
28.2408379286987;0.599639892578125;0.256683349609375;4.37999998894156;439;1 A
28.2508379286735;0.59954833984375;0.25592041015625;4.38999998891632;440;1 A
28.2608379286482;0.599639892578125;0.259002685546875;4.39999998889107;441;1 A
28.270837928623;0.5994873046875;0.25836181640625;4.40999998886582;442;1 A
28.2808379285977;0.59967041015625;0.257476806640625;4.41999998884057;443;1 A
28.2908379285725;0.599578857421875;0.255706787109375;4.42999998881533;444;1 A
28.3008379285473;0.599639892578125;0.256134033203125;4.43999998879008;445;1 A
28.310837928522;0.59967041015625;0.254486083984375;4.44999998876483;446;1 A
28.3208379284968;0.599639892578125;0.251983642578125;4.45999998873958;447;1 A
28.3308379284715;0.599609375;0.24951171875;4.46999998871433;448;1 A
28.3408379284463;0.599609375;0.24969482421875;4.47999998868909;449;1 A
28.350837928421;0.599609375;0.2496337890625;4.48999998866384;450;1 A
28.3608379283958;0.599609375;0.248870849609375;4.49999998863859;451;1 A
28.3708379283705;0.599609375;0.248291015625;4.50999998861334;452;1 A
28.3808379283453;0.599578857421875;0.253173828125;4.5199999885881;453;1 A
28.39083792832;0.59954833984375;0.250030517578125;4.52999998856285;454;1 A
28.4008379282948;0.59954833984375;0.24810791015625;4.5399999885376;455;1 A
28.4108379282695;0.599578857421875;0.245880126953125;4.54999998851235;456;1 A
28.4208379282443;0.599578857421875;0.246429443359375;4.55999998848711;457;1 A
28.430837928219;0.59954833984375;0.245269775390625;4.56999998846186;458;1 A
28.4408379281938;0.59967041015625;0.243743896484375;4.57999998843661;459;1 A
28.4508379281685;0.59954833984375;0.24249267578125;4.58999998841136;460;1 A
28.4608379281433;0.59967041015625;0.24627685546875;4.59999998838612;461;1 A
28.470837928118;0.59954833984375;0.245635986328125;4.60999998836087;462;1 A
28.4808379280928;0.59967041015625;0.24517822265625;4.61999998833562;463;1 A
28.4908379280675;0.599609375;0.24481201171875;4.62999998831037;464;1 A
28.5008379280423;0.599609375;0.248046875;4.63999998828513;465;1 A
28.5108379280171;0.599578857421875;0.24725341796875;4.64999998825988;466;1 A
28.5208379279918;0.599700927734375;0.246856689453125;4.65999998823463;467;1 A
28.5308379279666;0.599609375;0.24603271484375;4.66999998820938;468;1 A
28.5408379279413;0.59954833984375;0.250335693359375;4.67999998818414;469;1 A
28.5508379279161;0.599578857421875;0.250457763671875;4.68999998815889;470;1 A
28.5608379278908;0.599578857421875;0.2513427734375;4.69999998813364;471;1 A
28.5708379278656;0.59954833984375;0.2528076171875;4.70999998810839;472;1 A
28.5808379278403;0.599578857421875;0.256988525390625;4.71999998808315;473;1 A
28.5908379278151;0.599578857421875;0.258056640625;4.7299999880579;474;1 A
28.6008379277898;0.59954833984375;0.25872802734375;4.73999998803265;475;1 A
28.6108379277646;0.599578857421875;0.258453369140625;4.7499999880074;476;1 A
28.6208379277393;0.599517822265625;0.26092529296875;4.75999998798216;477;1 A
28.6308379277141;0.599517822265625;0.259613037109375;4.76999998795691;478;1 A
28.6408379276888;0.599578857421875;0.2586669921875;4.77999998793166;479;1 A
28.6508379276636;0.599517822265625;0.258209228515625;4.78999998790641;480;1 A
28.6608379276383;0.599639892578125;0.261322021484375;4.79999998788116;481;1 A
28.6708379276131;0.5994873046875;0.25958251953125;4.80999998785592;482;1 A
28.6808379275878;0.599609375;0.25897216796875;4.81999998783067;483;1 A
28.6908379275626;0.599578857421875;0.258453369140625;4.82999998780542;484;1 A
28.7008379275373;0.599639892578125;0.260772705078125;4.83999998778017;485;1 A
28.7108379275121;0.59954833984375;0.259735107421875;4.84999998775493;486;1 A
28.7208379274869;0.59967041015625;0.2589111328125;4.85999998772968;487;1 A
28.7308379274616;0.599578857421875;0.257537841796875;4.86999998770443;488;1 A
28.7408379274364;0.599609375;0.25762939453125;4.87999998767918;489;1 A
28.7508379274111;0.599578857421875;0.257080078125;4.88999998765394;490;1 A
28.7608379273859;0.59954833984375;0.256134033203125;4.89999998762869;491;1 A
28.7708379273606;0.599578857421875;0.25543212890625;4.90999998760344;492;1 A
28.7808379273354;0.599578857421875;0.2564697265625;4.91999998757819;493;1 A
28.7908379273101;0.5994873046875;0.25640869140625;4.92999998755295;494;1 A
28.8008379272849;0.59954833984375;0.256561279296875;4.9399999875277;495;1 A
28.8108379272596;0.59954833984375;0.25604248046875;4.94999998750245;496;1 A
28.8208379272344;0.5994873046875;0.256591796875;4.9599999874772;497;1 A
28.8308379272091;0.59954833984375;0.25567626953125;4.96999998745196;498;1 A
28.8408379271839;0.59954833984375;0.25482177734375;4.97999998742671;499;1 A
28.8508379271586;0.5994873046875;0.253662109375;4.98999998740146;500;1 A
28.8608379271334;0.599609375;0.254547119140625;4.99999998737621;501;1 A
28.8708379271081;0.59954833984375;0.25457763671875;5.00999998735097;502;1 A
28.8808379270829;0.599639892578125;0.253204345703125;5.01999998732572;503;1 A
28.8908379270576;0.599609375;0.250579833984375;5.02999998730047;504;1 A
28.9008379270324;0.599578857421875;0.25042724609375;5.03999998727522;505;1 A
28.9108379270072;0.5994873046875;0.25042724609375;5.04999998724998;506;1 A
28.9208379269819;0.599639892578125;0.250885009765625;5.05999998722473;507;1 A
28.9308379269567;0.599578857421875;0.25042724609375;5.06999998719948;508;1 A
28.9408379269314;0.599639892578125;0.252899169921875;5.07999998717423;509;1 A
28.9508379269062;0.599578857421875;0.2520751953125;5.08999998714899;510;1 A
28.9608379268809;0.599639892578125;0.251800537109375;5.09999998712374;511;1 A
28.9708379268557;0.59954833984375;0.251312255859375;5.10999998709849;512;1 A
28.9808379268304;0.599609375;0.252410888671875;5.11999998707324;513;1 A
28.9908379268052;0.599609375;0.251739501953125;5.129999987048;514;1 A
29.0008379267799;0.59954833984375;0.2503662109375;5.13999998702275;515;1 A
29.0108379267547;0.599578857421875;0.249725341796875;5.1499999869975;516;1 A
29.0208379267294;0.59954833984375;0.25506591796875;5.15999998697225;517;1 A
29.0308379267042;0.59954833984375;0.251708984375;5.169999986947;518;1 A
29.0408379266789;0.599578857421875;0.25018310546875;5.17999998692176;519;1 A
29.0508379266537;0.599609375;0.2496337890625;5.18999998689651;520;1 A
29.0608379266284;0.599517822265625;0.25579833984375;5.19999998687126;521;1 A
29.0708379266032;0.59954833984375;0.25445556640625;5.20999998684601;522;1 A
29.0808379265779;0.599639892578125;0.253173828125;5.21999998682077;523;1 A
29.0908379265527;0.5994873046875;0.2528076171875;5.22999998679552;524;1 A
29.1008379265274;0.599578857421875;0.253875732421875;5.23999998677027;525;1 A
29.1108379265022;0.59954833984375;0.25506591796875;5.24999998674502;526;1 A
29.120837926477;0.599639892578125;0.2548828125;5.25999998671978;527;1 A
29.1308379264517;0.599578857421875;0.255035400390625;5.26999998669453;528;1 A
29.1408379264265;0.599578857421875;0.25775146484375;5.27999998666928;529;1 A
29.1508379264012;0.599578857421875;0.256317138671875;5.28999998664403;530;1 A
29.160837926376;0.599700927734375;0.2545166015625;5.29999998661879;531;1 A
29.1708379263507;0.599639892578125;0.25347900390625;5.30999998659354;532;1 A
29.1808379263255;0.599578857421875;0.254150390625;5.31999998656829;533;1 A
29.1908379263002;0.599639892578125;0.25323486328125;5.32999998654304;534;1 A
29.200837926275;0.599609375;0.25244140625;5.3399999865178;535;1 A
29.2108379262497;0.59954833984375;0.252044677734375;5.34999998649255;536;1 A
29.2208379262245;0.59954833984375;0.2528076171875;5.3599999864673;537;1 A
29.2308379261992;0.599639892578125;0.252532958984375;5.36999998644205;538;1 A
29.240837926174;0.59954833984375;0.25140380859375;5.37999998641681;539;1 A
29.2508379261487;0.599517822265625;0.2501220703125;5.38999998639156;540;1 A
29.2608379261235;0.599578857421875;0.249298095703125;5.39999998636631;541;1 A
29.2708379260982;0.599578857421875;0.250701904296875;5.40999998634106;542;1 A
29.280837926073;0.599578857421875;0.25079345703125;5.41999998631582;543;1 A
29.2908379260477;0.599517822265625;0.25103759765625;5.42999998629057;544;1 A
29.3008379260225;0.599578857421875;0.252777099609375;5.43999998626532;545;1 A
29.3108379259972;0.599517822265625;0.254638671875;5.44999998624007;546;1 A
29.320837925972;0.599609375;0.255096435546875;5.45999998621483;547;1 A
29.3308379259468;0.599517822265625;0.25421142578125;5.46999998618958;548;1 A
29.3408379259215;0.599609375;0.254638671875;5.47999998616433;549;1 A
29.3508379258963;0.599578857421875;0.25433349609375;5.48999998613908;550;1 A
29.360837925871;0.599639892578125;0.2532958984375;5.49999998611383;551;1 A
29.3708379258458;0.599578857421875;0.251617431640625;5.50999998608859;552;1 A
29.3808379258205;0.59967041015625;0.251617431640625;5.51999998606334;553;1 A
29.3908379257953;0.599609375;0.251922607421875;5.52999998603809;554;1 A
29.40083792577;0.599578857421875;0.252197265625;5.53999998601284;555;1 A
29.4108379257448;0.599639892578125;0.251190185546875;5.5499999859876;556;1 A
29.4208379257195;0.599609375;0.2528076171875;5.55999998596235;557;1 A
29.4308379256943;0.599639892578125;0.25274658203125;5.5699999859371;558;1 A
29.440837925669;0.599609375;0.25250244140625;5.57999998591185;559;1 A
29.4508379256438;0.599578857421875;0.251068115234375;5.58999998588661;560;1 A
29.4608379256185;0.59954833984375;0.253204345703125;5.59999998586136;561;1 A
29.4708379255933;0.59954833984375;0.252685546875;5.60999998583611;562;1 A
29.480837925568;0.599609375;0.25238037109375;5.61999998581086;563;1 A
29.4908379255428;0.599578857421875;0.252349853515625;5.62999998578562;564;1 A
29.5008379255175;0.59954833984375;0.254791259765625;5.63999998576037;565;1 A
29.5108379254923;0.59954833984375;0.255462646484375;5.64999998573512;566;1 A
29.520837925467;0.599609375;0.25537109375;5.65999998570987;567;1 A
29.5308379254418;0.59954833984375;0.254638671875;5.66999998568463;568;1 A
29.5408379254166;0.599578857421875;0.25665283203125;5.67999998565938;569;1 A
29.5508379253913;0.599609375;0.25543212890625;5.68999998563413;570;1 A
29.5608379253661;0.59967041015625;0.254150390625;5.69999998560888;571;1 A
29.5708379253408;0.599578857421875;0.252471923828125;5.70999998558364;572;1 A
29.5808379253156;0.599578857421875;0.253997802734375;5.71999998555839;573;1 A
29.5908379252903;0.599609375;0.25262451171875;5.72999998553314;574;1 A
29.6008379252651;0.599639892578125;0.2515869140625;5.73999998550789;575;1 A
29.6108379252398;0.599578857421875;0.250762939453125;5.74999998548265;576;1 A
29.6208379252146;0.599609375;0.251007080078125;5.7599999854574;577;1 A
29.6308379251893;0.599639892578125;0.250335693359375;5.76999998543215;578;1 A
29.6408379251641;0.59954833984375;0.2493896484375;5.7799999854069;579;1 A
29.6508379251388;0.599578857421875;0.24810791015625;5.78999998538166;580;1 A
29.6608379251136;0.59954833984375;0.250091552734375;5.79999998535641;581;1 A
29.6708379250883;0.599609375;0.25030517578125;5.80999998533116;582;1 A
29.6808379250631;0.5994873046875;0.25048828125;5.81999998530591;583;1 A
29.6908379250378;0.5994873046875;0.250885009765625;5.82999998528066;584;1 A
29.7008379250126;0.5994873046875;0.2528076171875;5.83999998525542;585;1 A
29.7108379249873;0.5994873046875;0.251861572265625;5.84999998523017;586;1 A
29.7208379249621;0.599517822265625;0.25067138671875;5.85999998520492;587;1 A
29.7308379249368;0.599456787109375;0.249542236328125;5.86999998517967;588;1 A
29.7408379249116;0.599578857421875;0.251739501953125;5.87999998515443;589;1 A
29.7508379248864;0.59954833984375;0.25;5.88999998512918;590;1 A
29.7608379248611;0.599578857421875;0.249786376953125;5.89999998510393;591;1 A
29.7708379248359;0.599578857421875;0.249481201171875;5.90999998507868;592;1 A
29.7808379248106;0.599639892578125;0.251983642578125;5.91999998505344;593;1 A
29.7908379247854;0.59954833984375;0.251708984375;5.92999998502819;594;1 A
29.8008379247601;0.599639892578125;0.2509765625;5.93999998500294;595;1 A
29.8108379247349;0.59954833984375;0.249969482421875;5.94999998497769;596;1 A
29.8208379247096;0.599578857421875;0.250640869140625;5.95999998495245;597;1 A
29.8308379246844;0.59954833984375;0.251007080078125;5.9699999849272;598;1 A
29.8408379246591;0.59967041015625;0.25128173828125;5.97999998490195;599;1 A
29.8508379246339;0.59954833984375;0.250579833984375;5.9899999848767;600;1 A
29.8608379246086;0.599609375;0.252655029296875;5.99999998485146;601;1 A
29.8708379245834;0.599609375;0.253082275390625;6.00999998482621;602;1 A
29.8808379245581;0.599609375;0.2532958984375;6.01999998480096;603;1 A
29.8908379245329;0.599609375;0.252532958984375;6.02999998477571;604;1 A
29.9008379245076;0.599517822265625;0.254364013671875;6.03999998475047;605;1 A
29.9108379244824;0.599609375;0.2535400390625;6.04999998472522;606;1 A
29.9208379244571;0.59954833984375;0.252349853515625;6.05999998469997;607;1 A
29.9308379244319;0.59954833984375;0.2509765625;6.06999998467472;608;1 A
29.9408379244067;0.599517822265625;0.25115966796875;6.07999998464948;609;1 A
29.9508379243814;0.599609375;0.250335693359375;6.08999998462423;610;1 A
29.9608379243562;0.599517822265625;0.250152587890625;6.09999998459898;611;1 A
29.9708379243309;0.59954833984375;0.249542236328125;6.10999998457373;612;1 A
29.9808379243057;0.5994873046875;0.251861572265625;6.11999998454849;613;1 A
29.9908379242804;0.599517822265625;0.251983642578125;6.12999998452324;614;1 A
30.0008379242552;0.599578857421875;0.251556396484375;6.13999998449799;615;1 A
30.0108379242299;0.59954833984375;0.251800537109375;6.14999998447274;616;1 A
30.0208379242047;0.599578857421875;0.25396728515625;6.1599999844475;617;1 A
30.0308379241794;0.599517822265625;0.254364013671875;6.16999998442225;618;1 A
30.0408379241542;0.599578857421875;0.2537841796875;6.179999984397;619;1 A
30.0508379241289;0.5994873046875;0.253082275390625;6.18999998437175;620;1 A
30.0608379241037;0.59954833984375;0.256317138671875;6.1999999843465;621;1 A
30.0708379240784;0.59954833984375;0.25518798828125;6.20999998432126;622;1 A
30.0808379240532;0.599609375;0.255035400390625;6.21999998429601;623;1 A
30.0908379240279;0.599517822265625;0.254974365234375;6.22999998427076;624;1 A
30.1008379240027;0.599578857421875;0.259552001953125;6.23999998424551;625;1 A
30.1108379239774;0.59954833984375;0.259246826171875;6.24999998422027;626;1 A
30.1208379239522;0.599639892578125;0.25811767578125;6.25999998419502;627;1 A
30.1308379239269;0.59954833984375;0.2579345703125;6.26999998416977;628;1 A
30.1408379239017;0.599578857421875;0.260589599609375;6.27999998414452;629;1 A
30.1508379238765;0.599517822265625;0.260345458984375;6.28999998411928;630;1 A
30.1608379238512;0.59967041015625;0.26068115234375;6.29999998409403;631;1 A
30.170837923826;0.599609375;0.260284423828125;6.30999998406878;632;1 A
30.1808379238007;0.599578857421875;0.26348876953125;6.31999998404353;633;1 A
30.1908379237755;0.599578857421875;0.26318359375;6.32999998401829;634;1 A
30.2008379237502;0.599609375;0.263641357421875;6.33999998399304;635;1 A
30.210837923725;0.599609375;0.2640380859375;6.34999998396779;636;1 A
30.2208379236997;0.599578857421875;0.267791748046875;6.35999998394254;637;1 A
30.2308379236745;0.599609375;0.266265869140625;6.3699999839173;638;1 A
30.2408379236492;0.599578857421875;0.265838623046875;6.37999998389205;639;1 A
30.250837923624;0.59954833984375;0.26519775390625;6.3899999838668;640;1 A
30.2608379235987;0.599639892578125;0.26531982421875;6.39999998384155;641;1 A
30.2708379235735;0.599639892578125;0.264373779296875;6.40999998381631;642;1 A
30.2808379235482;0.599578857421875;0.2635498046875;6.41999998379106;643;1 A
30.290837923523;0.599578857421875;0.262298583984375;6.42999998376581;644;1 A
30.3008379234977;0.599517822265625;0.265106201171875;6.43999998374056;645;1 A
30.3108379234725;0.5994873046875;0.263275146484375;6.44999998371532;646;1 A
30.3208379234472;0.59954833984375;0.2620849609375;6.45999998369007;647;1 A
30.330837923422;0.599578857421875;0.261322021484375;6.46999998366482;648;1 A
30.3408379233967;0.599517822265625;0.26239013671875;6.47999998363957;649;1 A
30.3508379233715;0.599517822265625;0.262115478515625;6.48999998361433;650;1 A
30.3608379233463;0.59954833984375;0.262481689453125;6.49999998358908;651;1 A
30.370837923321;0.59954833984375;0.261749267578125;6.50999998356383;652;1 A
30.3808379232958;0.5994873046875;0.2637939453125;6.51999998353858;653;1 A
30.3908379232705;0.59954833984375;0.262664794921875;6.52999998351333;654;1 A
30.4008379232453;0.599578857421875;0.2620849609375;6.53999998348809;655;1 A
30.41083792322;0.59954833984375;0.26080322265625;6.54999998346284;656;1 A
30.4208379231948;0.599578857421875;0.263427734375;6.55999998343759;657;1 A
30.4308379231695;0.59954833984375;0.261322021484375;6.56999998341234;658;1 A
30.4408379231443;0.599639892578125;0.259368896484375;6.5799999833871;659;1 A
30.450837923119;0.599578857421875;0.25787353515625;6.58999998336185;660;1 A
30.4608379230938;0.599578857421875;0.257568359375;6.5999999833366;661;1 A
30.4708379230685;0.599517822265625;0.25628662109375;6.60999998331135;662;1 A
30.4808379230433;0.599639892578125;0.255584716796875;6.61999998328611;663;1 A
30.490837923018;0.599578857421875;0.254364013671875;6.62999998326086;664;1 A
30.5008379229928;0.59954833984375;0.256072998046875;6.63999998323561;665;1 A
30.5108379229675;0.599578857421875;0.25701904296875;6.64999998321036;666;1 A
30.5208379229423;0.599609375;0.256866455078125;6.65999998318512;667;1 A
30.530837922917;0.59954833984375;0.256317138671875;6.66999998315987;668;1 A
30.5408379228918;0.5994873046875;0.258148193359375;6.67999998313462;669;1 A
30.5508379228665;0.599639892578125;0.25830078125;6.68999998310937;670;1 A
30.5608379228413;0.599609375;0.25848388671875;6.69999998308413;671;1 A
30.5708379228161;0.599639892578125;0.25762939453125;6.70999998305888;672;1 A
30.5808379227908;0.59954833984375;0.25830078125;6.71999998303363;673;1 A
30.5908379227656;0.599578857421875;0.2572021484375;6.72999998300838;674;1 A
30.6008379227403;0.599517822265625;0.2564697265625;6.73999998298314;675;1 A
30.6108379227151;0.599609375;0.2554931640625;6.74999998295789;676;1 A
30.6208379226898;0.599517822265625;0.257904052734375;6.75999998293264;677;1 A
30.6308379226646;0.599609375;0.255096435546875;6.76999998290739;678;1 A
30.6408379226393;0.59954833984375;0.253662109375;6.77999998288215;679;1 A
30.6508379226141;0.599639892578125;0.254058837890625;6.7899999828569;680;1 A
30.6608379225888;0.59954833984375;0.257598876953125;6.79999998283165;681;1 A
30.6708379225636;0.599517822265625;0.255828857421875;6.8099999828064;682;1 A
30.6808379225383;0.599578857421875;0.255615234375;6.81999998278116;683;1 A
30.6908379225131;0.59954833984375;0.255157470703125;6.82999998275591;684;1 A
30.7008379224878;0.599578857421875;0.25677490234375;6.83999998273066;685;1 A
30.7108379224626;0.599517822265625;0.25543212890625;6.84999998270541;686;1 A
30.7208379224373;0.599639892578125;0.254058837890625;6.85999998268016;687;1 A
30.7308379224121;0.599609375;0.25335693359375;6.86999998265492;688;1 A
30.7408379223868;0.599517822265625;0.255584716796875;6.87999998262967;689;1 A
30.7508379223616;0.599517822265625;0.25360107421875;6.88999998260442;690;1 A
30.7608379223363;0.599578857421875;0.2525634765625;6.89999998257917;691;1 A
30.7708379223111;0.599609375;0.252685546875;6.90999998255393;692;1 A
30.7808379222859;0.59954833984375;0.25396728515625;6.91999998252868;693;1 A
30.7908379222606;0.5994873046875;0.25274658203125;6.92999998250343;694;1 A
30.8008379222354;0.599639892578125;0.25262451171875;6.93999998247818;695;1 A
30.8108379222101;0.599578857421875;0.2515869140625;6.94999998245294;696;1 A
30.8208379221849;0.599609375;0.252105712890625;6.95999998242769;697;1 A
30.8308379221596;0.599517822265625;0.251495361328125;6.96999998240244;698;1 A
30.8408379221344;0.59967041015625;0.2510986328125;6.97999998237719;699;1 A
30.8508379221091;0.599639892578125;0.250762939453125;6.98999998235195;700;1 A
