Time (s);WE(1).Potential (V);WE(1).Current (A);Corrected time (s);Index;Current range
47.0221108812806;0.650543212890625;1.0205078125;0;1;1 A
47.0321108812553;0.64990234375;0.7373046875;0.00999999997475243;2;1 A
47.0421108812301;0.649688720703125;0.6085205078125;0.0199999999495049;3;1 A
47.0521108812048;0.64971923828125;0.5316162109375;0.0299999999242573;4;1 A
47.0621108811796;0.649627685546875;0.47900390625;0.0399999998990097;5;1 A
47.0721108811543;0.649566650390625;0.439697265625;0.0499999998737621;6;1 A
47.0821108811291;0.64959716796875;0.40972900390625;0.0599999998485146;7;1 A
47.0921108811038;0.6495361328125;0.38629150390625;0.069999999823267;8;1 A
47.1021108810786;0.649627685546875;0.367919921875;0.0799999997980194;9;1 A
47.1121108810534;0.649505615234375;0.351715087890625;0.0899999997727718;10;1 A
47.1221108810281;0.649627685546875;0.33856201171875;0.0999999997475243;11;1 A
47.1321108810029;0.649505615234375;0.3277587890625;0.109999999722277;12;1 A
47.1421108809776;0.64959716796875;0.318939208984375;0.119999999697029;13;1 A
47.1521108809524;0.64959716796875;0.31048583984375;0.129999999671782;14;1 A
47.1621108809271;0.649627685546875;0.3033447265625;0.139999999646534;15;1 A
47.1721108809019;0.649566650390625;0.2982177734375;0.149999999621286;16;1 A
47.1821108808766;0.649658203125;0.2938232421875;0.159999999596039;17;1 A
47.1921108808514;0.649566650390625;0.28961181640625;0.169999999570791;18;1 A
47.2021108808261;0.649627685546875;0.28631591796875;0.179999999545544;19;1 A
47.2121108808009;0.649627685546875;0.283660888671875;0.189999999520296;20;1 A
47.2221108807756;0.649566650390625;0.28125;0.199999999495049;21;1 A
47.2321108807504;0.649566650390625;0.277801513671875;0.209999999469801;22;1 A
47.2421108807251;0.6495361328125;0.2755126953125;0.219999999444553;23;1 A
47.2521108806999;0.64959716796875;0.274444580078125;0.229999999419306;24;1 A
47.2621108806746;0.649505615234375;0.27276611328125;0.239999999394058;25;1 A
47.2721108806494;0.6495361328125;0.2701416015625;0.249999999368811;26;1 A
47.2821108806241;0.64947509765625;0.267852783203125;0.259999999343563;27;1 A
47.2921108805989;0.649505615234375;0.266815185546875;0.269999999318316;28;1 A
47.3021108805737;0.649505615234375;0.266143798828125;0.279999999293068;29;1 A
47.3121108805484;0.64947509765625;0.2650146484375;0.28999999926782;30;1 A
47.3221108805232;0.64959716796875;0.264007568359375;0.299999999242573;31;1 A
47.3321108804979;0.649505615234375;0.262969970703125;0.309999999217325;32;1 A
47.3421108804727;0.649627685546875;0.26190185546875;0.319999999192078;33;1 A
47.3521108804474;0.649505615234375;0.26019287109375;0.32999999916683;34;1 A
47.3621108804222;0.649658203125;0.2596435546875;0.339999999141583;35;1 A
47.3721108803969;0.64959716796875;0.26007080078125;0.349999999116335;36;1 A
47.3821108803717;0.649627685546875;0.259857177734375;0.359999999091087;37;1 A
47.3921108803464;0.649505615234375;0.258636474609375;0.36999999906584;38;1 A
47.4021108803212;0.649658203125;0.257080078125;0.379999999040592;39;1 A
47.4121108802959;0.649566650390625;0.256378173828125;0.389999999015345;40;1 A
47.4221108802707;0.649627685546875;0.256683349609375;0.399999998990097;41;1 A
47.4321108802454;0.64935302734375;0.256622314453125;0.40999999896485;42;1 A
47.4421108802202;0.64959716796875;0.2569580078125;0.419999998939602;43;1 A
47.4521108801949;0.649627685546875;0.257171630859375;0.429999998914354;44;1 A
47.4621108801697;0.649505615234375;0.257110595703125;0.439999998889107;45;1 A
47.4721108801444;0.64947509765625;0.25592041015625;0.449999998863859;46;1 A
47.4821108801192;0.649566650390625;0.255950927734375;0.459999998838612;47;1 A
47.4921108800939;0.64959716796875;0.255767822265625;0.469999998813364;48;1 A
47.5021108800687;0.6495361328125;0.255401611328125;0.479999998788116;49;1 A
47.5121108800435;0.649566650390625;0.2548828125;0.489999998762869;50;1 A
47.5221108800182;0.6495361328125;0.25653076171875;0.499999998737621;51;1 A
47.532110879993;0.649566650390625;0.256011962890625;0.509999998712374;52;1 A
47.5421108799677;0.6495361328125;0.25537109375;0.519999998687126;53;1 A
47.5521108799425;0.64947509765625;0.253936767578125;0.529999998661879;54;1 A
47.5621108799172;0.64959716796875;0.254364013671875;0.539999998636631;55;1 A
47.572110879892;0.649566650390625;0.253082275390625;0.549999998611383;56;1 A
47.5821108798667;0.64959716796875;0.251861572265625;0.559999998586136;57;1 A
47.5921108798415;0.649505615234375;0.251007080078125;0.569999998560888;58;1 A
47.6021108798162;0.64959716796875;0.252410888671875;0.579999998535641;59;1 A
47.612110879791;0.649566650390625;0.252044677734375;0.589999998510393;60;1 A
47.6221108797657;0.64959716796875;0.251678466796875;0.599999998485146;61;1 A
47.6321108797405;0.649505615234375;0.251251220703125;0.609999998459898;62;1 A
47.6421108797152;0.649627685546875;0.251495361328125;0.61999999843465;63;1 A
47.65211087969;0.649566650390625;0.25140380859375;0.629999998409403;64;1 A
47.6621108796647;0.649566650390625;0.25177001953125;0.639999998384155;65;1 A
47.6721108796395;0.6495361328125;0.251800537109375;0.649999998358908;66;1 A
47.6821108796142;0.649566650390625;0.256805419921875;0.65999999833366;67;1 A
47.692110879589;0.64959716796875;0.25579833984375;0.669999998308413;68;1 A
47.7021108795637;0.64959716796875;0.25531005859375;0.679999998283165;69;1 A
47.7121108795385;0.649566650390625;0.254730224609375;0.689999998257917;70;1 A
47.7221108795133;0.64947509765625;0.25909423828125;0.69999999823267;71;1 A
47.732110879488;0.649627685546875;0.255828857421875;0.709999998207422;72;1 A
47.7421108794628;0.649505615234375;0.254058837890625;0.719999998182175;73;1 A
47.7521108794375;0.649566650390625;0.2537841796875;0.729999998156927;74;1 A
47.7621108794123;0.649566650390625;0.2574462890625;0.73999999813168;75;1 A
47.772110879387;0.6495361328125;0.25677490234375;0.749999998106432;76;1 A
47.7821108793618;0.649566650390625;0.256317138671875;0.759999998081184;77;1 A
47.7921108793365;0.64947509765625;0.256011962890625;0.769999998055937;78;1 A
47.8021108793113;0.64959716796875;0.258636474609375;0.779999998030689;79;1 A
47.812110879286;0.649566650390625;0.257171630859375;0.789999998005442;80;1 A
47.8221108792608;0.649566650390625;0.256195068359375;0.799999997980194;81;1 A
47.8321108792355;0.6494140625;0.255889892578125;0.809999997954947;82;1 A
47.8421108792103;0.649627685546875;0.257568359375;0.819999997929699;83;1 A
47.852110879185;0.649566650390625;0.25634765625;0.829999997904451;84;1 A
47.8621108791598;0.649627685546875;0.255889892578125;0.839999997879204;85;1 A
47.8721108791345;0.64959716796875;0.255706787109375;0.849999997853956;86;1 A
47.8821108791093;0.649688720703125;0.26055908203125;0.859999997828709;87;1 A
47.892110879084;0.649566650390625;0.255859375;0.869999997803461;88;1 A
47.9021108790588;0.64959716796875;0.253021240234375;0.879999997778214;89;1 A
47.9121108790335;0.649566650390625;0.2509765625;0.889999997752966;90;1 A
47.9221108790083;0.64959716796875;0.253265380859375;0.899999997727718;91;1 A
47.9321108789831;0.649627685546875;0.250823974609375;0.909999997702471;92;1 A
47.9421108789578;0.649627685546875;0.24932861328125;0.919999997677223;93;1 A
47.9521108789326;0.6495361328125;0.248870849609375;0.929999997651976;94;1 A
47.9621108789073;0.649566650390625;0.2520751953125;0.939999997626728;95;1 A
47.9721108788821;0.649627685546875;0.2513427734375;0.949999997601481;96;1 A
47.9821108788568;0.6495361328125;0.251678466796875;0.959999997576233;97;1 A
47.9921108788316;0.64947509765625;0.2518310546875;0.969999997550985;98;1 A
48.0021108788063;0.649566650390625;0.255157470703125;0.979999997525738;99;1 A
48.0121108787811;0.64959716796875;0.252960205078125;0.98999999750049;100;1 A
48.0221108787558;0.6495361328125;0.251800537109375;0.999999997475243;101;1 A
48.0321108787306;0.64947509765625;0.25244140625;1.00999999745;102;1 A
48.0421108787053;0.649566650390625;0.256378173828125;1.01999999742475;103;1 A
48.0521108786801;0.649505615234375;0.2545166015625;1.0299999973995;104;1 A
48.0621108786548;0.6495361328125;0.254669189453125;1.03999999737425;105;1 A
48.0721108786296;0.649505615234375;0.254547119140625;1.049999997349;106;1 A
48.0821108786043;0.64959716796875;0.259063720703125;1.05999999732376;107;1 A
48.0921108785791;0.64959716796875;0.2567138671875;1.06999999729851;108;1 A
48.1021108785538;0.649627685546875;0.256103515625;1.07999999727326;109;1 A
48.1121108785286;0.649505615234375;0.25506591796875;1.08999999724801;110;1 A
48.1221108785033;0.649627685546875;0.256591796875;1.09999999722277;111;1 A
48.1321108784781;0.64959716796875;0.257659912109375;1.10999999719752;112;1 A
48.1421108784529;0.64971923828125;0.25726318359375;1.11999999717227;113;1 A
48.1521108784276;0.64959716796875;0.256317138671875;1.12999999714702;114;1 A
48.1621108784024;0.64959716796875;0.257293701171875;1.13999999712178;115;1 A
48.1721108783771;0.649627685546875;0.25689697265625;1.14999999709653;116;1 A
48.1821108783519;0.64959716796875;0.257476806640625;1.15999999707128;117;1 A
48.1921108783266;0.6495361328125;0.25628662109375;1.16999999704603;118;1 A
48.2021108783014;0.649566650390625;0.2568359375;1.17999999702079;119;1 A
48.2121108782761;0.649566650390625;0.257354736328125;1.18999999699554;120;1 A
48.2221108782509;0.649566650390625;0.257659912109375;1.19999999697029;121;1 A
48.2321108782256;0.649505615234375;0.257415771484375;1.20999999694504;122;1 A
48.2421108782004;0.6495361328125;0.25848388671875;1.2199999969198;123;1 A
48.2521108781751;0.649566650390625;0.258697509765625;1.22999999689455;124;1 A
48.2621108781499;0.64959716796875;0.258148193359375;1.2399999968693;125;1 A
48.2721108781246;0.6495361328125;0.255584716796875;1.24999999684405;126;1 A
48.2821108780994;0.649566650390625;0.254669189453125;1.25999999681881;127;1 A
48.2921108780741;0.649566650390625;0.254180908203125;1.26999999679356;128;1 A
48.3021108780489;0.649627685546875;0.254119873046875;1.27999999676831;129;1 A
48.3121108780236;0.64947509765625;0.253936767578125;1.28999999674306;130;1 A
48.3221108779984;0.649566650390625;0.258331298828125;1.29999999671782;131;1 A
48.3321108779732;0.64959716796875;0.257568359375;1.30999999669257;132;1 A
48.3421108779479;0.64959716796875;0.255950927734375;1.31999999666732;133;1 A
48.3521108779227;0.649505615234375;0.253570556640625;1.32999999664207;134;1 A
48.3621108778974;0.649566650390625;0.254119873046875;1.33999999661683;135;1 A
48.3721108778722;0.64959716796875;0.2532958984375;1.34999999659158;136;1 A
48.3821108778469;0.649627685546875;0.2530517578125;1.35999999656633;137;1 A
48.3921108778217;0.649627685546875;0.252410888671875;1.36999999654108;138;1 A
48.4021108777964;0.649627685546875;0.25506591796875;1.37999999651583;139;1 A
48.4121108777712;0.64959716796875;0.255126953125;1.38999999649059;140;1 A
48.4221108777459;0.64959716796875;0.25518798828125;1.39999999646534;141;1 A
48.4321108777207;0.649566650390625;0.255096435546875;1.40999999644009;142;1 A
48.4421108776954;0.64959716796875;0.25836181640625;1.41999999641484;143;1 A
48.4521108776702;0.64959716796875;0.25836181640625;1.4299999963896;144;1 A
48.4621108776449;0.649505615234375;0.257659912109375;1.43999999636435;145;1 A
48.4721108776197;0.649566650390625;0.25689697265625;1.4499999963391;146;1 A
48.4821108775944;0.6495361328125;0.259002685546875;1.45999999631385;147;1 A
48.4921108775692;0.649566650390625;0.258544921875;1.46999999628861;148;1 A
48.5021108775439;0.649566650390625;0.258209228515625;1.47999999626336;149;1 A
48.5121108775187;0.64947509765625;0.257965087890625;1.48999999623811;150;1 A
48.5221108774934;0.649505615234375;0.2625732421875;1.49999999621286;151;1 A
48.5321108774682;0.649566650390625;0.26177978515625;1.50999999618762;152;1 A
48.542110877443;0.64959716796875;0.2601318359375;1.51999999616237;153;1 A
48.5521108774177;0.649505615234375;0.258819580078125;1.52999999613712;154;1 A
48.5621108773925;0.649627685546875;0.2613525390625;1.53999999611187;155;1 A
48.5721108773672;0.64959716796875;0.260284423828125;1.54999999608663;156;1 A
48.582110877342;0.649627685546875;0.258819580078125;1.55999999606138;157;1 A
48.5921108773167;0.64947509765625;0.257476806640625;1.56999999603613;158;1 A
48.6021108772915;0.649566650390625;0.260284423828125;1.57999999601088;159;1 A
48.6121108772662;0.64959716796875;0.2584228515625;1.58999999598564;160;1 A
48.622110877241;0.64959716796875;0.257476806640625;1.59999999596039;161;1 A
48.6321108772157;0.649566650390625;0.2567138671875;1.60999999593514;162;1 A
48.6421108771905;0.64959716796875;0.26025390625;1.61999999590989;163;1 A
48.6521108771652;0.649658203125;0.259521484375;1.62999999588465;164;1 A
48.66211087714;0.649566650390625;0.2589111328125;1.6399999958594;165;1 A
48.6721108771147;0.649566650390625;0.257598876953125;1.64999999583415;166;1 A
48.6821108770895;0.64959716796875;0.2598876953125;1.6599999958089;167;1 A
48.6921108770642;0.649627685546875;0.259490966796875;1.66999999578366;168;1 A
48.702110877039;0.649505615234375;0.25775146484375;1.67999999575841;169;1 A
48.7121108770137;0.64959716796875;0.255767822265625;1.68999999573316;170;1 A
48.7221108769885;0.649505615234375;0.259613037109375;1.69999999570791;171;1 A
48.7321108769632;0.649566650390625;0.256378173828125;1.70999999568267;172;1 A
48.742110876938;0.649505615234375;0.254913330078125;1.71999999565742;173;1 A
48.7521108769128;0.6495361328125;0.254852294921875;1.72999999563217;174;1 A
48.7621108768875;0.649566650390625;0.256378173828125;1.73999999560692;175;1 A
48.7721108768623;0.649566650390625;0.256317138671875;1.74999999558167;176;1 A
48.782110876837;0.64959716796875;0.2562255859375;1.75999999555643;177;1 A
48.7921108768118;0.6495361328125;0.255035400390625;1.76999999553118;178;1 A
48.8021108767865;0.64959716796875;0.2578125;1.77999999550593;179;1 A
48.8121108767613;0.64959716796875;0.2562255859375;1.78999999548068;180;1 A
48.822110876736;0.64959716796875;0.25604248046875;1.79999999545544;181;1 A
48.8321108767108;0.6495361328125;0.25543212890625;1.80999999543019;182;1 A
48.8421108766855;0.649566650390625;0.257110595703125;1.81999999540494;183;1 A
48.8521108766603;0.649658203125;0.25506591796875;1.82999999537969;184;1 A
48.862110876635;0.649627685546875;0.252899169921875;1.83999999535445;185;1 A
48.8721108766098;0.649566650390625;0.251739501953125;1.8499999953292;186;1 A
48.8821108765845;0.6495361328125;0.2567138671875;1.85999999530395;187;1 A
48.8921108765593;0.649627685546875;0.2547607421875;1.8699999952787;188;1 A
48.902110876534;0.649566650390625;0.2537841796875;1.87999999525346;189;1 A
48.9121108765088;0.64959716796875;0.25262451171875;1.88999999522821;190;1 A
48.9221108764835;0.6495361328125;0.255218505859375;1.89999999520296;191;1 A
48.9321108764583;0.64959716796875;0.2532958984375;1.90999999517771;192;1 A
48.942110876433;0.649566650390625;0.2515869140625;1.91999999515247;193;1 A
48.9521108764078;0.649566650390625;0.250518798828125;1.92999999512722;194;1 A
48.9621108763826;0.649505615234375;0.25579833984375;1.93999999510197;195;1 A
48.9721108763573;0.649566650390625;0.254974365234375;1.94999999507672;196;1 A
48.9821108763321;0.649505615234375;0.253814697265625;1.95999999505148;197;1 A
48.9921108763068;0.6495361328125;0.25244140625;1.96999999502623;198;1 A
49.0021108762816;0.64947509765625;0.25518798828125;1.97999999500098;199;1 A
49.0121108762563;0.649627685546875;0.25274658203125;1.98999999497573;200;1 A
49.0221108762311;0.6495361328125;0.251678466796875;1.99999999495049;201;1 A
49.0321108762058;0.6495361328125;0.25054931640625;2.00999999492524;202;1 A
49.0421108761806;0.649627685546875;0.251800537109375;2.01999999489999;203;1 A
49.0521108761553;0.6495361328125;0.252288818359375;2.02999999487474;204;1 A
49.0621108761301;0.649566650390625;0.25238037109375;2.0399999948495;205;1 A
49.0721108761048;0.649627685546875;0.252410888671875;2.04999999482425;206;1 A
49.0821108760796;0.649566650390625;0.256927490234375;2.059999994799;207;1 A
49.0921108760543;0.64959716796875;0.257293701171875;2.06999999477375;208;1 A
49.1021108760291;0.649658203125;0.258270263671875;2.0799999947485;209;1 A
49.1121108760038;0.649566650390625;0.258056640625;2.08999999472326;210;1 A
49.1221108759786;0.649658203125;0.259796142578125;2.09999999469801;211;1 A
49.1321108759533;0.64959716796875;0.259429931640625;2.10999999467276;212;1 A
49.1421108759281;0.649658203125;0.2593994140625;2.11999999464751;213;1 A
49.1521108759028;0.64959716796875;0.25872802734375;2.12999999462227;214;1 A
49.1621108758776;0.649566650390625;0.26300048828125;2.13999999459702;215;1 A
49.1721108758524;0.649688720703125;0.26239013671875;2.14999999457177;216;1 A
49.1821108758271;0.649566650390625;0.261810302734375;2.15999999454652;217;1 A
49.1921108758019;0.64959716796875;0.26031494140625;2.16999999452128;218;1 A
49.2021108757766;0.649505615234375;0.261627197265625;2.17999999449603;219;1 A
49.2121108757514;0.649627685546875;0.2606201171875;2.18999999447078;220;1 A
49.2221108757261;0.64959716796875;0.260345458984375;2.19999999444553;221;1 A
49.2321108757009;0.64959716796875;0.259521484375;2.20999999442029;222;1 A
49.2421108756756;0.64947509765625;0.2635498046875;2.21999999439504;223;1 A
49.2521108756504;0.649505615234375;0.260284423828125;2.22999999436979;224;1 A
49.2621108756251;0.649566650390625;0.258453369140625;2.23999999434454;225;1 A
49.2721108755999;0.649566650390625;0.25628662109375;2.2499999943193;226;1 A
49.2821108755746;0.64959716796875;0.259368896484375;2.25999999429405;227;1 A
49.2921108755494;0.6495361328125;0.25830078125;2.2699999942688;228;1 A
49.3021108755241;0.6495361328125;0.256744384765625;2.27999999424355;229;1 A
49.3121108754989;0.6495361328125;0.255523681640625;2.28999999421831;230;1 A
49.3221108754736;0.649627685546875;0.258514404296875;2.29999999419306;231;1 A
49.3321108754484;0.6495361328125;0.257904052734375;2.30999999416781;232;1 A
49.3421108754231;0.649658203125;0.257171630859375;2.31999999414256;233;1 A
49.3521108753979;0.6495361328125;0.255523681640625;2.32999999411732;234;1 A
49.3621108753727;0.6495361328125;0.2568359375;2.33999999409207;235;1 A
49.3721108753474;0.64959716796875;0.254791259765625;2.34999999406682;236;1 A
49.3821108753222;0.64959716796875;0.252838134765625;2.35999999404157;237;1 A
49.3921108752969;0.64959716796875;0.251556396484375;2.36999999401633;238;1 A
49.4021108752717;0.6495361328125;0.255462646484375;2.37999999399108;239;1 A
49.4121108752464;0.649627685546875;0.25335693359375;2.38999999396583;240;1 A
49.4221108752212;0.649566650390625;0.25262451171875;2.39999999394058;241;1 A
49.4321108751959;0.64959716796875;0.2515869140625;2.40999999391533;242;1 A
49.4421108751707;0.6495361328125;0.25518798828125;2.41999999389009;243;1 A
49.4521108751454;0.649627685546875;0.252899169921875;2.42999999386484;244;1 A
49.4621108751202;0.649505615234375;0.2510986328125;2.43999999383959;245;1 A
49.4721108750949;0.64959716796875;0.250030517578125;2.44999999381434;246;1 A
49.4821108750697;0.649566650390625;0.251953125;2.4599999937891;247;1 A
49.4921108750444;0.64959716796875;0.25079345703125;2.46999999376385;248;1 A
49.5021108750192;0.6495361328125;0.249664306640625;2.4799999937386;249;1 A
49.5121108749939;0.64947509765625;0.249176025390625;2.48999999371335;250;1 A
49.5221108749687;0.6495361328125;0.252166748046875;2.49999999368811;251;1 A
49.5321108749434;0.6495361328125;0.25140380859375;2.50999999366286;252;1 A
49.5421108749182;0.64959716796875;0.251251220703125;2.51999999363761;253;1 A
49.5521108748929;0.6495361328125;0.251220703125;2.52999999361236;254;1 A
49.5621108748677;0.6495361328125;0.25653076171875;2.53999999358712;255;1 A
49.5721108748425;0.64959716796875;0.254638671875;2.54999999356187;256;1 A
49.5821108748172;0.649627685546875;0.253173828125;2.55999999353662;257;1 A
49.592110874792;0.649505615234375;0.252899169921875;2.56999999351137;258;1 A
49.6021108747667;0.6495361328125;0.255462646484375;2.57999999348613;259;1 A
49.6121108747415;0.649566650390625;0.254302978515625;2.58999999346088;260;1 A
49.6221108747162;0.649566650390625;0.253662109375;2.59999999343563;261;1 A
49.632110874691;0.64959716796875;0.25323486328125;2.60999999341038;262;1 A
49.6421108746657;0.64959716796875;0.255889892578125;2.61999999338514;263;1 A
49.6521108746405;0.649688720703125;0.25408935546875;2.62999999335989;264;1 A
49.6621108746152;0.649505615234375;0.25274658203125;2.63999999333464;265;1 A
49.67211087459;0.649566650390625;0.25189208984375;2.64999999330939;266;1 A
49.6821108745647;0.64947509765625;0.255706787109375;2.65999999328415;267;1 A
49.6921108745395;0.64959716796875;0.25531005859375;2.6699999932589;268;1 A
49.7021108745142;0.6495361328125;0.2552490234375;2.67999999323365;269;1 A
49.712110874489;0.649566650390625;0.25592041015625;2.6899999932084;270;1 A
49.7221108744637;0.6495361328125;0.264923095703125;2.69999999318316;271;1 A
49.7321108744385;0.6495361328125;0.26202392578125;2.70999999315791;272;1 A
49.7421108744132;0.649505615234375;0.259490966796875;2.71999999313266;273;1 A
49.752110874388;0.649566650390625;0.258514404296875;2.72999999310741;274;1 A
49.7621108743627;0.649505615234375;0.260498046875;2.73999999308217;275;1 A
49.7721108743375;0.6495361328125;0.258575439453125;2.74999999305692;276;1 A
49.7821108743123;0.649627685546875;0.257598876953125;2.75999999303167;277;1 A
49.792110874287;0.649566650390625;0.2581787109375;2.76999999300642;278;1 A
49.8021108742618;0.649566650390625;0.264251708984375;2.77999999298117;279;1 A
49.8121108742365;0.64959716796875;0.26116943359375;2.78999999295593;280;1 A
49.8221108742113;0.64959716796875;0.259246826171875;2.79999999293068;281;1 A
49.832110874186;0.649566650390625;0.2579345703125;2.80999999290543;282;1 A
49.8421108741608;0.64959716796875;0.26055908203125;2.81999999288018;283;1 A
49.8521108741355;0.649627685546875;0.260162353515625;2.82999999285494;284;1 A
49.8621108741103;0.649627685546875;0.260040283203125;2.83999999282969;285;1 A
49.872110874085;0.649566650390625;0.25994873046875;2.84999999280444;286;1 A
49.8821108740598;0.64947509765625;0.264923095703125;2.85999999277919;287;1 A
49.8921108740345;0.649627685546875;0.262359619140625;2.86999999275395;288;1 A
49.9021108740093;0.6495361328125;0.261077880859375;2.8799999927287;289;1 A
49.912110873984;0.649566650390625;0.259857177734375;2.88999999270345;290;1 A
49.9221108739588;0.64959716796875;0.260528564453125;2.8999999926782;291;1 A
49.9321108739335;0.649566650390625;0.25885009765625;2.90999999265296;292;1 A
49.9421108739083;0.649566650390625;0.25848388671875;2.91999999262771;293;1 A
49.952110873883;0.649505615234375;0.256591796875;2.92999999260246;294;1 A
49.9621108738578;0.6495361328125;0.260498046875;2.93999999257721;295;1 A
49.9721108738325;0.64947509765625;0.2581787109375;2.94999999255197;296;1 A
49.9821108738073;0.649566650390625;0.256744384765625;2.95999999252672;297;1 A
49.9921108737821;0.6495361328125;0.255340576171875;2.96999999250147;298;1 A
50.0021108737568;0.649627685546875;0.256805419921875;2.97999999247622;299;1 A
50.0121108737316;0.649566650390625;0.258209228515625;2.98999999245098;300;1 A
50.0221108737063;0.649658203125;0.2584228515625;2.99999999242573;301;1 A
50.0321108736811;0.649566650390625;0.25677490234375;3.00999999240048;302;1 A
50.0421108736558;0.649627685546875;0.2584228515625;3.01999999237523;303;1 A
50.0521108736306;0.649566650390625;0.25714111328125;3.02999999234999;304;1 A
50.0621108736053;0.649658203125;0.2567138671875;3.03999999232474;305;1 A
50.0721108735801;0.649658203125;0.25555419921875;3.04999999229949;306;1 A
50.0821108735548;0.649566650390625;0.25799560546875;3.05999999227424;307;1 A
50.0921108735296;0.649627685546875;0.2579345703125;3.069999992249;308;1 A
50.1021108735043;0.64959716796875;0.257568359375;3.07999999222375;309;1 A
50.1121108734791;0.649658203125;0.2568359375;3.0899999921985;310;1 A
50.1221108734538;0.64947509765625;0.25933837890625;3.09999999217325;311;1 A
50.1321108734286;0.649658203125;0.25762939453125;3.109999992148;312;1 A
50.1421108734033;0.649505615234375;0.257293701171875;3.11999999212276;313;1 A
50.1521108733781;0.64959716796875;0.255859375;3.12999999209751;314;1 A
50.1621108733528;0.64947509765625;0.257476806640625;3.13999999207226;315;1 A
50.1721108733276;0.6495361328125;0.2559814453125;3.14999999204701;316;1 A
50.1821108733023;0.64947509765625;0.25494384765625;3.15999999202177;317;1 A
50.1921108732771;0.649627685546875;0.25421142578125;3.16999999199652;318;1 A
50.2021108732519;0.649627685546875;0.2569580078125;3.17999999197127;319;1 A
50.2121108732266;0.649505615234375;0.2559814453125;3.18999999194602;320;1 A
50.2221108732014;0.649566650390625;0.256256103515625;3.19999999192078;321;1 A
50.2321108731761;0.6495361328125;0.25701904296875;3.20999999189553;322;1 A
50.2421108731509;0.649566650390625;0.261383056640625;3.21999999187028;323;1 A
50.2521108731256;0.6495361328125;0.2603759765625;3.22999999184503;324;1 A
50.2621108731004;0.649566650390625;0.2593994140625;3.23999999181979;325;1 A
50.2721108730751;0.649627685546875;0.257598876953125;3.24999999179454;326;1 A
50.2821108730499;0.64959716796875;0.258941650390625;3.25999999176929;327;1 A
50.2921108730246;0.64959716796875;0.258331298828125;3.26999999174404;328;1 A
50.3021108729994;0.649658203125;0.257110595703125;3.2799999917188;329;1 A
50.3121108729741;0.649566650390625;0.256317138671875;3.28999999169355;330;1 A
50.3221108729489;0.64959716796875;0.259063720703125;3.2999999916683;331;1 A
50.3321108729236;0.64959716796875;0.259063720703125;3.30999999164305;332;1 A
50.3421108728984;0.64959716796875;0.258880615234375;3.31999999161781;333;1 A
50.3521108728731;0.64959716796875;0.259185791015625;3.32999999159256;334;1 A
50.3621108728479;0.649505615234375;0.264190673828125;3.33999999156731;335;1 A
50.3721108728226;0.64959716796875;0.261627197265625;3.34999999154206;336;1 A
50.3821108727974;0.6495361328125;0.259063720703125;3.35999999151682;337;1 A
50.3921108727722;0.649566650390625;0.256072998046875;3.36999999149157;338;1 A
50.4021108727469;0.649505615234375;0.2567138671875;3.37999999146632;339;1 A
50.4121108727217;0.649566650390625;0.255828857421875;3.38999999144107;340;1 A
50.4221108726964;0.64959716796875;0.25457763671875;3.39999999141583;341;1 A
50.4321108726712;0.6495361328125;0.2537841796875;3.40999999139058;342;1 A
50.4421108726459;0.6495361328125;0.256378173828125;3.41999999136533;343;1 A
50.4521108726207;0.6495361328125;0.25531005859375;3.42999999134008;344;1 A
50.4621108725954;0.64959716796875;0.255157470703125;3.43999999131483;345;1 A
50.4721108725702;0.64959716796875;0.254302978515625;3.44999999128959;346;1 A
50.4821108725449;0.6495361328125;0.256927490234375;3.45999999126434;347;1 A
50.4921108725197;0.6495361328125;0.25634765625;3.46999999123909;348;1 A
50.5021108724944;0.649658203125;0.25494384765625;3.47999999121384;349;1 A
50.5121108724692;0.64959716796875;0.25341796875;3.4899999911886;350;1 A
50.5221108724439;0.649566650390625;0.255706787109375;3.49999999116335;351;1 A
50.5321108724187;0.6495361328125;0.25506591796875;3.5099999911381;352;1 A
50.5421108723934;0.649658203125;0.254302978515625;3.51999999111285;353;1 A
50.5521108723682;0.649627685546875;0.253570556640625;3.52999999108761;354;1 A
50.5621108723429;0.649627685546875;0.25518798828125;3.53999999106236;355;1 A
50.5721108723177;0.649566650390625;0.255218505859375;3.54999999103711;356;1 A
50.5821108722924;0.649566650390625;0.2548828125;3.55999999101186;357;1 A
50.5921108722672;0.649658203125;0.25384521484375;3.56999999098662;358;1 A
50.602110872242;0.6495361328125;0.257598876953125;3.57999999096137;359;1 A
50.6121108722167;0.64959716796875;0.257293701171875;3.58999999093612;360;1 A
50.6221108721915;0.6495361328125;0.255706787109375;3.59999999091087;361;1 A
50.6321108721662;0.64959716796875;0.2537841796875;3.60999999088563;362;1 A
50.642110872141;0.649505615234375;0.25628662109375;3.61999999086038;363;1 A
50.6521108721157;0.649505615234375;0.25537109375;3.62999999083513;364;1 A
50.6621108720905;0.649566650390625;0.254302978515625;3.63999999080988;365;1 A
50.6721108720652;0.6495361328125;0.2530517578125;3.64999999078464;366;1 A
50.68211087204;0.6495361328125;0.256561279296875;3.65999999075939;367;1 A
50.6921108720147;0.64959716796875;0.256805419921875;3.66999999073414;368;1 A
50.7021108719895;0.649658203125;0.256317138671875;3.67999999070889;369;1 A
50.7121108719642;0.6495361328125;0.25494384765625;3.68999999068365;370;1 A
50.722110871939;0.649627685546875;0.257171630859375;3.6999999906584;371;1 A
50.7321108719137;0.6495361328125;0.257080078125;3.70999999063315;372;1 A
50.7421108718885;0.649688720703125;0.2562255859375;3.7199999906079;373;1 A
50.7521108718632;0.649566650390625;0.2562255859375;3.72999999058266;374;1 A
50.762110871838;0.649658203125;0.260833740234375;3.73999999055741;375;1 A
50.7721108718127;0.64959716796875;0.25994873046875;3.74999999053216;376;1 A
50.7821108717875;0.649658203125;0.258941650390625;3.75999999050691;377;1 A
50.7921108717622;0.649658203125;0.25732421875;3.76999999048167;378;1 A
50.802110871737;0.6495361328125;0.2601318359375;3.77999999045642;379;1 A
50.8121108717118;0.64959716796875;0.25775146484375;3.78999999043117;380;1 A
50.8221108716865;0.649566650390625;0.256256103515625;3.79999999040592;381;1 A
50.8321108716613;0.649658203125;0.25445556640625;3.80999999038067;382;1 A
50.842110871636;0.649505615234375;0.2554931640625;3.81999999035543;383;1 A
50.8521108716108;0.649505615234375;0.254669189453125;3.82999999033018;384;1 A
50.8621108715855;0.6495361328125;0.2535400390625;3.83999999030493;385;1 A
50.8721108715603;0.649566650390625;0.252899169921875;3.84999999027968;386;1 A
50.882110871535;0.64947509765625;0.255828857421875;3.85999999025444;387;1 A
50.8921108715098;0.649505615234375;0.25482177734375;3.86999999022919;388;1 A
50.9021108714845;0.64959716796875;0.253326416015625;3.87999999020394;389;1 A
50.9121108714593;0.64959716796875;0.25146484375;3.88999999017869;390;1 A
50.922110871434;0.649505615234375;0.25347900390625;3.89999999015345;391;1 A
50.9321108714088;0.6495361328125;0.251708984375;3.9099999901282;392;1 A
50.9421108713835;0.64959716796875;0.250732421875;3.91999999010295;393;1 A
50.9521108713583;0.649627685546875;0.250244140625;3.9299999900777;394;1 A
50.962110871333;0.649566650390625;0.252044677734375;3.93999999005246;395;1 A
50.9721108713078;0.6495361328125;0.2506103515625;3.94999999002721;396;1 A
50.9821108712825;0.649627685546875;0.250244140625;3.95999999000196;397;1 A
50.9921108712573;0.64959716796875;0.2493896484375;3.96999998997671;398;1 A
51.002110871232;0.6495361328125;0.253662109375;3.97999998995147;399;1 A
51.0121108712068;0.64959716796875;0.2528076171875;3.98999998992622;400;1 A
51.0221108711816;0.649627685546875;0.251373291015625;3.99999998990097;401;1 A
51.0321108711563;0.649627685546875;0.249725341796875;4.00999998987572;402;1 A
51.0421108711311;0.64959716796875;0.251373291015625;4.01999998985048;403;1 A
51.0521108711058;0.64959716796875;0.252227783203125;4.02999998982523;404;1 A
51.0621108710806;0.649627685546875;0.25079345703125;4.03999998979998;405;1 A
51.0721108710553;0.649627685546875;0.24853515625;4.04999998977473;406;1 A
51.0821108710301;0.649444580078125;0.24951171875;4.05999998974949;407;1 A
51.0921108710048;0.649627685546875;0.2491455078125;4.06999998972424;408;1 A
51.1021108709796;0.64959716796875;0.2486572265625;4.07999998969899;409;1 A
51.1121108709543;0.64959716796875;0.247802734375;4.08999998967374;410;1 A
51.1221108709291;0.6495361328125;0.251708984375;4.0999999896485;411;1 A
51.1321108709038;0.649505615234375;0.251251220703125;4.10999998962325;412;1 A
51.1421108708786;0.64959716796875;0.251068115234375;4.119999989598;413;1 A
51.1521108708533;0.649566650390625;0.250244140625;4.12999998957275;414;1 A
51.1621108708281;0.649566650390625;0.251373291015625;4.1399999895475;415;1 A
51.1721108708028;0.649566650390625;0.250885009765625;4.14999998952226;416;1 A
51.1821108707776;0.649658203125;0.250091552734375;4.15999998949701;417;1 A
51.1921108707523;0.64959716796875;0.249725341796875;4.16999998947176;418;1 A
51.2021108707271;0.649566650390625;0.254150390625;4.17999998944651;419;1 A
51.2121108707018;0.64923095703125;0.253448486328125;4.18999998942127;420;1 A
51.2221108706766;0.649505615234375;0.252899169921875;4.19999998939602;421;1 A
51.2321108706514;0.649658203125;0.25042724609375;4.20999998937077;422;1 A
51.2421108706261;0.649566650390625;0.2520751953125;4.21999998934552;423;1 A
51.2521108706009;0.649566650390625;0.2513427734375;4.22999998932028;424;1 A
51.2621108705756;0.649658203125;0.250091552734375;4.23999998929503;425;1 A
51.2721108705504;0.649627685546875;0.248931884765625;4.24999998926978;426;1 A
51.2821108705251;0.649566650390625;0.25146484375;4.25999998924453;427;1 A
51.2921108704999;0.649627685546875;0.24908447265625;4.26999998921929;428;1 A
51.3021108704746;0.64959716796875;0.247222900390625;4.27999998919404;429;1 A
51.3121108704494;0.64959716796875;0.24603271484375;4.28999998916879;430;1 A
51.3221108704241;0.649566650390625;0.248504638671875;4.29999998914354;431;1 A
51.3321108703989;0.6495361328125;0.247833251953125;4.3099999891183;432;1 A
51.3421108703736;0.6495361328125;0.246185302734375;4.31999998909305;433;1 A
51.3521108703484;0.649627685546875;0.24554443359375;4.3299999890678;434;1 A
51.3621108703231;0.6495361328125;0.25018310546875;4.33999998904255;435;1 A
51.3721108702979;0.6495361328125;0.2498779296875;4.34999998901731;436;1 A
51.3821108702726;0.6495361328125;0.249755859375;4.35999998899206;437;1 A
51.3921108702474;0.64959716796875;0.248504638671875;4.36999998896681;438;1 A
51.4021108702221;0.649566650390625;0.248199462890625;4.37999998894156;439;1 A
51.4121108701969;0.649566650390625;0.246856689453125;4.38999998891632;440;1 A
51.4221108701717;0.649627685546875;0.245697021484375;4.39999998889107;441;1 A
51.4321108701464;0.649566650390625;0.245025634765625;4.40999998886582;442;1 A
51.4421108701212;0.649627685546875;0.247467041015625;4.41999998884057;443;1 A
51.4521108700959;0.64959716796875;0.24822998046875;4.42999998881533;444;1 A
51.4621108700707;0.649658203125;0.246856689453125;4.43999998879008;445;1 A
51.4721108700454;0.649627685546875;0.245391845703125;4.44999998876483;446;1 A
51.4821108700202;0.64959716796875;0.24798583984375;4.45999998873958;447;1 A
51.4921108699949;0.64959716796875;0.247100830078125;4.46999998871433;448;1 A
51.5021108699697;0.649627685546875;0.246337890625;4.47999998868909;449;1 A
51.5121108699444;0.649658203125;0.244903564453125;4.48999998866384;450;1 A
51.5221108699192;0.649627685546875;0.24676513671875;4.49999998863859;451;1 A
51.5321108698939;0.649627685546875;0.247772216796875;4.50999998861334;452;1 A
51.5421108698687;0.64959716796875;0.247833251953125;4.5199999885881;453;1 A
51.5521108698434;0.649627685546875;0.247467041015625;4.52999998856285;454;1 A
51.5621108698182;0.649505615234375;0.249176025390625;4.5399999885376;455;1 A
51.5721108697929;0.6495361328125;0.25067138671875;4.54999998851235;456;1 A
51.5821108697677;0.649566650390625;0.251495361328125;4.55999998848711;457;1 A
51.5921108697424;0.64959716796875;0.251495361328125;4.56999998846186;458;1 A
51.6021108697172;0.649566650390625;0.254364013671875;4.57999998843661;459;1 A
51.6121108696919;0.6495361328125;0.25482177734375;4.58999998841136;460;1 A
51.6221108696667;0.649627685546875;0.25567626953125;4.59999998838612;461;1 A
51.6321108696415;0.64959716796875;0.254425048828125;4.60999998836087;462;1 A
51.6421108696162;0.64959716796875;0.255889892578125;4.61999998833562;463;1 A
51.652110869591;0.6495361328125;0.256591796875;4.62999998831037;464;1 A
51.6621108695657;0.649688720703125;0.256683349609375;4.63999998828513;465;1 A
51.6721108695405;0.64959716796875;0.2548828125;4.64999998825988;466;1 A
51.6821108695152;0.64959716796875;0.257476806640625;4.65999998823463;467;1 A
51.69211086949;0.649505615234375;0.25640869140625;4.66999998820938;468;1 A
51.7021108694647;0.649658203125;0.255859375;4.67999998818414;469;1 A
51.7121108694395;0.649658203125;0.25421142578125;4.68999998815889;470;1 A
51.7221108694142;0.649505615234375;0.255615234375;4.69999998813364;471;1 A
51.732110869389;0.64959716796875;0.256195068359375;4.70999998810839;472;1 A
51.7421108693637;0.649627685546875;0.25640869140625;4.71999998808315;473;1 A
51.7521108693385;0.64959716796875;0.2557373046875;4.7299999880579;474;1 A
51.7621108693132;0.64959716796875;0.256195068359375;4.73999998803265;475;1 A
51.772110869288;0.649627685546875;0.256134033203125;4.7499999880074;476;1 A
51.7821108692627;0.64959716796875;0.255126953125;4.75999998798216;477;1 A
51.7921108692375;0.649658203125;0.253662109375;4.76999998795691;478;1 A
51.8021108692122;0.64947509765625;0.256195068359375;4.77999998793166;479;1 A
51.812110869187;0.649566650390625;0.25408935546875;4.78999998790641;480;1 A
51.8221108691617;0.6495361328125;0.252716064453125;4.79999998788116;481;1 A
51.8321108691365;0.649658203125;0.251495361328125;4.80999998785592;482;1 A
51.8421108691113;0.649505615234375;0.25396728515625;4.81999998783067;483;1 A
51.852110869086;0.6495361328125;0.2523193359375;4.82999998780542;484;1 A
51.8621108690608;0.649566650390625;0.251556396484375;4.83999998778017;485;1 A
51.8721108690355;0.649627685546875;0.251434326171875;4.84999998775493;486;1 A
51.8821108690103;0.6495361328125;0.255157470703125;4.85999998772968;487;1 A
51.892110868985;0.649505615234375;0.254364013671875;4.86999998770443;488;1 A
51.9021108689598;0.64959716796875;0.253509521484375;4.87999998767918;489;1 A
51.9121108689345;0.649627685546875;0.253326416015625;4.88999998765394;490;1 A
51.9221108689093;0.64959716796875;0.2574462890625;4.89999998762869;491;1 A
51.932110868884;0.649627685546875;0.255584716796875;4.90999998760344;492;1 A
51.9421108688588;0.649658203125;0.253753662109375;4.91999998757819;493;1 A
51.9521108688335;0.649627685546875;0.252655029296875;4.92999998755295;494;1 A
51.9621108688083;0.649566650390625;0.255706787109375;4.9399999875277;495;1 A
51.972110868783;0.64959716796875;0.25439453125;4.94999998750245;496;1 A
51.9821108687578;0.649627685546875;0.252960205078125;4.9599999874772;497;1 A
51.9921108687325;0.649658203125;0.25238037109375;4.96999998745196;498;1 A
52.0021108687073;0.6495361328125;0.2545166015625;4.97999998742671;499;1 A
52.012110868682;0.649627685546875;0.254364013671875;4.98999998740146;500;1 A
52.0221108686568;0.649566650390625;0.253570556640625;4.99999998737621;501;1 A
52.0321108686315;0.649627685546875;0.252838134765625;5.00999998735097;502;1 A
52.0421108686063;0.649444580078125;0.25628662109375;5.01999998732572;503;1 A
52.0521108685811;0.649505615234375;0.25628662109375;5.02999998730047;504;1 A
52.0621108685558;0.6495361328125;0.25555419921875;5.03999998727522;505;1 A
52.0721108685306;0.64959716796875;0.255035400390625;5.04999998724998;506;1 A
52.0821108685053;0.64959716796875;0.2586669921875;5.05999998722473;507;1 A
52.0921108684801;0.64947509765625;0.258087158203125;5.06999998719948;508;1 A
52.1021108684548;0.649566650390625;0.256988525390625;5.07999998717423;509;1 A
52.1121108684296;0.64959716796875;0.2552490234375;5.08999998714899;510;1 A
52.1221108684043;0.6495361328125;0.258209228515625;5.09999998712374;511;1 A
52.1321108683791;0.6495361328125;0.258209228515625;5.10999998709849;512;1 A
52.1421108683538;0.649658203125;0.257049560546875;5.11999998707324;513;1 A
52.1521108683286;0.649688720703125;0.254486083984375;5.129999987048;514;1 A
52.1621108683033;0.64959716796875;0.25860595703125;5.13999998702275;515;1 A
52.1721108682781;0.649566650390625;0.25762939453125;5.1499999869975;516;1 A
52.1821108682528;0.649658203125;0.255462646484375;5.15999998697225;517;1 A
52.1921108682276;0.649658203125;0.253448486328125;5.169999986947;518;1 A
52.2021108682023;0.6495361328125;0.25543212890625;5.17999998692176;519;1 A
52.2121108681771;0.64959716796875;0.254119873046875;5.18999998689651;520;1 A
52.2221108681518;0.649566650390625;0.25372314453125;5.19999998687126;521;1 A
52.2321108681266;0.649688720703125;0.253082275390625;5.20999998684601;522;1 A
52.2421108681013;0.6495361328125;0.254791259765625;5.21999998682077;523;1 A
52.2521108680761;0.649566650390625;0.25390625;5.22999998679552;524;1 A
52.2621108680509;0.649505615234375;0.252471923828125;5.23999998677027;525;1 A
52.2721108680256;0.649627685546875;0.250701904296875;5.24999998674502;526;1 A
52.2821108680004;0.649505615234375;0.25299072265625;5.25999998671978;527;1 A
52.2921108679751;0.6495361328125;0.252105712890625;5.26999998669453;528;1 A
52.3021108679499;0.649566650390625;0.25146484375;5.27999998666928;529;1 A
52.3121108679246;0.649627685546875;0.251190185546875;5.28999998664403;530;1 A
52.3221108678994;0.649566650390625;0.25274658203125;5.29999998661879;531;1 A
52.3321108678741;0.649505615234375;0.252655029296875;5.30999998659354;532;1 A
52.3421108678489;0.649566650390625;0.2520751953125;5.31999998656829;533;1 A
52.3521108678236;0.649566650390625;0.250457763671875;5.32999998654304;534;1 A
52.3621108677984;0.649505615234375;0.2528076171875;5.3399999865178;535;1 A
52.3721108677731;0.649566650390625;0.251312255859375;5.34999998649255;536;1 A
52.3821108677479;0.649688720703125;0.2503662109375;5.3599999864673;537;1 A
52.3921108677226;0.649627685546875;0.250244140625;5.36999998644205;538;1 A
52.4021108676974;0.64959716796875;0.25299072265625;5.37999998641681;539;1 A
52.4121108676721;0.649566650390625;0.25286865234375;5.38999998639156;540;1 A
52.4221108676469;0.649627685546875;0.252777099609375;5.39999998636631;541;1 A
52.4321108676216;0.649688720703125;0.25274658203125;5.40999998634106;542;1 A
52.4421108675964;0.6495361328125;0.256195068359375;5.41999998631582;543;1 A
52.4521108675712;0.649566650390625;0.254241943359375;5.42999998629057;544;1 A
52.4621108675459;0.649505615234375;0.252716064453125;5.43999998626532;545;1 A
52.4721108675207;0.64971923828125;0.25128173828125;5.44999998624007;546;1 A
52.4821108674954;0.649505615234375;0.253143310546875;5.45999998621483;547;1 A
52.4921108674702;0.649627685546875;0.253204345703125;5.46999998618958;548;1 A
52.5021108674449;0.64959716796875;0.252288818359375;5.47999998616433;549;1 A
52.5121108674197;0.649627685546875;0.251983642578125;5.48999998613908;550;1 A
52.5221108673944;0.649566650390625;0.2559814453125;5.49999998611383;551;1 A
52.5321108673692;0.6495361328125;0.25457763671875;5.50999998608859;552;1 A
52.5421108673439;0.649505615234375;0.25360107421875;5.51999998606334;553;1 A
52.5521108673187;0.649627685546875;0.252716064453125;5.52999998603809;554;1 A
52.5621108672934;0.6495361328125;0.255767822265625;5.53999998601284;555;1 A
52.5721108672682;0.6495361328125;0.25439453125;5.5499999859876;556;1 A
52.5821108672429;0.649658203125;0.253753662109375;5.55999998596235;557;1 A
52.5921108672177;0.64959716796875;0.253692626953125;5.5699999859371;558;1 A
52.6021108671924;0.64959716796875;0.256500244140625;5.57999998591185;559;1 A
52.6121108671672;0.64959716796875;0.25616455078125;5.58999998588661;560;1 A
52.6221108671419;0.649658203125;0.255462646484375;5.59999998586136;561;1 A
52.6321108671167;0.649688720703125;0.25469970703125;5.60999998583611;562;1 A
52.6421108670914;0.6495361328125;0.255767822265625;5.61999998581086;563;1 A
52.6521108670662;0.6495361328125;0.258087158203125;5.62999998578562;564;1 A
52.662110867041;0.6495361328125;0.25994873046875;5.63999998576037;565;1 A
52.6721108670157;0.649658203125;0.25811767578125;5.64999998573512;566;1 A
52.6821108669905;0.6495361328125;0.26409912109375;5.65999998570987;567;1 A
52.6921108669652;0.64959716796875;0.262786865234375;5.66999998568463;568;1 A
52.70211086694;0.6495361328125;0.26263427734375;5.67999998565938;569;1 A
52.7121108669147;0.649627685546875;0.26220703125;5.68999998563413;570;1 A
52.7221108668895;0.649444580078125;0.266357421875;5.69999998560888;571;1 A
52.7321108668642;0.64959716796875;0.2650146484375;5.70999998558364;572;1 A
52.742110866839;0.649505615234375;0.263885498046875;5.71999998555839;573;1 A
52.7521108668137;0.64959716796875;0.26287841796875;5.72999998553314;574;1 A
52.7621108667885;0.649444580078125;0.264373779296875;5.73999998550789;575;1 A
52.7721108667632;0.649566650390625;0.261810302734375;5.74999998548265;576;1 A
52.782110866738;0.649566650390625;0.260406494140625;5.7599999854574;577;1 A
52.7921108667127;0.649566650390625;0.259246826171875;5.76999998543215;578;1 A
52.8021108666875;0.649505615234375;0.264007568359375;5.7799999854069;579;1 A
52.8121108666622;0.649566650390625;0.26031494140625;5.78999998538166;580;1 A
52.822110866637;0.649566650390625;0.25799560546875;5.79999998535641;581;1 A
52.8321108666117;0.649627685546875;0.25701904296875;5.80999998533116;582;1 A
52.8421108665865;0.6495361328125;0.25994873046875;5.81999998530591;583;1 A
52.8521108665612;0.64959716796875;0.257965087890625;5.82999998528066;584;1 A
52.862110866536;0.649658203125;0.256927490234375;5.83999998525542;585;1 A
52.8721108665108;0.64959716796875;0.2557373046875;5.84999998523017;586;1 A
52.8821108664855;0.649505615234375;0.262939453125;5.85999998520492;587;1 A
52.8921108664603;0.649658203125;0.259033203125;5.86999998517967;588;1 A
52.902110866435;0.649566650390625;0.25543212890625;5.87999998515443;589;1 A
52.9121108664098;0.649627685546875;0.253448486328125;5.88999998512918;590;1 A
52.9221108663845;0.649566650390625;0.2559814453125;5.89999998510393;591;1 A
52.9321108663593;0.64959716796875;0.25433349609375;5.90999998507868;592;1 A
52.942110866334;0.6495361328125;0.25311279296875;5.91999998505344;593;1 A
52.9521108663088;0.64959716796875;0.253082275390625;5.92999998502819;594;1 A
52.9621108662835;0.6495361328125;0.2576904296875;5.93999998500294;595;1 A
52.9721108662583;0.6495361328125;0.25567626953125;5.94999998497769;596;1 A
52.982110866233;0.649566650390625;0.254302978515625;5.95999998495245;597;1 A
52.9921108662078;0.649627685546875;0.253265380859375;5.9699999849272;598;1 A
53.0021108661825;0.6495361328125;0.25372314453125;5.97999998490195;599;1 A
53.0121108661573;0.649566650390625;0.253936767578125;5.9899999848767;600;1 A
53.022110866132;0.64959716796875;0.25372314453125;5.99999998485146;601;1 A
53.0321108661068;0.6495361328125;0.253875732421875;6.00999998482621;602;1 A
53.0421108660815;0.649658203125;0.2572021484375;6.01999998480096;603;1 A
53.0521108660563;0.649566650390625;0.25634765625;6.02999998477571;604;1 A
53.062110866031;0.649627685546875;0.25616455078125;6.03999998475047;605;1 A
53.0721108660058;0.649688720703125;0.25494384765625;6.04999998472522;606;1 A
53.0821108659806;0.649566650390625;0.25872802734375;6.05999998469997;607;1 A
53.0921108659553;0.649505615234375;0.25701904296875;6.06999998467472;608;1 A
53.1021108659301;0.64959716796875;0.255889892578125;6.07999998464948;609;1 A
53.1121108659048;0.649658203125;0.254730224609375;6.08999998462423;610;1 A
53.1221108658796;0.649566650390625;0.258270263671875;6.09999998459898;611;1 A
53.1321108658543;0.649566650390625;0.25811767578125;6.10999998457373;612;1 A
53.1421108658291;0.649505615234375;0.2586669921875;6.11999998454849;613;1 A
53.1521108658038;0.649658203125;0.25799560546875;6.12999998452324;614;1 A
53.1621108657786;0.649505615234375;0.2601318359375;6.13999998449799;615;1 A
53.1721108657533;0.64959716796875;0.259429931640625;6.14999998447274;616;1 A
53.1821108657281;0.64947509765625;0.259063720703125;6.1599999844475;617;1 A
53.1921108657028;0.649627685546875;0.257568359375;6.16999998442225;618;1 A
53.2021108656776;0.6495361328125;0.258880615234375;6.179999984397;619;1 A
53.2121108656523;0.64947509765625;0.258270263671875;6.18999998437175;620;1 A
53.2221108656271;0.64959716796875;0.258514404296875;6.1999999843465;621;1 A
53.2321108656018;0.649566650390625;0.258636474609375;6.20999998432126;622;1 A
53.2421108655766;0.6495361328125;0.26214599609375;6.21999998429601;623;1 A
53.2521108655513;0.649505615234375;0.260101318359375;6.22999998427076;624;1 A
53.2621108655261;0.6495361328125;0.258941650390625;6.23999998424551;625;1 A
53.2721108655008;0.64959716796875;0.258026123046875;6.24999998422027;626;1 A
53.2821108654756;0.64959716796875;0.26025390625;6.25999998419502;627;1 A
53.2921108654504;0.6495361328125;0.25909423828125;6.26999998416977;628;1 A
53.3021108654251;0.649627685546875;0.258575439453125;6.27999998414452;629;1 A
53.3121108653999;0.649566650390625;0.258026123046875;6.28999998411928;630;1 A
53.3221108653746;0.64959716796875;0.260528564453125;6.29999998409403;631;1 A
53.3321108653494;0.64959716796875;0.260467529296875;6.30999998406878;632;1 A
53.3421108653241;0.6495361328125;0.2591552734375;6.31999998404353;633;1 A
53.3521108652989;0.649658203125;0.258209228515625;6.32999998401829;634;1 A
53.3621108652736;0.649566650390625;0.2615966796875;6.33999998399304;635;1 A
53.3721108652484;0.649627685546875;0.259063720703125;6.34999998396779;636;1 A
53.3821108652231;0.64947509765625;0.25787353515625;6.35999998394254;637;1 A
53.3921108651979;0.649627685546875;0.2564697265625;6.3699999839173;638;1 A
53.4021108651726;0.64947509765625;0.2578125;6.37999998389205;639;1 A
53.4121108651474;0.649566650390625;0.256805419921875;6.3899999838668;640;1 A
53.4221108651221;0.649505615234375;0.254974365234375;6.39999998384155;641;1 A
53.4321108650969;0.649658203125;0.25225830078125;6.40999998381631;642;1 A
53.4421108650716;0.64947509765625;0.25042724609375;6.41999998379106;643;1 A
53.4521108650464;0.6495361328125;0.249542236328125;6.42999998376581;644;1 A
53.4621108650211;0.649505615234375;0.24884033203125;6.43999998374056;645;1 A
53.4721108649959;0.649627685546875;0.247894287109375;6.44999998371532;646;1 A
53.4821108649707;0.64959716796875;0.2510986328125;6.45999998369007;647;1 A
53.4921108649454;0.649505615234375;0.2491455078125;6.46999998366482;648;1 A
53.5021108649202;0.649627685546875;0.248565673828125;6.47999998363957;649;1 A
53.5121108648949;0.649627685546875;0.2476806640625;6.48999998361433;650;1 A
53.5221108648697;0.649566650390625;0.253021240234375;6.49999998358908;651;1 A
53.5321108648444;0.649566650390625;0.251007080078125;6.50999998356383;652;1 A
53.5421108648192;0.649566650390625;0.250030517578125;6.51999998353858;653;1 A
53.5521108647939;0.649658203125;0.24755859375;6.52999998351333;654;1 A
53.5621108647687;0.64959716796875;0.25018310546875;6.53999998348809;655;1 A
53.5721108647434;0.649627685546875;0.24945068359375;6.54999998346284;656;1 A
53.5821108647182;0.649566650390625;0.248931884765625;6.55999998343759;657;1 A
53.5921108646929;0.649688720703125;0.246917724609375;6.56999998341234;658;1 A
53.6021108646677;0.6495361328125;0.24774169921875;6.5799999833871;659;1 A
53.6121108646424;0.64959716796875;0.245819091796875;6.58999998336185;660;1 A
53.6221108646172;0.6495361328125;0.244384765625;6.5999999833366;661;1 A
53.6321108645919;0.649658203125;0.243377685546875;6.60999998331135;662;1 A
53.6421108645667;0.649505615234375;0.246002197265625;6.61999998328611;663;1 A
53.6521108645414;0.649566650390625;0.24530029296875;6.62999998326086;664;1 A
53.6621108645162;0.649566650390625;0.24432373046875;6.63999998323561;665;1 A
53.6721108644909;0.649658203125;0.242523193359375;6.64999998321036;666;1 A
53.6821108644657;0.649566650390625;0.243133544921875;6.65999998318512;667;1 A
53.6921108644405;0.64947509765625;0.2431640625;6.66999998315987;668;1 A
53.7021108644152;0.649566650390625;0.24310302734375;6.67999998313462;669;1 A
53.71211086439;0.64959716796875;0.2423095703125;6.68999998310937;670;1 A
53.7221108643647;0.649627685546875;0.2449951171875;6.69999998308413;671;1 A
53.7321108643395;0.64959716796875;0.244415283203125;6.70999998305888;672;1 A
53.7421108643142;0.649566650390625;0.244140625;6.71999998303363;673;1 A
53.752110864289;0.649688720703125;0.243011474609375;6.72999998300838;674;1 A
53.7621108642637;0.649627685546875;0.246917724609375;6.73999998298314;675;1 A
53.7721108642385;0.649566650390625;0.24658203125;6.74999998295789;676;1 A
53.7821108642132;0.64959716796875;0.245361328125;6.75999998293264;677;1 A
53.792110864188;0.649658203125;0.244140625;6.76999998290739;678;1 A
53.8021108641627;0.64959716796875;0.245208740234375;6.77999998288215;679;1 A
53.8121108641375;0.64959716796875;0.24578857421875;6.7899999828569;680;1 A
53.8221108641122;0.649566650390625;0.246246337890625;6.79999998283165;681;1 A
53.832110864087;0.649658203125;0.245849609375;6.8099999828064;682;1 A
53.8421108640617;0.649505615234375;0.247894287109375;6.81999998278116;683;1 A
53.8521108640365;0.64959716796875;0.24761962890625;6.82999998275591;684;1 A
53.8621108640112;0.649566650390625;0.24755859375;6.83999998273066;685;1 A
53.872110863986;0.649627685546875;0.248291015625;6.84999998270541;686;1 A
53.8821108639607;0.64947509765625;0.253082275390625;6.85999998268016;687;1 A
53.8921108639355;0.6495361328125;0.249664306640625;6.86999998265492;688;1 A
53.9021108639103;0.649566650390625;0.248199462890625;6.87999998262967;689;1 A
53.912110863885;0.64959716796875;0.2471923828125;6.88999998260442;690;1 A
53.9221108638598;0.649505615234375;0.248809814453125;6.89999998257917;691;1 A
53.9321108638345;0.649627685546875;0.248687744140625;6.90999998255393;692;1 A
53.9421108638093;0.64959716796875;0.247894287109375;6.91999998252868;693;1 A
53.952110863784;0.649688720703125;0.247283935546875;6.92999998250343;694;1 A
53.9621108637588;0.64959716796875;0.248931884765625;6.93999998247818;695;1 A
53.9721108637335;0.6495361328125;0.251617431640625;6.94999998245294;696;1 A
53.9821108637083;0.649627685546875;0.25067138671875;6.95999998242769;697;1 A
53.992110863683;0.649688720703125;0.2486572265625;6.96999998240244;698;1 A
54.0021108636578;0.649566650390625;0.249603271484375;6.97999998237719;699;1 A
54.0121108636325;0.649566650390625;0.248779296875;6.98999998235195;700;1 A
