Time (s);WE(1).Potential (V);WE(1).Current (A);Corrected time (s);Index;Current range
70.3117618224799;0.700927734375;1.03271484375;0;1;1 A
70.3217618224546;0.70013427734375;0.74554443359375;0.00999999997475243;2;1 A
70.3317618224294;0.69964599609375;0.6146240234375;0.0199999999495049;3;1 A
70.3417618224041;0.699798583984375;0.53497314453125;0.0299999999242573;4;1 A
70.3517618223789;0.699737548828125;0.48065185546875;0.0399999998990097;5;1 A
70.3617618223536;0.69989013671875;0.442138671875;0.0499999998737621;6;1 A
70.3717618223284;0.6995849609375;0.411773681640625;0.0599999998485146;7;1 A
70.3817618223031;0.69970703125;0.38690185546875;0.069999999823267;8;1 A
70.3917618222779;0.699737548828125;0.366912841796875;0.0799999997980194;9;1 A
70.4017618222526;0.69976806640625;0.35113525390625;0.0899999997727718;10;1 A
70.4117618222274;0.6995849609375;0.33782958984375;0.0999999997475243;11;1 A
70.4217618222021;0.69964599609375;0.32720947265625;0.109999999722277;12;1 A
70.4317618221769;0.69970703125;0.3182373046875;0.119999999697029;13;1 A
70.4417618221516;0.699737548828125;0.311065673828125;0.129999999671782;14;1 A
70.4517618221264;0.699554443359375;0.303802490234375;0.139999999646534;15;1 A
70.4617618221012;0.6995849609375;0.2972412109375;0.149999999621286;16;1 A
70.4717618220759;0.69964599609375;0.29180908203125;0.159999999596039;17;1 A
70.4817618220507;0.69964599609375;0.287261962890625;0.169999999570791;18;1 A
70.4917618220254;0.6995849609375;0.28228759765625;0.179999999545544;19;1 A
70.5017618220002;0.699554443359375;0.278228759765625;0.189999999520296;20;1 A
70.5117618219749;0.69970703125;0.27520751953125;0.199999999495049;21;1 A
70.5217618219497;0.6995849609375;0.273712158203125;0.209999999469801;22;1 A
70.5317618219244;0.699493408203125;0.2718505859375;0.219999999444553;23;1 A
70.5417618218992;0.699554443359375;0.27081298828125;0.229999999419306;24;1 A
70.5517618218739;0.69970703125;0.26959228515625;0.239999999394058;25;1 A
70.5617618218487;0.699737548828125;0.26922607421875;0.249999999368811;26;1 A
70.5717618218234;0.699615478515625;0.268035888671875;0.259999999343563;27;1 A
70.5817618217982;0.69970703125;0.26702880859375;0.269999999318316;28;1 A
70.5917618217729;0.699676513671875;0.265625;0.279999999293068;29;1 A
70.6017618217477;0.69970703125;0.264068603515625;0.28999999926782;30;1 A
70.6117618217224;0.699554443359375;0.261749267578125;0.299999999242573;31;1 A
70.6217618216972;0.699615478515625;0.260833740234375;0.309999999217325;32;1 A
70.6317618216719;0.69964599609375;0.25970458984375;0.319999999192078;33;1 A
70.6417618216467;0.69964599609375;0.2596435546875;0.32999999916683;34;1 A
70.6517618216214;0.6995849609375;0.258758544921875;0.339999999141583;35;1 A
70.6617618215962;0.699615478515625;0.2596435546875;0.349999999116335;36;1 A
70.671761821571;0.699676513671875;0.2596435546875;0.359999999091087;37;1 A
70.6817618215457;0.699615478515625;0.260833740234375;0.36999999906584;38;1 A
70.6917618215205;0.69952392578125;0.260498046875;0.379999999040592;39;1 A
70.7017618214952;0.699615478515625;0.262359619140625;0.389999999015345;40;1 A
70.71176182147;0.69970703125;0.260894775390625;0.399999998990097;41;1 A
70.7217618214447;0.69964599609375;0.25982666015625;0.40999999896485;42;1 A
70.7317618214195;0.699554443359375;0.2579345703125;0.419999998939602;43;1 A
70.7417618213942;0.699554443359375;0.264434814453125;0.429999998914354;44;1 A
70.751761821369;0.69970703125;0.26171875;0.439999998889107;45;1 A
70.7617618213437;0.699615478515625;0.259490966796875;0.449999998863859;46;1 A
70.7717618213185;0.6995849609375;0.25653076171875;0.459999998838612;47;1 A
70.7817618212932;0.699615478515625;0.2579345703125;0.469999998813364;48;1 A
70.791761821268;0.69970703125;0.25762939453125;0.479999998788116;49;1 A
70.8017618212427;0.69970703125;0.256561279296875;0.489999998762869;50;1 A
70.8117618212175;0.699615478515625;0.2552490234375;0.499999998737621;51;1 A
70.8217618211922;0.699615478515625;0.25848388671875;0.509999998712374;52;1 A
70.831761821167;0.699676513671875;0.25714111328125;0.519999998687126;53;1 A
70.8417618211417;0.69970703125;0.255401611328125;0.529999998661879;54;1 A
70.8517618211165;0.6995849609375;0.25421142578125;0.539999998636631;55;1 A
70.8617618210912;0.6995849609375;0.259063720703125;0.549999998611383;56;1 A
70.871761821066;0.69970703125;0.256317138671875;0.559999998586136;57;1 A
70.8817618210408;0.699676513671875;0.255126953125;0.569999998560888;58;1 A
70.8917618210155;0.699554443359375;0.253997802734375;0.579999998535641;59;1 A
70.9017618209903;0.6995849609375;0.25604248046875;0.589999998510393;60;1 A
70.911761820965;0.699676513671875;0.2559814453125;0.599999998485146;61;1 A
70.9217618209398;0.699615478515625;0.256011962890625;0.609999998459898;62;1 A
70.9317618209145;0.699615478515625;0.25543212890625;0.61999999843465;63;1 A
70.9417618208893;0.699615478515625;0.257415771484375;0.629999998409403;64;1 A
70.951761820864;0.69964599609375;0.256378173828125;0.639999998384155;65;1 A
70.9617618208388;0.699676513671875;0.25592041015625;0.649999998358908;66;1 A
70.9717618208135;0.69964599609375;0.254913330078125;0.65999999833366;67;1 A
70.9817618207883;0.699676513671875;0.255401611328125;0.669999998308413;68;1 A
70.991761820763;0.69970703125;0.253265380859375;0.679999998283165;69;1 A
71.0017618207378;0.699676513671875;0.25213623046875;0.689999998257917;70;1 A
71.0117618207125;0.6995849609375;0.25054931640625;0.69999999823267;71;1 A
71.0217618206873;0.699615478515625;0.252471923828125;0.709999998207422;72;1 A
71.031761820662;0.699676513671875;0.250885009765625;0.719999998182175;73;1 A
71.0417618206368;0.69970703125;0.249603271484375;0.729999998156927;74;1 A
71.0517618206115;0.6995849609375;0.249267578125;0.73999999813168;75;1 A
71.0617618205863;0.69964599609375;0.25390625;0.749999998106432;76;1 A
71.0717618205611;0.69970703125;0.253936767578125;0.759999998081184;77;1 A
71.0817618205358;0.69964599609375;0.2552490234375;0.769999998055937;78;1 A
71.0917618205106;0.699554443359375;0.25567626953125;0.779999998030689;79;1 A
71.1017618204853;0.699615478515625;0.261383056640625;0.789999998005442;80;1 A
71.1117618204601;0.699615478515625;0.260650634765625;0.799999997980194;81;1 A
71.1217618204348;0.69964599609375;0.260040283203125;0.809999997954947;82;1 A
71.1317618204096;0.69952392578125;0.2589111328125;0.819999997929699;83;1 A
71.1417618203843;0.699554443359375;0.26275634765625;0.829999997904451;84;1 A
71.1517618203591;0.69964599609375;0.26348876953125;0.839999997879204;85;1 A
71.1617618203338;0.699615478515625;0.260009765625;0.849999997853956;86;1 A
71.1717618203086;0.699615478515625;0.256134033203125;0.859999997828709;87;1 A
71.1817618202833;0.699615478515625;0.2578125;0.869999997803461;88;1 A
71.1917618202581;0.69964599609375;0.256317138671875;0.879999997778214;89;1 A
71.2017618202328;0.699676513671875;0.2559814453125;0.889999997752966;90;1 A
71.2117618202076;0.69964599609375;0.25518798828125;0.899999997727718;91;1 A
71.2217618201823;0.699676513671875;0.2596435546875;0.909999997702471;92;1 A
71.2317618201571;0.69976806640625;0.258758544921875;0.919999997677223;93;1 A
71.2417618201318;0.699737548828125;0.2572021484375;0.929999997651976;94;1 A
71.2517618201066;0.699493408203125;0.255645751953125;0.939999997626728;95;1 A
71.2617618200813;0.69964599609375;0.258544921875;0.949999997601481;96;1 A
71.2717618200561;0.69970703125;0.2568359375;0.959999997576233;97;1 A
71.2817618200309;0.69976806640625;0.255401611328125;0.969999997550985;98;1 A
71.2917618200056;0.699554443359375;0.25360107421875;0.979999997525738;99;1 A
71.3017618199804;0.699615478515625;0.255584716796875;0.98999999750049;100;1 A
71.3117618199551;0.69964599609375;0.255950927734375;0.999999997475243;101;1 A
71.3217618199299;0.699615478515625;0.25677490234375;1.00999999745;102;1 A
71.3317618199046;0.699615478515625;0.2564697265625;1.01999999742475;103;1 A
71.3417618198794;0.6995849609375;0.26019287109375;1.0299999973995;104;1 A
71.3517618198541;0.699676513671875;0.2598876953125;1.03999999737425;105;1 A
71.3617618198289;0.699676513671875;0.2587890625;1.049999997349;106;1 A
71.3717618198036;0.6995849609375;0.25726318359375;1.05999999732376;107;1 A
71.3817618197784;0.699554443359375;0.2615966796875;1.06999999729851;108;1 A
71.3917618197531;0.699676513671875;0.26092529296875;1.07999999727326;109;1 A
71.4017618197279;0.699676513671875;0.260467529296875;1.08999999724801;110;1 A
71.4117618197026;0.6995849609375;0.258331298828125;1.09999999722277;111;1 A
71.4217618196774;0.699615478515625;0.260528564453125;1.10999999719752;112;1 A
71.4317618196521;0.69970703125;0.259307861328125;1.11999999717227;113;1 A
71.4417618196269;0.69970703125;0.25677490234375;1.12999999714702;114;1 A
71.4517618196016;0.69964599609375;0.255584716796875;1.13999999712178;115;1 A
71.4617618195764;0.69964599609375;0.2586669921875;1.14999999709653;116;1 A
71.4717618195511;0.69970703125;0.26025390625;1.15999999707128;117;1 A
71.4817618195259;0.699737548828125;0.260162353515625;1.16999999704603;118;1 A
71.4917618195007;0.699615478515625;0.25994873046875;1.17999999702079;119;1 A
71.5017618194754;0.69964599609375;0.263702392578125;1.18999999699554;120;1 A
71.5117618194502;0.699737548828125;0.2633056640625;1.19999999697029;121;1 A
71.5217618194249;0.69970703125;0.261505126953125;1.20999999694504;122;1 A
71.5317618193997;0.6995849609375;0.25927734375;1.2199999969198;123;1 A
71.5417618193744;0.6995849609375;0.263641357421875;1.22999999689455;124;1 A
71.5517618193492;0.69964599609375;0.2615966796875;1.2399999968693;125;1 A
71.5617618193239;0.699554443359375;0.25994873046875;1.24999999684405;126;1 A
71.5717618192987;0.6995849609375;0.257781982421875;1.25999999681881;127;1 A
71.5817618192734;0.6995849609375;0.26239013671875;1.26999999679356;128;1 A
71.5917618192482;0.699615478515625;0.25885009765625;1.27999999676831;129;1 A
71.6017618192229;0.69970703125;0.2557373046875;1.28999999674306;130;1 A
71.6117618191977;0.699615478515625;0.25384521484375;1.29999999671782;131;1 A
71.6217618191724;0.6995849609375;0.25689697265625;1.30999999669257;132;1 A
71.6317618191472;0.699676513671875;0.25482177734375;1.31999999666732;133;1 A
71.6417618191219;0.699676513671875;0.253173828125;1.32999999664207;134;1 A
71.6517618190967;0.6995849609375;0.25213623046875;1.33999999661683;135;1 A
71.6617618190714;0.69964599609375;0.25811767578125;1.34999999659158;136;1 A
71.6717618190462;0.699676513671875;0.25592041015625;1.35999999656633;137;1 A
71.6817618190209;0.69976806640625;0.253936767578125;1.36999999654108;138;1 A
71.6917618189957;0.6995849609375;0.2535400390625;1.37999999651583;139;1 A
71.7017618189705;0.69964599609375;0.25872802734375;1.38999999649059;140;1 A
71.7117618189452;0.69970703125;0.256744384765625;1.39999999646534;141;1 A
71.72176181892;0.69976806640625;0.25592041015625;1.40999999644009;142;1 A
71.7317618188947;0.69952392578125;0.255889892578125;1.41999999641484;143;1 A
71.7417618188695;0.699615478515625;0.26458740234375;1.4299999963896;144;1 A
71.7517618188442;0.69970703125;0.261383056640625;1.43999999636435;145;1 A
71.761761818819;0.6995849609375;0.258453369140625;1.4499999963391;146;1 A
71.7717618187937;0.699493408203125;0.25640869140625;1.45999999631385;147;1 A
71.7817618187685;0.6995849609375;0.259490966796875;1.46999999628861;148;1 A
71.7917618187432;0.69964599609375;0.256988525390625;1.47999999626336;149;1 A
71.801761818718;0.699615478515625;0.255615234375;1.48999999623811;150;1 A
71.8117618186927;0.6995849609375;0.25341796875;1.49999999621286;151;1 A
71.8217618186675;0.6995849609375;0.256744384765625;1.50999999618762;152;1 A
71.8317618186422;0.69970703125;0.2559814453125;1.51999999616237;153;1 A
71.841761818617;0.69964599609375;0.255523681640625;1.52999999613712;154;1 A
71.8517618185917;0.6995849609375;0.254791259765625;1.53999999611187;155;1 A
71.8617618185665;0.69964599609375;0.2562255859375;1.54999999608663;156;1 A
71.8717618185412;0.69964599609375;0.256134033203125;1.55999999606138;157;1 A
71.881761818516;0.69964599609375;0.25665283203125;1.56999999603613;158;1 A
71.8917618184907;0.6995849609375;0.25604248046875;1.57999999601088;159;1 A
71.9017618184655;0.69964599609375;0.2606201171875;1.58999999598564;160;1 A
71.9117618184403;0.699737548828125;0.260833740234375;1.59999999596039;161;1 A
71.921761818415;0.69970703125;0.260833740234375;1.60999999593514;162;1 A
71.9317618183898;0.6995849609375;0.2591552734375;1.61999999590989;163;1 A
71.9417618183645;0.699676513671875;0.26055908203125;1.62999999588465;164;1 A
71.9517618183393;0.699676513671875;0.260040283203125;1.6399999958594;165;1 A
71.961761818314;0.69964599609375;0.2587890625;1.64999999583415;166;1 A
71.9717618182888;0.69952392578125;0.2574462890625;1.6599999958089;167;1 A
71.9817618182635;0.699615478515625;0.261077880859375;1.66999999578366;168;1 A
71.9917618182383;0.69970703125;0.260284423828125;1.67999999575841;169;1 A
72.001761818213;0.69964599609375;0.259185791015625;1.68999999573316;170;1 A
72.0117618181878;0.69952392578125;0.257720947265625;1.69999999570791;171;1 A
72.0217618181625;0.6995849609375;0.25909423828125;1.70999999568267;172;1 A
72.0317618181373;0.69964599609375;0.2576904296875;1.71999999565742;173;1 A
72.041761818112;0.69964599609375;0.256500244140625;1.72999999563217;174;1 A
72.0517618180868;0.699554443359375;0.255828857421875;1.73999999560692;175;1 A
72.0617618180615;0.6995849609375;0.26190185546875;1.74999999558167;176;1 A
72.0717618180363;0.699737548828125;0.260589599609375;1.75999999555643;177;1 A
72.081761818011;0.69964599609375;0.259063720703125;1.76999999553118;178;1 A
72.0917618179858;0.6995849609375;0.256866455078125;1.77999999550593;179;1 A
72.1017618179606;0.699676513671875;0.261932373046875;1.78999999548068;180;1 A
72.1117618179353;0.69970703125;0.2596435546875;1.79999999545544;181;1 A
72.1217618179101;0.699676513671875;0.25830078125;1.80999999543019;182;1 A
72.1317618178848;0.699554443359375;0.255615234375;1.81999999540494;183;1 A
72.1417618178596;0.699676513671875;0.258148193359375;1.82999999537969;184;1 A
72.1517618178343;0.69964599609375;0.25726318359375;1.83999999535445;185;1 A
72.1617618178091;0.699676513671875;0.2547607421875;1.8499999953292;186;1 A
72.1717618177838;0.699615478515625;0.25311279296875;1.85999999530395;187;1 A
72.1817618177586;0.6995849609375;0.256591796875;1.8699999952787;188;1 A
72.1917618177333;0.699737548828125;0.256103515625;1.87999999525346;189;1 A
72.2017618177081;0.69964599609375;0.254791259765625;1.88999999522821;190;1 A
72.2117618176828;0.6995849609375;0.253570556640625;1.89999999520296;191;1 A
72.2217618176576;0.69952392578125;0.25872802734375;1.90999999517771;192;1 A
72.2317618176323;0.699676513671875;0.256378173828125;1.91999999515247;193;1 A
72.2417618176071;0.69970703125;0.25531005859375;1.92999999512722;194;1 A
72.2517618175818;0.699554443359375;0.253173828125;1.93999999510197;195;1 A
72.2617618175566;0.699676513671875;0.254913330078125;1.94999999507672;196;1 A
72.2717618175313;0.69970703125;0.254913330078125;1.95999999505148;197;1 A
72.2817618175061;0.699676513671875;0.253570556640625;1.96999999502623;198;1 A
72.2917618174808;0.6995849609375;0.253143310546875;1.97999999500098;199;1 A
72.3017618174556;0.699676513671875;0.25628662109375;1.98999999497573;200;1 A
72.3117618174304;0.69970703125;0.256072998046875;1.99999999495049;201;1 A
72.3217618174051;0.699737548828125;0.25653076171875;2.00999999492524;202;1 A
72.3317618173799;0.699554443359375;0.256256103515625;2.01999999489999;203;1 A
72.3417618173546;0.69970703125;0.258056640625;2.02999999487474;204;1 A
72.3517618173294;0.699676513671875;0.258636474609375;2.0399999948495;205;1 A
72.3617618173041;0.69970703125;0.257720947265625;2.04999999482425;206;1 A
72.3717618172789;0.6995849609375;0.2562255859375;2.059999994799;207;1 A
72.3817618172536;0.699676513671875;0.259490966796875;2.06999999477375;208;1 A
72.3917618172284;0.699737548828125;0.259521484375;2.0799999947485;209;1 A
72.4017618172031;0.69964599609375;0.259124755859375;2.08999999472326;210;1 A
72.4117618171779;0.69952392578125;0.257476806640625;2.09999999469801;211;1 A
72.4217618171526;0.699676513671875;0.26025390625;2.10999999467276;212;1 A
72.4317618171274;0.69964599609375;0.260894775390625;2.11999999464751;213;1 A
72.4417618171021;0.69970703125;0.2607421875;2.12999999462227;214;1 A
72.4517618170769;0.69952392578125;0.25921630859375;2.13999999459702;215;1 A
72.4617618170516;0.699615478515625;0.262420654296875;2.14999999457177;216;1 A
72.4717618170264;0.69970703125;0.26226806640625;2.15999999454652;217;1 A
72.4817618170011;0.69970703125;0.260009765625;2.16999999452128;218;1 A
72.4917618169759;0.69952392578125;0.257415771484375;2.17999999449603;219;1 A
72.5017618169506;0.6995849609375;0.26080322265625;2.18999999447078;220;1 A
72.5117618169254;0.699676513671875;0.26025390625;2.19999999444553;221;1 A
72.5217618169002;0.699676513671875;0.256744384765625;2.20999999442029;222;1 A
72.5317618168749;0.69964599609375;0.255340576171875;2.21999999439504;223;1 A
72.5417618168497;0.6995849609375;0.259674072265625;2.22999999436979;224;1 A
72.5517618168244;0.699676513671875;0.259002685546875;2.23999999434454;225;1 A
72.5617618167992;0.69964599609375;0.25799560546875;2.2499999943193;226;1 A
72.5717618167739;0.699554443359375;0.257080078125;2.25999999429405;227;1 A
72.5817618167487;0.69964599609375;0.261688232421875;2.2699999942688;228;1 A
72.5917618167234;0.69964599609375;0.260955810546875;2.27999999424355;229;1 A
72.6017618166982;0.69970703125;0.258056640625;2.28999999421831;230;1 A
72.6117618166729;0.69952392578125;0.256866455078125;2.29999999419306;231;1 A
72.6217618166477;0.699615478515625;0.2593994140625;2.30999999416781;232;1 A
72.6317618166224;0.69964599609375;0.258453369140625;2.31999999414256;233;1 A
72.6417618165972;0.699737548828125;0.2586669921875;2.32999999411732;234;1 A
72.6517618165719;0.6995849609375;0.25787353515625;2.33999999409207;235;1 A
72.6617618165467;0.699737548828125;0.258544921875;2.34999999406682;236;1 A
72.6717618165214;0.69970703125;0.25823974609375;2.35999999404157;237;1 A
72.6817618164962;0.69970703125;0.256866455078125;2.36999999401633;238;1 A
72.6917618164709;0.6995849609375;0.255340576171875;2.37999999399108;239;1 A
72.7017618164457;0.699737548828125;0.257080078125;2.38999999396583;240;1 A
72.7117618164204;0.699676513671875;0.256591796875;2.39999999394058;241;1 A
72.7217618163952;0.699737548828125;0.255828857421875;2.40999999391533;242;1 A
72.73176181637;0.6995849609375;0.25469970703125;2.41999999389009;243;1 A
72.7417618163447;0.699676513671875;0.2548828125;2.42999999386484;244;1 A
72.7517618163195;0.69964599609375;0.254150390625;2.43999999383959;245;1 A
72.7617618162942;0.69970703125;0.25408935546875;2.44999999381434;246;1 A
72.771761816269;0.6995849609375;0.2529296875;2.4599999937891;247;1 A
72.7817618162437;0.69970703125;0.253143310546875;2.46999999376385;248;1 A
72.7917618162185;0.69964599609375;0.25335693359375;2.4799999937386;249;1 A
72.8017618161932;0.699615478515625;0.25323486328125;2.48999999371335;250;1 A
72.811761816168;0.699554443359375;0.252655029296875;2.49999999368811;251;1 A
72.8217618161427;0.69964599609375;0.25445556640625;2.50999999366286;252;1 A
72.8317618161175;0.69964599609375;0.255096435546875;2.51999999363761;253;1 A
72.8417618160922;0.699676513671875;0.256256103515625;2.52999999361236;254;1 A
72.851761816067;0.69952392578125;0.255767822265625;2.53999999358712;255;1 A
72.8617618160417;0.699554443359375;0.256683349609375;2.54999999356187;256;1 A
72.8717618160165;0.69964599609375;0.25762939453125;2.55999999353662;257;1 A
72.8817618159912;0.699554443359375;0.2589111328125;2.56999999351137;258;1 A
72.891761815966;0.699554443359375;0.258636474609375;2.57999999348613;259;1 A
72.9017618159407;0.6995849609375;0.26043701171875;2.58999999346088;260;1 A
72.9117618159155;0.699676513671875;0.261077880859375;2.59999999343563;261;1 A
72.9217618158902;0.699615478515625;0.261871337890625;2.60999999341038;262;1 A
72.931761815865;0.699554443359375;0.26153564453125;2.61999999338514;263;1 A
72.9417618158398;0.69970703125;0.262725830078125;2.62999999335989;264;1 A
72.9517618158145;0.699676513671875;0.261505126953125;2.63999999333464;265;1 A
72.9617618157893;0.699676513671875;0.261260986328125;2.64999999330939;266;1 A
72.971761815764;0.69964599609375;0.259674072265625;2.65999999328415;267;1 A
72.9817618157388;0.699676513671875;0.26019287109375;2.6699999932589;268;1 A
72.9917618157135;0.699676513671875;0.25994873046875;2.67999999323365;269;1 A
73.0017618156883;0.69970703125;0.260101318359375;2.6899999932084;270;1 A
73.011761815663;0.6995849609375;0.25885009765625;2.69999999318316;271;1 A
73.0217618156378;0.69964599609375;0.259552001953125;2.70999999315791;272;1 A
73.0317618156125;0.69964599609375;0.25860595703125;2.71999999313266;273;1 A
73.0417618155873;0.699737548828125;0.2581787109375;2.72999999310741;274;1 A
73.051761815562;0.699554443359375;0.256805419921875;2.73999999308217;275;1 A
73.0617618155368;0.69970703125;0.258209228515625;2.74999999305692;276;1 A
73.0717618155115;0.699676513671875;0.25714111328125;2.75999999303167;277;1 A
73.0817618154863;0.69970703125;0.257110595703125;2.76999999300642;278;1 A
73.091761815461;0.69952392578125;0.256011962890625;2.77999999298117;279;1 A
73.1017618154358;0.6995849609375;0.257965087890625;2.78999999295593;280;1 A
73.1117618154105;0.699676513671875;0.2564697265625;2.79999999293068;281;1 A
73.1217618153853;0.699615478515625;0.255462646484375;2.80999999290543;282;1 A
73.1317618153601;0.6995849609375;0.25445556640625;2.81999999288018;283;1 A
73.1417618153348;0.699615478515625;0.25653076171875;2.82999999285494;284;1 A
73.1517618153096;0.69964599609375;0.254730224609375;2.83999999282969;285;1 A
73.1617618152843;0.69964599609375;0.2540283203125;2.84999999280444;286;1 A
73.1717618152591;0.699554443359375;0.252471923828125;2.85999999277919;287;1 A
73.1817618152338;0.699615478515625;0.2559814453125;2.86999999275395;288;1 A
73.1917618152086;0.69964599609375;0.255462646484375;2.8799999927287;289;1 A
73.2017618151833;0.699676513671875;0.254638671875;2.88999999270345;290;1 A
73.2117618151581;0.699615478515625;0.25238037109375;2.8999999926782;291;1 A
73.2217618151328;0.69964599609375;0.2550048828125;2.90999999265296;292;1 A
73.2317618151076;0.699676513671875;0.2540283203125;2.91999999262771;293;1 A
73.2417618150823;0.699676513671875;0.253082275390625;2.92999999260246;294;1 A
73.2517618150571;0.6995849609375;0.25115966796875;2.93999999257721;295;1 A
73.2617618150318;0.699615478515625;0.25384521484375;2.94999999255197;296;1 A
73.2717618150066;0.69970703125;0.25152587890625;2.95999999252672;297;1 A
73.2817618149813;0.699676513671875;0.251495361328125;2.96999999250147;298;1 A
73.2917618149561;0.6995849609375;0.250457763671875;2.97999999247622;299;1 A
73.3017618149308;0.699676513671875;0.25445556640625;2.98999999245098;300;1 A
73.3117618149056;0.69964599609375;0.253814697265625;2.99999999242573;301;1 A
73.3217618148803;0.699676513671875;0.251800537109375;3.00999999240048;302;1 A
73.3317618148551;0.6995849609375;0.248199462890625;3.01999999237523;303;1 A
73.3417618148299;0.699676513671875;0.251495361328125;3.02999999234999;304;1 A
73.3517618148046;0.69964599609375;0.25048828125;3.03999999232474;305;1 A
73.3617618147794;0.699676513671875;0.24835205078125;3.04999999229949;306;1 A
73.3717618147541;0.6995849609375;0.24615478515625;3.05999999227424;307;1 A
73.3817618147289;0.69964599609375;0.248291015625;3.069999992249;308;1 A
73.3917618147036;0.699676513671875;0.246368408203125;3.07999999222375;309;1 A
73.4017618146784;0.699737548828125;0.2459716796875;3.0899999921985;310;1 A
73.4117618146531;0.699615478515625;0.245391845703125;3.09999999217325;311;1 A
73.4217618146279;0.6995849609375;0.251678466796875;3.109999992148;312;1 A
73.4317618146026;0.69964599609375;0.249725341796875;3.11999999212276;313;1 A
73.4417618145774;0.699676513671875;0.24847412109375;3.12999999209751;314;1 A
73.4517618145521;0.699615478515625;0.24627685546875;3.13999999207226;315;1 A
73.4617618145269;0.6995849609375;0.248199462890625;3.14999999204701;316;1 A
73.4717618145016;0.699676513671875;0.24755859375;3.15999999202177;317;1 A
73.4817618144764;0.699615478515625;0.2481689453125;3.16999999199652;318;1 A
73.4917618144511;0.69952392578125;0.24737548828125;3.17999999197127;319;1 A
73.5017618144259;0.69964599609375;0.251922607421875;3.18999999194602;320;1 A
73.5117618144006;0.699615478515625;0.2525634765625;3.19999999192078;321;1 A
73.5217618143754;0.6995849609375;0.251800537109375;3.20999999189553;322;1 A
73.5317618143501;0.6995849609375;0.250701904296875;3.21999999187028;323;1 A
73.5417618143249;0.699615478515625;0.252777099609375;3.22999999184503;324;1 A
73.5517618142997;0.699615478515625;0.2537841796875;3.23999999181979;325;1 A
73.5617618142744;0.699615478515625;0.253692626953125;3.24999999179454;326;1 A
73.5717618142492;0.699615478515625;0.25274658203125;3.25999999176929;327;1 A
73.5817618142239;0.69964599609375;0.2542724609375;3.26999999174404;328;1 A
73.5917618141987;0.69964599609375;0.2542724609375;3.2799999917188;329;1 A
73.6017618141734;0.69970703125;0.25299072265625;3.28999999169355;330;1 A
73.6117618141482;0.6995849609375;0.2515869140625;3.2999999916683;331;1 A
73.6217618141229;0.699737548828125;0.254425048828125;3.30999999164305;332;1 A
73.6317618140977;0.69964599609375;0.253204345703125;3.31999999161781;333;1 A
73.6417618140724;0.699737548828125;0.252349853515625;3.32999999159256;334;1 A
73.6517618140472;0.699615478515625;0.251495361328125;3.33999999156731;335;1 A
73.6617618140219;0.6995849609375;0.254364013671875;3.34999999154206;336;1 A
73.6717618139967;0.699676513671875;0.254547119140625;3.35999999151682;337;1 A
73.6817618139714;0.699676513671875;0.255218505859375;3.36999999149157;338;1 A
73.6917618139462;0.6995849609375;0.25469970703125;3.37999999146632;339;1 A
73.7017618139209;0.699676513671875;0.256195068359375;3.38999999144107;340;1 A
73.7117618138957;0.69964599609375;0.256988525390625;3.39999999141583;341;1 A
73.7217618138704;0.69970703125;0.25762939453125;3.40999999139058;342;1 A
73.7317618138452;0.69964599609375;0.2574462890625;3.41999999136533;343;1 A
73.7417618138199;0.69964599609375;0.25921630859375;3.42999999134008;344;1 A
73.7517618137947;0.69964599609375;0.25970458984375;3.43999999131483;345;1 A
73.7617618137695;0.69964599609375;0.260162353515625;3.44999999128959;346;1 A
73.7717618137442;0.699554443359375;0.259124755859375;3.45999999126434;347;1 A
73.781761813719;0.699615478515625;0.2613525390625;3.46999999123909;348;1 A
73.7917618136937;0.699676513671875;0.25958251953125;3.47999999121384;349;1 A
73.8017618136685;0.69964599609375;0.259521484375;3.4899999911886;350;1 A
73.8117618136432;0.699615478515625;0.258453369140625;3.49999999116335;351;1 A
73.821761813618;0.6995849609375;0.260711669921875;3.5099999911381;352;1 A
73.8317618135927;0.699615478515625;0.25994873046875;3.51999999111285;353;1 A
73.8417618135675;0.6995849609375;0.258575439453125;3.52999999108761;354;1 A
73.8517618135422;0.699554443359375;0.25640869140625;3.53999999106236;355;1 A
73.861761813517;0.699615478515625;0.259521484375;3.54999999103711;356;1 A
73.8717618134917;0.699676513671875;0.25970458984375;3.55999999101186;357;1 A
73.8817618134665;0.6995849609375;0.2587890625;3.56999999098662;358;1 A
73.8917618134412;0.699615478515625;0.25634765625;3.57999999096137;359;1 A
73.901761813416;0.699676513671875;0.256622314453125;3.58999999093612;360;1 A
73.9117618133907;0.699554443359375;0.255126953125;3.59999999091087;361;1 A
73.9217618133655;0.699676513671875;0.25433349609375;3.60999999088563;362;1 A
73.9317618133402;0.6995849609375;0.252685546875;3.61999999086038;363;1 A
73.941761813315;0.699615478515625;0.2548828125;3.62999999083513;364;1 A
73.9517618132897;0.699676513671875;0.2537841796875;3.63999999080988;365;1 A
73.9617618132645;0.699676513671875;0.252044677734375;3.64999999078464;366;1 A
73.9717618132393;0.69964599609375;0.249847412109375;3.65999999075939;367;1 A
73.981761813214;0.69970703125;0.252349853515625;3.66999999073414;368;1 A
73.9917618131888;0.699676513671875;0.251556396484375;3.67999999070889;369;1 A
74.0017618131635;0.69970703125;0.250213623046875;3.68999999068365;370;1 A
74.0117618131383;0.6995849609375;0.24810791015625;3.6999999906584;371;1 A
74.021761813113;0.69964599609375;0.25128173828125;3.70999999063315;372;1 A
74.0317618130878;0.69964599609375;0.24951171875;3.7199999906079;373;1 A
74.0417618130625;0.699798583984375;0.24853515625;3.72999999058266;374;1 A
74.0517618130373;0.69952392578125;0.248138427734375;3.73999999055741;375;1 A
74.061761813012;0.699737548828125;0.25091552734375;3.74999999053216;376;1 A
74.0717618129868;0.69964599609375;0.250701904296875;3.75999999050691;377;1 A
74.0817618129615;0.69970703125;0.2498779296875;3.76999999048167;378;1 A
74.0917618129363;0.699615478515625;0.247314453125;3.77999999045642;379;1 A
74.101761812911;0.699554443359375;0.246856689453125;3.78999999043117;380;1 A
74.1117618128858;0.699676513671875;0.24603271484375;3.79999999040592;381;1 A
74.1217618128605;0.69964599609375;0.245819091796875;3.80999999038067;382;1 A
74.1317618128353;0.6995849609375;0.245147705078125;3.81999999035543;383;1 A
74.14176181281;0.6995849609375;0.250457763671875;3.82999999033018;384;1 A
74.1517618127848;0.699676513671875;0.25030517578125;3.83999999030493;385;1 A
74.1617618127596;0.69964599609375;0.24957275390625;3.84999999027968;386;1 A
74.1717618127343;0.6995849609375;0.248260498046875;3.85999999025444;387;1 A
74.1817618127091;0.699615478515625;0.25250244140625;3.86999999022919;388;1 A
74.1917618126838;0.699615478515625;0.250885009765625;3.87999999020394;389;1 A
74.2017618126586;0.699676513671875;0.250213623046875;3.88999999017869;390;1 A
74.2117618126333;0.699615478515625;0.249176025390625;3.89999999015345;391;1 A
74.2217618126081;0.699615478515625;0.252532958984375;3.9099999901282;392;1 A
74.2317618125828;0.69964599609375;0.252532958984375;3.91999999010295;393;1 A
74.2417618125576;0.69964599609375;0.251953125;3.9299999900777;394;1 A
74.2517618125323;0.6995849609375;0.2513427734375;3.93999999005246;395;1 A
74.2617618125071;0.69964599609375;0.25543212890625;3.94999999002721;396;1 A
74.2717618124818;0.699615478515625;0.257080078125;3.95999999000196;397;1 A
74.2817618124566;0.699676513671875;0.257080078125;3.96999998997671;398;1 A
74.2917618124313;0.6995849609375;0.255462646484375;3.97999998995147;399;1 A
74.3017618124061;0.69976806640625;0.25665283203125;3.98999998992622;400;1 A
74.3117618123808;0.699676513671875;0.256500244140625;3.99999998990097;401;1 A
74.3217618123556;0.69970703125;0.255859375;4.00999998987572;402;1 A
74.3317618123303;0.699615478515625;0.2537841796875;4.01999998985048;403;1 A
74.3417618123051;0.699737548828125;0.255828857421875;4.02999998982523;404;1 A
74.3517618122798;0.69970703125;0.25531005859375;4.03999998979998;405;1 A
74.3617618122546;0.699737548828125;0.25457763671875;4.04999998977473;406;1 A
74.3717618122294;0.6995849609375;0.25335693359375;4.05999998974949;407;1 A
74.3817618122041;0.699615478515625;0.25592041015625;4.06999998972424;408;1 A
74.3917618121789;0.6995849609375;0.256744384765625;4.07999998969899;409;1 A
74.4017618121536;0.699676513671875;0.256103515625;4.08999998967374;410;1 A
74.4117618121284;0.6995849609375;0.254852294921875;4.0999999896485;411;1 A
74.4217618121031;0.699615478515625;0.2559814453125;4.10999998962325;412;1 A
74.4317618120779;0.69964599609375;0.25592041015625;4.119999989598;413;1 A
74.4417618120526;0.699615478515625;0.255340576171875;4.12999998957275;414;1 A
74.4517618120274;0.6995849609375;0.254241943359375;4.1399999895475;415;1 A
74.4617618120021;0.699615478515625;0.2552490234375;4.14999998952226;416;1 A
74.4717618119769;0.69964599609375;0.255401611328125;4.15999998949701;417;1 A
74.4817618119516;0.699676513671875;0.2559814453125;4.16999998947176;418;1 A
74.4917618119264;0.69964599609375;0.255645751953125;4.17999998944651;419;1 A
74.5017618119011;0.699615478515625;0.25933837890625;4.18999998942127;420;1 A
74.5117618118759;0.69964599609375;0.258636474609375;4.19999998939602;421;1 A
74.5217618118506;0.699615478515625;0.258514404296875;4.20999998937077;422;1 A
74.5317618118254;0.699554443359375;0.25732421875;4.21999998934552;423;1 A
74.5417618118001;0.6995849609375;0.259002685546875;4.22999998932028;424;1 A
74.5517618117749;0.699676513671875;0.25946044921875;4.23999998929503;425;1 A
74.5617618117496;0.699676513671875;0.25927734375;4.24999998926978;426;1 A
74.5717618117244;0.699615478515625;0.2584228515625;4.25999998924453;427;1 A
74.5817618116992;0.699676513671875;0.262451171875;4.26999998921929;428;1 A
74.5917618116739;0.699615478515625;0.263214111328125;4.27999998919404;429;1 A
74.6017618116487;0.699676513671875;0.26483154296875;4.28999998916879;430;1 A
74.6117618116234;0.6995849609375;0.26458740234375;4.29999998914354;431;1 A
74.6217618115982;0.699676513671875;0.26568603515625;4.3099999891183;432;1 A
74.6317618115729;0.69970703125;0.26446533203125;4.31999998909305;433;1 A
74.6417618115477;0.699737548828125;0.262939453125;4.3299999890678;434;1 A
74.6517618115224;0.6995849609375;0.260833740234375;4.33999998904255;435;1 A
74.6617618114972;0.699676513671875;0.2615966796875;4.34999998901731;436;1 A
74.6717618114719;0.699676513671875;0.2606201171875;4.35999998899206;437;1 A
74.6817618114467;0.69976806640625;0.25921630859375;4.36999998896681;438;1 A
74.6917618114214;0.699615478515625;0.257659912109375;4.37999998894156;439;1 A
74.7017618113962;0.69964599609375;0.258026123046875;4.38999998891632;440;1 A
74.7117618113709;0.699615478515625;0.259765625;4.39999998889107;441;1 A
74.7217618113457;0.69970703125;0.260589599609375;4.40999998886582;442;1 A
74.7317618113204;0.699615478515625;0.257965087890625;4.41999998884057;443;1 A
74.7417618112952;0.699615478515625;0.25927734375;4.42999998881533;444;1 A
74.7517618112699;0.699676513671875;0.25799560546875;4.43999998879008;445;1 A
74.7617618112447;0.699615478515625;0.258209228515625;4.44999998876483;446;1 A
74.7717618112194;0.699615478515625;0.2578125;4.45999998873958;447;1 A
74.7817618111942;0.6995849609375;0.25909423828125;4.46999998871433;448;1 A
74.791761811169;0.699676513671875;0.25860595703125;4.47999998868909;449;1 A
74.8017618111437;0.69964599609375;0.256744384765625;4.48999998866384;450;1 A
74.8117618111185;0.69964599609375;0.25469970703125;4.49999998863859;451;1 A
74.8217618110932;0.69952392578125;0.25860595703125;4.50999998861334;452;1 A
74.831761811068;0.699676513671875;0.256591796875;4.5199999885881;453;1 A
74.8417618110427;0.699676513671875;0.25543212890625;4.52999998856285;454;1 A
74.8517618110175;0.699615478515625;0.253692626953125;4.5399999885376;455;1 A
74.8617618109922;0.699615478515625;0.255584716796875;4.54999998851235;456;1 A
74.871761810967;0.699615478515625;0.255462646484375;4.55999998848711;457;1 A
74.8817618109417;0.69970703125;0.254852294921875;4.56999998846186;458;1 A
74.8917618109165;0.6995849609375;0.253997802734375;4.57999998843661;459;1 A
74.9017618108912;0.699676513671875;0.257232666015625;4.58999998841136;460;1 A
74.911761810866;0.699676513671875;0.255645751953125;4.59999998838612;461;1 A
74.9217618108407;0.69976806640625;0.25341796875;4.60999998836087;462;1 A
74.9317618108155;0.699615478515625;0.25189208984375;4.61999998833562;463;1 A
74.9417618107902;0.69970703125;0.254058837890625;4.62999998831037;464;1 A
74.951761810765;0.69970703125;0.25390625;4.63999998828513;465;1 A
74.9617618107397;0.699737548828125;0.254180908203125;4.64999998825988;466;1 A
74.9717618107145;0.699615478515625;0.254364013671875;4.65999998823463;467;1 A
74.9817618106892;0.699737548828125;0.25787353515625;4.66999998820938;468;1 A
74.991761810664;0.69964599609375;0.257598876953125;4.67999998818414;469;1 A
75.0017618106388;0.69976806640625;0.25543212890625;4.68999998815889;470;1 A
75.0117618106135;0.699554443359375;0.253509521484375;4.69999998813364;471;1 A
75.0217618105883;0.69964599609375;0.25732421875;4.70999998810839;472;1 A
75.031761810563;0.69964599609375;0.25634765625;4.71999998808315;473;1 A
75.0417618105378;0.699676513671875;0.25579833984375;4.7299999880579;474;1 A
75.0517618105125;0.699615478515625;0.2530517578125;4.73999998803265;475;1 A
75.0617618104873;0.699615478515625;0.25555419921875;4.7499999880074;476;1 A
75.071761810462;0.69970703125;0.253753662109375;4.75999998798216;477;1 A
75.0817618104368;0.699676513671875;0.252288818359375;4.76999998795691;478;1 A
75.0917618104115;0.6995849609375;0.250885009765625;4.77999998793166;479;1 A
75.1017618103863;0.699615478515625;0.250946044921875;4.78999998790641;480;1 A
75.111761810361;0.699676513671875;0.25103759765625;4.79999998788116;481;1 A
75.1217618103358;0.699737548828125;0.250640869140625;4.80999998785592;482;1 A
75.1317618103105;0.6995849609375;0.2496337890625;4.81999998783067;483;1 A
75.1417618102853;0.69964599609375;0.25091552734375;4.82999998780542;484;1 A
75.15176181026;0.699676513671875;0.25067138671875;4.83999998778017;485;1 A
75.1617618102348;0.69964599609375;0.250579833984375;4.84999998775493;486;1 A
75.1717618102095;0.699615478515625;0.24920654296875;4.85999998772968;487;1 A
75.1817618101843;0.69964599609375;0.252349853515625;4.86999998770443;488;1 A
75.1917618101591;0.69964599609375;0.251434326171875;4.87999998767918;489;1 A
75.2017618101338;0.69970703125;0.2506103515625;4.88999998765394;490;1 A
75.2117618101086;0.69964599609375;0.2486572265625;4.89999998762869;491;1 A
75.2217618100833;0.699676513671875;0.25030517578125;4.90999998760344;492;1 A
75.2317618100581;0.69964599609375;0.25030517578125;4.91999998757819;493;1 A
75.2417618100328;0.69976806640625;0.249359130859375;4.92999998755295;494;1 A
75.2517618100076;0.6995849609375;0.247314453125;4.9399999875277;495;1 A
75.2617618099823;0.69964599609375;0.248626708984375;4.94999998750245;496;1 A
75.2717618099571;0.69964599609375;0.2489013671875;4.9599999874772;497;1 A
75.2817618099318;0.69970703125;0.2493896484375;4.96999998745196;498;1 A
75.2917618099066;0.6995849609375;0.247955322265625;4.97999998742671;499;1 A
75.3017618098813;0.699737548828125;0.250152587890625;4.98999998740146;500;1 A
75.3117618098561;0.699676513671875;0.248931884765625;4.99999998737621;501;1 A
75.3217618098308;0.699737548828125;0.246551513671875;5.00999998735097;502;1 A
75.3317618098056;0.69964599609375;0.243896484375;5.01999998732572;503;1 A
75.3417618097803;0.69970703125;0.2440185546875;5.02999998730047;504;1 A
75.3517618097551;0.6995849609375;0.24395751953125;5.03999998727522;505;1 A
75.3617618097298;0.699737548828125;0.24530029296875;5.04999998724998;506;1 A
75.3717618097046;0.6995849609375;0.245208740234375;5.05999998722473;507;1 A
75.3817618096793;0.69964599609375;0.246246337890625;5.06999998719948;508;1 A
75.3917618096541;0.6995849609375;0.2471923828125;5.07999998717423;509;1 A
75.4017618096289;0.699676513671875;0.248779296875;5.08999998714899;510;1 A
75.4117618096036;0.699554443359375;0.24957275390625;5.09999998712374;511;1 A
75.4217618095784;0.699554443359375;0.25494384765625;5.10999998709849;512;1 A
75.4317618095531;0.69964599609375;0.253631591796875;5.11999998707324;513;1 A
75.4417618095279;0.69970703125;0.253326416015625;5.129999987048;514;1 A
75.4517618095026;0.699615478515625;0.25225830078125;5.13999998702275;515;1 A
75.4617618094774;0.699615478515625;0.2542724609375;5.1499999869975;516;1 A
75.4717618094521;0.69964599609375;0.2537841796875;5.15999998697225;517;1 A
75.4817618094269;0.699615478515625;0.254119873046875;5.169999986947;518;1 A
75.4917618094016;0.6995849609375;0.25286865234375;5.17999998692176;519;1 A
75.5017618093764;0.6995849609375;0.25830078125;5.18999998689651;520;1 A
75.5117618093511;0.699676513671875;0.256561279296875;5.19999998687126;521;1 A
75.5217618093259;0.69964599609375;0.255584716796875;5.20999998684601;522;1 A
75.5317618093006;0.69964599609375;0.254058837890625;5.21999998682077;523;1 A
75.5417618092754;0.69964599609375;0.255950927734375;5.22999998679552;524;1 A
75.5517618092501;0.69964599609375;0.254180908203125;5.23999998677027;525;1 A
75.5617618092249;0.69970703125;0.25335693359375;5.24999998674502;526;1 A
75.5717618091996;0.699615478515625;0.25201416015625;5.25999998671978;527;1 A
75.5817618091744;0.699676513671875;0.255462646484375;5.26999998669453;528;1 A
75.5917618091491;0.699676513671875;0.2532958984375;5.27999998666928;529;1 A
75.6017618091239;0.69970703125;0.252227783203125;5.28999998664403;530;1 A
75.6117618090987;0.6995849609375;0.25128173828125;5.29999998661879;531;1 A
75.6217618090734;0.69964599609375;0.257568359375;5.30999998659354;532;1 A
75.6317618090482;0.69970703125;0.25701904296875;5.31999998656829;533;1 A
75.6417618090229;0.69970703125;0.255462646484375;5.32999998654304;534;1 A
75.6517618089977;0.6995849609375;0.253021240234375;5.3399999865178;535;1 A
75.6617618089724;0.69964599609375;0.25421142578125;5.34999998649255;536;1 A
75.6717618089472;0.699676513671875;0.25262451171875;5.3599999864673;537;1 A
75.6817618089219;0.699676513671875;0.2525634765625;5.36999998644205;538;1 A
75.6917618088967;0.699554443359375;0.252197265625;5.37999998641681;539;1 A
75.7017618088714;0.699676513671875;0.255706787109375;5.38999998639156;540;1 A
75.7117618088462;0.699676513671875;0.257659912109375;5.39999998636631;541;1 A
75.7217618088209;0.699615478515625;0.2578125;5.40999998634106;542;1 A
75.7317618087957;0.6995849609375;0.2579345703125;5.41999998631582;543;1 A
75.7417618087704;0.699615478515625;0.263092041015625;5.42999998629057;544;1 A
75.7517618087452;0.6995849609375;0.263580322265625;5.43999998626532;545;1 A
75.7617618087199;0.699615478515625;0.263580322265625;5.44999998624007;546;1 A
75.7717618086947;0.69952392578125;0.26348876953125;5.45999998621483;547;1 A
75.7817618086694;0.69964599609375;0.26385498046875;5.46999998618958;548;1 A
75.7917618086442;0.69964599609375;0.26318359375;5.47999998616433;549;1 A
75.8017618086189;0.69970703125;0.26141357421875;5.48999998613908;550;1 A
75.8117618085937;0.6995849609375;0.259033203125;5.49999998611383;551;1 A
75.8217618085685;0.6995849609375;0.26007080078125;5.50999998608859;552;1 A
75.8317618085432;0.69964599609375;0.2587890625;5.51999998606334;553;1 A
75.841761808518;0.699676513671875;0.2569580078125;5.52999998603809;554;1 A
75.8517618084927;0.6995849609375;0.2559814453125;5.53999998601284;555;1 A
75.8617618084675;0.69964599609375;0.25909423828125;5.5499999859876;556;1 A
75.8717618084422;0.699676513671875;0.2598876953125;5.55999998596235;557;1 A
75.881761808417;0.699676513671875;0.259735107421875;5.5699999859371;558;1 A
75.8917618083917;0.699554443359375;0.25811767578125;5.57999998591185;559;1 A
75.9017618083665;0.69970703125;0.257354736328125;5.58999998588661;560;1 A
75.9117618083412;0.69964599609375;0.257537841796875;5.59999998586136;561;1 A
75.921761808316;0.699737548828125;0.25750732421875;5.60999998583611;562;1 A
75.9317618082907;0.6995849609375;0.25689697265625;5.61999998581086;563;1 A
75.9417618082655;0.69964599609375;0.257843017578125;5.62999998578562;564;1 A
75.9517618082402;0.699676513671875;0.25921630859375;5.63999998576037;565;1 A
75.961761808215;0.699737548828125;0.259368896484375;5.64999998573512;566;1 A
75.9717618081897;0.6995849609375;0.2576904296875;5.65999998570987;567;1 A
75.9817618081645;0.699737548828125;0.260498046875;5.66999998568463;568;1 A
75.9917618081392;0.699676513671875;0.258514404296875;5.67999998565938;569;1 A
76.001761808114;0.69970703125;0.257415771484375;5.68999998563413;570;1 A
76.0117618080887;0.699615478515625;0.255828857421875;5.69999998560888;571;1 A
76.0217618080635;0.69970703125;0.25750732421875;5.70999998558364;572;1 A
76.0317618080383;0.69964599609375;0.258270263671875;5.71999998555839;573;1 A
76.041761808013;0.699676513671875;0.256561279296875;5.72999998553314;574;1 A
76.0517618079878;0.6995849609375;0.253387451171875;5.73999998550789;575;1 A
76.0617618079625;0.6995849609375;0.254608154296875;5.74999998548265;576;1 A
76.0717618079373;0.69964599609375;0.25299072265625;5.7599999854574;577;1 A
76.081761807912;0.69970703125;0.25225830078125;5.76999998543215;578;1 A
76.0917618078868;0.699615478515625;0.25128173828125;5.7799999854069;579;1 A
76.1017618078615;0.699554443359375;0.254119873046875;5.78999998538166;580;1 A
76.1117618078363;0.699676513671875;0.251617431640625;5.79999998535641;581;1 A
76.121761807811;0.699615478515625;0.248504638671875;5.80999998533116;582;1 A
76.1317618077858;0.699615478515625;0.246185302734375;5.81999998530591;583;1 A
76.1417618077605;0.699615478515625;0.248870849609375;5.82999998528066;584;1 A
76.1517618077353;0.69964599609375;0.248321533203125;5.83999998525542;585;1 A
76.16176180771;0.699676513671875;0.247772216796875;5.84999998523017;586;1 A
76.1717618076848;0.699615478515625;0.247467041015625;5.85999998520492;587;1 A
76.1817618076595;0.699676513671875;0.252532958984375;5.86999998517967;588;1 A
76.1917618076343;0.699676513671875;0.25030517578125;5.87999998515443;589;1 A
76.201761807609;0.699676513671875;0.24920654296875;5.88999998512918;590;1 A
76.2117618075838;0.699615478515625;0.248504638671875;5.89999998510393;591;1 A
76.2217618075586;0.6995849609375;0.25079345703125;5.90999998507868;592;1 A
76.2317618075333;0.699615478515625;0.24981689453125;5.91999998505344;593;1 A
76.2417618075081;0.69970703125;0.24932861328125;5.92999998502819;594;1 A
76.2517618074828;0.69964599609375;0.249114990234375;5.93999998500294;595;1 A
76.2617618074576;0.699737548828125;0.250946044921875;5.94999998497769;596;1 A
76.2717618074323;0.69970703125;0.251556396484375;5.95999998495245;597;1 A
76.2817618074071;0.69976806640625;0.252288818359375;5.9699999849272;598;1 A
76.2917618073818;0.69952392578125;0.252349853515625;5.97999998490195;599;1 A
76.3017618073566;0.69964599609375;0.252899169921875;5.9899999848767;600;1 A
76.3117618073313;0.699676513671875;0.252960205078125;5.99999998485146;601;1 A
76.3217618073061;0.699676513671875;0.253631591796875;6.00999998482621;602;1 A
76.3317618072808;0.699615478515625;0.25262451171875;6.01999998480096;603;1 A
76.3417618072556;0.699676513671875;0.253173828125;6.02999998477571;604;1 A
76.3517618072303;0.69964599609375;0.25347900390625;6.03999998475047;605;1 A
76.3617618072051;0.69964599609375;0.25457763671875;6.04999998472522;606;1 A
76.3717618071798;0.69964599609375;0.25299072265625;6.05999998469997;607;1 A
76.3817618071546;0.699676513671875;0.253448486328125;6.06999998467472;608;1 A
76.3917618071293;0.699676513671875;0.253448486328125;6.07999998464948;609;1 A
76.4017618071041;0.6995849609375;0.254058837890625;6.08999998462423;610;1 A
76.4117618070788;0.6995849609375;0.25341796875;6.09999998459898;611;1 A
76.4217618070536;0.6995849609375;0.253631591796875;6.10999998457373;612;1 A
76.4317618070284;0.699615478515625;0.2547607421875;6.11999998454849;613;1 A
76.4417618070031;0.699615478515625;0.256378173828125;6.12999998452324;614;1 A
76.4517618069779;0.6995849609375;0.256072998046875;6.13999998449799;615;1 A
76.4617618069526;0.69970703125;0.2569580078125;6.14999998447274;616;1 A
76.4717618069274;0.69964599609375;0.256256103515625;6.1599999844475;617;1 A
76.4817618069021;0.699676513671875;0.256195068359375;6.16999998442225;618;1 A
76.4917618068769;0.69964599609375;0.25445556640625;6.179999984397;619;1 A
76.5017618068516;0.699615478515625;0.255218505859375;6.18999998437175;620;1 A
76.5117618068264;0.699615478515625;0.25537109375;6.1999999843465;621;1 A
76.5217618068011;0.699737548828125;0.255767822265625;6.20999998432126;622;1 A
76.5317618067759;0.69964599609375;0.255157470703125;6.21999998429601;623;1 A
76.5417618067506;0.69970703125;0.2569580078125;6.22999998427076;624;1 A
76.5517618067254;0.699676513671875;0.25732421875;6.23999998424551;625;1 A
76.5617618067001;0.699737548828125;0.25750732421875;6.24999998422027;626;1 A
76.5717618066749;0.699676513671875;0.255828857421875;6.25999998419502;627;1 A
76.5817618066496;0.699676513671875;0.255889892578125;6.26999998416977;628;1 A
76.5917618066244;0.699615478515625;0.25494384765625;6.27999998414452;629;1 A
76.6017618065991;0.69976806640625;0.254791259765625;6.28999998411928;630;1 A
76.6117618065739;0.699615478515625;0.25213623046875;6.29999998409403;631;1 A
76.6217618065486;0.69964599609375;0.252685546875;6.30999998406878;632;1 A
76.6317618065234;0.699615478515625;0.251617431640625;6.31999998404353;633;1 A
76.6417618064982;0.69964599609375;0.25140380859375;6.32999998401829;634;1 A
76.6517618064729;0.699676513671875;0.249755859375;6.33999998399304;635;1 A
76.6617618064477;0.699554443359375;0.2535400390625;6.34999998396779;636;1 A
76.6717618064224;0.699676513671875;0.252593994140625;6.35999998394254;637;1 A
76.6817618063972;0.699676513671875;0.25079345703125;6.3699999839173;638;1 A
76.6917618063719;0.699615478515625;0.249420166015625;6.37999998389205;639;1 A
76.7017618063467;0.699615478515625;0.251220703125;6.3899999838668;640;1 A
76.7117618063214;0.69970703125;0.24969482421875;6.39999998384155;641;1 A
76.7217618062962;0.699615478515625;0.24896240234375;6.40999998381631;642;1 A
76.7317618062709;0.699615478515625;0.247314453125;6.41999998379106;643;1 A
76.7417618062457;0.69964599609375;0.2491455078125;6.42999998376581;644;1 A
76.7517618062204;0.69964599609375;0.24884033203125;6.43999998374056;645;1 A
76.7617618061952;0.699554443359375;0.247589111328125;6.44999998371532;646;1 A
76.7717618061699;0.69964599609375;0.24658203125;6.45999998369007;647;1 A
76.7817618061447;0.6995849609375;0.249786376953125;6.46999998366482;648;1 A
76.7917618061194;0.699615478515625;0.250579833984375;6.47999998363957;649;1 A
76.8017618060942;0.69964599609375;0.25140380859375;6.48999998361433;650;1 A
76.8117618060689;0.69964599609375;0.2508544921875;6.49999998358908;651;1 A
76.8217618060437;0.699676513671875;0.255126953125;6.50999998356383;652;1 A
76.8317618060184;0.699676513671875;0.25360107421875;6.51999998353858;653;1 A
76.8417618059932;0.69970703125;0.25299072265625;6.52999998351333;654;1 A
76.851761805968;0.699554443359375;0.250946044921875;6.53999998348809;655;1 A
76.8617618059427;0.699615478515625;0.25518798828125;6.54999998346284;656;1 A
76.8717618059175;0.69964599609375;0.2550048828125;6.55999998343759;657;1 A
76.8817618058922;0.69970703125;0.25384521484375;6.56999998341234;658;1 A
76.891761805867;0.699554443359375;0.2520751953125;6.5799999833871;659;1 A
76.9017618058417;0.69964599609375;0.2552490234375;6.58999998336185;660;1 A
76.9117618058165;0.699615478515625;0.254669189453125;6.5999999833366;661;1 A
76.9217618057912;0.69976806640625;0.25494384765625;6.60999998331135;662;1 A
76.931761805766;0.699615478515625;0.25341796875;6.61999998328611;663;1 A
76.9417618057407;0.69964599609375;0.257171630859375;6.62999998326086;664;1 A
76.9517618057155;0.69976806640625;0.25628662109375;6.63999998323561;665;1 A
76.9617618056902;0.699676513671875;0.255645751953125;6.64999998321036;666;1 A
76.971761805665;0.699615478515625;0.25384521484375;6.65999998318512;667;1 A
76.9817618056397;0.699615478515625;0.2559814453125;6.66999998315987;668;1 A
76.9917618056145;0.699676513671875;0.25616455078125;6.67999998313462;669;1 A
77.0017618055892;0.699615478515625;0.253814697265625;6.68999998310937;670;1 A
77.011761805564;0.69964599609375;0.250640869140625;6.69999998308413;671;1 A
77.0217618055387;0.699554443359375;0.25225830078125;6.70999998305888;672;1 A
77.0317618055135;0.69964599609375;0.2518310546875;6.71999998303363;673;1 A
77.0417618054882;0.69964599609375;0.25238037109375;6.72999998300838;674;1 A
77.051761805463;0.69964599609375;0.25244140625;6.73999998298314;675;1 A
77.0617618054378;0.6995849609375;0.255615234375;6.74999998295789;676;1 A
77.0717618054125;0.699615478515625;0.255706787109375;6.75999998293264;677;1 A
77.0817618053873;0.69964599609375;0.25518798828125;6.76999998290739;678;1 A
77.091761805362;0.699615478515625;0.2542724609375;6.77999998288215;679;1 A
77.1017618053368;0.699615478515625;0.257171630859375;6.7899999828569;680;1 A
77.1117618053115;0.699615478515625;0.25799560546875;6.79999998283165;681;1 A
77.1217618052863;0.69970703125;0.2572021484375;6.8099999828064;682;1 A
77.131761805261;0.699676513671875;0.255584716796875;6.81999998278116;683;1 A
77.1417618052358;0.69970703125;0.256134033203125;6.82999998275591;684;1 A
77.1517618052105;0.699676513671875;0.255126953125;6.83999998273066;685;1 A
77.1617618051853;0.699737548828125;0.254241943359375;6.84999998270541;686;1 A
77.17176180516;0.69964599609375;0.25213623046875;6.85999998268016;687;1 A
77.1817618051348;0.699737548828125;0.250946044921875;6.86999998265492;688;1 A
77.1917618051095;0.699676513671875;0.250091552734375;6.87999998262967;689;1 A
77.2017618050843;0.699737548828125;0.249267578125;6.88999998260442;690;1 A
77.211761805059;0.69964599609375;0.2481689453125;6.89999998257917;691;1 A
77.2217618050338;0.699737548828125;0.248199462890625;6.90999998255393;692;1 A
77.2317618050085;0.699676513671875;0.24755859375;6.91999998252868;693;1 A
77.2417618049833;0.699737548828125;0.247589111328125;6.92999998250343;694;1 A
77.2517618049581;0.699615478515625;0.246734619140625;6.93999998247818;695;1 A
77.2617618049328;0.69964599609375;0.246429443359375;6.94999998245294;696;1 A
77.2717618049076;0.699676513671875;0.246368408203125;6.95999998242769;697;1 A
77.2817618048823;0.69964599609375;0.246856689453125;6.96999998240244;698;1 A
77.2917618048571;0.699615478515625;0.24652099609375;6.97999998237719;699;1 A
77.3017618048318;0.699554443359375;0.2476806640625;6.98999998235195;700;1 A
