Time (s);WE(1).Potential (V);WE(1).Current (A);Corrected time (s);Index;Current range
2.72126999312945;0.399688720703125;0.010076904296875;0;1;100 mA
2.73126999310421;0.399688720703125;0.0072998046875;0.00999999997475243;2;100 mA
2.74126999307896;0.399688720703125;0.0058746337890625;0.0199999999495049;3;100 mA
2.75126999305371;0.399749755859375;0.004986572265625;0.0299999999242573;4;100 mA
2.76126999302846;0.39971923828125;0.00436431884765625;0.0399999998990097;5;100 mA
2.77126999300322;0.399810791015625;0.00391998291015625;0.0499999998737621;6;100 mA
2.78126999297797;0.3997802734375;0.00358245849609375;0.0599999998485146;7;100 mA
2.79126999295272;0.399749755859375;0.00331512451171875;0.069999999823267;8;100 mA
2.80126999292747;0.399749755859375;0.003092041015625;0.0799999997980194;9;100 mA
2.81126999290223;0.399749755859375;0.0029071044921875;0.0899999997727718;10;100 mA
2.82126999287698;0.39971923828125;0.00275360107421875;0.0999999997475243;11;100 mA
2.83126999285173;0.399749755859375;0.00262115478515625;0.109999999722277;12;100 mA
2.84126999282648;0.3997802734375;0.0025042724609375;0.119999999697029;13;100 mA
2.85126999280124;0.399749755859375;0.00240264892578125;0.129999999671782;14;100 mA
2.86126999277599;0.399749755859375;0.00231201171875;0.139999999646534;15;100 mA
2.87126999275074;0.39971923828125;0.00222686767578125;0.149999999621286;16;100 mA
2.88126999272549;0.39971923828125;0.00215179443359375;0.159999999596039;17;100 mA
2.89126999270024;0.399810791015625;0.002083740234375;0.169999999570791;18;100 mA
2.901269992675;0.3997802734375;0.0020233154296875;0.179999999545544;19;100 mA
2.91126999264975;0.3997802734375;0.00196685791015625;0.189999999520296;20;100 mA
2.9212699926245;0.3997802734375;0.0019140625;0.199999999495049;21;100 mA
2.93126999259925;0.399810791015625;0.00186614990234375;0.209999999469801;22;100 mA
2.94126999257401;0.3997802734375;0.00182342529296875;0.219999999444553;23;100 mA
2.95126999254876;0.399810791015625;0.0017803955078125;0.229999999419306;24;100 mA
2.96126999252351;0.399749755859375;0.00174072265625;0.239999999394058;25;100 mA
2.97126999249826;0.3997802734375;0.0017034912109375;0.249999999368811;26;100 mA
2.98126999247302;0.39971923828125;0.001669921875;0.259999999343563;27;100 mA
2.99126999244777;0.3997802734375;0.00163604736328125;0.269999999318316;28;100 mA
3.00126999242252;0.399749755859375;0.0016058349609375;0.279999999293068;29;100 mA
3.01126999239727;0.3997802734375;0.00157470703125;0.28999999926782;30;100 mA
3.02126999237203;0.3997802734375;0.00154754638671875;0.299999999242573;31;100 mA
3.03126999234678;0.39971923828125;0.0015234375;0.309999999217325;32;100 mA
3.04126999232153;0.399749755859375;0.00149688720703125;0.319999999192078;33;100 mA
3.05126999229628;0.3997802734375;0.001474609375;0.32999999916683;34;100 mA
3.06126999227104;0.399749755859375;0.00145263671875;0.339999999141583;35;100 mA
3.07126999224579;0.3997802734375;0.001431884765625;0.349999999116335;36;100 mA
3.08126999222054;0.3997802734375;0.00141021728515625;0.359999999091087;37;100 mA
3.09126999219529;0.399749755859375;0.0013922119140625;0.36999999906584;38;100 mA
3.10126999217005;0.399810791015625;0.0013739013671875;0.379999999040592;39;100 mA
3.1112699921448;0.399810791015625;0.0013555908203125;0.389999999015345;40;100 mA
3.12126999211955;0.39971923828125;0.00134002685546875;0.399999998990097;41;100 mA
3.1312699920943;0.399749755859375;0.0013232421875;0.40999999896485;42;100 mA
3.14126999206906;0.399810791015625;0.00130767822265625;0.419999998939602;43;100 mA
3.15126999204381;0.3997802734375;0.00129486083984375;0.429999998914354;44;100 mA
3.16126999201856;0.39971923828125;0.0012811279296875;0.439999998889107;45;100 mA
3.17126999199331;0.3997802734375;0.00126708984375;0.449999998863859;46;100 mA
3.18126999196807;0.3997802734375;0.0012542724609375;0.459999998838612;47;100 mA
3.19126999194282;0.399871826171875;0.00124359130859375;0.469999998813364;48;100 mA
3.20126999191757;0.39971923828125;0.00123321533203125;0.479999998788116;49;100 mA
3.21126999189232;0.399810791015625;0.00122161865234375;0.489999998762869;50;100 mA
3.22126999186708;0.399749755859375;0.00121002197265625;0.499999998737621;51;100 mA
3.23126999184183;0.3997802734375;0.00119781494140625;0.509999998712374;52;100 mA
3.24126999181658;0.39971923828125;0.00118560791015625;0.519999998687126;53;100 mA
3.25126999179133;0.3997802734375;0.00117767333984375;0.529999998661879;54;100 mA
3.26126999176608;0.3997802734375;0.00116607666015625;0.539999998636631;55;100 mA
3.27126999174084;0.3997802734375;0.00115814208984375;0.549999998611383;56;100 mA
3.28126999171559;0.3997802734375;0.0011468505859375;0.559999998586136;57;100 mA
3.29126999169034;0.39971923828125;0.0011376953125;0.569999998560888;58;100 mA
3.30126999166509;0.39971923828125;0.0011309814453125;0.579999998535641;59;100 mA
3.31126999163985;0.399749755859375;0.00112060546875;0.589999998510393;60;100 mA
3.3212699916146;0.3997802734375;0.0011138916015625;0.599999998485146;61;100 mA
3.33126999158935;0.39971923828125;0.00110565185546875;0.609999998459898;62;100 mA
3.3412699915641;0.3997802734375;0.00109710693359375;0.61999999843465;63;100 mA
3.35126999153886;0.39971923828125;0.00109130859375;0.629999998409403;64;100 mA
3.36126999151361;0.399810791015625;0.00108306884765625;0.639999998384155;65;100 mA
3.37126999148836;0.39971923828125;0.0010748291015625;0.649999998358908;66;100 mA
3.38126999146311;0.3997802734375;0.00106842041015625;0.65999999833366;67;100 mA
3.39126999143787;0.399810791015625;0.00106201171875;0.669999998308413;68;100 mA
3.40126999141262;0.3997802734375;0.00105621337890625;0.679999998283165;69;100 mA
3.41126999138737;0.3997802734375;0.00105224609375;0.689999998257917;70;100 mA
3.42126999136212;0.399810791015625;0.001044921875;0.69999999823267;71;100 mA
3.43126999133688;0.399749755859375;0.0010394287109375;0.709999998207422;72;100 mA
3.44126999131163;0.399810791015625;0.0010321044921875;0.719999998182175;73;100 mA
3.45126999128638;0.399749755859375;0.0010302734375;0.729999998156927;74;100 mA
3.46126999126113;0.399810791015625;0.0010247802734375;0.73999999813168;75;100 mA
3.47126999123589;0.399749755859375;0.00101806640625;0.749999998106432;76;100 mA
3.48126999121064;0.399749755859375;0.0010162353515625;0.759999998081184;77;100 mA
3.49126999118539;0.39971923828125;0.0010089111328125;0.769999998055937;78;100 mA
3.50126999116014;0.3997802734375;0.00100433349609375;0.779999998030689;79;100 mA
3.5112699911349;0.3997802734375;0.00099822998046875;0.789999998005442;80;100 mA
3.52126999110965;0.399810791015625;0.00099365234375;0.799999997980194;81;100 mA
3.5312699910844;0.399749755859375;0.00099029541015625;0.809999997954947;82;100 mA
3.54126999105915;0.39971923828125;0.00098388671875;0.819999997929699;83;100 mA
3.55126999103391;0.399749755859375;0.0009814453125;0.829999997904451;84;100 mA
3.56126999100866;0.39984130859375;0.000975952148437501;0.839999997879204;85;100 mA
3.57126999098341;0.399749755859375;0.0009716796875;0.849999997853956;86;100 mA
3.58126999095816;0.39971923828125;0.00096923828125;0.859999997828709;87;100 mA
3.59126999093291;0.39971923828125;0.000965270996093751;0.869999997803461;88;100 mA
3.60126999090767;0.3997802734375;0.000961914062499999;0.879999997778214;89;100 mA
3.61126999088242;0.3997802734375;0.00095855712890625;0.889999997752966;90;100 mA
3.62126999085717;0.399749755859375;0.00095367431640625;0.899999997727718;91;100 mA
3.63126999083192;0.39971923828125;0.00094940185546875;0.909999997702471;92;100 mA
3.64126999080668;0.39971923828125;0.000945434570312501;0.919999997677223;93;100 mA
3.65126999078143;0.399810791015625;0.00094268798828125;0.929999997651976;94;100 mA
3.66126999075618;0.39984130859375;0.00093994140625;0.939999997626728;95;100 mA
3.67126999073093;0.399810791015625;0.00093719482421875;0.949999997601481;96;100 mA
3.68126999070569;0.399688720703125;0.000933227539062501;0.959999997576233;97;100 mA
3.69126999068044;0.3997802734375;0.00093109130859375;0.969999997550985;98;100 mA
3.70126999065519;0.3997802734375;0.00092987060546875;0.979999997525738;99;100 mA
3.71126999062994;0.39984130859375;0.00092498779296875;0.98999999750049;100;100 mA
3.7212699906047;0.399749755859375;0.000921020507812501;0.999999997475243;101;100 mA
3.73126999057945;0.399749755859375;0.0009185791015625;1.00999999745;102;100 mA
3.7412699905542;0.399749755859375;0.000914306640625;1.01999999742475;103;100 mA
3.75126999052895;0.399749755859375;0.00091217041015625;1.0299999973995;104;100 mA
3.76126999050371;0.3997802734375;0.00090911865234375;1.03999999737425;105;100 mA
3.77126999047846;0.399749755859375;0.0009075927734375;1.049999997349;106;100 mA
3.78126999045321;0.3997802734375;0.000905761718750001;1.05999999732376;107;100 mA
3.79126999042796;0.3997802734375;0.000902709960937501;1.06999999729851;108;100 mA
3.80126999040272;0.3997802734375;0.00089996337890625;1.07999999727326;109;100 mA
3.81126999037747;0.3997802734375;0.000898132324218751;1.08999999724801;110;100 mA
3.82126999035222;0.3997802734375;0.0008953857421875;1.09999999722277;111;100 mA
3.83126999032697;0.399749755859375;0.000892333984375;1.10999999719752;112;100 mA
3.84126999030173;0.3997802734375;0.00088958740234375;1.11999999717227;113;100 mA
3.85126999027648;0.399688720703125;0.000887145996093749;1.12999999714702;114;100 mA
3.86126999025123;0.399688720703125;0.000885925292968751;1.13999999712178;115;100 mA
3.87126999022598;0.399749755859375;0.00088165283203125;1.14999999709653;116;100 mA
3.88126999020074;0.39971923828125;0.00088165283203125;1.15999999707128;117;100 mA
3.89126999017549;0.399810791015625;0.000877990722656249;1.16999999704603;118;100 mA
3.90126999015024;0.399749755859375;0.000876770019531251;1.17999999702079;119;100 mA
3.91126999012499;0.399749755859375;0.0008740234375;1.18999999699554;120;100 mA
3.92126999009974;0.39971923828125;0.00087127685546875;1.19999999697029;121;100 mA
3.9312699900745;0.399810791015625;0.000873718261718751;1.20999999694504;122;100 mA
3.94126999004925;0.3997802734375;0.000870361328124999;1.2199999969198;123;100 mA
3.951269990024;0.399688720703125;0.00087158203125;1.22999999689455;124;100 mA
3.96126998999875;0.39984130859375;0.0008697509765625;1.2399999968693;125;100 mA
3.97126998997351;0.399749755859375;0.000864562988281251;1.24999999684405;126;100 mA
3.98126998994826;0.3997802734375;0.00086334228515625;1.25999999681881;127;100 mA
3.99126998992301;0.399749755859375;0.00086090087890625;1.26999999679356;128;100 mA
4.00126998989776;0.399749755859375;0.000860595703125;1.27999999676831;129;100 mA
4.01126998987252;0.399749755859375;0.000858154296874999;1.28999999674306;130;100 mA
4.02126998984727;0.3997802734375;0.0008544921875;1.29999999671782;131;100 mA
4.03126998982202;0.3997802734375;0.000853881835937501;1.30999999669257;132;100 mA
4.04126998979677;0.399749755859375;0.00085357666015625;1.31999999666732;133;100 mA
4.05126998977153;0.399810791015625;0.000853881835937501;1.32999999664207;134;100 mA
4.06126998974628;0.399749755859375;0.00085174560546875;1.33999999661683;135;100 mA
4.07126998972103;0.3997802734375;0.000849304199218751;1.34999999659158;136;100 mA
4.08126998969578;0.3997802734375;0.000847473144531249;1.35999999656633;137;100 mA
4.09126998967054;0.399810791015625;0.00084503173828125;1.36999999654108;138;100 mA
4.10126998964529;0.399749755859375;0.00084442138671875;1.37999999651583;139;100 mA
4.11126998962004;0.399749755859375;0.000843505859375;1.38999999649059;140;100 mA
4.12126998959479;0.399688720703125;0.000840148925781251;1.39999999646534;141;100 mA
4.13126998956955;0.399749755859375;0.0008404541015625;1.40999999644009;142;100 mA
4.1412699895443;0.3997802734375;0.000835571289062501;1.41999999641484;143;100 mA
4.15126998951905;0.3997802734375;0.0008380126953125;1.4299999963896;144;100 mA
4.1612699894938;0.3997802734375;0.00083465576171875;1.43999999636435;145;100 mA
4.17126998946856;0.399810791015625;0.00083343505859375;1.4499999963391;146;100 mA
4.18126998944331;0.399749755859375;0.000833740234374999;1.45999999631385;147;100 mA
4.19126998941806;0.399749755859375;0.000831298828125;1.46999999628861;148;100 mA
4.20126998939281;0.39971923828125;0.00083160400390625;1.47999999626336;149;100 mA
4.21126998936757;0.39971923828125;0.000830078125;1.48999999623811;150;100 mA
4.22126998934232;0.3997802734375;0.000827636718749999;1.49999999621286;151;100 mA
4.23126998931707;0.39971923828125;0.000827636718749999;1.50999999618762;152;100 mA
4.24126998929182;0.3997802734375;0.000824584960937499;1.51999999616237;153;100 mA
4.25126998926658;0.399749755859375;0.00082550048828125;1.52999999613712;154;100 mA
4.26126998924133;0.3997802734375;0.000823364257812501;1.53999999611187;155;100 mA
4.27126998921608;0.399749755859375;0.000821838378906251;1.54999999608663;156;100 mA
4.28126998919083;0.399749755859375;0.000821533203125;1.55999999606138;157;100 mA
4.29126998916558;0.399749755859375;0.0008209228515625;1.56999999603613;158;100 mA
4.30126998914034;0.3997802734375;0.000820312500000001;1.57999999601088;159;100 mA
4.31126998911509;0.399688720703125;0.00081787109375;1.58999999598564;160;100 mA
4.32126998908984;0.399749755859375;0.00081634521484375;1.59999999596039;161;100 mA
4.33126998906459;0.399688720703125;0.0008160400390625;1.60999999593514;162;100 mA
4.34126998903935;0.3997802734375;0.0008135986328125;1.61999999590989;163;100 mA
4.3512699890141;0.3997802734375;0.00081451416015625;1.62999999588465;164;100 mA
4.36126998898885;0.399749755859375;0.000812377929687499;1.6399999958594;165;100 mA
4.3712699889636;0.399810791015625;0.000811157226562501;1.64999999583415;166;100 mA
4.38126998893836;0.399749755859375;0.0008087158203125;1.6599999958089;167;100 mA
4.39126998891311;0.399749755859375;0.000806884765625;1.66999999578366;168;100 mA
4.40126998888786;0.399749755859375;0.00080718994140625;1.67999999575841;169;100 mA
4.41126998886261;0.399810791015625;0.00080718994140625;1.68999999573316;170;100 mA
4.42126998883737;0.39971923828125;0.00080780029296875;1.69999999570791;171;100 mA
4.43126998881212;0.399749755859375;0.0008056640625;1.70999999568267;172;100 mA
4.44126998878687;0.3997802734375;0.000803222656249999;1.71999999565742;173;100 mA
4.45126998876162;0.399688720703125;0.00080291748046875;1.72999999563217;174;100 mA
4.46126998873638;0.399749755859375;0.000801696777343749;1.73999999560692;175;100 mA
4.47126998871113;0.3997802734375;0.00079833984375;1.74999999558167;176;100 mA
4.48126998868588;0.39971923828125;0.0007977294921875;1.75999999555643;177;100 mA
4.49126998866063;0.399749755859375;0.00079498291015625;1.76999999553118;178;100 mA
4.50126998863539;0.3997802734375;0.000797424316406251;1.77999999550593;179;100 mA
4.51126998861014;0.399749755859375;0.00079803466796875;1.78999999548068;180;100 mA
4.52126998858489;0.399749755859375;0.000797424316406251;1.79999999545544;181;100 mA
4.53126998855964;0.399810791015625;0.000797424316406251;1.80999999543019;182;100 mA
4.5412699885344;0.3997802734375;0.000795593261718749;1.81999999540494;183;100 mA
4.55126998850915;0.399749755859375;0.00079315185546875;1.82999999537969;184;100 mA
4.5612699884839;0.399810791015625;0.00079376220703125;1.83999999535445;185;100 mA
4.57126998845865;0.39971923828125;0.0007904052734375;1.8499999953292;186;100 mA
4.58126998843341;0.3997802734375;0.0007891845703125;1.85999999530395;187;100 mA
4.59126998840816;0.399810791015625;0.0007861328125;1.8699999952787;188;100 mA
4.60126998838291;0.3997802734375;0.000786743164062501;1.87999999525346;189;100 mA
4.61126998835766;0.3997802734375;0.000784912109375;1.88999999522821;190;100 mA
4.62126998833241;0.3997802734375;0.00078277587890625;1.89999999520296;191;100 mA
4.63126998830717;0.399810791015625;0.0007843017578125;1.90999999517771;192;100 mA
4.64126998828192;0.399810791015625;0.00078125;1.91999999515247;193;100 mA
4.65126998825667;0.39984130859375;0.000782165527343751;1.92999999512722;194;100 mA
4.66126998823142;0.399749755859375;0.0007830810546875;1.93999999510197;195;100 mA
4.67126998820618;0.399749755859375;0.00078094482421875;1.94999999507672;196;100 mA
4.68126998818093;0.3997802734375;0.00078155517578125;1.95999999505148;197;100 mA
4.69126998815568;0.399810791015625;0.00077789306640625;1.96999999502623;198;100 mA
4.70126998813043;0.399688720703125;0.000777587890625001;1.97999999500098;199;100 mA
4.71126998810519;0.39971923828125;0.000778808593749999;1.98999999497573;200;100 mA
4.72126998807994;0.3997802734375;0.000776062011718751;1.99999999495049;201;100 mA
4.73126998805469;0.399810791015625;0.0007763671875;2.00999999492524;202;100 mA
4.74126998802944;0.3997802734375;0.00077545166015625;2.01999999489999;203;100 mA
4.7512699880042;0.399688720703125;0.000776062011718751;2.02999999487474;204;100 mA
4.76126998797895;0.3997802734375;0.0007733154296875;2.0399999948495;205;100 mA
4.7712699879537;0.3997802734375;0.000774536132812501;2.04999999482425;206;100 mA
4.78126998792845;0.399749755859375;0.00077484130859375;2.059999994799;207;100 mA
4.79126998790321;0.399749755859375;0.000772705078124999;2.06999999477375;208;100 mA
4.80126998787796;0.3997802734375;0.00077545166015625;2.0799999947485;209;100 mA
4.81126998785271;0.399810791015625;0.000774536132812501;2.08999999472326;210;100 mA
4.82126998782746;0.399749755859375;0.0007720947265625;2.09999999469801;211;100 mA
4.83126998780222;0.399810791015625;0.0007720947265625;2.10999999467276;212;100 mA
4.84126998777697;0.3997802734375;0.00077056884765625;2.11999999464751;213;100 mA
4.85126998775172;0.3997802734375;0.0007696533203125;2.12999999462227;214;100 mA
4.86126998772647;0.39971923828125;0.000768432617187501;2.13999999459702;215;100 mA
4.87126998770123;0.399749755859375;0.00076812744140625;2.14999999457177;216;100 mA
4.88126998767598;0.399810791015625;0.00076873779296875;2.15999999454652;217;100 mA
4.89126998765073;0.399749755859375;0.000766906738281251;2.16999999452128;218;100 mA
4.90126998762548;0.3997802734375;0.00077056884765625;2.17999999449603;219;100 mA
4.91126998760024;0.3997802734375;0.000768432617187501;2.18999999447078;220;100 mA
4.92126998757499;0.399749755859375;0.000766906738281251;2.19999999444553;221;100 mA
4.93126998754974;0.3997802734375;0.00076416015625;2.20999999442029;222;100 mA
4.94126998752449;0.399810791015625;0.000760803222656251;2.21999999439504;223;100 mA
4.95126998749924;0.3997802734375;0.00076202392578125;2.22999999436979;224;100 mA
4.961269987474;0.3997802734375;0.00076263427734375;2.23999999434454;225;100 mA
4.97126998744875;0.39984130859375;0.00076202392578125;2.2499999943193;226;100 mA
4.9812699874235;0.3997802734375;0.00076263427734375;2.25999999429405;227;100 mA
4.99126998739825;0.399749755859375;0.0007611083984375;2.2699999942688;228;100 mA
5.00126998737301;0.39971923828125;0.000762329101562501;2.27999999424355;229;100 mA
5.01126998734776;0.399749755859375;0.000762939453125;2.28999999421831;230;100 mA
5.02126998732251;0.399749755859375;0.00076171875;2.29999999419306;231;100 mA
5.03126998729726;0.3997802734375;0.000760803222656251;2.30999999416781;232;100 mA
5.04126998727202;0.3997802734375;0.000759277343750001;2.31999999414256;233;100 mA
5.05126998724677;0.3997802734375;0.000757751464843751;2.32999999411732;234;100 mA
5.06126998722152;0.39971923828125;0.000758056640625;2.33999999409207;235;100 mA
5.07126998719627;0.399749755859375;0.000756225585937501;2.34999999406682;236;100 mA
5.08126998717103;0.399810791015625;0.000755920410156249;2.35999999404157;237;100 mA
5.09126998714578;0.39971923828125;0.000756225585937501;2.36999999401633;238;100 mA
5.10126998712053;0.399749755859375;0.000755920410156249;2.37999999399108;239;100 mA
5.11126998709528;0.399749755859375;0.00075653076171875;2.38999999396583;240;100 mA
5.12126998707004;0.399810791015625;0.00075347900390625;2.39999999394058;241;100 mA
5.13126998704479;0.399810791015625;0.00075408935546875;2.40999999391533;242;100 mA
5.14126998701954;0.39971923828125;0.0007537841796875;2.41999999389009;243;100 mA
5.15126998699429;0.3997802734375;0.00075531005859375;2.42999999386484;244;100 mA
5.16126998696905;0.3997802734375;0.00075531005859375;2.43999999383959;245;100 mA
5.1712699869438;0.399810791015625;0.000753173828125001;2.44999999381434;246;100 mA
5.18126998691855;0.399810791015625;0.00075225830078125;2.4599999937891;247;100 mA
5.1912699868933;0.39971923828125;0.000751647949218751;2.46999999376385;248;100 mA
5.20126998686806;0.3997802734375;0.00075225830078125;2.4799999937386;249;100 mA
5.21126998684281;0.39971923828125;0.00074951171875;2.48999999371335;250;100 mA
5.22126998681756;0.399749755859375;0.00074737548828125;2.49999999368811;251;100 mA
5.23126998679231;0.399749755859375;0.0007489013671875;2.50999999366286;252;100 mA
5.24126998676707;0.39971923828125;0.0007476806640625;2.51999999363761;253;100 mA
5.25126998674182;0.399749755859375;0.00074798583984375;2.52999999361236;254;100 mA
5.26126998671657;0.399749755859375;0.000747070312500001;2.53999999358712;255;100 mA
5.27126998669132;0.3997802734375;0.0007464599609375;2.54999999356187;256;100 mA
5.28126998666608;0.399749755859375;0.0007464599609375;2.55999999353662;257;100 mA
5.29126998664083;0.39971923828125;0.000743408203125;2.56999999351137;258;100 mA
5.30126998661558;0.399749755859375;0.00074310302734375;2.57999999348613;259;100 mA
5.31126998659033;0.3997802734375;0.00074188232421875;2.58999999346088;260;100 mA
5.32126998656508;0.39971923828125;0.0007403564453125;2.59999999343563;261;100 mA
5.33126998653984;0.3997802734375;0.00074005126953125;2.60999999341038;262;100 mA
5.34126998651459;0.3997802734375;0.0007366943359375;2.61999999338514;263;100 mA
5.35126998648934;0.39971923828125;0.00073822021484375;2.62999999335989;264;100 mA
5.36126998646409;0.399810791015625;0.0007373046875;2.63999999333464;265;100 mA
5.37126998643885;0.3997802734375;0.0007366943359375;2.64999999330939;266;100 mA
5.3812699864136;0.3997802734375;0.00073822021484375;2.65999999328415;267;100 mA
5.39126998638835;0.399810791015625;0.000734863281250001;2.6699999932589;268;100 mA
5.4012699863631;0.399749755859375;0.00073577880859375;2.67999999323365;269;100 mA
5.41126998633786;0.3997802734375;0.000734863281250001;2.6899999932084;270;100 mA
5.42126998631261;0.39971923828125;0.000733032226562499;2.69999999318316;271;100 mA
5.43126998628736;0.39971923828125;0.000732421875;2.70999999315791;272;100 mA
5.44126998626211;0.399749755859375;0.000731201171875;2.71999999313266;273;100 mA
5.45126998623687;0.39971923828125;0.000731811523437501;2.72999999310741;274;100 mA
5.46126998621162;0.3997802734375;0.000732421875;2.73999999308217;275;100 mA
5.47126998618637;0.399810791015625;0.000732421875;2.74999999305692;276;100 mA
5.48126998616112;0.399749755859375;0.00073211669921875;2.75999999303167;277;100 mA
5.49126998613588;0.3997802734375;0.00072998046875;2.76999999300642;278;100 mA
5.50126998611063;0.399749755859375;0.00073150634765625;2.77999999298117;279;100 mA
5.51126998608538;0.3997802734375;0.00073089599609375;2.78999999295593;280;100 mA
5.52126998606013;0.39971923828125;0.000730285644531251;2.79999999293068;281;100 mA
5.53126998603489;0.3997802734375;0.0007305908203125;2.80999999290543;282;100 mA
5.54126998600964;0.399749755859375;0.00072906494140625;2.81999999288018;283;100 mA
5.55126998598439;0.3997802734375;0.000728759765625001;2.82999999285494;284;100 mA
5.56126998595914;0.3997802734375;0.000727233886718751;2.83999999282969;285;100 mA
5.5712699859339;0.399749755859375;0.000726318359375;2.84999999280444;286;100 mA
5.58126998590865;0.3997802734375;0.00072601318359375;2.85999999277919;287;100 mA
5.5912699858834;0.3997802734375;0.000726318359375;2.86999999275395;288;100 mA
5.60126998585815;0.3997802734375;0.000728759765625001;2.8799999927287;289;100 mA
5.61126998583291;0.399810791015625;0.0007281494140625;2.88999999270345;290;100 mA
5.62126998580766;0.399749755859375;0.000728454589843749;2.8999999926782;291;100 mA
5.63126998578241;0.399810791015625;0.000726928710937499;2.90999999265296;292;100 mA
5.64126998575716;0.3997802734375;0.000723876953125;2.91999999262771;293;100 mA
5.65126998573191;0.39971923828125;0.00072509765625;2.92999999260246;294;100 mA
5.66126998570667;0.399749755859375;0.000722656250000001;2.93999999257721;295;100 mA
5.67126998568142;0.399749755859375;0.00072174072265625;2.94999999255197;296;100 mA
5.68126998565617;0.39971923828125;0.00072235107421875;2.95999999252672;297;100 mA
5.69126998563092;0.399810791015625;0.00072021484375;2.96999999250147;298;100 mA
5.70126998560568;0.3997802734375;0.0007220458984375;2.97999999247622;299;100 mA
5.71126998558043;0.399810791015625;0.000721130371093751;2.98999999245098;300;100 mA
5.72126998555518;0.399810791015625;0.00072021484375;2.99999999242573;301;100 mA
5.73126998552993;0.399810791015625;0.000721130371093751;3.00999999240048;302;100 mA
5.74126998550469;0.3997802734375;0.00071868896484375;3.01999999237523;303;100 mA
5.75126998547944;0.39971923828125;0.00072021484375;3.02999999234999;304;100 mA
5.76126998545419;0.39971923828125;0.000718994140625;3.03999999232474;305;100 mA
5.77126998542894;0.3997802734375;0.00071685791015625;3.04999999229949;306;100 mA
5.7812699854037;0.3997802734375;0.0007171630859375;3.05999999227424;307;100 mA
5.79126998537845;0.3997802734375;0.00071533203125;3.069999992249;308;100 mA
5.8012699853532;0.399810791015625;0.00071533203125;3.07999999222375;309;100 mA
5.81126998532795;0.399749755859375;0.000718078613281251;3.0899999921985;310;100 mA
5.82126998530271;0.3997802734375;0.00071441650390625;3.09999999217325;311;100 mA
5.83126998527746;0.3997802734375;0.00071441650390625;3.109999992148;312;100 mA
5.84126998525221;0.3997802734375;0.000711975097656251;3.11999999212276;313;100 mA
5.85126998522696;0.3997802734375;0.0007147216796875;3.12999999209751;314;100 mA
5.86126998520172;0.399810791015625;0.00071441650390625;3.13999999207226;315;100 mA
5.87126998517647;0.399810791015625;0.0007147216796875;3.14999999204701;316;100 mA
5.88126998515122;0.399749755859375;0.00071563720703125;3.15999999202177;317;100 mA
5.89126998512597;0.39971923828125;0.00071441650390625;3.16999999199652;318;100 mA
5.90126998510073;0.39971923828125;0.000714111328125;3.17999999197127;319;100 mA
5.91126998507548;0.399810791015625;0.000713195800781249;3.18999999194602;320;100 mA
5.92126998505023;0.399749755859375;0.000710449218750001;3.19999999192078;321;100 mA
5.93126998502498;0.399749755859375;0.0007122802734375;3.20999999189553;322;100 mA
5.94126998499974;0.399810791015625;0.000710449218750001;3.21999999187028;323;100 mA
5.95126998497449;0.3997802734375;0.000711669921874999;3.22999999184503;324;100 mA
5.96126998494924;0.399810791015625;0.000711669921874999;3.23999999181979;325;100 mA
5.97126998492399;0.399810791015625;0.00071136474609375;3.24999999179454;326;100 mA
5.98126998489874;0.399749755859375;0.000712890625;3.25999999176929;327;100 mA
5.9912699848735;0.399810791015625;0.000711669921874999;3.26999999174404;328;100 mA
6.00126998484825;0.3997802734375;0.000713500976562501;3.2799999917188;329;100 mA
6.011269984823;0.399810791015625;0.00071258544921875;3.28999999169355;330;100 mA
6.02126998479775;0.3997802734375;0.0007110595703125;3.2999999916683;331;100 mA
6.03126998477251;0.3997802734375;0.000710144042968749;3.30999999164305;332;100 mA
6.04126998474726;0.3997802734375;0.00070831298828125;3.31999999161781;333;100 mA
6.05126998472201;0.399810791015625;0.000708923339843751;3.32999999159256;334;100 mA
6.06126998469676;0.399810791015625;0.000708923339843751;3.33999999156731;335;100 mA
6.07126998467152;0.39971923828125;0.0007086181640625;3.34999999154206;336;100 mA
6.08126998464627;0.3997802734375;0.0007098388671875;3.35999999151682;337;100 mA
6.09126998462102;0.3997802734375;0.00070831298828125;3.36999999149157;338;100 mA
6.10126998459577;0.399749755859375;0.000711669921874999;3.37999999146632;339;100 mA
6.11126998457053;0.399810791015625;0.000708923339843751;3.38999999144107;340;100 mA
6.12126998454528;0.399749755859375;0.00070831298828125;3.39999999141583;341;100 mA
6.13126998452003;0.3997802734375;0.000706787109375;3.40999999139058;342;100 mA
6.14126998449478;0.39971923828125;0.000705871582031251;3.41999999136533;343;100 mA
6.15126998446954;0.3997802734375;0.00070648193359375;3.42999999134008;344;100 mA
6.16126998444429;0.399810791015625;0.000705566406249999;3.43999999131483;345;100 mA
6.17126998441904;0.399810791015625;0.0007049560546875;3.44999999128959;346;100 mA
6.18126998439379;0.399810791015625;0.000705871582031251;3.45999999126434;347;100 mA
6.19126998436855;0.39971923828125;0.00070526123046875;3.46999999123909;348;100 mA
6.2012699843433;0.3997802734375;0.000706787109375;3.47999999121384;349;100 mA
6.21126998431805;0.3997802734375;0.0007049560546875;3.4899999911886;350;100 mA
6.2212699842928;0.399810791015625;0.0007049560546875;3.49999999116335;351;100 mA
6.23126998426756;0.399810791015625;0.00070465087890625;3.5099999911381;352;100 mA
6.24126998424231;0.39971923828125;0.00070220947265625;3.51999999111285;353;100 mA
6.25126998421706;0.399749755859375;0.000704345703125001;3.52999999108761;354;100 mA
6.26126998419181;0.3997802734375;0.0007037353515625;3.53999999106236;355;100 mA
6.27126998416657;0.399810791015625;0.00070343017578125;3.54999999103711;356;100 mA
6.28126998414132;0.399749755859375;0.000705566406249999;3.55999999101186;357;100 mA
6.29126998411607;0.399749755859375;0.000704345703125001;3.56999999098662;358;100 mA
6.30126998409082;0.39971923828125;0.00070526123046875;3.57999999096137;359;100 mA
6.31126998406558;0.3997802734375;0.00070526123046875;3.58999999093612;360;100 mA
6.32126998404033;0.3997802734375;0.000702819824218751;3.59999999091087;361;100 mA
6.33126998401508;0.399688720703125;0.000705566406249999;3.60999999088563;362;100 mA
6.34126998398983;0.39971923828125;0.00070709228515625;3.61999999086038;363;100 mA
6.35126998396458;0.399749755859375;0.000707397460937501;3.62999999083513;364;100 mA
6.36126998393934;0.399749755859375;0.00070770263671875;3.63999999080988;365;100 mA
6.37126998391409;0.399749755859375;0.0007061767578125;3.64999999078464;366;100 mA
6.38126998388884;0.3997802734375;0.00070709228515625;3.65999999075939;367;100 mA
6.39126998386359;0.39971923828125;0.00070526123046875;3.66999999073414;368;100 mA
6.40126998383835;0.399749755859375;0.000705566406249999;3.67999999070889;369;100 mA
6.4112699838131;0.3997802734375;0.00070343017578125;3.68999999068365;370;100 mA
6.42126998378785;0.39971923828125;0.00070465087890625;3.6999999906584;371;100 mA
6.4312699837626;0.399749755859375;0.000706787109375;3.70999999063315;372;100 mA
6.44126998373736;0.3997802734375;0.0007049560546875;3.7199999906079;373;100 mA
6.45126998371211;0.399749755859375;0.000707397460937501;3.72999999058266;374;100 mA
6.46126998368686;0.399749755859375;0.00070648193359375;3.73999999055741;375;100 mA
6.47126998366161;0.399749755859375;0.000705871582031251;3.74999999053216;376;100 mA
6.48126998363637;0.39971923828125;0.00070648193359375;3.75999999050691;377;100 mA
6.49126998361112;0.399810791015625;0.00070343017578125;3.76999999048167;378;100 mA
6.50126998358587;0.3997802734375;0.0007037353515625;3.77999999045642;379;100 mA
6.51126998356062;0.3997802734375;0.000703125;3.78999999043117;380;100 mA
6.52126998353538;0.399749755859375;0.00070220947265625;3.79999999040592;381;100 mA
6.53126998351013;0.39971923828125;0.00070343017578125;3.80999999038067;382;100 mA
6.54126998348488;0.399810791015625;0.00070068359375;3.81999999035543;383;100 mA
6.55126998345963;0.399749755859375;0.00070220947265625;3.82999999033018;384;100 mA
6.56126998343439;0.399749755859375;0.000701904296875;3.83999999030493;385;100 mA
6.57126998340914;0.399810791015625;0.000701904296875;3.84999999027968;386;100 mA
6.58126998338389;0.39971923828125;0.00070465087890625;3.85999999025444;387;100 mA
6.59126998335864;0.399749755859375;0.00070068359375;3.86999999022919;388;100 mA
6.6012699833334;0.399749755859375;0.000703125;3.87999999020394;389;100 mA
6.61126998330815;0.3997802734375;0.000701904296875;3.88999999017869;390;100 mA
6.6212699832829;0.39971923828125;0.00070159912109375;3.89999999015345;391;100 mA
6.63126998325765;0.399810791015625;0.000701904296875;3.9099999901282;392;100 mA
6.64126998323241;0.3997802734375;0.00070068359375;3.91999999010295;393;100 mA
6.65126998320716;0.3997802734375;0.00070159912109375;3.9299999900777;394;100 mA
6.66126998318191;0.399810791015625;0.00070220947265625;3.93999999005246;395;100 mA
6.67126998315666;0.39971923828125;0.000701904296875;3.94999999002721;396;100 mA
6.68126998313141;0.399749755859375;0.000703125;3.95999999000196;397;100 mA
6.69126998310617;0.3997802734375;0.00070098876953125;3.96999998997671;398;100 mA
6.70126998308092;0.399810791015625;0.000701904296875;3.97999998995147;399;100 mA
6.71126998305567;0.399749755859375;0.00070220947265625;3.98999998992622;400;100 mA
6.72126998303042;0.399749755859375;0.00070465087890625;3.99999998990097;401;100 mA
6.73126998300518;0.39971923828125;0.00070343017578125;4.00999998987572;402;100 mA
6.74126998297993;0.399810791015625;0.0007000732421875;4.01999998985048;403;100 mA
6.75126998295468;0.399810791015625;0.00070220947265625;4.02999998982523;404;100 mA
6.76126998292943;0.3997802734375;0.000702514648437499;4.03999998979998;405;100 mA
6.77126998290419;0.39971923828125;0.000703125;4.04999998977473;406;100 mA
6.78126998287894;0.3997802734375;0.000701904296875;4.05999998974949;407;100 mA
6.79126998285369;0.399810791015625;0.000703125;4.06999998972424;408;100 mA
6.80126998282844;0.399749755859375;0.000702514648437499;4.07999998969899;409;100 mA
6.8112699828032;0.39984130859375;0.000706787109375;4.08999998967374;410;100 mA
6.82126998277795;0.399810791015625;0.000706787109375;4.0999999896485;411;100 mA
6.8312699827527;0.399810791015625;0.0007061767578125;4.10999998962325;412;100 mA
6.84126998272745;0.399688720703125;0.0007037353515625;4.119999989598;413;100 mA
6.85126998270221;0.399749755859375;0.000704345703125001;4.12999998957275;414;100 mA
6.86126998267696;0.399749755859375;0.000703125;4.1399999895475;415;100 mA
6.87126998265171;0.399810791015625;0.00070220947265625;4.14999998952226;416;100 mA
6.88126998262646;0.399749755859375;0.000701904296875;4.15999998949701;417;100 mA
6.89126998260122;0.399749755859375;0.00070037841796875;4.16999998947176;418;100 mA
6.90126998257597;0.3997802734375;0.00070159912109375;4.17999998944651;419;100 mA
6.91126998255072;0.3997802734375;0.00070068359375;4.18999998942127;420;100 mA
6.92126998252547;0.399749755859375;0.000699768066406251;4.19999998939602;421;100 mA
6.93126998250023;0.3997802734375;0.00070098876953125;4.20999998937077;422;100 mA
6.94126998247498;0.39971923828125;0.00069915771484375;4.21999998934552;423;100 mA
6.95126998244973;0.3997802734375;0.00069915771484375;4.22999998932028;424;100 mA
6.96126998242448;0.39971923828125;0.00069732666015625;4.23999998929503;425;100 mA
6.97126998239924;0.399749755859375;0.000695190429687501;4.24999998926978;426;100 mA
6.98126998237399;0.3997802734375;0.000695190429687501;4.25999998924453;427;100 mA
6.99126998234874;0.39971923828125;0.00069244384765625;4.26999998921929;428;100 mA
7.00126998232349;0.3997802734375;0.000693359375;4.27999998919404;429;100 mA
7.01126998229824;0.3997802734375;0.000694580078125;4.28999998916879;430;100 mA
7.021269982273;0.399810791015625;0.00069305419921875;4.29999998914354;431;100 mA
7.03126998224775;0.399749755859375;0.000694580078125;4.3099999891183;432;100 mA
7.0412699822225;0.399749755859375;0.00069122314453125;4.31999998909305;433;100 mA
7.05126998219725;0.399749755859375;0.000694580078125;4.3299999890678;434;100 mA
7.06126998217201;0.399810791015625;0.000694885253906249;4.33999998904255;435;100 mA
7.07126998214676;0.399749755859375;0.00069610595703125;4.34999998901731;436;100 mA
7.08126998212151;0.399749755859375;0.000695190429687501;4.35999998899206;437;100 mA
7.09126998209626;0.3997802734375;0.00069427490234375;4.36999998896681;438;100 mA
7.10126998207102;0.399749755859375;0.000694580078125;4.37999998894156;439;100 mA
7.11126998204577;0.399749755859375;0.000693359375;4.38999998891632;440;100 mA
7.12126998202052;0.399749755859375;0.00069305419921875;4.39999998889107;441;100 mA
7.13126998199527;0.3997802734375;0.0006915283203125;4.40999998886582;442;100 mA
7.14126998197003;0.3997802734375;0.000690612792968751;4.41999998884057;443;100 mA
7.15126998194478;0.3997802734375;0.0006915283203125;4.42999998881533;444;100 mA
7.16126998191953;0.399749755859375;0.000692138671875001;4.43999998879008;445;100 mA
7.17126998189428;0.39984130859375;0.000692138671875001;4.44999998876483;446;100 mA
7.18126998186904;0.3997802734375;0.00069427490234375;4.45999998873958;447;100 mA
7.19126998184379;0.399749755859375;0.00069183349609375;4.46999998871433;448;100 mA
7.20126998181854;0.399810791015625;0.000693359375;4.47999998868909;449;100 mA
7.21126998179329;0.399749755859375;0.000692138671875001;4.48999998866384;450;100 mA
7.22126998176805;0.399749755859375;0.0006915283203125;4.49999998863859;451;100 mA
7.2312699817428;0.399810791015625;0.000689697265625;4.50999998861334;452;100 mA
7.24126998171755;0.399749755859375;0.00068939208984375;4.5199999885881;453;100 mA
7.2512699816923;0.399810791015625;0.000690612792968751;4.52999998856285;454;100 mA
7.26126998166706;0.399810791015625;0.000690307617187499;4.5399999885376;455;100 mA
7.27126998164181;0.399749755859375;0.000690307617187499;4.54999998851235;456;100 mA
7.28126998161656;0.39971923828125;0.00069305419921875;4.55999998848711;457;100 mA
7.29126998159131;0.3997802734375;0.0006915283203125;4.56999998846186;458;100 mA
7.30126998156607;0.3997802734375;0.000693359375;4.57999998843661;459;100 mA
7.31126998154082;0.3997802734375;0.00069305419921875;4.58999998841136;460;100 mA
7.32126998151557;0.399749755859375;0.00069091796875;4.59999998838612;461;100 mA
7.33126998149032;0.399810791015625;0.0006915283203125;4.60999998836087;462;100 mA
7.34126998146508;0.399749755859375;0.000689086914062501;4.61999998833562;463;100 mA
7.35126998143983;0.3997802734375;0.000690307617187499;4.62999998831037;464;100 mA
7.36126998141458;0.399749755859375;0.000690307617187499;4.63999998828513;465;100 mA
7.37126998138933;0.3997802734375;0.000690612792968751;4.64999998825988;466;100 mA
7.38126998136408;0.399749755859375;0.00069183349609375;4.65999998823463;467;100 mA
7.39126998133884;0.399810791015625;0.00069183349609375;4.66999998820938;468;100 mA
7.40126998131359;0.399749755859375;0.000690307617187499;4.67999998818414;469;100 mA
7.41126998128834;0.3997802734375;0.000689086914062501;4.68999998815889;470;100 mA
7.42126998126309;0.3997802734375;0.000689086914062501;4.69999998813364;471;100 mA
7.43126998123785;0.399810791015625;0.00069000244140625;4.70999998810839;472;100 mA
7.4412699812126;0.399749755859375;0.00068817138671875;4.71999998808315;473;100 mA
7.45126998118735;0.3997802734375;0.000689697265625;4.7299999880579;474;100 mA
7.4612699811621;0.399688720703125;0.000689086914062501;4.73999998803265;475;100 mA
7.47126998113686;0.399749755859375;0.000689697265625;4.7499999880074;476;100 mA
7.48126998111161;0.399749755859375;0.00069000244140625;4.75999998798216;477;100 mA
7.49126998108636;0.399749755859375;0.000689697265625;4.76999998795691;478;100 mA
7.50126998106111;0.3997802734375;0.000690307617187499;4.77999998793166;479;100 mA
7.51126998103587;0.399810791015625;0.000689086914062501;4.78999998790641;480;100 mA
7.52126998101062;0.399749755859375;0.000689086914062501;4.79999998788116;481;100 mA
7.53126998098537;0.39971923828125;0.00069091796875;4.80999998785592;482;100 mA
7.54126998096012;0.3997802734375;0.00069183349609375;4.81999998783067;483;100 mA
7.55126998093488;0.39971923828125;0.00069244384765625;4.82999998780542;484;100 mA
7.56126998090963;0.3997802734375;0.0006927490234375;4.83999998778017;485;100 mA
7.57126998088438;0.399749755859375;0.000689697265625;4.84999998775493;486;100 mA
7.58126998085913;0.399749755859375;0.0006884765625;4.85999998772968;487;100 mA
7.59126998083389;0.399749755859375;0.0006884765625;4.86999998770443;488;100 mA
7.60126998080864;0.39971923828125;0.000689086914062501;4.87999998767918;489;100 mA
7.61126998078339;0.399810791015625;0.0006878662109375;4.88999998765394;490;100 mA
7.62126998075814;0.399688720703125;0.000687255859374999;4.89999998762869;491;100 mA
7.6312699807329;0.399810791015625;0.0006884765625;4.90999998760344;492;100 mA
7.64126998070765;0.399810791015625;0.00068695068359375;4.91999998757819;493;100 mA
7.6512699806824;0.399749755859375;0.00068939208984375;4.92999998755295;494;100 mA
7.66126998065715;0.399749755859375;0.00068939208984375;4.9399999875277;495;100 mA
7.67126998063191;0.399810791015625;0.00068695068359375;4.94999998750245;496;100 mA
7.68126998060666;0.399810791015625;0.0006878662109375;4.9599999874772;497;100 mA
7.69126998058141;0.399749755859375;0.000686035156250001;4.96999998745196;498;100 mA
7.70126998055616;0.399810791015625;0.0006854248046875;4.97999998742671;499;100 mA
7.71126998053091;0.399749755859375;0.000686035156250001;4.98999998740146;500;100 mA
7.72126998050567;0.3997802734375;0.000684814453125;4.99999998737621;501;100 mA
7.73126998048042;0.399810791015625;0.00068389892578125;5.00999998735097;502;100 mA
7.74126998045517;0.399810791015625;0.0006805419921875;5.01999998732572;503;100 mA
7.75126998042992;0.399810791015625;0.00068389892578125;5.02999998730047;504;100 mA
7.76126998040468;0.399749755859375;0.000682678222656249;5.03999998727522;505;100 mA
7.77126998037943;0.3997802734375;0.00068328857421875;5.04999998724998;506;100 mA
7.78126998035418;0.3997802734375;0.00068511962890625;5.05999998722473;507;100 mA
7.79126998032893;0.399749755859375;0.000682983398437501;5.06999998719948;508;100 mA
7.80126998030369;0.399749755859375;0.00068511962890625;5.07999998717423;509;100 mA
7.81126998027844;0.399810791015625;0.00068389892578125;5.08999998714899;510;100 mA
7.82126998025319;0.3997802734375;0.000682678222656249;5.09999998712374;511;100 mA
7.83126998022794;0.399749755859375;0.00068328857421875;5.10999998709849;512;100 mA
7.8412699802027;0.3997802734375;0.0006817626953125;5.11999998707324;513;100 mA
7.85126998017745;0.399688720703125;0.0006842041015625;5.129999987048;514;100 mA
7.8612699801522;0.39971923828125;0.00068389892578125;5.13999998702275;515;100 mA
7.87126998012695;0.39971923828125;0.00068389892578125;5.1499999869975;516;100 mA
7.88126998010171;0.399749755859375;0.0006854248046875;5.15999998697225;517;100 mA
7.89126998007646;0.399749755859375;0.000682678222656249;5.169999986947;518;100 mA
7.90126998005121;0.3997802734375;0.00068511962890625;5.17999998692176;519;100 mA
7.91126998002596;0.39984130859375;0.0006842041015625;5.18999998689651;520;100 mA
7.92126998000072;0.399749755859375;0.00068328857421875;5.19999998687126;521;100 mA
7.93126997997547;0.3997802734375;0.000682678222656249;5.20999998684601;522;100 mA
7.94126997995022;0.399749755859375;0.00068206787109375;5.21999998682077;523;100 mA
7.95126997992497;0.399810791015625;0.00068328857421875;5.22999998679552;524;100 mA
7.96126997989973;0.399810791015625;0.00068359375;5.23999998677027;525;100 mA
7.97126997987448;0.3997802734375;0.000682373046875;5.24999998674502;526;100 mA
7.98126997984923;0.399810791015625;0.00068023681640625;5.25999998671978;527;100 mA
7.99126997982398;0.399749755859375;0.000681152343749999;5.26999998669453;528;100 mA
8.00126997979874;0.3997802734375;0.0006817626953125;5.27999998666928;529;100 mA
8.01126997977349;0.399749755859375;0.00068389892578125;5.28999998664403;530;100 mA
8.02126997974824;0.3997802734375;0.000682678222656249;5.29999998661879;531;100 mA
8.03126997972299;0.3997802734375;0.00068328857421875;5.30999998659354;532;100 mA
8.04126997969774;0.399749755859375;0.000681152343749999;5.31999998656829;533;100 mA
8.0512699796725;0.3997802734375;0.0006805419921875;5.32999998654304;534;100 mA
8.06126997964725;0.3997802734375;0.000681457519531251;5.3399999865178;535;100 mA
8.071269979622;0.399810791015625;0.0006787109375;5.34999998649255;536;100 mA
8.08126997959675;0.399810791015625;0.0006805419921875;5.3599999864673;537;100 mA
8.09126997957151;0.3997802734375;0.0006805419921875;5.36999998644205;538;100 mA
8.10126997954626;0.399810791015625;0.00068206787109375;5.37999998641681;539;100 mA
8.11126997952101;0.39971923828125;0.000682373046875;5.38999998639156;540;100 mA
8.12126997949576;0.3997802734375;0.000682373046875;5.39999998636631;541;100 mA
8.13126997947052;0.39971923828125;0.000682983398437501;5.40999998634106;542;100 mA
8.14126997944527;0.3997802734375;0.000682373046875;5.41999998631582;543;100 mA
8.15126997942002;0.399749755859375;0.000682678222656249;5.42999998629057;544;100 mA
8.16126997939477;0.399749755859375;0.0006817626953125;5.43999998626532;545;100 mA
8.17126997936953;0.399810791015625;0.00067901611328125;5.44999998624007;546;100 mA
8.18126997934428;0.399749755859375;0.0006793212890625;5.45999998621483;547;100 mA
8.19126997931903;0.3997802734375;0.000677490234375;5.46999998618958;548;100 mA
8.20126997929378;0.399810791015625;0.00067718505859375;5.47999998616433;549;100 mA
8.21126997926854;0.3997802734375;0.00067718505859375;5.48999998613908;550;100 mA
8.22126997924329;0.3997802734375;0.000676879882812501;5.49999998611383;551;100 mA
8.23126997921804;0.399810791015625;0.00067657470703125;5.50999998608859;552;100 mA
8.24126997919279;0.3997802734375;0.000675354003906251;5.51999998606334;553;100 mA
8.25126997916755;0.3997802734375;0.000676879882812501;5.52999998603809;554;100 mA
8.2612699791423;0.39971923828125;0.000676879882812501;5.53999998601284;555;100 mA
8.27126997911705;0.399749755859375;0.00067779541015625;5.5499999859876;556;100 mA
8.2812699790918;0.399810791015625;0.000676879882812501;5.55999998596235;557;100 mA
8.29126997906656;0.3997802734375;0.000675048828124999;5.5699999859371;558;100 mA
8.30126997904131;0.39971923828125;0.000673828125000001;5.57999998591185;559;100 mA
8.31126997901606;0.399749755859375;0.0006732177734375;5.58999998588661;560;100 mA
8.32126997899081;0.399810791015625;0.000671997070312499;5.59999998586136;561;100 mA
8.33126997896557;0.399688720703125;0.000673828125000001;5.60999998583611;562;100 mA
8.34126997894032;0.399810791015625;0.000671997070312499;5.61999998581086;563;100 mA
8.35126997891507;0.39971923828125;0.0006732177734375;5.62999998578562;564;100 mA
8.36126997888982;0.39984130859375;0.00067291259765625;5.63999998576037;565;100 mA
8.37126997886458;0.3997802734375;0.000672607421875;5.64999998573512;566;100 mA
8.38126997883933;0.39971923828125;0.000675354003906251;5.65999998570987;567;100 mA
8.39126997881408;0.39971923828125;0.0006732177734375;5.66999998568463;568;100 mA
8.40126997878883;0.399749755859375;0.000673828125000001;5.67999998565938;569;100 mA
8.41126997876358;0.399810791015625;0.00067169189453125;5.68999998563413;570;100 mA
8.42126997873834;0.3997802734375;0.00067169189453125;5.69999998560888;571;100 mA
8.43126997871309;0.3997802734375;0.00067108154296875;5.70999998558364;572;100 mA
8.44126997868784;0.399810791015625;0.0006689453125;5.71999998555839;573;100 mA
8.45126997866259;0.3997802734375;0.0006695556640625;5.72999998553314;574;100 mA
8.46126997863735;0.39971923828125;0.0006695556640625;5.73999998550789;575;100 mA
8.4712699786121;0.399749755859375;0.000669250488281251;5.74999998548265;576;100 mA
8.48126997858685;0.399749755859375;0.000670166015625;5.7599999854574;577;100 mA
8.4912699785616;0.3997802734375;0.00066864013671875;5.76999998543215;578;100 mA
8.50126997853636;0.399749755859375;0.000670776367187501;5.7799999854069;579;100 mA
8.51126997851111;0.399749755859375;0.000670166015625;5.78999998538166;580;100 mA
8.52126997848586;0.399749755859375;0.00066864013671875;5.79999998535641;581;100 mA
8.53126997846061;0.399749755859375;0.0006695556640625;5.80999998533116;582;100 mA
8.54126997843537;0.3997802734375;0.0006683349609375;5.81999998530591;583;100 mA
8.55126997841012;0.399749755859375;0.00066986083984375;5.82999998528066;584;100 mA
8.56126997838487;0.399749755859375;0.000669250488281251;5.83999998525542;585;100 mA
8.57126997835962;0.399749755859375;0.0006683349609375;5.84999998523017;586;100 mA
8.58126997833438;0.399810791015625;0.0006683349609375;5.85999998520492;587;100 mA
8.59126997830913;0.399749755859375;0.00066802978515625;5.86999998517967;588;100 mA
8.60126997828388;0.39984130859375;0.0006695556640625;5.87999998515443;589;100 mA
8.61126997825863;0.3997802734375;0.00066864013671875;5.88999998512918;590;100 mA
8.62126997823339;0.3997802734375;0.000667724609375001;5.89999998510393;591;100 mA
8.63126997820814;0.3997802734375;0.00066802978515625;5.90999998507868;592;100 mA
8.64126997818289;0.399810791015625;0.00066558837890625;5.91999998505344;593;100 mA
8.65126997815764;0.3997802734375;0.0006671142578125;5.92999998502819;594;100 mA
8.6612699781324;0.399810791015625;0.00066650390625;5.93999998500294;595;100 mA
8.67126997810715;0.39971923828125;0.000665283203125;5.94999998497769;596;100 mA
8.6812699780819;0.3997802734375;0.000666198730468751;5.95999998495245;597;100 mA
8.69126997805665;0.3997802734375;0.000664367675781249;5.9699999849272;598;100 mA
8.70126997803141;0.39971923828125;0.000665283203125;5.97999998490195;599;100 mA
8.71126997800616;0.3997802734375;0.000666198730468751;5.9899999848767;600;100 mA
8.72126997798091;0.3997802734375;0.00066680908203125;5.99999998485146;601;100 mA
8.73126997795566;0.399749755859375;0.0006695556640625;6.00999998482621;602;100 mA
8.74126997793041;0.3997802734375;0.00066986083984375;6.01999998480096;603;100 mA
8.75126997790517;0.399810791015625;0.00066864013671875;6.02999998477571;604;100 mA
8.76126997787992;0.3997802734375;0.000667724609375001;6.03999998475047;605;100 mA
8.77126997785467;0.399749755859375;0.00066650390625;6.04999998472522;606;100 mA
8.78126997782942;0.3997802734375;0.00066650390625;6.05999998469997;607;100 mA
8.79126997780418;0.399749755859375;0.000665283203125;6.06999998467472;608;100 mA
8.80126997777893;0.399749755859375;0.000664672851562501;6.07999998464948;609;100 mA
8.81126997775368;0.3997802734375;0.0006640625;6.08999998462423;610;100 mA
8.82126997772843;0.399749755859375;0.00066558837890625;6.09999998459898;611;100 mA
8.83126997770319;0.399810791015625;0.0006671142578125;6.10999998457373;612;100 mA
8.84126997767794;0.399749755859375;0.000666198730468751;6.11999998454849;613;100 mA
8.85126997765269;0.399688720703125;0.000666198730468751;6.12999998452324;614;100 mA
8.86126997762744;0.3997802734375;0.00066864013671875;6.13999998449799;615;100 mA
8.8712699776022;0.399658203125;0.000667419433593749;6.14999998447274;616;100 mA
8.88126997757695;0.399749755859375;0.00066802978515625;6.1599999844475;617;100 mA
8.8912699775517;0.399810791015625;0.000665283203125;6.16999998442225;618;100 mA
8.90126997752645;0.39971923828125;0.000665283203125;6.179999984397;619;100 mA
8.91126997750121;0.3997802734375;0.000665893554687499;6.18999998437175;620;100 mA
8.92126997747596;0.3997802734375;0.000664672851562501;6.1999999843465;621;100 mA
8.93126997745071;0.3997802734375;0.00066650390625;6.20999998432126;622;100 mA
8.94126997742546;0.3997802734375;0.0006640625;6.21999998429601;623;100 mA
8.95126997740022;0.3997802734375;0.00066558837890625;6.22999998427076;624;100 mA
8.96126997737497;0.3997802734375;0.000665283203125;6.23999998424551;625;100 mA
8.97126997734972;0.3997802734375;0.00066558837890625;6.24999998422027;626;100 mA
8.98126997732447;0.39971923828125;0.00066802978515625;6.25999998419502;627;100 mA
8.99126997729923;0.399810791015625;0.00066650390625;6.26999998416977;628;100 mA
9.00126997727398;0.39971923828125;0.00066680908203125;6.27999998414452;629;100 mA
9.01126997724873;0.3997802734375;0.00066680908203125;6.28999998411928;630;100 mA
9.02126997722348;0.3997802734375;0.000665283203125;6.29999998409403;631;100 mA
9.03126997719824;0.3997802734375;0.000666198730468751;6.30999998406878;632;100 mA
9.04126997717299;0.399749755859375;0.000662841796875;6.31999998404353;633;100 mA
9.05126997714774;0.3997802734375;0.00066497802734375;6.32999998401829;634;100 mA
9.06126997712249;0.399749755859375;0.0006640625;6.33999998399304;635;100 mA
9.07126997709724;0.399749755859375;0.000665283203125;6.34999998396779;636;100 mA
9.081269977072;0.399749755859375;0.000665283203125;6.35999998394254;637;100 mA
9.09126997704675;0.39971923828125;0.000664367675781249;6.3699999839173;638;100 mA
9.1012699770215;0.399749755859375;0.000665283203125;6.37999998389205;639;100 mA
9.11126997699625;0.39971923828125;0.000664672851562501;6.3899999838668;640;100 mA
9.12126997697101;0.399749755859375;0.00066375732421875;6.39999998384155;641;100 mA
9.13126997694576;0.399749755859375;0.000665283203125;6.40999998381631;642;100 mA
9.14126997692051;0.3997802734375;0.00066375732421875;6.41999998379106;643;100 mA
9.15126997689526;0.399749755859375;0.000664367675781249;6.42999998376581;644;100 mA
9.16126997687002;0.3997802734375;0.000663146972656251;6.43999998374056;645;100 mA
9.17126997684477;0.399810791015625;0.000661621093750001;6.44999998371532;646;100 mA
9.18126997681952;0.399749755859375;0.000662841796875;6.45999998369007;647;100 mA
9.19126997679427;0.399749755859375;0.000661621093750001;6.46999998366482;648;100 mA
9.20126997676903;0.39971923828125;0.0006634521484375;6.47999998363957;649;100 mA
9.21126997674378;0.3997802734375;0.0006640625;6.48999998361433;650;100 mA
9.22126997671853;0.3997802734375;0.0006640625;6.49999998358908;651;100 mA
9.23126997669328;0.399749755859375;0.0006640625;6.50999998356383;652;100 mA
9.24126997666804;0.399749755859375;0.0006622314453125;6.51999998353858;653;100 mA
9.25126997664279;0.399749755859375;0.00066131591796875;6.52999998351333;654;100 mA
9.26126997661754;0.39971923828125;0.000659790039062499;6.53999998348809;655;100 mA
9.27126997659229;0.39971923828125;0.000658569335937501;6.54999998346284;656;100 mA
9.28126997656705;0.399749755859375;0.00066131591796875;6.55999998343759;657;100 mA
9.2912699765418;0.3997802734375;0.000657958984375;6.56999998341234;658;100 mA
9.30126997651655;0.399749755859375;0.000660400390625;6.5799999833871;659;100 mA
9.3112699764913;0.399688720703125;0.000660095214843751;6.58999998336185;660;100 mA
9.32126997646606;0.399749755859375;0.000660095214843751;6.5999999833366;661;100 mA
9.33126997644081;0.399749755859375;0.000659790039062499;6.60999998331135;662;100 mA
9.34126997641556;0.399749755859375;0.000658264160156249;6.61999998328611;663;100 mA
9.35126997639031;0.3997802734375;0.000658264160156249;6.62999998326086;664;100 mA
9.36126997636507;0.39971923828125;0.000658569335937501;6.63999998323561;665;100 mA
9.37126997633982;0.39971923828125;0.000657043457031251;6.64999998321036;666;100 mA
9.38126997631457;0.3997802734375;0.00065643310546875;6.65999998318512;667;100 mA
9.39126997628932;0.3997802734375;0.00065521240234375;6.66999998315987;668;100 mA
9.40126997626408;0.399749755859375;0.0006549072265625;6.67999998313462;669;100 mA
9.41126997623883;0.3997802734375;0.0006561279296875;6.68999998310937;670;100 mA
9.42126997621358;0.39971923828125;0.0006549072265625;6.69999998308413;671;100 mA
9.43126997618833;0.3997802734375;0.000657043457031251;6.70999998305888;672;100 mA
9.44126997616308;0.399810791015625;0.000655517578125001;6.71999998303363;673;100 mA
9.45126997613784;0.399749755859375;0.000657958984375;6.72999998300838;674;100 mA
9.46126997611259;0.3997802734375;0.00065765380859375;6.73999998298314;675;100 mA
9.47126997608734;0.399810791015625;0.000656738281249999;6.74999998295789;676;100 mA
9.48126997606209;0.399810791015625;0.0006561279296875;6.75999998293264;677;100 mA
9.49126997603685;0.399749755859375;0.000655517578125001;6.76999998290739;678;100 mA
9.5012699760116;0.399810791015625;0.00065460205078125;6.77999998288215;679;100 mA
9.51126997598635;0.3997802734375;0.000654296875;6.7899999828569;680;100 mA
9.5212699759611;0.3997802734375;0.00065521240234375;6.79999998283165;681;100 mA
9.53126997593586;0.3997802734375;0.00065582275390625;6.8099999828064;682;100 mA
9.54126997591061;0.399810791015625;0.000652465820312501;6.81999998278116;683;100 mA
9.55126997588536;0.3997802734375;0.000654296875;6.82999998275591;684;100 mA
9.56126997586011;0.39971923828125;0.000655517578125001;6.83999998273066;685;100 mA
9.57126997583487;0.39971923828125;0.00065460205078125;6.84999998270541;686;100 mA
9.58126997580962;0.3997802734375;0.00065582275390625;6.85999998268016;687;100 mA
9.59126997578437;0.39984130859375;0.00065338134765625;6.86999998265492;688;100 mA
9.60126997575912;0.39984130859375;0.000653991699218751;6.87999998262967;689;100 mA
9.61126997573388;0.399749755859375;0.00065277099609375;6.88999998260442;690;100 mA
9.62126997570863;0.3997802734375;0.000652465820312501;6.89999998257917;691;100 mA
9.63126997568338;0.3997802734375;0.00065155029296875;6.90999998255393;692;100 mA
9.64126997565813;0.3997802734375;0.00064971923828125;6.91999998252868;693;100 mA
9.65126997563289;0.399749755859375;0.000650939941406251;6.92999998250343;694;100 mA
9.66126997560764;0.3997802734375;0.00064971923828125;6.93999998247818;695;100 mA
9.67126997558239;0.39984130859375;0.000649414062500001;6.94999998245294;696;100 mA
9.68126997555714;0.399810791015625;0.00064849853515625;6.95999998242769;697;100 mA
9.6912699755319;0.399749755859375;0.00064849853515625;6.96999998240244;698;100 mA
9.70126997550665;0.399810791015625;0.00065032958984375;6.97999998237719;699;100 mA
9.7112699754814;0.3997802734375;0.000649414062500001;6.98999998235195;700;100 mA
9.72126997545615;0.399810791015625;0.000649108886718749;6.9999999823267;701;100 mA
9.73126997543091;0.39984130859375;0.000649414062500001;7.00999998230145;702;100 mA
9.74126997540566;0.3997802734375;0.00064697265625;7.0199999822762;703;100 mA
9.75126997538041;0.399810791015625;0.000649108886718749;7.02999998225096;704;100 mA
9.76126997535516;0.3997802734375;0.0006488037109375;7.03999998222571;705;100 mA
9.77126997532991;0.39971923828125;0.000649414062500001;7.04999998220046;706;100 mA
9.78126997530467;0.399810791015625;0.000649108886718749;7.05999998217521;707;100 mA
9.79126997527942;0.3997802734375;0.00064849853515625;7.06999998214997;708;100 mA
9.80126997525417;0.3997802734375;0.00064971923828125;7.07999998212472;709;100 mA
9.81126997522892;0.39971923828125;0.000649108886718749;7.08999998209947;710;100 mA
9.82126997520368;0.3997802734375;0.000648193359375;7.09999998207422;711;100 mA
9.83126997517843;0.399749755859375;0.0006488037109375;7.10999998204898;712;100 mA
9.84126997515318;0.399810791015625;0.00064605712890625;7.11999998202373;713;100 mA
9.85126997512793;0.399810791015625;0.000646362304687501;7.12999998199848;714;100 mA
9.86126997510269;0.399749755859375;0.00064697265625;7.13999998197323;715;100 mA
9.87126997507744;0.3997802734375;0.00064422607421875;7.14999998194799;716;100 mA
9.88126997505219;0.3997802734375;0.00064605712890625;7.15999998192274;717;100 mA
9.89126997502694;0.399749755859375;0.000645751953125;7.16999998189749;718;100 mA
9.9012699750017;0.399810791015625;0.00064361572265625;7.17999998187224;719;100 mA
9.91126997497645;0.39971923828125;0.0006451416015625;7.189999981847;720;100 mA
9.9212699749512;0.399810791015625;0.000645751953125;7.19999998182175;721;100 mA
9.93126997492595;0.399749755859375;0.00064605712890625;7.2099999817965;722;100 mA
9.94126997490071;0.3997802734375;0.0006488037109375;7.21999998177125;723;100 mA
9.95126997487546;0.399749755859375;0.000646362304687501;7.229999981746;724;100 mA
9.96126997485021;0.399810791015625;0.00064697265625;7.23999998172076;725;100 mA
9.97126997482496;0.399810791015625;0.0006451416015625;7.24999998169551;726;100 mA
9.98126997479972;0.39971923828125;0.00064666748046875;7.25999998167026;727;100 mA
9.99126997477447;0.399749755859375;0.000644531249999999;7.26999998164501;728;100 mA
10.0012699747492;0.39971923828125;0.000644836425781251;7.27999998161977;729;100 mA
10.011269974724;0.399749755859375;0.000644836425781251;7.28999998159452;730;100 mA
10.0212699746987;0.3997802734375;0.000645751953125;7.29999998156927;731;100 mA
10.0312699746735;0.399810791015625;0.00064697265625;7.30999998154402;732;100 mA
10.0412699746482;0.399749755859375;0.000646362304687501;7.31999998151878;733;100 mA
10.051269974623;0.399749755859375;0.000645751953125;7.32999998149353;734;100 mA
10.0612699745977;0.399749755859375;0.00064666748046875;7.33999998146828;735;100 mA
10.0712699745725;0.399810791015625;0.00064666748046875;7.34999998144303;736;100 mA
10.0812699745472;0.3997802734375;0.000646362304687501;7.35999998141779;737;100 mA
10.091269974522;0.399749755859375;0.000644836425781251;7.36999998139254;738;100 mA
10.1012699744967;0.3997802734375;0.00064422607421875;7.37999998136729;739;100 mA
10.1112699744715;0.399749755859375;0.000643310546875001;7.38999998134204;740;100 mA
10.1212699744462;0.39971923828125;0.000643005371093749;7.3999999813168;741;100 mA
10.131269974421;0.399810791015625;0.000643310546875001;7.40999998129155;742;100 mA
10.1412699743958;0.399810791015625;0.000641479492187499;7.4199999812663;743;100 mA
10.1512699743705;0.399810791015625;0.00064422607421875;7.42999998124105;744;100 mA
10.1612699743453;0.3997802734375;0.000641479492187499;7.43999998121581;745;100 mA
10.17126997432;0.399810791015625;0.000643310546875001;7.44999998119056;746;100 mA
10.1812699742948;0.3997802734375;0.00064544677734375;7.45999998116531;747;100 mA
10.1912699742695;0.39971923828125;0.0006451416015625;7.46999998114006;748;100 mA
10.2012699742443;0.3997802734375;0.000645751953125;7.47999998111482;749;100 mA
10.211269974219;0.399810791015625;0.00064666748046875;7.48999998108957;750;100 mA
10.2212699741938;0.3997802734375;0.000645751953125;7.49999998106432;751;100 mA
10.2312699741685;0.3997802734375;0.000644836425781251;7.50999998103907;752;100 mA
10.2412699741433;0.3997802734375;0.0006439208984375;7.51999998101383;753;100 mA
10.251269974118;0.399749755859375;0.000644836425781251;7.52999998098858;754;100 mA
10.2612699740928;0.39971923828125;0.000644836425781251;7.53999998096333;755;100 mA
10.2712699740675;0.399749755859375;0.00064544677734375;7.54999998093808;756;100 mA
10.2812699740423;0.399749755859375;0.00064605712890625;7.55999998091283;757;100 mA
10.291269974017;0.3997802734375;0.000644531249999999;7.56999998088759;758;100 mA
10.3012699739918;0.399749755859375;0.00064422607421875;7.57999998086234;759;100 mA
10.3112699739665;0.3997802734375;0.000644836425781251;7.58999998083709;760;100 mA
10.3212699739413;0.399749755859375;0.00064422607421875;7.59999998081184;761;100 mA
10.3312699739161;0.399749755859375;0.00064422607421875;7.6099999807866;762;100 mA
10.3412699738908;0.399688720703125;0.00064208984375;7.61999998076135;763;100 mA
10.3512699738656;0.39984130859375;0.000641479492187499;7.6299999807361;764;100 mA
10.3612699738403;0.399749755859375;0.00064117431640625;7.63999998071085;765;100 mA
10.3712699738151;0.3997802734375;0.000640258789062501;7.64999998068561;766;100 mA
10.3812699737898;0.3997802734375;0.00064056396484375;7.65999998066036;767;100 mA
10.3912699737646;0.3997802734375;0.00064056396484375;7.66999998063511;768;100 mA
10.4012699737393;0.3997802734375;0.00064208984375;7.67999998060986;769;100 mA
10.4112699737141;0.3997802734375;0.000643310546875001;7.68999998058462;770;100 mA
10.4212699736888;0.399749755859375;0.000643005371093749;7.69999998055937;771;100 mA
10.4312699736636;0.399749755859375;0.00064361572265625;7.70999998053412;772;100 mA
10.4412699736383;0.3997802734375;0.000641784667968751;7.71999998050887;773;100 mA
10.4512699736131;0.399810791015625;0.000641784667968751;7.72999998048363;774;100 mA
10.4612699735878;0.3997802734375;0.000641479492187499;7.73999998045838;775;100 mA
10.4712699735626;0.399810791015625;0.00064239501953125;7.74999998043313;776;100 mA
10.4812699735373;0.399810791015625;0.00064361572265625;7.75999998040788;777;100 mA
10.4912699735121;0.399749755859375;0.00064422607421875;7.76999998038264;778;100 mA
10.5012699734868;0.3997802734375;0.0006451416015625;7.77999998035739;779;100 mA
10.5112699734616;0.399749755859375;0.000645751953125;7.78999998033214;780;100 mA
10.5212699734363;0.399810791015625;0.000644836425781251;7.79999998030689;781;100 mA
10.5312699734111;0.3997802734375;0.00064697265625;7.80999998028165;782;100 mA
10.5412699733859;0.3997802734375;0.00064544677734375;7.8199999802564;783;100 mA
10.5512699733606;0.3997802734375;0.00064666748046875;7.82999998023115;784;100 mA
10.5612699733354;0.3997802734375;0.0006475830078125;7.8399999802059;785;100 mA
10.5712699733101;0.3997802734375;0.0006451416015625;7.84999998018066;786;100 mA
10.5812699732849;0.399749755859375;0.0006451416015625;7.85999998015541;787;100 mA
10.5912699732596;0.399749755859375;0.0006427001953125;7.86999998013016;788;100 mA
10.6012699732344;0.39984130859375;0.00064422607421875;7.87999998010491;789;100 mA
10.6112699732091;0.399810791015625;0.00064361572265625;7.88999998007966;790;100 mA
10.6212699731839;0.399749755859375;0.000643310546875001;7.89999998005442;791;100 mA
10.6312699731586;0.3997802734375;0.000644836425781251;7.90999998002917;792;100 mA
10.6412699731334;0.3997802734375;0.00064208984375;7.91999998000392;793;100 mA
10.6512699731081;0.39971923828125;0.00064605712890625;7.92999997997867;794;100 mA
10.6612699730829;0.3997802734375;0.000649414062500001;7.93999997995343;795;100 mA
10.6712699730576;0.3997802734375;0.00064727783203125;7.94999997992818;796;100 mA
10.6812699730324;0.399749755859375;0.000648193359375;7.95999997990293;797;100 mA
10.6912699730071;0.399749755859375;0.00064605712890625;7.96999997987768;798;100 mA
10.7012699729819;0.3997802734375;0.000646362304687501;7.97999997985244;799;100 mA
10.7112699729566;0.3997802734375;0.00064544677734375;7.98999997982719;800;100 mA
10.7212699729314;0.3997802734375;0.00064666748046875;7.99999997980194;801;100 mA
10.7312699729061;0.3997802734375;0.000648193359375;8.00999997977669;802;100 mA
10.7412699728809;0.399749755859375;0.0006475830078125;8.01999997975145;803;100 mA
10.7512699728557;0.39971923828125;0.000649108886718749;8.0299999797262;804;100 mA
10.7612699728304;0.39971923828125;0.000650634765624999;8.03999997970095;805;100 mA
10.7712699728052;0.399810791015625;0.000650634765624999;8.0499999796757;806;100 mA
10.7812699727799;0.3997802734375;0.00065277099609375;8.05999997965046;807;100 mA
10.7912699727547;0.39971923828125;0.00065185546875;8.06999997962521;808;100 mA
10.8012699727294;0.39971923828125;0.0006512451171875;8.07999997959996;809;100 mA
10.8112699727042;0.399810791015625;0.000650634765624999;8.08999997957471;810;100 mA
10.8212699726789;0.399749755859375;0.0006500244140625;8.09999997954947;811;100 mA
10.8312699726537;0.399810791015625;0.00064971923828125;8.10999997952422;812;100 mA
10.8412699726284;0.3997802734375;0.00064849853515625;8.11999997949897;813;100 mA
10.8512699726032;0.39971923828125;0.00065032958984375;8.12999997947372;814;100 mA
10.8612699725779;0.39971923828125;0.000648193359375;8.13999997944848;815;100 mA
10.8712699725527;0.3997802734375;0.0006475830078125;8.14999997942323;816;100 mA
10.8812699725274;0.399749755859375;0.0006475830078125;8.15999997939798;817;100 mA
10.8912699725022;0.3997802734375;0.00064605712890625;8.16999997937273;818;100 mA
10.9012699724769;0.3997802734375;0.000649108886718749;8.17999997934749;819;100 mA
10.9112699724517;0.3997802734375;0.00064727783203125;8.18999997932224;820;100 mA
10.9212699724264;0.39971923828125;0.00064605712890625;8.19999997929699;821;100 mA
10.9312699724012;0.399810791015625;0.000646362304687501;8.20999997927174;822;100 mA
10.9412699723759;0.3997802734375;0.00064361572265625;8.2199999792465;823;100 mA
10.9512699723507;0.399810791015625;0.0006451416015625;8.22999997922125;824;100 mA
10.9612699723255;0.399810791015625;0.000644531249999999;8.239999979196;825;100 mA
10.9712699723002;0.39984130859375;0.0006439208984375;8.24999997917075;826;100 mA
10.981269972275;0.39971923828125;0.000645751953125;8.2599999791455;827;100 mA
10.9912699722497;0.3997802734375;0.000645751953125;8.26999997912026;828;100 mA
11.0012699722245;0.399749755859375;0.000646362304687501;8.27999997909501;829;100 mA
11.0112699721992;0.399749755859375;0.000646362304687501;8.28999997906976;830;100 mA
11.021269972174;0.39971923828125;0.00064605712890625;8.29999997904451;831;100 mA
11.0312699721487;0.39971923828125;0.00064544677734375;8.30999997901927;832;100 mA
11.0412699721235;0.3997802734375;0.000643310546875001;8.31999997899402;833;100 mA
11.0512699720982;0.399810791015625;0.000645751953125;8.32999997896877;834;100 mA
11.061269972073;0.39984130859375;0.000644531249999999;8.33999997894352;835;100 mA
11.0712699720477;0.3997802734375;0.00064422607421875;8.34999997891828;836;100 mA
11.0812699720225;0.399749755859375;0.00064361572265625;8.35999997889303;837;100 mA
11.0912699719972;0.3997802734375;0.0006427001953125;8.36999997886778;838;100 mA
11.101269971972;0.3997802734375;0.00064208984375;8.37999997884253;839;100 mA
11.1112699719467;0.3997802734375;0.0006427001953125;8.38999997881729;840;100 mA
11.1212699719215;0.3997802734375;0.000643310546875001;8.39999997879204;841;100 mA
11.1312699718962;0.399810791015625;0.000643005371093749;8.40999997876679;842;100 mA
11.141269971871;0.3997802734375;0.000644531249999999;8.41999997874154;843;100 mA
11.1512699718457;0.3997802734375;0.0006427001953125;8.4299999787163;844;100 mA
11.1612699718205;0.3997802734375;0.00064239501953125;8.43999997869105;845;100 mA
11.1712699717953;0.399749755859375;0.00064239501953125;8.4499999786658;846;100 mA
11.18126997177;0.399810791015625;0.000641479492187499;8.45999997864055;847;100 mA
11.1912699717448;0.399749755859375;0.00064056396484375;8.46999997861531;848;100 mA
11.2012699717195;0.3997802734375;0.00063934326171875;8.47999997859006;849;100 mA
11.2112699716943;0.3997802734375;0.000640869140625;8.48999997856481;850;100 mA
11.221269971669;0.399810791015625;0.00064056396484375;8.49999997853956;851;100 mA
11.2312699716438;0.39984130859375;0.000643310546875001;8.50999997851432;852;100 mA
11.2412699716185;0.399810791015625;0.000640258789062501;8.51999997848907;853;100 mA
11.2512699715933;0.399749755859375;0.000643310546875001;8.52999997846382;854;100 mA
11.261269971568;0.39971923828125;0.000644836425781251;8.53999997843857;855;100 mA
11.2712699715428;0.399749755859375;0.000643310546875001;8.54999997841333;856;100 mA
11.2812699715175;0.399749755859375;0.000644531249999999;8.55999997838808;857;100 mA
11.2912699714923;0.3997802734375;0.000641479492187499;8.56999997836283;858;100 mA
11.301269971467;0.3997802734375;0.00064208984375;8.57999997833758;859;100 mA
11.3112699714418;0.399749755859375;0.00064117431640625;8.58999997831233;860;100 mA
11.3212699714165;0.3997802734375;0.000640258789062501;8.59999997828709;861;100 mA
11.3312699713913;0.3997802734375;0.000641479492187499;8.60999997826184;862;100 mA
11.341269971366;0.399810791015625;0.000638427734375;8.61999997823659;863;100 mA
11.3512699713408;0.39984130859375;0.00064056396484375;8.62999997821134;864;100 mA
11.3612699713156;0.399810791015625;0.00064117431640625;8.6399999781861;865;100 mA
11.3712699712903;0.3997802734375;0.000643005371093749;8.64999997816085;866;100 mA
11.3812699712651;0.399749755859375;0.0006427001953125;8.6599999781356;867;100 mA
11.3912699712398;0.399810791015625;0.000640869140625;8.66999997811035;868;100 mA
11.4012699712146;0.3997802734375;0.0006427001953125;8.67999997808511;869;100 mA
11.4112699711893;0.3997802734375;0.000643005371093749;8.68999997805986;870;100 mA
11.4212699711641;0.399810791015625;0.00063995361328125;8.69999997803461;871;100 mA
11.4312699711388;0.3997802734375;0.00064117431640625;8.70999997800936;872;100 mA
11.4412699711136;0.3997802734375;0.0006390380859375;8.71999997798412;873;100 mA
11.4512699710883;0.399749755859375;0.000640258789062501;8.72999997795887;874;100 mA
11.4612699710631;0.399749755859375;0.000641479492187499;8.73999997793362;875;100 mA
11.4712699710378;0.399749755859375;0.00064117431640625;8.74999997790837;876;100 mA
11.4812699710126;0.39984130859375;0.00063995361328125;8.75999997788313;877;100 mA
11.4912699709873;0.3997802734375;0.00063995361328125;8.76999997785788;878;100 mA
11.5012699709621;0.3997802734375;0.00063995361328125;8.77999997783263;879;100 mA
11.5112699709368;0.399810791015625;0.0006396484375;8.78999997780738;880;100 mA
11.5212699709116;0.3997802734375;0.000640258789062501;8.79999997778214;881;100 mA
11.5312699708863;0.399810791015625;0.000641479492187499;8.80999997775689;882;100 mA
11.5412699708611;0.399749755859375;0.00063812255859375;8.81999997773164;883;100 mA
11.5512699708358;0.399749755859375;0.0006390380859375;8.82999997770639;884;100 mA
11.5612699708106;0.39984130859375;0.000638732910156251;8.83999997768115;885;100 mA
11.5712699707854;0.39971923828125;0.0006396484375;8.8499999776559;886;100 mA
11.5812699707601;0.399749755859375;0.00064056396484375;8.85999997763065;887;100 mA
11.5912699707349;0.399749755859375;0.00063934326171875;8.8699999776054;888;100 mA
11.6012699707096;0.39971923828125;0.0006396484375;8.87999997758016;889;100 mA
11.6112699706844;0.3997802734375;0.00063934326171875;8.88999997755491;890;100 mA
11.6212699706591;0.3997802734375;0.000641784667968751;8.89999997752966;891;100 mA
11.6312699706339;0.39984130859375;0.00064208984375;8.90999997750441;892;100 mA
11.6412699706086;0.3997802734375;0.000641479492187499;8.91999997747916;893;100 mA
11.6512699705834;0.39984130859375;0.000641479492187499;8.92999997745392;894;100 mA
11.6612699705581;0.3997802734375;0.00064056396484375;8.93999997742867;895;100 mA
11.6712699705329;0.399810791015625;0.000640258789062501;8.94999997740342;896;100 mA
11.6812699705076;0.399749755859375;0.000641784667968751;8.95999997737817;897;100 mA
11.6912699704824;0.3997802734375;0.000641479492187499;8.96999997735293;898;100 mA
11.7012699704571;0.3997802734375;0.00064208984375;8.97999997732768;899;100 mA
11.7112699704319;0.3997802734375;0.000643005371093749;8.98999997730243;900;100 mA
11.7212699704066;0.399749755859375;0.000643310546875001;8.99999997727718;901;100 mA
11.7312699703814;0.399688720703125;0.0006451416015625;9.00999997725194;902;100 mA
11.7412699703561;0.3997802734375;0.00064422607421875;9.01999997722669;903;100 mA
11.7512699703309;0.399749755859375;0.000646362304687501;9.02999997720144;904;100 mA
11.7612699703056;0.39971923828125;0.000644531249999999;9.03999997717619;905;100 mA
11.7712699702804;0.399810791015625;0.000643310546875001;9.04999997715095;906;100 mA
11.7812699702552;0.3997802734375;0.000643310546875001;9.0599999771257;907;100 mA
11.7912699702299;0.3997802734375;0.00064239501953125;9.06999997710045;908;100 mA
11.8012699702047;0.399810791015625;0.00064239501953125;9.0799999770752;909;100 mA
11.8112699701794;0.399749755859375;0.0006427001953125;9.08999997704996;910;100 mA
11.8212699701542;0.39984130859375;0.000641479492187499;9.09999997702471;911;100 mA
11.8312699701289;0.399749755859375;0.0006439208984375;9.10999997699946;912;100 mA
11.8412699701037;0.3997802734375;0.000643310546875001;9.11999997697421;913;100 mA
11.8512699700784;0.3997802734375;0.000644836425781251;9.12999997694897;914;100 mA
11.8612699700532;0.399810791015625;0.000646362304687501;9.13999997692372;915;100 mA
11.8712699700279;0.399810791015625;0.00064544677734375;9.14999997689847;916;100 mA
11.8812699700027;0.399810791015625;0.000644836425781251;9.15999997687322;917;100 mA
11.8912699699774;0.3997802734375;0.00064208984375;9.16999997684798;918;100 mA
11.9012699699522;0.399749755859375;0.00064361572265625;9.17999997682273;919;100 mA
11.9112699699269;0.399749755859375;0.0006427001953125;9.18999997679748;920;100 mA
11.9212699699017;0.3997802734375;0.000643310546875001;9.19999997677223;921;100 mA
11.9312699698764;0.39971923828125;0.000644531249999999;9.20999997674699;922;100 mA
11.9412699698512;0.3997802734375;0.00064361572265625;9.21999997672174;923;100 mA
11.9512699698259;0.399810791015625;0.000644836425781251;9.22999997669649;924;100 mA
11.9612699698007;0.3997802734375;0.00064422607421875;9.23999997667124;925;100 mA
11.9712699697754;0.399749755859375;0.000644836425781251;9.249999976646;926;100 mA
11.9812699697502;0.399749755859375;0.000647888183593751;9.25999997662075;927;100 mA
11.991269969725;0.3997802734375;0.000644531249999999;9.2699999765955;928;100 mA
12.0012699696997;0.399810791015625;0.0006451416015625;9.27999997657025;929;100 mA
12.0112699696745;0.399749755859375;0.00064605712890625;9.289999976545;930;100 mA
12.0212699696492;0.3997802734375;0.00064605712890625;9.29999997651976;931;100 mA
12.031269969624;0.399810791015625;0.000647888183593751;9.30999997649451;932;100 mA
12.0412699695987;0.399810791015625;0.000645751953125;9.31999997646926;933;100 mA
12.0512699695735;0.399749755859375;0.00064666748046875;9.32999997644401;934;100 mA
12.0612699695482;0.399810791015625;0.000645751953125;9.33999997641877;935;100 mA
12.071269969523;0.3997802734375;0.0006451416015625;9.34999997639352;936;100 mA
12.0812699694977;0.399810791015625;0.00064544677734375;9.35999997636827;937;100 mA
12.0912699694725;0.3997802734375;0.00064605712890625;9.36999997634302;938;100 mA
12.1012699694472;0.399749755859375;0.000647888183593751;9.37999997631778;939;100 mA
12.111269969422;0.399749755859375;0.0006475830078125;9.38999997629253;940;100 mA
12.1212699693967;0.3997802734375;0.000648193359375;9.39999997626728;941;100 mA
12.1312699693715;0.3997802734375;0.000649108886718749;9.40999997624203;942;100 mA
12.1412699693462;0.3997802734375;0.0006475830078125;9.41999997621679;943;100 mA
12.151269969321;0.399810791015625;0.000649108886718749;9.42999997619154;944;100 mA
12.1612699692957;0.39971923828125;0.00064849853515625;9.43999997616629;945;100 mA
12.1712699692705;0.399810791015625;0.000649108886718749;9.44999997614104;946;100 mA
12.1812699692452;0.399749755859375;0.0006500244140625;9.4599999761158;947;100 mA
12.19126996922;0.399810791015625;0.000649108886718749;9.46999997609055;948;100 mA
12.2012699691948;0.3997802734375;0.0006512451171875;9.4799999760653;949;100 mA
12.2112699691695;0.399749755859375;0.000650939941406251;9.48999997604005;950;100 mA
12.2212699691443;0.39971923828125;0.000650634765624999;9.49999997601481;951;100 mA
12.231269969119;0.399749755859375;0.000650634765624999;9.50999997598956;952;100 mA
12.2412699690938;0.399749755859375;0.000649414062500001;9.51999997596431;953;100 mA
12.2512699690685;0.3997802734375;0.00064971923828125;9.52999997593906;954;100 mA
12.2612699690433;0.3997802734375;0.00064971923828125;9.53999997591382;955;100 mA
12.271269969018;0.3997802734375;0.00064849853515625;9.54999997588857;956;100 mA
12.2812699689928;0.3997802734375;0.000649108886718749;9.55999997586332;957;100 mA
12.2912699689675;0.3997802734375;0.0006475830078125;9.56999997583807;958;100 mA
12.3012699689423;0.399749755859375;0.00064849853515625;9.57999997581283;959;100 mA
12.311269968917;0.399810791015625;0.000649108886718749;9.58999997578758;960;100 mA
12.3212699688918;0.39971923828125;0.0006488037109375;9.59999997576233;961;100 mA
12.3312699688665;0.39971923828125;0.000650939941406251;9.60999997573708;962;100 mA
12.3412699688413;0.399749755859375;0.000650634765624999;9.61999997571183;963;100 mA
12.351269968816;0.3997802734375;0.000648193359375;9.62999997568659;964;100 mA
12.3612699687908;0.399810791015625;0.0006488037109375;9.63999997566134;965;100 mA
12.3712699687655;0.399810791015625;0.0006488037109375;9.64999997563609;966;100 mA
12.3812699687403;0.399749755859375;0.00064849853515625;9.65999997561084;967;100 mA
12.3912699687151;0.3997802734375;0.0006475830078125;9.6699999755856;968;100 mA
12.4012699686898;0.39984130859375;0.000647888183593751;9.67999997556035;969;100 mA
12.4112699686646;0.399749755859375;0.000650634765624999;9.6899999755351;970;100 mA
12.4212699686393;0.399749755859375;0.00065032958984375;9.69999997550985;971;100 mA
12.4312699686141;0.399749755859375;0.000652465820312501;9.70999997548461;972;100 mA
12.4412699685888;0.3997802734375;0.000652160644531249;9.71999997545936;973;100 mA
12.4512699685636;0.3997802734375;0.00065338134765625;9.72999997543411;974;100 mA
12.4612699685383;0.39984130859375;0.00065460205078125;9.73999997540886;975;100 mA
12.4712699685131;0.399810791015625;0.000652465820312501;9.74999997538362;976;100 mA
12.4812699684878;0.399749755859375;0.00065521240234375;9.75999997535837;977;100 mA
12.4912699684626;0.399810791015625;0.000653076171875;9.76999997533312;978;100 mA
12.5012699684373;0.3997802734375;0.00065338134765625;9.77999997530787;979;100 mA
12.5112699684121;0.399688720703125;0.000653991699218751;9.78999997528263;980;100 mA
12.5212699683868;0.399749755859375;0.00065185546875;9.79999997525738;981;100 mA
12.5312699683616;0.39984130859375;0.00065277099609375;9.80999997523213;982;100 mA
12.5412699683363;0.399749755859375;0.000650634765624999;9.81999997520688;983;100 mA
12.5512699683111;0.399810791015625;0.00065185546875;9.82999997518164;984;100 mA
12.5612699682858;0.39971923828125;0.0006512451171875;9.83999997515639;985;100 mA
12.5712699682606;0.399749755859375;0.000653076171875;9.84999997513114;986;100 mA
12.5812699682353;0.3997802734375;0.000653991699218751;9.85999997510589;987;100 mA
12.5912699682101;0.399749755859375;0.000652160644531249;9.86999997508065;988;100 mA
12.6012699681849;0.399749755859375;0.000652160644531249;9.8799999750554;989;100 mA
12.6112699681596;0.3997802734375;0.00065155029296875;9.88999997503015;990;100 mA
12.6212699681344;0.399810791015625;0.00064971923828125;9.8999999750049;991;100 mA
12.6312699681091;0.3997802734375;0.000650939941406251;9.90999997497966;992;100 mA
12.6412699680839;0.399810791015625;0.0006500244140625;9.91999997495441;993;100 mA
12.6512699680586;0.399810791015625;0.0006500244140625;9.92999997492916;994;100 mA
12.6612699680334;0.3997802734375;0.000650634765624999;9.93999997490391;995;100 mA
12.6712699680081;0.3997802734375;0.0006500244140625;9.94999997487866;996;100 mA
12.6812699679829;0.39971923828125;0.0006500244140625;9.95999997485342;997;100 mA
12.6912699679576;0.399749755859375;0.0006488037109375;9.96999997482817;998;100 mA
12.7012699679324;0.399810791015625;0.00065032958984375;9.97999997480292;999;100 mA
12.7112699679071;0.39971923828125;0.000650939941406251;9.98999997477767;1000;100 mA
