Time (s);WE(1).Potential (V);WE(1).Current (A);Corrected time (s);Index;Current range
13.2034669666645;0.29986572265625;-0.000233154296875;0;1;100 mA
13.2134669666392;0.299835205078125;1.31225585937506E-05;0.00999999997475243;2;100 mA
13.223466966614;0.29986572265625;0.00013397216796875;0.0199999999495049;3;100 mA
13.2334669665887;0.299835205078125;0.000203552246093749;0.0299999999242573;4;100 mA
13.2434669665635;0.299896240234375;0.00025146484375;0.0399999998990097;5;100 mA
13.2534669665382;0.29986572265625;0.000287475585937499;0.0499999998737621;6;100 mA
13.263466966513;0.299896240234375;0.000313415527343749;0.0599999998485146;7;100 mA
13.2734669664877;0.29986572265625;0.00033538818359375;0.069999999823267;8;100 mA
13.2834669664625;0.299896240234375;0.000351867675781251;0.0799999997980194;9;100 mA
13.2934669664372;0.299896240234375;0.0003680419921875;0.0899999997727718;10;100 mA
13.303466966412;0.299896240234375;0.000379638671875;0.0999999997475243;11;100 mA
13.3134669663867;0.29986572265625;0.000389404296875;0.109999999722277;12;100 mA
13.3234669663615;0.299835205078125;0.0003997802734375;0.119999999697029;13;100 mA
13.3334669663362;0.2998046875;0.0004058837890625;0.129999999671782;14;100 mA
13.343466966311;0.299835205078125;0.000412597656249999;0.139999999646534;15;100 mA
13.3534669662857;0.29986572265625;0.0004193115234375;0.149999999621286;16;100 mA
13.3634669662605;0.299835205078125;0.000424804687499999;0.159999999596039;17;100 mA
13.3734669662352;0.299896240234375;0.00043060302734375;0.169999999570791;18;100 mA
13.38346696621;0.299835205078125;0.000434265136718751;0.179999999545544;19;100 mA
13.3934669661847;0.2998046875;0.000440063476562499;0.189999999520296;20;100 mA
13.4034669661595;0.299896240234375;0.00044403076171875;0.199999999495049;21;100 mA
13.4134669661343;0.29986572265625;0.000446472167968751;0.209999999469801;22;100 mA
13.423466966109;0.2999267578125;0.00045196533203125;0.219999999444553;23;100 mA
13.4334669660838;0.2999267578125;0.00045440673828125;0.229999999419306;24;100 mA
13.4434669660585;0.299835205078125;0.00045806884765625;0.239999999394058;25;100 mA
13.4534669660333;0.299957275390625;0.0004595947265625;0.249999999368811;26;100 mA
13.463466966008;0.2998046875;0.000462951660156249;0.259999999343563;27;100 mA
13.4734669659828;0.299835205078125;0.000466003417968749;0.269999999318316;28;100 mA
13.4834669659575;0.299835205078125;0.0004681396484375;0.279999999293068;29;100 mA
13.4934669659323;0.299835205078125;0.00047027587890625;0.28999999926782;30;100 mA
13.503466965907;0.299835205078125;0.00047607421875;0.299999999242573;31;100 mA
13.5134669658818;0.29986572265625;0.00047607421875;0.309999999217325;32;100 mA
13.5234669658565;0.299896240234375;0.00048248291015625;0.319999999192078;33;100 mA
13.5334669658313;0.299896240234375;0.000481262207031249;0.32999999916683;34;100 mA
13.543466965806;0.29986572265625;0.000484313964843749;0.339999999141583;35;100 mA
13.5534669657808;0.29986572265625;0.000484619140625001;0.349999999116335;36;100 mA
13.5634669657555;0.2998046875;0.0004840087890625;0.359999999091087;37;100 mA
13.5734669657303;0.299896240234375;0.000485839843749999;0.36999999906584;38;100 mA
13.583466965705;0.29986572265625;0.0004864501953125;0.379999999040592;39;100 mA
13.5934669656798;0.299896240234375;0.00048858642578125;0.389999999015345;40;100 mA
13.6034669656545;0.29986572265625;0.000489501953125;0.399999998990097;41;100 mA
13.6134669656293;0.29986572265625;0.000490417480468749;0.40999999896485;42;100 mA
13.6234669656041;0.29986572265625;0.00049468994140625;0.419999998939602;43;100 mA
13.6334669655788;0.299896240234375;0.00049285888671875;0.429999998914354;44;100 mA
13.6434669655536;0.29986572265625;0.000494384765625;0.439999998889107;45;100 mA
13.6534669655283;0.299835205078125;0.00049713134765625;0.449999998863859;46;100 mA
13.6634669655031;0.299835205078125;0.000496520996093749;0.459999998838612;47;100 mA
13.6734669654778;0.29986572265625;0.000499572753906249;0.469999998813364;48;100 mA
13.6834669654526;0.29986572265625;0.00049774169921875;0.479999998788116;49;100 mA
13.6934669654273;0.29986572265625;0.000499877929687501;0.489999998762869;50;100 mA
13.7034669654021;0.29986572265625;0.00050079345703125;0.499999998737621;51;100 mA
13.7134669653768;0.299896240234375;0.00050018310546875;0.509999998712374;52;100 mA
13.7234669653516;0.29986572265625;0.000501708984375;0.519999998687126;53;100 mA
13.7334669653263;0.29986572265625;0.000501708984375;0.529999998661879;54;100 mA
13.7434669653011;0.299835205078125;0.000502929687500001;0.539999998636631;55;100 mA
13.7534669652758;0.299835205078125;0.0005047607421875;0.549999998611383;56;100 mA
13.7634669652506;0.2999267578125;0.00050689697265625;0.559999998586136;57;100 mA
13.7734669652253;0.299835205078125;0.000510559082031251;0.569999998560888;58;100 mA
13.7834669652001;0.29986572265625;0.0005108642578125;0.579999998535641;59;100 mA
13.7934669651748;0.299774169921875;0.00050933837890625;0.589999998510393;60;100 mA
13.8034669651496;0.299835205078125;0.0005108642578125;0.599999998485146;61;100 mA
13.8134669651243;0.299835205078125;0.00050811767578125;0.609999998459898;62;100 mA
13.8234669650991;0.299896240234375;0.0005108642578125;0.61999999843465;63;100 mA
13.8334669650739;0.299896240234375;0.00050872802734375;0.629999998409403;64;100 mA
13.8434669650486;0.29986572265625;0.00050933837890625;0.639999998384155;65;100 mA
13.8534669650234;0.29986572265625;0.00050994873046875;0.649999998358908;66;100 mA
13.8634669649981;0.29986572265625;0.000509033203125001;0.65999999833366;67;100 mA
13.8734669649729;0.299896240234375;0.000510559082031251;0.669999998308413;68;100 mA
13.8834669649476;0.299835205078125;0.00050994873046875;0.679999998283165;69;100 mA
13.8934669649224;0.299896240234375;0.00051300048828125;0.689999998257917;70;100 mA
13.9034669648971;0.299957275390625;0.000511779785156249;0.69999999823267;71;100 mA
13.9134669648719;0.299896240234375;0.00051300048828125;0.709999998207422;72;100 mA
13.9234669648466;0.29986572265625;0.000513610839843751;0.719999998182175;73;100 mA
13.9334669648214;0.299896240234375;0.000513305664062499;0.729999998156927;74;100 mA
13.9434669647961;0.29986572265625;0.0005145263671875;0.73999999813168;75;100 mA
13.9534669647709;0.29986572265625;0.0005145263671875;0.749999998106432;76;100 mA
13.9634669647456;0.2998046875;0.0005157470703125;0.759999998081184;77;100 mA
13.9734669647204;0.29986572265625;0.00051605224609375;0.769999998055937;78;100 mA
13.9834669646951;0.299896240234375;0.00051544189453125;0.779999998030689;79;100 mA
13.9934669646699;0.29986572265625;0.00051727294921875;0.789999998005442;80;100 mA
14.0034669646446;0.299896240234375;0.000517578125;0.799999997980194;81;100 mA
14.0134669646194;0.29986572265625;0.00052032470703125;0.809999997954947;82;100 mA
14.0234669645941;0.299835205078125;0.00052032470703125;0.819999997929699;83;100 mA
14.0334669645689;0.299835205078125;0.000518798828125;0.829999997904451;84;100 mA
14.0434669645437;0.2999267578125;0.000519714355468751;0.839999997879204;85;100 mA
14.0534669645184;0.299774169921875;0.0005206298828125;0.849999997853956;86;100 mA
14.0634669644932;0.29986572265625;0.00052001953125;0.859999997828709;87;100 mA
14.0734669644679;0.29986572265625;0.000521240234375001;0.869999997803461;88;100 mA
14.0834669644427;0.29986572265625;0.00052032470703125;0.879999997778214;89;100 mA
14.0934669644174;0.29986572265625;0.000520935058593749;0.889999997752966;90;100 mA
14.1034669643922;0.299835205078125;0.0005218505859375;0.899999997727718;91;100 mA
14.1134669643669;0.29986572265625;0.000521240234375001;0.909999997702471;92;100 mA
14.1234669643417;0.299835205078125;0.000522460937499999;0.919999997677223;93;100 mA
14.1334669643164;0.29986572265625;0.00052154541015625;0.929999997651976;94;100 mA
14.1434669642912;0.29986572265625;0.000521240234375001;0.939999997626728;95;100 mA
14.1534669642659;0.29986572265625;0.0005218505859375;0.949999997601481;96;100 mA
14.1634669642407;0.29986572265625;0.000520935058593749;0.959999997576233;97;100 mA
14.1734669642154;0.29986572265625;0.000522460937499999;0.969999997550985;98;100 mA
14.1834669641902;0.299835205078125;0.000522766113281251;0.979999997525738;99;100 mA
14.1934669641649;0.29986572265625;0.0005218505859375;0.98999999750049;100;100 mA
14.2034669641397;0.299896240234375;0.00052337646484375;0.999999997475243;101;100 mA
14.2134669641144;0.299835205078125;0.00052459716796875;1.00999999745;102;100 mA
14.2234669640892;0.2999267578125;0.00052520751953125;1.01999999742475;103;100 mA
14.233466964064;0.29986572265625;0.000527038574218749;1.0299999973995;104;100 mA
14.2434669640387;0.299896240234375;0.00052764892578125;1.03999999737425;105;100 mA
14.2534669640135;0.299896240234375;0.000531005859375;1.049999997349;106;100 mA
14.2634669639882;0.299835205078125;0.000528564453124999;1.05999999732376;107;100 mA
14.273466963963;0.299896240234375;0.000530395507812501;1.06999999729851;108;100 mA
14.2834669639377;0.299835205078125;0.00052764892578125;1.07999999727326;109;100 mA
14.2934669639125;0.299896240234375;0.00052825927734375;1.08999999724801;110;100 mA
14.3034669638872;0.29986572265625;0.000528869628906251;1.09999999722277;111;100 mA
14.313466963862;0.299896240234375;0.000528869628906251;1.10999999719752;112;100 mA
14.3234669638367;0.29986572265625;0.00052978515625;1.11999999717227;113;100 mA
14.3334669638115;0.2998046875;0.0005279541015625;1.12999999714702;114;100 mA
14.3434669637862;0.2998046875;0.0005291748046875;1.13999999712178;115;100 mA
14.353466963761;0.29986572265625;0.000530090332031249;1.14999999709653;116;100 mA
14.3634669637357;0.29986572265625;0.00052947998046875;1.15999999707128;117;100 mA
14.3734669637105;0.299896240234375;0.000531005859375;1.16999999704603;118;100 mA
14.3834669636852;0.299896240234375;0.0005291748046875;1.17999999702079;119;100 mA
14.39346696366;0.29986572265625;0.0005291748046875;1.18999999699554;120;100 mA
14.4034669636347;0.299835205078125;0.000528564453124999;1.19999999697029;121;100 mA
14.4134669636095;0.29986572265625;0.00052764892578125;1.20999999694504;122;100 mA
14.4234669635842;0.299835205078125;0.0005291748046875;1.2199999969198;123;100 mA
14.433466963559;0.299896240234375;0.00052642822265625;1.22999999689455;124;100 mA
14.4434669635338;0.299835205078125;0.0005279541015625;1.2399999968693;125;100 mA
14.4534669635085;0.29986572265625;0.00052642822265625;1.24999999684405;126;100 mA
14.4634669634833;0.2998046875;0.000525512695312499;1.25999999681881;127;100 mA
14.473466963458;0.2999267578125;0.00052825927734375;1.26999999679356;128;100 mA
14.4834669634328;0.29986572265625;0.00052825927734375;1.27999999676831;129;100 mA
14.4934669634075;0.2999267578125;0.0005291748046875;1.28999999674306;130;100 mA
14.5034669633823;0.29986572265625;0.00052947998046875;1.29999999671782;131;100 mA
14.513466963357;0.29986572265625;0.000531005859375;1.30999999669257;132;100 mA
14.5234669633318;0.29986572265625;0.00053131103515625;1.31999999666732;133;100 mA
14.5334669633065;0.299835205078125;0.000531005859375;1.32999999664207;134;100 mA
14.5434669632813;0.299896240234375;0.000530090332031249;1.33999999661683;135;100 mA
14.553466963256;0.29986572265625;0.00053070068359375;1.34999999659158;136;100 mA
14.5634669632308;0.299835205078125;0.00053070068359375;1.35999999656633;137;100 mA
14.5734669632055;0.2998046875;0.000533447265625001;1.36999999654108;138;100 mA
14.5834669631803;0.299835205078125;0.0005316162109375;1.37999999651583;139;100 mA
14.593466963155;0.2998046875;0.000533142089843749;1.38999999649059;140;100 mA
14.6034669631298;0.299896240234375;0.00053131103515625;1.39999999646534;141;100 mA
14.6134669631045;0.299896240234375;0.00053070068359375;1.40999999644009;142;100 mA
14.6234669630793;0.299835205078125;0.000533142089843749;1.41999999641484;143;100 mA
14.633466963054;0.29986572265625;0.00053070068359375;1.4299999963896;144;100 mA
14.6434669630288;0.29986572265625;0.000531921386718751;1.43999999636435;145;100 mA
14.6534669630036;0.29986572265625;0.0005328369140625;1.4499999963391;146;100 mA
14.6634669629783;0.299835205078125;0.00053070068359375;1.45999999631385;147;100 mA
14.6734669629531;0.299896240234375;0.0005316162109375;1.46999999628861;148;100 mA
14.6834669629278;0.29986572265625;0.000530395507812501;1.47999999626336;149;100 mA
14.6934669629026;0.299896240234375;0.00052947998046875;1.48999999623811;150;100 mA
14.7034669628773;0.29986572265625;0.0005322265625;1.49999999621286;151;100 mA
14.7134669628521;0.29986572265625;0.000531005859375;1.50999999618762;152;100 mA
14.7234669628268;0.29986572265625;0.0005352783203125;1.51999999616237;153;100 mA
14.7334669628016;0.2998046875;0.00053375244140625;1.52999999613712;154;100 mA
14.7434669627763;0.2998046875;0.0005328369140625;1.53999999611187;155;100 mA
14.7534669627511;0.299896240234375;0.0005340576171875;1.54999999608663;156;100 mA
14.7634669627258;0.29986572265625;0.000533142089843749;1.55999999606138;157;100 mA
14.7734669627006;0.2999267578125;0.00053375244140625;1.56999999603613;158;100 mA
14.7834669626753;0.299835205078125;0.00053253173828125;1.57999999601088;159;100 mA
14.7934669626501;0.299835205078125;0.0005340576171875;1.58999999598564;160;100 mA
14.8034669626248;0.299896240234375;0.00053558349609375;1.59999999596039;161;100 mA
14.8134669625996;0.29986572265625;0.000535888671875;1.60999999593514;162;100 mA
14.8234669625743;0.299896240234375;0.000538330078125;1.61999999590989;163;100 mA
14.8334669625491;0.299835205078125;0.000537109375;1.62999999588465;164;100 mA
14.8434669625238;0.29986572265625;0.000538330078125;1.6399999958594;165;100 mA
14.8534669624986;0.29986572265625;0.00053924560546875;1.64999999583415;166;100 mA
14.8634669624734;0.2998046875;0.000538330078125;1.6599999958089;167;100 mA
14.8734669624481;0.299896240234375;0.00053863525390625;1.66999999578366;168;100 mA
14.8834669624229;0.29986572265625;0.000537719726562499;1.67999999575841;169;100 mA
14.8934669623976;0.2998046875;0.000538024902343751;1.68999999573316;170;100 mA
14.9034669623724;0.2998046875;0.000538330078125;1.69999999570791;171;100 mA
14.9134669623471;0.29986572265625;0.00053741455078125;1.70999999568267;172;100 mA
14.9234669623219;0.29986572265625;0.000539550781250001;1.71999999565742;173;100 mA
14.9334669622966;0.2999267578125;0.00053741455078125;1.72999999563217;174;100 mA
14.9434669622714;0.29986572265625;0.0005401611328125;1.73999999560692;175;100 mA
14.9534669622461;0.299835205078125;0.0005413818359375;1.74999999558167;176;100 mA
14.9634669622209;0.2998046875;0.000540771484374999;1.75999999555643;177;100 mA
14.9734669621956;0.29986572265625;0.000542602539062501;1.76999999553118;178;100 mA
14.9834669621704;0.299896240234375;0.00054443359375;1.77999999550593;179;100 mA
14.9934669621451;0.29986572265625;0.000544128417968751;1.78999999548068;180;100 mA
15.0034669621199;0.299835205078125;0.000544128417968751;1.79999999545544;181;100 mA
15.0134669620946;0.29986572265625;0.00054351806640625;1.80999999543019;182;100 mA
15.0234669620694;0.2999267578125;0.000545349121093749;1.81999999540494;183;100 mA
15.0334669620441;0.2998046875;0.000545349121093749;1.82999999537969;184;100 mA
15.0434669620189;0.29986572265625;0.00054656982421875;1.83999999535445;185;100 mA
15.0534669619936;0.2998046875;0.0005474853515625;1.8499999953292;186;100 mA
15.0634669619684;0.29986572265625;0.000547180175781251;1.85999999530395;187;100 mA
15.0734669619432;0.299896240234375;0.000548400878906249;1.8699999952787;188;100 mA
15.0834669619179;0.29986572265625;0.0005474853515625;1.87999999525346;189;100 mA
15.0934669618927;0.29986572265625;0.00054931640625;1.88999999522821;190;100 mA
15.1034669618674;0.29986572265625;0.00054962158203125;1.89999999520296;191;100 mA
15.1134669618422;0.29986572265625;0.000550537109375;1.90999999517771;192;100 mA
15.1234669618169;0.29986572265625;0.000551452636718749;1.91999999515247;193;100 mA
15.1334669617917;0.29986572265625;0.00054962158203125;1.92999999512722;194;100 mA
15.1434669617664;0.299896240234375;0.000550231933593751;1.93999999510197;195;100 mA
15.1534669617412;0.29986572265625;0.000549926757812499;1.94999999507672;196;100 mA
15.1634669617159;0.299835205078125;0.00054901123046875;1.95999999505148;197;100 mA
15.1734669616907;0.299835205078125;0.000551452636718749;1.96999999502623;198;100 mA
15.1834669616654;0.299835205078125;0.000550231933593751;1.97999999500098;199;100 mA
15.1934669616402;0.29986572265625;0.00055084228515625;1.98999999497573;200;100 mA
15.2034669616149;0.29986572265625;0.0005523681640625;1.99999999495049;201;100 mA
15.2134669615897;0.29986572265625;0.00055389404296875;2.00999999492524;202;100 mA
15.2234669615644;0.299835205078125;0.00055450439453125;2.01999999489999;203;100 mA
15.2334669615392;0.29986572265625;0.0005535888671875;2.02999999487474;204;100 mA
15.2434669615139;0.299835205078125;0.000552978515624999;2.0399999948495;205;100 mA
15.2534669614887;0.29986572265625;0.00055511474609375;2.04999999482425;206;100 mA
15.2634669614635;0.2998046875;0.00055511474609375;2.059999994799;207;100 mA
15.2734669614382;0.299835205078125;0.00055694580078125;2.06999999477375;208;100 mA
15.283466961413;0.29986572265625;0.000557556152343749;2.0799999947485;209;100 mA
15.2934669613877;0.2998046875;0.000556640625;2.08999999472326;210;100 mA
15.3034669613625;0.29986572265625;0.00055816650390625;2.09999999469801;211;100 mA
15.3134669613372;0.29986572265625;0.00055877685546875;2.10999999467276;212;100 mA
15.323466961312;0.299896240234375;0.000559387207031251;2.11999999464751;213;100 mA
15.3334669612867;0.299835205078125;0.00055877685546875;2.12999999462227;214;100 mA
15.3434669612615;0.299835205078125;0.000559082031249999;2.13999999459702;215;100 mA
15.3534669612362;0.29986572265625;0.000559082031249999;2.14999999457177;216;100 mA
15.363466961211;0.299896240234375;0.0005572509765625;2.15999999454652;217;100 mA
15.3734669611857;0.299835205078125;0.000557556152343749;2.16999999452128;218;100 mA
15.3834669611605;0.299835205078125;0.00055694580078125;2.17999999449603;219;100 mA
15.3934669611352;0.299835205078125;0.00055694580078125;2.18999999447078;220;100 mA
15.40346696111;0.299896240234375;0.0005572509765625;2.19999999444553;221;100 mA
15.4134669610847;0.299835205078125;0.000556335449218751;2.20999999442029;222;100 mA
15.4234669610595;0.299896240234375;0.000559387207031251;2.21999999439504;223;100 mA
15.4334669610342;0.299896240234375;0.00055816650390625;2.22999999436979;224;100 mA
15.443466961009;0.29986572265625;0.000559387207031251;2.23999999434454;225;100 mA
15.4534669609837;0.29986572265625;0.0005633544921875;2.2499999943193;226;100 mA
15.4634669609585;0.29986572265625;0.00056182861328125;2.25999999429405;227;100 mA
15.4734669609333;0.299835205078125;0.0005621337890625;2.2699999942688;228;100 mA
15.483466960908;0.299896240234375;0.000560913085937501;2.27999999424355;229;100 mA
15.4934669608828;0.29986572265625;0.0005615234375;2.28999999421831;230;100 mA
15.5034669608575;0.29986572265625;0.00056304931640625;2.29999999419306;231;100 mA
15.5134669608323;0.299835205078125;0.000562744140625;2.30999999416781;232;100 mA
15.523466960807;0.2999267578125;0.00056304931640625;2.31999999414256;233;100 mA
15.5334669607818;0.29986572265625;0.0005633544921875;2.32999999411732;234;100 mA
15.5434669607565;0.299896240234375;0.0005645751953125;2.33999999409207;235;100 mA
15.5534669607313;0.29986572265625;0.000566711425781249;2.34999999406682;236;100 mA
15.563466960706;0.2999267578125;0.000565490722656251;2.35999999404157;237;100 mA
15.5734669606808;0.2999267578125;0.000568237304687499;2.36999999401633;238;100 mA
15.5834669606555;0.299896240234375;0.00056640625;2.37999999399108;239;100 mA
15.5934669606303;0.29986572265625;0.000567016601562501;2.38999999396583;240;100 mA
15.603466960605;0.29986572265625;0.00056732177734375;2.39999999394058;241;100 mA
15.6134669605798;0.299835205078125;0.00056640625;2.40999999391533;242;100 mA
15.6234669605545;0.299896240234375;0.000566711425781249;2.41999999389009;243;100 mA
15.6334669605293;0.29986572265625;0.000565185546874999;2.42999999386484;244;100 mA
15.643466960504;0.299835205078125;0.000565490722656251;2.43999999383959;245;100 mA
15.6534669604788;0.299835205078125;0.000565185546874999;2.44999999381434;246;100 mA
15.6634669604535;0.2998046875;0.0005657958984375;2.4599999937891;247;100 mA
15.6734669604283;0.299896240234375;0.000566711425781249;2.46999999376385;248;100 mA
15.6834669604031;0.2998046875;0.000567016601562501;2.4799999937386;249;100 mA
15.6934669603778;0.29986572265625;0.00056884765625;2.48999999371335;250;100 mA
15.7034669603526;0.29986572265625;0.000568542480468751;2.49999999368811;251;100 mA
15.7134669603273;0.2999267578125;0.00056793212890625;2.50999999366286;252;100 mA
15.7234669603021;0.299835205078125;0.00056976318359375;2.51999999363761;253;100 mA
15.7334669602768;0.299896240234375;0.000568542480468751;2.52999999361236;254;100 mA
15.7434669602516;0.29986572265625;0.0005694580078125;2.53999999358712;255;100 mA
15.7534669602263;0.299835205078125;0.00056976318359375;2.54999999356187;256;100 mA
15.7634669602011;0.2999267578125;0.000568237304687499;2.55999999353662;257;100 mA
15.7734669601758;0.2998046875;0.00057037353515625;2.56999999351137;258;100 mA
15.7834669601506;0.299835205078125;0.0005694580078125;2.57999999348613;259;100 mA
15.7934669601253;0.299835205078125;0.000571289062499999;2.58999999346088;260;100 mA
15.8034669601001;0.29986572265625;0.0005706787109375;2.59999999343563;261;100 mA
15.8134669600748;0.299835205078125;0.0005706787109375;2.60999999341038;262;100 mA
15.8234669600496;0.299896240234375;0.000571594238281251;2.61999999338514;263;100 mA
15.8334669600243;0.299896240234375;0.00056976318359375;2.62999999335989;264;100 mA
15.8434669599991;0.29986572265625;0.00056976318359375;2.63999999333464;265;100 mA
15.8534669599738;0.299896240234375;0.00057037353515625;2.64999999330939;266;100 mA
15.8634669599486;0.29986572265625;0.00056884765625;2.65999999328415;267;100 mA
15.8734669599233;0.299835205078125;0.00057037353515625;2.6699999932589;268;100 mA
15.8834669598981;0.299835205078125;0.00056976318359375;2.67999999323365;269;100 mA
15.8934669598729;0.299896240234375;0.00056884765625;2.6899999932084;270;100 mA
15.9034669598476;0.29986572265625;0.000570068359375001;2.69999999318316;271;100 mA
15.9134669598224;0.299896240234375;0.00056884765625;2.70999999315791;272;100 mA
15.9234669597971;0.29986572265625;0.000571594238281251;2.71999999313266;273;100 mA
15.9334669597719;0.299896240234375;0.000568542480468751;2.72999999310741;274;100 mA
15.9434669597466;0.299896240234375;0.0005706787109375;2.73999999308217;275;100 mA
15.9534669597214;0.299896240234375;0.000570068359375001;2.74999999305692;276;100 mA
15.9634669596961;0.2998046875;0.00056793212890625;2.75999999303167;277;100 mA
15.9734669596709;0.29986572265625;0.00056884765625;2.76999999300642;278;100 mA
15.9834669596456;0.29986572265625;0.00056732177734375;2.77999999298117;279;100 mA
15.9934669596204;0.2998046875;0.00056915283203125;2.78999999295593;280;100 mA
16.0034669595951;0.29986572265625;0.000568542480468751;2.79999999293068;281;100 mA
16.0134669595699;0.29986572265625;0.000568237304687499;2.80999999290543;282;100 mA
16.0234669595446;0.2998046875;0.000570068359375001;2.81999999288018;283;100 mA
16.0334669595194;0.299896240234375;0.00056793212890625;2.82999999285494;284;100 mA
16.0434669594941;0.299835205078125;0.000568542480468751;2.83999999282969;285;100 mA
16.0534669594689;0.299835205078125;0.000570068359375001;2.84999999280444;286;100 mA
16.0634669594436;0.2998046875;0.00056884765625;2.85999999277919;287;100 mA
16.0734669594184;0.29986572265625;0.00056884765625;2.86999999275395;288;100 mA
16.0834669593931;0.2999267578125;0.000566711425781249;2.8799999927287;289;100 mA
16.0934669593679;0.299835205078125;0.000566711425781249;2.88999999270345;290;100 mA
16.1034669593427;0.299896240234375;0.00056732177734375;2.8999999926782;291;100 mA
16.1134669593174;0.29986572265625;0.0005657958984375;2.90999999265296;292;100 mA
16.1234669592922;0.29986572265625;0.00056732177734375;2.91999999262771;293;100 mA
16.1334669592669;0.299896240234375;0.00056488037109375;2.92999999260246;294;100 mA
16.1434669592417;0.299835205078125;0.0005657958984375;2.93999999257721;295;100 mA
16.1534669592164;0.29986572265625;0.00056732177734375;2.94999999255197;296;100 mA
16.1634669591912;0.29986572265625;0.000566711425781249;2.95999999252672;297;100 mA
16.1734669591659;0.299896240234375;0.000568542480468751;2.96999999250147;298;100 mA
16.1834669591407;0.299896240234375;0.000567016601562501;2.97999999247622;299;100 mA
16.1934669591154;0.299835205078125;0.000566711425781249;2.98999999245098;300;100 mA
16.2034669590902;0.299896240234375;0.000566711425781249;2.99999999242573;301;100 mA
16.2134669590649;0.299896240234375;0.000563964843750001;3.00999999240048;302;100 mA
16.2234669590397;0.2999267578125;0.0005657958984375;3.01999999237523;303;100 mA
16.2334669590144;0.29986572265625;0.000563659667968749;3.02999999234999;304;100 mA
16.2434669589892;0.29986572265625;0.00056427001953125;3.03999999232474;305;100 mA
16.2534669589639;0.29986572265625;0.0005645751953125;3.04999999229949;306;100 mA
16.2634669589387;0.299896240234375;0.000562744140625;3.05999999227424;307;100 mA
16.2734669589134;0.29986572265625;0.0005645751953125;3.069999992249;308;100 mA
16.2834669588882;0.2999267578125;0.00056304931640625;3.07999999222375;309;100 mA
16.293466958863;0.299896240234375;0.000565185546874999;3.0899999921985;310;100 mA
16.3034669588377;0.29986572265625;0.000563659667968749;3.09999999217325;311;100 mA
16.3134669588125;0.299896240234375;0.00056304931640625;3.109999992148;312;100 mA
16.3234669587872;0.2998046875;0.0005645751953125;3.11999999212276;313;100 mA
16.333466958762;0.2998046875;0.0005621337890625;3.12999999209751;314;100 mA
16.3434669587367;0.299896240234375;0.00056182861328125;3.13999999207226;315;100 mA
16.3534669587115;0.29986572265625;0.000562438964843751;3.14999999204701;316;100 mA
16.3634669586862;0.2998046875;0.0005615234375;3.15999999202177;317;100 mA
16.373466958661;0.29986572265625;0.000562438964843751;3.16999999199652;318;100 mA
16.3834669586357;0.299896240234375;0.00055999755859375;3.17999999197127;319;100 mA
16.3934669586105;0.299896240234375;0.000560302734375;3.18999999194602;320;100 mA
16.4034669585852;0.299835205078125;0.00056304931640625;3.19999999192078;321;100 mA
16.41346695856;0.299896240234375;0.0005621337890625;3.20999999189553;322;100 mA
16.4234669585347;0.29986572265625;0.0005645751953125;3.21999999187028;323;100 mA
16.4334669585095;0.299896240234375;0.0005615234375;3.22999999184503;324;100 mA
16.4434669584842;0.29986572265625;0.000560913085937501;3.23999999181979;325;100 mA
16.453466958459;0.29986572265625;0.000560913085937501;3.24999999179454;326;100 mA
16.4634669584337;0.2998046875;0.000560607910156249;3.25999999176929;327;100 mA
16.4734669584085;0.299835205078125;0.000562438964843751;3.26999999174404;328;100 mA
16.4834669583832;0.29986572265625;0.00056121826171875;3.2799999917188;329;100 mA
16.493466958358;0.299835205078125;0.000560302734375;3.28999999169355;330;100 mA
16.5034669583328;0.29986572265625;0.000560913085937501;3.2999999916683;331;100 mA
16.5134669583075;0.2998046875;0.000559082031249999;3.30999999164305;332;100 mA
16.5234669582823;0.299835205078125;0.00055999755859375;3.31999999161781;333;100 mA
16.533466958257;0.2998046875;0.0005596923828125;3.32999999159256;334;100 mA
16.5434669582318;0.29986572265625;0.000557556152343749;3.33999999156731;335;100 mA
16.5534669582065;0.299835205078125;0.000557556152343749;3.34999999154206;336;100 mA
16.5634669581813;0.299896240234375;0.000555419921875;3.35999999151682;337;100 mA
16.573466958156;0.299835205078125;0.000557556152343749;3.36999999149157;338;100 mA
16.5834669581308;0.299835205078125;0.00055572509765625;3.37999999146632;339;100 mA
16.5934669581055;0.2998046875;0.000556335449218751;3.38999999144107;340;100 mA
16.6034669580803;0.299835205078125;0.000557556152343749;3.39999999141583;341;100 mA
16.613466958055;0.2998046875;0.00055572509765625;3.40999999139058;342;100 mA
16.6234669580298;0.299835205078125;0.000557861328125001;3.41999999136533;343;100 mA
16.6334669580045;0.299896240234375;0.00055816650390625;3.42999999134008;344;100 mA
16.6434669579793;0.299835205078125;0.0005584716796875;3.43999999131483;345;100 mA
16.653466957954;0.2999267578125;0.000560913085937501;3.44999999128959;346;100 mA
16.6634669579288;0.2999267578125;0.00055694580078125;3.45999999126434;347;100 mA
16.6734669579035;0.299835205078125;0.0005596923828125;3.46999999123909;348;100 mA
16.6834669578783;0.299835205078125;0.00055816650390625;3.47999999121384;349;100 mA
16.693466957853;0.299896240234375;0.00055694580078125;3.4899999911886;350;100 mA
16.7034669578278;0.299774169921875;0.00055816650390625;3.49999999116335;351;100 mA
16.7134669578026;0.299896240234375;0.000555419921875;3.5099999911381;352;100 mA
16.7234669577773;0.299896240234375;0.00055694580078125;3.51999999111285;353;100 mA
16.7334669577521;0.299835205078125;0.00055450439453125;3.52999999108761;354;100 mA
16.7434669577268;0.299896240234375;0.000556030273437499;3.53999999106236;355;100 mA
16.7534669577016;0.29986572265625;0.000557556152343749;3.54999999103711;356;100 mA
16.7634669576763;0.299896240234375;0.000554809570312501;3.55999999101186;357;100 mA
16.7734669576511;0.299896240234375;0.00055694580078125;3.56999999098662;358;100 mA
16.7834669576258;0.299896240234375;0.000555419921875;3.57999999096137;359;100 mA
16.7934669576006;0.29986572265625;0.00055450439453125;3.58999999093612;360;100 mA
16.8034669575753;0.299896240234375;0.000554809570312501;3.59999999091087;361;100 mA
16.8134669575501;0.299896240234375;0.00055267333984375;3.60999999088563;362;100 mA
16.8234669575248;0.29986572265625;0.00055450439453125;3.61999999086038;363;100 mA
16.8334669574996;0.29986572265625;0.00055389404296875;3.62999999083513;364;100 mA
16.8434669574743;0.29986572265625;0.000552978515624999;3.63999999080988;365;100 mA
16.8534669574491;0.299835205078125;0.000552978515624999;3.64999999078464;366;100 mA
16.8634669574238;0.29986572265625;0.000552978515624999;3.65999999075939;367;100 mA
16.8734669573986;0.299835205078125;0.00055389404296875;3.66999999073414;368;100 mA
16.8834669573733;0.299896240234375;0.00055389404296875;3.67999999070889;369;100 mA
16.8934669573481;0.299896240234375;0.00055419921875;3.68999999068365;370;100 mA
16.9034669573228;0.299835205078125;0.00055572509765625;3.6999999906584;371;100 mA
16.9134669572976;0.299835205078125;0.00055511474609375;3.70999999063315;372;100 mA
16.9234669572724;0.2998046875;0.00055694580078125;3.7199999906079;373;100 mA
16.9334669572471;0.29986572265625;0.00055450439453125;3.72999999058266;374;100 mA
16.9434669572219;0.299835205078125;0.00055419921875;3.73999999055741;375;100 mA
16.9534669571966;0.299835205078125;0.00055511474609375;3.74999999053216;376;100 mA
16.9634669571714;0.29986572265625;0.00055389404296875;3.75999999050691;377;100 mA
16.9734669571461;0.29986572265625;0.000554809570312501;3.76999999048167;378;100 mA
16.9834669571209;0.2998046875;0.00055389404296875;3.77999999045642;379;100 mA
16.9934669570956;0.29986572265625;0.0005523681640625;3.78999999043117;380;100 mA
17.0034669570704;0.299835205078125;0.000552978515624999;3.79999999040592;381;100 mA
17.0134669570451;0.2998046875;0.0005535888671875;3.80999999038067;382;100 mA
17.0234669570199;0.299896240234375;0.000552978515624999;3.81999999035543;383;100 mA
17.0334669569946;0.299896240234375;0.0005523681640625;3.82999999033018;384;100 mA
17.0434669569694;0.299835205078125;0.00055267333984375;3.83999999030493;385;100 mA
17.0534669569441;0.299896240234375;0.00055206298828125;3.84999999027968;386;100 mA
17.0634669569189;0.299896240234375;0.000551452636718749;3.85999999025444;387;100 mA
17.0734669568936;0.29986572265625;0.00055267333984375;3.86999999022919;388;100 mA
17.0834669568684;0.2999267578125;0.000551452636718749;3.87999999020394;389;100 mA
17.0934669568431;0.29986572265625;0.0005511474609375;3.88999999017869;390;100 mA
17.1034669568179;0.2998046875;0.00055206298828125;3.89999999015345;391;100 mA
17.1134669567926;0.29986572265625;0.000551757812500001;3.9099999901282;392;100 mA
17.1234669567674;0.299835205078125;0.000554809570312501;3.91999999010295;393;100 mA
17.1334669567422;0.29986572265625;0.00055450439453125;3.9299999900777;394;100 mA
17.1434669567169;0.29986572265625;0.0005535888671875;3.93999999005246;395;100 mA
17.1534669566917;0.2998046875;0.0005535888671875;3.94999999002721;396;100 mA
17.1634669566664;0.299774169921875;0.00055206298828125;3.95999999000196;397;100 mA
17.1734669566412;0.299835205078125;0.00055206298828125;3.96999998997671;398;100 mA
17.1834669566159;0.299835205078125;0.0005511474609375;3.97999998995147;399;100 mA
17.1934669565907;0.2998046875;0.0005511474609375;3.98999998992622;400;100 mA
17.2034669565654;0.29986572265625;0.00055206298828125;3.99999998990097;401;100 mA
17.2134669565402;0.2998046875;0.000551757812500001;4.00999998987572;402;100 mA
17.2234669565149;0.29986572265625;0.000552978515624999;4.01999998985048;403;100 mA
17.2334669564897;0.299835205078125;0.0005523681640625;4.02999998982523;404;100 mA
17.2434669564644;0.2999267578125;0.0005511474609375;4.03999998979998;405;100 mA
17.2534669564392;0.299896240234375;0.0005523681640625;4.04999998977473;406;100 mA
17.2634669564139;0.299835205078125;0.000551757812500001;4.05999998974949;407;100 mA
17.2734669563887;0.299774169921875;0.00055206298828125;4.06999998972424;408;100 mA
17.2834669563634;0.29986572265625;0.00054962158203125;4.07999998969899;409;100 mA
17.2934669563382;0.299835205078125;0.000549926757812499;4.08999998967374;410;100 mA
17.3034669563129;0.29986572265625;0.000550231933593751;4.0999999896485;411;100 mA
17.3134669562877;0.2999267578125;0.000549926757812499;4.10999998962325;412;100 mA
17.3234669562625;0.299835205078125;0.000550537109375;4.119999989598;413;100 mA
17.3334669562372;0.299835205078125;0.000549926757812499;4.12999998957275;414;100 mA
17.343466956212;0.29986572265625;0.000550537109375;4.1399999895475;415;100 mA
17.3534669561867;0.29986572265625;0.000551452636718749;4.14999998952226;416;100 mA
17.3634669561615;0.29986572265625;0.00055267333984375;4.15999998949701;417;100 mA
17.3734669561362;0.29986572265625;0.000556030273437499;4.16999998947176;418;100 mA
17.383466956111;0.299896240234375;0.00055419921875;4.17999998944651;419;100 mA
17.3934669560857;0.299835205078125;0.000554809570312501;4.18999998942127;420;100 mA
17.4034669560605;0.29986572265625;0.0005535888671875;4.19999998939602;421;100 mA
17.4134669560352;0.29986572265625;0.000552978515624999;4.20999998937077;422;100 mA
17.42346695601;0.299896240234375;0.000553283691406251;4.21999998934552;423;100 mA
17.4334669559847;0.29986572265625;0.000552978515624999;4.22999998932028;424;100 mA
17.4434669559595;0.299896240234375;0.00055206298828125;4.23999998929503;425;100 mA
17.4534669559342;0.29986572265625;0.000553283691406251;4.24999998926978;426;100 mA
17.463466955909;0.299835205078125;0.000553283691406251;4.25999998924453;427;100 mA
17.4734669558837;0.29986572265625;0.0005535888671875;4.26999998921929;428;100 mA
17.4834669558585;0.299835205078125;0.00055450439453125;4.27999998919404;429;100 mA
17.4934669558332;0.299835205078125;0.00055450439453125;4.28999998916879;430;100 mA
17.503466955808;0.2998046875;0.000555419921875;4.29999998914354;431;100 mA
17.5134669557827;0.299896240234375;0.000554809570312501;4.3099999891183;432;100 mA
17.5234669557575;0.29986572265625;0.000556030273437499;4.31999998909305;433;100 mA
17.5334669557323;0.29986572265625;0.000554809570312501;4.3299999890678;434;100 mA
17.543466955707;0.299896240234375;0.00055450439453125;4.33999998904255;435;100 mA
17.5534669556818;0.2998046875;0.000555419921875;4.34999998901731;436;100 mA
17.5634669556565;0.29986572265625;0.00055511474609375;4.35999998899206;437;100 mA
17.5734669556313;0.299835205078125;0.000557556152343749;4.36999998896681;438;100 mA
17.583466955606;0.29986572265625;0.000557556152343749;4.37999998894156;439;100 mA
17.5934669555808;0.29986572265625;0.0005572509765625;4.38999998891632;440;100 mA
17.6034669555555;0.2998046875;0.0005596923828125;4.39999998889107;441;100 mA
17.6134669555303;0.299896240234375;0.00055999755859375;4.40999998886582;442;100 mA
17.623466955505;0.299835205078125;0.00056121826171875;4.41999998884057;443;100 mA
17.6334669554798;0.299835205078125;0.000559387207031251;4.42999998881533;444;100 mA
17.6434669554545;0.299835205078125;0.000559387207031251;4.43999998879008;445;100 mA
17.6534669554293;0.2998046875;0.000560302734375;4.44999998876483;446;100 mA
17.663466955404;0.29986572265625;0.000559082031249999;4.45999998873958;447;100 mA
17.6734669553788;0.299896240234375;0.000560302734375;4.46999998871433;448;100 mA
17.6834669553535;0.29986572265625;0.000559082031249999;4.47999998868909;449;100 mA
17.6934669553283;0.29986572265625;0.000560302734375;4.48999998866384;450;100 mA
17.703466955303;0.29986572265625;0.000560302734375;4.49999998863859;451;100 mA
17.7134669552778;0.29986572265625;0.000559387207031251;4.50999998861334;452;100 mA
17.7234669552525;0.29986572265625;0.0005621337890625;4.5199999885881;453;100 mA
17.7334669552273;0.29986572265625;0.000559082031249999;4.52999998856285;454;100 mA
17.7434669552021;0.299835205078125;0.000559387207031251;4.5399999885376;455;100 mA
17.7534669551768;0.299835205078125;0.000559387207031251;4.54999998851235;456;100 mA
17.7634669551516;0.299896240234375;0.000559387207031251;4.55999998848711;457;100 mA
17.7734669551263;0.29986572265625;0.0005596923828125;4.56999998846186;458;100 mA
17.7834669551011;0.299896240234375;0.0005596923828125;4.57999998843661;459;100 mA
17.7934669550758;0.29986572265625;0.000560302734375;4.58999998841136;460;100 mA
17.8034669550506;0.299896240234375;0.000562438964843751;4.59999998838612;461;100 mA
17.8134669550253;0.299896240234375;0.000560302734375;4.60999998836087;462;100 mA
17.8234669550001;0.29986572265625;0.000563659667968749;4.61999998833562;463;100 mA
17.8334669549748;0.2999267578125;0.0005621337890625;4.62999998831037;464;100 mA
17.8434669549496;0.29986572265625;0.000565490722656251;4.63999998828513;465;100 mA
17.8534669549243;0.299774169921875;0.00056884765625;4.64999998825988;466;100 mA
17.8634669548991;0.2999267578125;0.0005645751953125;4.65999998823463;467;100 mA
17.8734669548738;0.299896240234375;0.000567016601562501;4.66999998820938;468;100 mA
17.8834669548486;0.299835205078125;0.000565185546874999;4.67999998818414;469;100 mA
17.8934669548233;0.299835205078125;0.00056488037109375;4.68999998815889;470;100 mA
17.9034669547981;0.299835205078125;0.00056610107421875;4.69999998813364;471;100 mA
17.9134669547728;0.299896240234375;0.00056488037109375;4.70999998810839;472;100 mA
17.9234669547476;0.29986572265625;0.000565490722656251;4.71999998808315;473;100 mA
17.9334669547223;0.29986572265625;0.0005645751953125;4.7299999880579;474;100 mA
17.9434669546971;0.29986572265625;0.000566711425781249;4.73999998803265;475;100 mA
17.9534669546719;0.2999267578125;0.000567626953125;4.7499999880074;476;100 mA
17.9634669546466;0.299835205078125;0.00056610107421875;4.75999998798216;477;100 mA
17.9734669546214;0.299835205078125;0.00056884765625;4.76999998795691;478;100 mA
17.9834669545961;0.299835205078125;0.00056793212890625;4.77999998793166;479;100 mA
17.9934669545709;0.299835205078125;0.00056732177734375;4.78999998790641;480;100 mA
18.0034669545456;0.299896240234375;0.00056732177734375;4.79999998788116;481;100 mA
18.0134669545204;0.29986572265625;0.000566711425781249;4.80999998785592;482;100 mA
18.0234669544951;0.29986572265625;0.000568542480468751;4.81999998783067;483;100 mA
18.0334669544699;0.29986572265625;0.000566711425781249;4.82999998780542;484;100 mA
18.0434669544446;0.29986572265625;0.000567016601562501;4.83999998778017;485;100 mA
18.0534669544194;0.29986572265625;0.00056793212890625;4.84999998775493;486;100 mA
18.0634669543941;0.2998046875;0.000568237304687499;4.85999998772968;487;100 mA
18.0734669543689;0.29986572265625;0.000568237304687499;4.86999998770443;488;100 mA
18.0834669543436;0.299896240234375;0.0005694580078125;4.87999998767918;489;100 mA
18.0934669543184;0.29986572265625;0.000571289062499999;4.88999998765394;490;100 mA
18.1034669542931;0.29986572265625;0.000571289062499999;4.89999998762869;491;100 mA
18.1134669542679;0.29986572265625;0.000571594238281251;4.90999998760344;492;100 mA
18.1234669542426;0.299896240234375;0.00057342529296875;4.91999998757819;493;100 mA
18.1334669542174;0.299896240234375;0.000571289062499999;4.92999998755295;494;100 mA
18.1434669541921;0.299896240234375;0.000571594238281251;4.9399999875277;495;100 mA
18.1534669541669;0.29986572265625;0.0005718994140625;4.94999998750245;496;100 mA
18.1634669541417;0.299835205078125;0.000572814941406249;4.9599999874772;497;100 mA
18.1734669541164;0.2998046875;0.00057342529296875;4.96999998745196;498;100 mA
18.1834669540912;0.29986572265625;0.000572814941406249;4.97999998742671;499;100 mA
18.1934669540659;0.29986572265625;0.0005718994140625;4.98999998740146;500;100 mA
18.2034669540407;0.299896240234375;0.000572509765625;4.99999998737621;501;100 mA
18.2134669540154;0.299896240234375;0.00057220458984375;5.00999998735097;502;100 mA
18.2234669539902;0.29986572265625;0.000574951171875;5.01999998732572;503;100 mA
18.2334669539649;0.299896240234375;0.000572814941406249;5.02999998730047;504;100 mA
18.2434669539397;0.29986572265625;0.00057373046875;5.03999998727522;505;100 mA
18.2534669539144;0.299896240234375;0.00057373046875;5.04999998724998;506;100 mA
18.2634669538892;0.299835205078125;0.000573120117187501;5.05999998722473;507;100 mA
18.2734669538639;0.2998046875;0.000574645996093751;5.06999998719948;508;100 mA
18.2834669538387;0.29986572265625;0.000572814941406249;5.07999998717423;509;100 mA
18.2934669538134;0.29986572265625;0.000573120117187501;5.08999998714899;510;100 mA
18.3034669537882;0.2998046875;0.00057525634765625;5.09999998712374;511;100 mA
18.3134669537629;0.29986572265625;0.00057403564453125;5.10999998709849;512;100 mA
18.3234669537377;0.299957275390625;0.0005767822265625;5.11999998707324;513;100 mA
18.3334669537124;0.299835205078125;0.0005767822265625;5.129999987048;514;100 mA
18.3434669536872;0.299835205078125;0.000575866699218749;5.13999998702275;515;100 mA
18.353466953662;0.29986572265625;0.000575866699218749;5.1499999869975;516;100 mA
18.3634669536367;0.29986572265625;0.00057403564453125;5.15999998697225;517;100 mA
18.3734669536115;0.29986572265625;0.000574951171875;5.169999986947;518;100 mA
18.3834669535862;0.299896240234375;0.00057403564453125;5.17999998692176;519;100 mA
18.393466953561;0.29986572265625;0.000574951171875;5.18999998689651;520;100 mA
18.4034669535357;0.29986572265625;0.0005767822265625;5.19999998687126;521;100 mA
18.4134669535105;0.299835205078125;0.000574951171875;5.20999998684601;522;100 mA
18.4234669534852;0.29986572265625;0.000577392578125;5.21999998682077;523;100 mA
18.43346695346;0.299835205078125;0.000574951171875;5.22999998679552;524;100 mA
18.4434669534347;0.29986572265625;0.000576171875000001;5.23999998677027;525;100 mA
18.4534669534095;0.29986572265625;0.0005767822265625;5.24999998674502;526;100 mA
18.4634669533842;0.299896240234375;0.00057525634765625;5.25999998671978;527;100 mA
18.473466953359;0.29986572265625;0.0005755615234375;5.26999998669453;528;100 mA
18.4834669533337;0.299835205078125;0.000574645996093751;5.27999998666928;529;100 mA
18.4934669533085;0.29986572265625;0.000574340820312499;5.28999998664403;530;100 mA
18.5034669532832;0.29986572265625;0.000576171875000001;5.29999998661879;531;100 mA
18.513466953258;0.299896240234375;0.000574340820312499;5.30999998659354;532;100 mA
18.5234669532327;0.299896240234375;0.000575866699218749;5.31999998656829;533;100 mA
18.5334669532075;0.299896240234375;0.000574645996093751;5.32999998654304;534;100 mA
18.5434669531822;0.299896240234375;0.000574951171875;5.3399999865178;535;100 mA
18.553466953157;0.29986572265625;0.0005767822265625;5.34999998649255;536;100 mA
18.5634669531318;0.299896240234375;0.000577697753906251;5.3599999864673;537;100 mA
18.5734669531065;0.2999267578125;0.000580444335937499;5.36999998644205;538;100 mA
18.5834669530813;0.29986572265625;0.0005780029296875;5.37999998641681;539;100 mA
18.593466953056;0.299835205078125;0.00057861328125;5.38999998639156;540;100 mA
18.6034669530308;0.29986572265625;0.00057830810546875;5.39999998636631;541;100 mA
18.6134669530055;0.2998046875;0.000576171875000001;5.40999998634106;542;100 mA
18.6234669529803;0.2999267578125;0.0005780029296875;5.41999998631582;543;100 mA
18.633466952955;0.29986572265625;0.000577392578125;5.42999998629057;544;100 mA
18.6434669529298;0.29986572265625;0.0005767822265625;5.43999998626532;545;100 mA
18.6534669529045;0.29986572265625;0.00057647705078125;5.44999998624007;546;100 mA
18.6634669528793;0.299835205078125;0.000576171875000001;5.45999998621483;547;100 mA
18.673466952854;0.29986572265625;0.000577392578125;5.46999998618958;548;100 mA
18.6834669528288;0.299896240234375;0.00057525634765625;5.47999998616433;549;100 mA
18.6934669528035;0.29986572265625;0.00057647705078125;5.48999998613908;550;100 mA
18.7034669527783;0.29986572265625;0.000577392578125;5.49999998611383;551;100 mA
18.713466952753;0.29986572265625;0.000575866699218749;5.50999998608859;552;100 mA
18.7234669527278;0.2999267578125;0.000576171875000001;5.51999998606334;553;100 mA
18.7334669527025;0.29986572265625;0.00057525634765625;5.52999998603809;554;100 mA
18.7434669526773;0.29986572265625;0.000574645996093751;5.53999998601284;555;100 mA
18.753466952652;0.29986572265625;0.000574951171875;5.5499999859876;556;100 mA
18.7634669526268;0.2999267578125;0.00057373046875;5.55999998596235;557;100 mA
18.7734669526016;0.299835205078125;0.0005767822265625;5.5699999859371;558;100 mA
18.7834669525763;0.299896240234375;0.00057403564453125;5.57999998591185;559;100 mA
18.7934669525511;0.29986572265625;0.000574645996093751;5.58999998588661;560;100 mA
18.8034669525258;0.2998046875;0.000576171875000001;5.59999998586136;561;100 mA
18.8134669525006;0.2999267578125;0.00057708740234375;5.60999998583611;562;100 mA
18.8234669524753;0.29986572265625;0.00057708740234375;5.61999998581086;563;100 mA
18.8334669524501;0.299835205078125;0.00057708740234375;5.62999998578562;564;100 mA
18.8434669524248;0.299896240234375;0.000576171875000001;5.63999998576037;565;100 mA
18.8534669523996;0.299896240234375;0.00057708740234375;5.64999998573512;566;100 mA
18.8634669523743;0.29986572265625;0.000574951171875;5.65999998570987;567;100 mA
18.8734669523491;0.299835205078125;0.000577392578125;5.66999998568463;568;100 mA
18.8834669523238;0.299835205078125;0.00057647705078125;5.67999998565938;569;100 mA
18.8934669522986;0.29986572265625;0.00057647705078125;5.68999998563413;570;100 mA
18.9034669522733;0.29986572265625;0.000577392578125;5.69999998560888;571;100 mA
18.9134669522481;0.29986572265625;0.000576171875000001;5.70999998558364;572;100 mA
18.9234669522228;0.299896240234375;0.000577697753906251;5.71999998555839;573;100 mA
18.9334669521976;0.29986572265625;0.0005755615234375;5.72999998553314;574;100 mA
18.9434669521723;0.2999267578125;0.000574951171875;5.73999998550789;575;100 mA
18.9534669521471;0.299896240234375;0.000574645996093751;5.74999998548265;576;100 mA
18.9634669521218;0.29986572265625;0.000573120117187501;5.7599999854574;577;100 mA
18.9734669520966;0.299835205078125;0.000574951171875;5.76999998543215;578;100 mA
18.9834669520714;0.2998046875;0.00057373046875;5.7799999854069;579;100 mA
18.9934669520461;0.29986572265625;0.000572509765625;5.78999998538166;580;100 mA
19.0034669520209;0.29986572265625;0.00057373046875;5.79999998535641;581;100 mA
19.0134669519956;0.29986572265625;0.000572509765625;5.80999998533116;582;100 mA
19.0234669519704;0.29986572265625;0.0005755615234375;5.81999998530591;583;100 mA
19.0334669519451;0.29986572265625;0.00057403564453125;5.82999998528066;584;100 mA
19.0434669519199;0.2999267578125;0.00057647705078125;5.83999998525542;585;100 mA
19.0534669518946;0.29986572265625;0.000577697753906251;5.84999998523017;586;100 mA
19.0634669518694;0.299835205078125;0.0005755615234375;5.85999998520492;587;100 mA
19.0734669518441;0.299896240234375;0.000575866699218749;5.86999998517967;588;100 mA
19.0834669518189;0.299896240234375;0.00057525634765625;5.87999998515443;589;100 mA
19.0934669517936;0.299896240234375;0.000572814941406249;5.88999998512918;590;100 mA
19.1034669517684;0.299896240234375;0.000574645996093751;5.89999998510393;591;100 mA
19.1134669517431;0.29986572265625;0.000572814941406249;5.90999998507868;592;100 mA
19.1234669517179;0.29986572265625;0.000574645996093751;5.91999998505344;593;100 mA
19.1334669516926;0.299835205078125;0.000574340820312499;5.92999998502819;594;100 mA
19.1434669516674;0.299835205078125;0.00057525634765625;5.93999998500294;595;100 mA
19.1534669516421;0.299896240234375;0.00057647705078125;5.94999998497769;596;100 mA
19.1634669516169;0.2999267578125;0.00057342529296875;5.95999998495245;597;100 mA
19.1734669515916;0.29986572265625;0.000575866699218749;5.9699999849272;598;100 mA
19.1834669515664;0.299896240234375;0.000574340820312499;5.97999998490195;599;100 mA
19.1934669515412;0.299835205078125;0.000574645996093751;5.9899999848767;600;100 mA
19.2034669515159;0.29986572265625;0.00057403564453125;5.99999998485146;601;100 mA
19.2134669514907;0.2998046875;0.000573120117187501;6.00999998482621;602;100 mA
19.2234669514654;0.29986572265625;0.00057342529296875;6.01999998480096;603;100 mA
19.2334669514402;0.299896240234375;0.00057098388671875;6.02999998477571;604;100 mA
19.2434669514149;0.299835205078125;0.00057220458984375;6.03999998475047;605;100 mA
19.2534669513897;0.299835205078125;0.000571594238281251;6.04999998472522;606;100 mA
19.2634669513644;0.299835205078125;0.00057098388671875;6.05999998469997;607;100 mA
19.2734669513392;0.2999267578125;0.000572814941406249;6.06999998467472;608;100 mA
19.2834669513139;0.29986572265625;0.000572509765625;6.07999998464948;609;100 mA
19.2934669512887;0.29986572265625;0.00057373046875;6.08999998462423;610;100 mA
19.3034669512634;0.29986572265625;0.00057525634765625;6.09999998459898;611;100 mA
19.3134669512382;0.2999267578125;0.00057403564453125;6.10999998457373;612;100 mA
19.3234669512129;0.29986572265625;0.000575866699218749;6.11999998454849;613;100 mA
19.3334669511877;0.29986572265625;0.00057220458984375;6.12999998452324;614;100 mA
19.3434669511624;0.29986572265625;0.000572814941406249;6.13999998449799;615;100 mA
19.3534669511372;0.29986572265625;0.000573120117187501;6.14999998447274;616;100 mA
19.3634669511119;0.299835205078125;0.000573120117187501;6.1599999844475;617;100 mA
19.3734669510867;0.299896240234375;0.00057342529296875;6.16999998442225;618;100 mA
19.3834669510615;0.299896240234375;0.000573120117187501;6.179999984397;619;100 mA
19.3934669510362;0.2998046875;0.00057342529296875;6.18999998437175;620;100 mA
19.403466951011;0.29986572265625;0.0005718994140625;6.1999999843465;621;100 mA
19.4134669509857;0.2998046875;0.000572509765625;6.20999998432126;622;100 mA
19.4234669509605;0.29986572265625;0.000572814941406249;6.21999998429601;623;100 mA
19.4334669509352;0.2998046875;0.000571289062499999;6.22999998427076;624;100 mA
19.44346695091;0.29986572265625;0.0005706787109375;6.23999998424551;625;100 mA
19.4534669508847;0.299835205078125;0.000571289062499999;6.24999998422027;626;100 mA
19.4634669508595;0.299896240234375;0.0005694580078125;6.25999998419502;627;100 mA
19.4734669508342;0.299896240234375;0.000570068359375001;6.26999998416977;628;100 mA
19.483466950809;0.2998046875;0.00056915283203125;6.27999998414452;629;100 mA
19.4934669507837;0.299896240234375;0.00056884765625;6.28999998411928;630;100 mA
19.5034669507585;0.29986572265625;0.00056884765625;6.29999998409403;631;100 mA
19.5134669507332;0.2998046875;0.00056884765625;6.30999998406878;632;100 mA
19.523466950708;0.299896240234375;0.000571289062499999;6.31999998404353;633;100 mA
19.5334669506827;0.29986572265625;0.00056976318359375;6.32999998401829;634;100 mA
19.5434669506575;0.29986572265625;0.00056793212890625;6.33999998399304;635;100 mA
19.5534669506322;0.299835205078125;0.000570068359375001;6.34999998396779;636;100 mA
19.563466950607;0.299896240234375;0.000566711425781249;6.35999998394254;637;100 mA
19.5734669505817;0.299835205078125;0.00056915283203125;6.3699999839173;638;100 mA
19.5834669505565;0.299835205078125;0.000567626953125;6.37999998389205;639;100 mA
19.5934669505313;0.299896240234375;0.00056793212890625;6.3899999838668;640;100 mA
19.603466950506;0.2998046875;0.0005694580078125;6.39999998384155;641;100 mA
19.6134669504808;0.299835205078125;0.000568542480468751;6.40999998381631;642;100 mA
19.6234669504555;0.29986572265625;0.000571594238281251;6.41999998379106;643;100 mA
19.6334669504303;0.29986572265625;0.0005694580078125;6.42999998376581;644;100 mA
19.643466950405;0.29986572265625;0.0005694580078125;6.43999998374056;645;100 mA
19.6534669503798;0.299835205078125;0.0005706787109375;6.44999998371532;646;100 mA
19.6634669503545;0.29986572265625;0.000568237304687499;6.45999998369007;647;100 mA
19.6734669503293;0.299774169921875;0.000568542480468751;6.46999998366482;648;100 mA
19.683466950304;0.29986572265625;0.00056610107421875;6.47999998363957;649;100 mA
19.6934669502788;0.299835205078125;0.000566711425781249;6.48999998361433;650;100 mA
19.7034669502535;0.299835205078125;0.00056793212890625;6.49999998358908;651;100 mA
19.7134669502283;0.29986572265625;0.000565490722656251;6.50999998356383;652;100 mA
19.723466950203;0.299835205078125;0.000567626953125;6.51999998353858;653;100 mA
19.7334669501778;0.2998046875;0.000565185546874999;6.52999998351333;654;100 mA
19.7434669501525;0.299835205078125;0.00056488037109375;6.53999998348809;655;100 mA
19.7534669501273;0.29986572265625;0.000565490722656251;6.54999998346284;656;100 mA
19.763466950102;0.29986572265625;0.000565185546874999;6.55999998343759;657;100 mA
19.7734669500768;0.29986572265625;0.000568542480468751;6.56999998341234;658;100 mA
19.7834669500515;0.29986572265625;0.00056610107421875;6.5799999833871;659;100 mA
19.7934669500263;0.29986572265625;0.0005645751953125;6.58999998336185;660;100 mA
19.8034669500011;0.299835205078125;0.000565185546874999;6.5999999833366;661;100 mA
19.8134669499758;0.299835205078125;0.000562744140625;6.60999998331135;662;100 mA
19.8234669499506;0.29986572265625;0.000563659667968749;6.61999998328611;663;100 mA
19.8334669499253;0.29986572265625;0.000560913085937501;6.62999998326086;664;100 mA
19.8434669499001;0.299835205078125;0.000560913085937501;6.63999998323561;665;100 mA
19.8534669498748;0.299835205078125;0.00056121826171875;6.64999998321036;666;100 mA
19.8634669498496;0.299896240234375;0.000560913085937501;6.65999998318512;667;100 mA
19.8734669498243;0.2998046875;0.000562744140625;6.66999998315987;668;100 mA
19.8834669497991;0.2998046875;0.000560913085937501;6.67999998313462;669;100 mA
19.8934669497738;0.299896240234375;0.00056182861328125;6.68999998310937;670;100 mA
19.9034669497486;0.299896240234375;0.000560607910156249;6.69999998308413;671;100 mA
19.9134669497233;0.2998046875;0.00055999755859375;6.70999998305888;672;100 mA
19.9234669496981;0.299896240234375;0.00055999755859375;6.71999998303363;673;100 mA
19.9334669496728;0.299896240234375;0.000557861328125001;6.72999998300838;674;100 mA
19.9434669496476;0.299896240234375;0.00055816650390625;6.73999998298314;675;100 mA
19.9534669496223;0.299835205078125;0.000557556152343749;6.74999998295789;676;100 mA
19.9634669495971;0.299896240234375;0.00055694580078125;6.75999998293264;677;100 mA
19.9734669495718;0.29986572265625;0.000559387207031251;6.76999998290739;678;100 mA
19.9834669495466;0.299835205078125;0.000557861328125001;6.77999998288215;679;100 mA
19.9934669495213;0.299896240234375;0.0005572509765625;6.7899999828569;680;100 mA
20.0034669494961;0.29986572265625;0.000559387207031251;6.79999998283165;681;100 mA
20.0134669494709;0.29986572265625;0.000559082031249999;6.8099999828064;682;100 mA
20.0234669494456;0.299835205078125;0.000560607910156249;6.81999998278116;683;100 mA
20.0334669494204;0.2999267578125;0.0005584716796875;6.82999998275591;684;100 mA
20.0434669493951;0.29986572265625;0.000557556152343749;6.83999998273066;685;100 mA
20.0534669493699;0.2999267578125;0.000557861328125001;6.84999998270541;686;100 mA
20.0634669493446;0.29986572265625;0.000556640625;6.85999998268016;687;100 mA
20.0734669493194;0.2998046875;0.000557556152343749;6.86999998265492;688;100 mA
20.0834669492941;0.29986572265625;0.000556335449218751;6.87999998262967;689;100 mA
20.0934669492689;0.29986572265625;0.00055572509765625;6.88999998260442;690;100 mA
20.1034669492436;0.299835205078125;0.000556640625;6.89999998257917;691;100 mA
20.1134669492184;0.299835205078125;0.000556030273437499;6.90999998255393;692;100 mA
20.1234669491931;0.29986572265625;0.000555419921875;6.91999998252868;693;100 mA
20.1334669491679;0.299835205078125;0.000553283691406251;6.92999998250343;694;100 mA
20.1434669491426;0.2998046875;0.000553283691406251;6.93999998247818;695;100 mA
20.1534669491174;0.299835205078125;0.000552978515624999;6.94999998245294;696;100 mA
20.1634669490921;0.299774169921875;0.00055206298828125;6.95999998242769;697;100 mA
20.1734669490669;0.2998046875;0.0005535888671875;6.96999998240244;698;100 mA
20.1834669490416;0.29986572265625;0.000551757812500001;6.97999998237719;699;100 mA
20.1934669490164;0.29986572265625;0.000551757812500001;6.98999998235195;700;100 mA
20.2034669489911;0.299835205078125;0.000552978515624999;6.9999999823267;701;100 mA
20.2134669489659;0.29986572265625;0.000551452636718749;7.00999998230145;702;100 mA
20.2234669489407;0.299896240234375;0.00055389404296875;7.0199999822762;703;100 mA
20.2334669489154;0.299896240234375;0.00055267333984375;7.02999998225096;704;100 mA
20.2434669488902;0.299835205078125;0.00055389404296875;7.03999998222571;705;100 mA
20.2534669488649;0.29986572265625;0.00055572509765625;7.04999998220046;706;100 mA
20.2634669488397;0.2998046875;0.000553283691406251;7.05999998217521;707;100 mA
20.2734669488144;0.2998046875;0.00055450439453125;7.06999998214997;708;100 mA
20.2834669487892;0.299896240234375;0.000553283691406251;7.07999998212472;709;100 mA
20.2934669487639;0.29986572265625;0.0005523681640625;7.08999998209947;710;100 mA
20.3034669487387;0.29986572265625;0.0005511474609375;7.09999998207422;711;100 mA
20.3134669487134;0.2999267578125;0.0005511474609375;7.10999998204898;712;100 mA
20.3234669486882;0.2999267578125;0.000551757812500001;7.11999998202373;713;100 mA
20.3334669486629;0.29986572265625;0.00055084228515625;7.12999998199848;714;100 mA
20.3434669486377;0.299835205078125;0.00055206298828125;7.13999998197323;715;100 mA
20.3534669486124;0.299835205078125;0.000552978515624999;7.14999998194799;716;100 mA
20.3634669485872;0.299896240234375;0.00055084228515625;7.15999998192274;717;100 mA
20.3734669485619;0.299896240234375;0.000551452636718749;7.16999998189749;718;100 mA
20.3834669485367;0.299835205078125;0.00054962158203125;7.17999998187224;719;100 mA
20.3934669485114;0.2998046875;0.00054901123046875;7.189999981847;720;100 mA
20.4034669484862;0.2998046875;0.00054962158203125;7.19999998182175;721;100 mA
20.413466948461;0.299835205078125;0.0005474853515625;7.2099999817965;722;100 mA
20.4234669484357;0.299835205078125;0.000548095703125;7.21999998177125;723;100 mA
20.4334669484105;0.299835205078125;0.000545654296875001;7.229999981746;724;100 mA
20.4434669483852;0.299835205078125;0.000546875;7.23999998172076;725;100 mA
20.45346694836;0.299896240234375;0.00054595947265625;7.24999998169551;726;100 mA
20.4634669483347;0.299835205078125;0.00054656982421875;7.25999998167026;727;100 mA
20.4734669483095;0.299835205078125;0.000548400878906249;7.26999998164501;728;100 mA
20.4834669482842;0.299835205078125;0.00054962158203125;7.27999998161977;729;100 mA
20.493466948259;0.2998046875;0.000550537109375;7.28999998159452;730;100 mA
20.5034669482337;0.299835205078125;0.00055084228515625;7.29999998156927;731;100 mA
20.5134669482085;0.29986572265625;0.000550537109375;7.30999998154402;732;100 mA
20.5234669481832;0.299835205078125;0.000551452636718749;7.31999998151878;733;100 mA
20.533466948158;0.299835205078125;0.00054901123046875;7.32999998149353;734;100 mA
20.5434669481327;0.2999267578125;0.00054931640625;7.33999998146828;735;100 mA
20.5534669481075;0.29986572265625;0.000549926757812499;7.34999998144303;736;100 mA
20.5634669480822;0.299896240234375;0.00054901123046875;7.35999998141779;737;100 mA
20.573466948057;0.299835205078125;0.000549926757812499;7.36999998139254;738;100 mA
20.5834669480317;0.29986572265625;0.000548095703125;7.37999998136729;739;100 mA
20.5934669480065;0.29986572265625;0.000548400878906249;7.38999998134204;740;100 mA
20.6034669479812;0.299835205078125;0.00054901123046875;7.3999999813168;741;100 mA
20.613466947956;0.299835205078125;0.000548400878906249;7.40999998129155;742;100 mA
20.6234669479308;0.2998046875;0.00054901123046875;7.4199999812663;743;100 mA
20.6334669479055;0.29986572265625;0.0005462646484375;7.42999998124105;744;100 mA
20.6434669478803;0.2998046875;0.0005462646484375;7.43999998121581;745;100 mA
20.653466947855;0.29986572265625;0.000545349121093749;7.44999998119056;746;100 mA
20.6634669478298;0.2998046875;0.000545654296875001;7.45999998116531;747;100 mA
20.6734669478045;0.299896240234375;0.000545654296875001;7.46999998114006;748;100 mA
20.6834669477793;0.299896240234375;0.0005450439453125;7.47999998111482;749;100 mA
20.693466947754;0.299835205078125;0.000545654296875001;7.48999998108957;750;100 mA
20.7034669477288;0.29986572265625;0.00054473876953125;7.49999998106432;751;100 mA
20.7134669477035;0.299835205078125;0.00054473876953125;7.50999998103907;752;100 mA
20.7234669476783;0.299835205078125;0.000547180175781251;7.51999998101383;753;100 mA
20.733466947653;0.29986572265625;0.00054656982421875;7.52999998098858;754;100 mA
20.7434669476278;0.29986572265625;0.000546875;7.53999998096333;755;100 mA
20.7534669476025;0.299896240234375;0.0005462646484375;7.54999998093808;756;100 mA
20.7634669475773;0.2999267578125;0.0005462646484375;7.55999998091283;757;100 mA
20.773466947552;0.2998046875;0.000547180175781251;7.56999998088759;758;100 mA
20.7834669475268;0.29986572265625;0.00054595947265625;7.57999998086234;759;100 mA
20.7934669475015;0.299835205078125;0.00054656982421875;7.58999998083709;760;100 mA
20.8034669474763;0.299896240234375;0.000547180175781251;7.59999998081184;761;100 mA
20.813466947451;0.299835205078125;0.000546875;7.6099999807866;762;100 mA
20.8234669474258;0.2999267578125;0.000548400878906249;7.61999998076135;763;100 mA
20.8334669474006;0.299896240234375;0.00054656982421875;7.6299999807361;764;100 mA
20.8434669473753;0.29986572265625;0.000546875;7.63999998071085;765;100 mA
20.8534669473501;0.2999267578125;0.00054779052734375;7.64999998068561;766;100 mA
20.8634669473248;0.29986572265625;0.000545349121093749;7.65999998066036;767;100 mA
20.8734669472996;0.2998046875;0.000547180175781251;7.66999998063511;768;100 mA
20.8834669472743;0.29986572265625;0.000543823242187499;7.67999998060986;769;100 mA
20.8934669472491;0.299835205078125;0.000543212890625;7.68999998058462;770;100 mA
20.9034669472238;0.299835205078125;0.0005450439453125;7.69999998055937;771;100 mA
20.9134669471986;0.2998046875;0.000544128417968751;7.70999998053412;772;100 mA
20.9234669471733;0.299896240234375;0.000543823242187499;7.71999998050887;773;100 mA
20.9334669471481;0.29986572265625;0.00054351806640625;7.72999998048363;774;100 mA
20.9434669471228;0.299835205078125;0.000542602539062501;7.73999998045838;775;100 mA
20.9534669470976;0.29986572265625;0.000545349121093749;7.74999998043313;776;100 mA
20.9634669470723;0.29986572265625;0.000543823242187499;7.75999998040788;777;100 mA
20.9734669470471;0.29986572265625;0.000548400878906249;7.76999998038264;778;100 mA
20.9834669470218;0.29986572265625;0.00054595947265625;7.77999998035739;779;100 mA
20.9934669469966;0.299835205078125;0.00054473876953125;7.78999998033214;780;100 mA
21.0034669469713;0.299896240234375;0.0005462646484375;7.79999998030689;781;100 mA
21.0134669469461;0.299896240234375;0.00054443359375;7.80999998028165;782;100 mA
21.0234669469208;0.299835205078125;0.00054656982421875;7.8199999802564;783;100 mA
21.0334669468956;0.29986572265625;0.00054443359375;7.82999998023115;784;100 mA
21.0434669468704;0.299896240234375;0.0005450439453125;7.8399999802059;785;100 mA
21.0534669468451;0.29986572265625;0.000545349121093749;7.84999998018066;786;100 mA
21.0634669468199;0.299896240234375;0.000545349121093749;7.85999998015541;787;100 mA
21.0734669467946;0.299835205078125;0.00054779052734375;7.86999998013016;788;100 mA
21.0834669467694;0.299835205078125;0.000545654296875001;7.87999998010491;789;100 mA
21.0934669467441;0.299835205078125;0.000546875;7.88999998007966;790;100 mA
21.1034669467189;0.29986572265625;0.0005474853515625;7.89999998005442;791;100 mA
21.1134669466936;0.29986572265625;0.0005462646484375;7.90999998002917;792;100 mA
21.1234669466684;0.29986572265625;0.00054779052734375;7.91999998000392;793;100 mA
21.1334669466431;0.29986572265625;0.000545654296875001;7.92999997997867;794;100 mA
21.1434669466179;0.29986572265625;0.0005450439453125;7.93999997995343;795;100 mA
21.1534669465926;0.299896240234375;0.000545349121093749;7.94999997992818;796;100 mA
21.1634669465674;0.299896240234375;0.00054351806640625;7.95999997990293;797;100 mA
21.1734669465421;0.29986572265625;0.00054473876953125;7.96999997987768;798;100 mA
21.1834669465169;0.29986572265625;0.00054443359375;7.97999997985244;799;100 mA
21.1934669464916;0.29986572265625;0.00054443359375;7.98999997982719;800;100 mA
21.2034669464664;0.299896240234375;0.000547180175781251;7.99999997980194;801;100 mA
21.2134669464411;0.2999267578125;0.000546875;8.00999997977669;802;100 mA
21.2234669464159;0.2999267578125;0.0005474853515625;8.01999997975145;803;100 mA
21.2334669463906;0.29986572265625;0.000545349121093749;8.0299999797262;804;100 mA
21.2434669463654;0.29986572265625;0.00054656982421875;8.03999997970095;805;100 mA
21.2534669463402;0.2999267578125;0.000546875;8.0499999796757;806;100 mA
21.2634669463149;0.2998046875;0.00054656982421875;8.05999997965046;807;100 mA
21.2734669462897;0.299896240234375;0.00054595947265625;8.06999997962521;808;100 mA
21.2834669462644;0.2998046875;0.000546875;8.07999997959996;809;100 mA
21.2934669462392;0.29986572265625;0.00054656982421875;8.08999997957471;810;100 mA
21.3034669462139;0.299835205078125;0.000546875;8.09999997954947;811;100 mA
21.3134669461887;0.29986572265625;0.0005474853515625;8.10999997952422;812;100 mA
21.3234669461634;0.29986572265625;0.000548400878906249;8.11999997949897;813;100 mA
21.3334669461382;0.299835205078125;0.000547180175781251;8.12999997947372;814;100 mA
21.3434669461129;0.29986572265625;0.000546875;8.13999997944848;815;100 mA
21.3534669460877;0.2998046875;0.00054779052734375;8.14999997942323;816;100 mA
21.3634669460624;0.29986572265625;0.0005462646484375;8.15999997939798;817;100 mA
21.3734669460372;0.2999267578125;0.000548706054687501;8.16999997937273;818;100 mA
21.3834669460119;0.299896240234375;0.000547180175781251;8.17999997934749;819;100 mA
21.3934669459867;0.29986572265625;0.0005474853515625;8.18999997932224;820;100 mA
21.4034669459614;0.299835205078125;0.000548095703125;8.19999997929699;821;100 mA
21.4134669459362;0.29986572265625;0.00054656982421875;8.20999997927174;822;100 mA
21.4234669459109;0.299835205078125;0.00054931640625;8.2199999792465;823;100 mA
21.4334669458857;0.29986572265625;0.0005474853515625;8.22999997922125;824;100 mA
21.4434669458605;0.29986572265625;0.00055084228515625;8.239999979196;825;100 mA
21.4534669458352;0.29986572265625;0.000549926757812499;8.24999997917075;826;100 mA
21.46346694581;0.29986572265625;0.00054931640625;8.2599999791455;827;100 mA
21.4734669457847;0.29986572265625;0.00054901123046875;8.26999997912026;828;100 mA
21.4834669457595;0.29986572265625;0.000547180175781251;8.27999997909501;829;100 mA
21.4934669457342;0.2998046875;0.000546875;8.28999997906976;830;100 mA
21.503466945709;0.299835205078125;0.000548095703125;8.29999997904451;831;100 mA
21.5134669456837;0.299835205078125;0.0005462646484375;8.30999997901927;832;100 mA
21.5234669456585;0.299835205078125;0.000548400878906249;8.31999997899402;833;100 mA
21.5334669456332;0.299835205078125;0.000548400878906249;8.32999997896877;834;100 mA
21.543466945608;0.299835205078125;0.00054931640625;8.33999997894352;835;100 mA
21.5534669455827;0.299896240234375;0.00055084228515625;8.34999997891828;836;100 mA
21.5634669455575;0.29986572265625;0.00054901123046875;8.35999997889303;837;100 mA
21.5734669455322;0.299896240234375;0.000551452636718749;8.36999997886778;838;100 mA
21.583466945507;0.29986572265625;0.00054901123046875;8.37999997884253;839;100 mA
21.5934669454817;0.299896240234375;0.00054962158203125;8.38999997881729;840;100 mA
21.6034669454565;0.2998046875;0.000550231933593751;8.39999997879204;841;100 mA
21.6134669454312;0.29986572265625;0.000548095703125;8.40999997876679;842;100 mA
21.623466945406;0.299896240234375;0.000549926757812499;8.41999997874154;843;100 mA
21.6334669453807;0.29986572265625;0.0005474853515625;8.4299999787163;844;100 mA
21.6434669453555;0.299896240234375;0.000548095703125;8.43999997869105;845;100 mA
21.6534669453303;0.299896240234375;0.00054931640625;8.4499999786658;846;100 mA
21.663466945305;0.29986572265625;0.000546875;8.45999997864055;847;100 mA
21.6734669452798;0.29986572265625;0.000550231933593751;8.46999997861531;848;100 mA
21.6834669452545;0.29986572265625;0.00054931640625;8.47999997859006;849;100 mA
21.6934669452293;0.29986572265625;0.000550231933593751;8.48999997856481;850;100 mA
21.703466945204;0.29986572265625;0.0005523681640625;8.49999997853956;851;100 mA
21.7134669451788;0.299835205078125;0.000549926757812499;8.50999997851432;852;100 mA
21.7234669451535;0.299835205078125;0.000552978515624999;8.51999997848907;853;100 mA
21.7334669451283;0.299896240234375;0.00054962158203125;8.52999997846382;854;100 mA
21.743466945103;0.29986572265625;0.00054931640625;8.53999997843857;855;100 mA
21.7534669450778;0.29986572265625;0.000549926757812499;8.54999997841333;856;100 mA
21.7634669450525;0.299896240234375;0.000549926757812499;8.55999997838808;857;100 mA
21.7734669450273;0.299896240234375;0.000549926757812499;8.56999997836283;858;100 mA
21.783466945002;0.299896240234375;0.00054901123046875;8.57999997833758;859;100 mA
21.7934669449768;0.299896240234375;0.000549926757812499;8.58999997831233;860;100 mA
21.8034669449515;0.2998046875;0.000550537109375;8.59999997828709;861;100 mA
21.8134669449263;0.299896240234375;0.00055084228515625;8.60999997826184;862;100 mA
21.823466944901;0.299896240234375;0.000550231933593751;8.61999997823659;863;100 mA
21.8334669448758;0.299835205078125;0.00054962158203125;8.62999997821134;864;100 mA
21.8434669448505;0.299835205078125;0.00054931640625;8.6399999781861;865;100 mA
21.8534669448253;0.29986572265625;0.000550231933593751;8.64999997816085;866;100 mA
21.8634669448001;0.299896240234375;0.000548400878906249;8.6599999781356;867;100 mA
21.8734669447748;0.29986572265625;0.00054901123046875;8.66999997811035;868;100 mA
21.8834669447496;0.299835205078125;0.000548706054687501;8.67999997808511;869;100 mA
21.8934669447243;0.29986572265625;0.000548706054687501;8.68999997805986;870;100 mA
21.9034669446991;0.2999267578125;0.0005474853515625;8.69999997803461;871;100 mA
21.9134669446738;0.29986572265625;0.00054779052734375;8.70999997800936;872;100 mA
21.9234669446486;0.29986572265625;0.00054931640625;8.71999997798412;873;100 mA
21.9334669446233;0.29986572265625;0.000548400878906249;8.72999997795887;874;100 mA
21.9434669445981;0.299835205078125;0.000548095703125;8.73999997793362;875;100 mA
21.9534669445728;0.299896240234375;0.000548400878906249;8.74999997790837;876;100 mA
21.9634669445476;0.29986572265625;0.00054779052734375;8.75999997788313;877;100 mA
21.9734669445223;0.299896240234375;0.00054779052734375;8.76999997785788;878;100 mA
21.9834669444971;0.299835205078125;0.0005462646484375;8.77999997783263;879;100 mA
21.9934669444718;0.299896240234375;0.0005474853515625;8.78999997780738;880;100 mA
22.0034669444466;0.29986572265625;0.000548706054687501;8.79999997778214;881;100 mA
22.0134669444213;0.299835205078125;0.000548400878906249;8.80999997775689;882;100 mA
22.0234669443961;0.29986572265625;0.00054962158203125;8.81999997773164;883;100 mA
22.0334669443708;0.299896240234375;0.000550537109375;8.82999997770639;884;100 mA
22.0434669443456;0.299896240234375;0.00054962158203125;8.83999997768115;885;100 mA
22.0534669443203;0.29986572265625;0.0005511474609375;8.8499999776559;886;100 mA
22.0634669442951;0.29986572265625;0.00054931640625;8.85999997763065;887;100 mA
22.0734669442699;0.2999267578125;0.00054962158203125;8.8699999776054;888;100 mA
22.0834669442446;0.29986572265625;0.000548400878906249;8.87999997758016;889;100 mA
22.0934669442194;0.29986572265625;0.000548095703125;8.88999997755491;890;100 mA
22.1034669441941;0.299835205078125;0.00054779052734375;8.89999997752966;891;100 mA
22.1134669441689;0.299896240234375;0.000546875;8.90999997750441;892;100 mA
22.1234669441436;0.29986572265625;0.000548706054687501;8.91999997747916;893;100 mA
22.1334669441184;0.29986572265625;0.000547180175781251;8.92999997745392;894;100 mA
22.1434669440931;0.29986572265625;0.00054779052734375;8.93999997742867;895;100 mA
22.1534669440679;0.2998046875;0.000548706054687501;8.94999997740342;896;100 mA
22.1634669440426;0.2998046875;0.00054962158203125;8.95999997737817;897;100 mA
22.1734669440174;0.29986572265625;0.00055206298828125;8.96999997735293;898;100 mA
22.1834669439921;0.299835205078125;0.000548706054687501;8.97999997732768;899;100 mA
22.1934669439669;0.2998046875;0.00054901123046875;8.98999997730243;900;100 mA
22.2034669439416;0.299835205078125;0.00054901123046875;8.99999997727718;901;100 mA
22.2134669439164;0.2998046875;0.000547180175781251;9.00999997725194;902;100 mA
22.2234669438911;0.2998046875;0.000548706054687501;9.01999997722669;903;100 mA
22.2334669438659;0.299896240234375;0.000546875;9.02999997720144;904;100 mA
22.2434669438406;0.29986572265625;0.00054656982421875;9.03999997717619;905;100 mA
22.2534669438154;0.299774169921875;0.0005474853515625;9.04999997715095;906;100 mA
22.2634669437901;0.299835205078125;0.0005474853515625;9.0599999771257;907;100 mA
22.2734669437649;0.299835205078125;0.00054962158203125;9.06999997710045;908;100 mA
22.2834669437397;0.299835205078125;0.00054779052734375;9.0799999770752;909;100 mA
22.2934669437144;0.299896240234375;0.000548706054687501;9.08999997704996;910;100 mA
22.3034669436892;0.29986572265625;0.000548706054687501;9.09999997702471;911;100 mA
22.3134669436639;0.29986572265625;0.00054779052734375;9.10999997699946;912;100 mA
22.3234669436387;0.299896240234375;0.000550231933593751;9.11999997697421;913;100 mA
22.3334669436134;0.299835205078125;0.0005474853515625;9.12999997694897;914;100 mA
22.3434669435882;0.29986572265625;0.000546875;9.13999997692372;915;100 mA
22.3534669435629;0.299835205078125;0.0005474853515625;9.14999997689847;916;100 mA
22.3634669435377;0.29986572265625;0.000546875;9.15999997687322;917;100 mA
22.3734669435124;0.29986572265625;0.00054779052734375;9.16999997684798;918;100 mA
22.3834669434872;0.299896240234375;0.00054595947265625;9.17999997682273;919;100 mA
22.3934669434619;0.29986572265625;0.00054595947265625;9.18999997679748;920;100 mA
22.4034669434367;0.29986572265625;0.0005474853515625;9.19999997677223;921;100 mA
22.4134669434114;0.29986572265625;0.000548400878906249;9.20999997674699;922;100 mA
22.4234669433862;0.299835205078125;0.000548400878906249;9.21999997672174;923;100 mA
22.4334669433609;0.29986572265625;0.000546875;9.22999997669649;924;100 mA
22.4434669433357;0.299896240234375;0.000548095703125;9.23999997667124;925;100 mA
22.4534669433104;0.2998046875;0.0005474853515625;9.249999976646;926;100 mA
22.4634669432852;0.299896240234375;0.000546875;9.25999997662075;927;100 mA
22.47346694326;0.299835205078125;0.000548095703125;9.2699999765955;928;100 mA
22.4834669432347;0.299835205078125;0.0005474853515625;9.27999997657025;929;100 mA
22.4934669432095;0.2999267578125;0.0005450439453125;9.289999976545;930;100 mA
22.5034669431842;0.2999267578125;0.00054656982421875;9.29999997651976;931;100 mA
22.513466943159;0.29986572265625;0.0005462646484375;9.30999997649451;932;100 mA
22.5234669431337;0.299835205078125;0.00054656982421875;9.31999997646926;933;100 mA
22.5334669431085;0.2998046875;0.000545654296875001;9.32999997644401;934;100 mA
22.5434669430832;0.299835205078125;0.000545654296875001;9.33999997641877;935;100 mA
22.553466943058;0.299896240234375;0.00054595947265625;9.34999997639352;936;100 mA
22.5634669430327;0.299835205078125;0.000545654296875001;9.35999997636827;937;100 mA
22.5734669430075;0.299896240234375;0.0005462646484375;9.36999997634302;938;100 mA
22.5834669429822;0.299835205078125;0.000544128417968751;9.37999997631778;939;100 mA
22.593466942957;0.29986572265625;0.00054443359375;9.38999997629253;940;100 mA
22.6034669429317;0.29986572265625;0.00054473876953125;9.39999997626728;941;100 mA
22.6134669429065;0.29986572265625;0.000543212890625;9.40999997624203;942;100 mA
22.6234669428812;0.299835205078125;0.00054656982421875;9.41999997621679;943;100 mA
22.633466942856;0.299835205078125;0.0005450439453125;9.42999997619154;944;100 mA
22.6434669428307;0.299835205078125;0.00054779052734375;9.43999997616629;945;100 mA
22.6534669428055;0.299835205078125;0.00054656982421875;9.44999997614104;946;100 mA
22.6634669427802;0.2998046875;0.000545654296875001;9.4599999761158;947;100 mA
22.673466942755;0.299835205078125;0.00054595947265625;9.46999997609055;948;100 mA
22.6834669427298;0.299835205078125;0.0005450439453125;9.4799999760653;949;100 mA
22.6934669427045;0.2999267578125;0.00054351806640625;9.48999997604005;950;100 mA
22.7034669426793;0.299835205078125;0.000543823242187499;9.49999997601481;951;100 mA
22.713466942654;0.299835205078125;0.000543823242187499;9.50999997598956;952;100 mA
22.7234669426288;0.2999267578125;0.000545349121093749;9.51999997596431;953;100 mA
22.7334669426035;0.299835205078125;0.000543823242187499;9.52999997593906;954;100 mA
22.7434669425783;0.299896240234375;0.00054443359375;9.53999997591382;955;100 mA
22.753466942553;0.299835205078125;0.00054595947265625;9.54999997588857;956;100 mA
22.7634669425278;0.299774169921875;0.000544128417968751;9.55999997586332;957;100 mA
22.7734669425025;0.2999267578125;0.00054443359375;9.56999997583807;958;100 mA
22.7834669424773;0.29986572265625;0.00054595947265625;9.57999997581283;959;100 mA
22.793466942452;0.299957275390625;0.000544128417968751;9.58999997578758;960;100 mA
22.8034669424268;0.29986572265625;0.00054351806640625;9.59999997576233;961;100 mA
22.8134669424015;0.299896240234375;0.000542297363281249;9.60999997573708;962;100 mA
22.8234669423763;0.29986572265625;0.000544128417968751;9.61999997571183;963;100 mA
22.833466942351;0.299835205078125;0.00054168701171875;9.62999997568659;964;100 mA
22.8434669423258;0.299835205078125;0.000542602539062501;9.63999997566134;965;100 mA
22.8534669423005;0.299896240234375;0.00054168701171875;9.64999997563609;966;100 mA
22.8634669422753;0.299835205078125;0.00054168701171875;9.65999997561084;967;100 mA
22.87346694225;0.299896240234375;0.000543212890625;9.6699999755856;968;100 mA
22.8834669422248;0.29986572265625;0.000543823242187499;9.67999997556035;969;100 mA
22.8934669421996;0.299896240234375;0.000543823242187499;9.6899999755351;970;100 mA
22.9034669421743;0.2998046875;0.0005462646484375;9.69999997550985;971;100 mA
22.9134669421491;0.299835205078125;0.00054351806640625;9.70999997548461;972;100 mA
22.9234669421238;0.29986572265625;0.00054351806640625;9.71999997545936;973;100 mA
22.9334669420986;0.299896240234375;0.0005413818359375;9.72999997543411;974;100 mA
22.9434669420733;0.299957275390625;0.0005419921875;9.73999997540886;975;100 mA
22.9534669420481;0.29986572265625;0.000542297363281249;9.74999997538362;976;100 mA
22.9634669420228;0.299835205078125;0.000542602539062501;9.75999997535837;977;100 mA
22.9734669419976;0.2999267578125;0.00054290771484375;9.76999997533312;978;100 mA
22.9834669419723;0.299835205078125;0.0005419921875;9.77999997530787;979;100 mA
22.9934669419471;0.29986572265625;0.000542297363281249;9.78999997528263;980;100 mA
23.0034669419218;0.299835205078125;0.000542297363281249;9.79999997525738;981;100 mA
23.0134669418966;0.2999267578125;0.000542602539062501;9.80999997523213;982;100 mA
23.0234669418713;0.29986572265625;0.000544128417968751;9.81999997520688;983;100 mA
23.0334669418461;0.299835205078125;0.000542602539062501;9.82999997518164;984;100 mA
23.0434669418208;0.299774169921875;0.000542297363281249;9.83999997515639;985;100 mA
23.0534669417956;0.299896240234375;0.000542297363281249;9.84999997513114;986;100 mA
23.0634669417703;0.29986572265625;0.0005419921875;9.85999997510589;987;100 mA
23.0734669417451;0.299835205078125;0.000542297363281249;9.86999997508065;988;100 mA
23.0834669417198;0.29986572265625;0.000542602539062501;9.8799999750554;989;100 mA
23.0934669416946;0.299835205078125;0.000543212890625;9.88999997503015;990;100 mA
23.1034669416694;0.29986572265625;0.00054351806640625;9.8999999750049;991;100 mA
23.1134669416441;0.29986572265625;0.00054290771484375;9.90999997497966;992;100 mA
23.1234669416189;0.299835205078125;0.00054443359375;9.91999997495441;993;100 mA
23.1334669415936;0.2998046875;0.0005450439453125;9.92999997492916;994;100 mA
23.1434669415684;0.2999267578125;0.000543823242187499;9.93999997490391;995;100 mA
23.1534669415431;0.299835205078125;0.000544128417968751;9.94999997487866;996;100 mA
23.1634669415179;0.29986572265625;0.000543212890625;9.95999997485342;997;100 mA
23.1734669414926;0.299835205078125;0.00054443359375;9.96999997482817;998;100 mA
23.1834669414674;0.299896240234375;0.000543823242187499;9.97999997480292;999;100 mA
23.1934669414421;0.29986572265625;0.000544128417968751;9.98999997477767;1000;100 mA
