Time (s);WE(1).Potential (V);WE(1).Current (A);Corrected time (s);Index;Current range
23.6867479401967;0.199920654296875;-0.0003985595703125;0;1;100 mA
23.6967479401715;0.20001220703125;-0.000105895996093749;0.00999999997475243;2;100 mA
23.7067479401462;0.20001220703125;2.68554687500006E-05;0.0199999999495049;3;100 mA
23.716747940121;0.199951171875;0.000108642578125;0.0299999999242573;4;100 mA
23.7267479400957;0.200042724609375;0.0001629638671875;0.0399999998990097;5;100 mA
23.7367479400705;0.199981689453125;0.00020172119140625;0.0499999998737621;6;100 mA
23.7467479400452;0.20001220703125;0.000232543945312499;0.0599999998485146;7;100 mA
23.75674794002;0.199981689453125;0.000254211425781251;0.069999999823267;8;100 mA
23.7667479399947;0.199951171875;0.00027587890625;0.0799999997980194;9;100 mA
23.7767479399695;0.20001220703125;0.00029144287109375;0.0899999997727718;10;100 mA
23.7867479399442;0.200042724609375;0.0003033447265625;0.0999999997475243;11;100 mA
23.796747939919;0.199981689453125;0.00031463623046875;0.109999999722277;12;100 mA
23.8067479398937;0.200042724609375;0.000324401855468751;0.119999999697029;13;100 mA
23.8167479398685;0.199981689453125;0.00033538818359375;0.129999999671782;14;100 mA
23.8267479398432;0.20001220703125;0.00034454345703125;0.139999999646534;15;100 mA
23.836747939818;0.20001220703125;0.000351562499999999;0.149999999621286;16;100 mA
23.8467479397927;0.199951171875;0.00035980224609375;0.159999999596039;17;100 mA
23.8567479397675;0.199951171875;0.000362243652343749;0.169999999570791;18;100 mA
23.8667479397423;0.199981689453125;0.00036773681640625;0.179999999545544;19;100 mA
23.876747939717;0.20001220703125;0.00037200927734375;0.189999999520296;20;100 mA
23.8867479396918;0.20001220703125;0.000374755859375001;0.199999999495049;21;100 mA
23.8967479396665;0.200042724609375;0.000380859375000001;0.209999999469801;22;100 mA
23.9067479396413;0.199981689453125;0.000382385253906251;0.219999999444553;23;100 mA
23.916747939616;0.199951171875;0.000388183593749999;0.229999999419306;24;100 mA
23.9267479395908;0.20001220703125;0.000391845703125;0.239999999394058;25;100 mA
23.9367479395655;0.199951171875;0.000394287109374999;0.249999999368811;26;100 mA
23.9467479395403;0.199951171875;0.000398864746093749;0.259999999343563;27;100 mA
23.956747939515;0.200042724609375;0.00039947509765625;0.269999999318316;28;100 mA
23.9667479394898;0.20001220703125;0.00040252685546875;0.279999999293068;29;100 mA
23.9767479394645;0.199951171875;0.00040557861328125;0.28999999926782;30;100 mA
23.9867479394393;0.20001220703125;0.000406494140624999;0.299999999242573;31;100 mA
23.996747939414;0.199951171875;0.00040863037109375;0.309999999217325;32;100 mA
24.0067479393888;0.199951171875;0.00041015625;0.319999999192078;33;100 mA
24.0167479393635;0.20001220703125;0.00041229248046875;0.32999999916683;34;100 mA
24.0267479393383;0.199981689453125;0.000414123535156249;0.339999999141583;35;100 mA
24.036747939313;0.199951171875;0.00041534423828125;0.349999999116335;36;100 mA
24.0467479392878;0.199981689453125;0.00041961669921875;0.359999999091087;37;100 mA
24.0567479392626;0.200042724609375;0.000419921875;0.36999999906584;38;100 mA
24.0667479392373;0.199951171875;0.0004229736328125;0.379999999040592;39;100 mA
24.0767479392121;0.199951171875;0.0004254150390625;0.389999999015345;40;100 mA
24.0867479391868;0.199981689453125;0.000427856445312499;0.399999998990097;41;100 mA
24.0967479391616;0.199951171875;0.000429382324218749;0.40999999896485;42;100 mA
24.1067479391363;0.199981689453125;0.000428466796875;0.419999998939602;43;100 mA
24.1167479391111;0.199951171875;0.00042999267578125;0.429999998914354;44;100 mA
24.1267479390858;0.199951171875;0.00043182373046875;0.439999998889107;45;100 mA
24.1367479390606;0.199981689453125;0.00043060302734375;0.449999998863859;46;100 mA
24.1467479390353;0.19989013671875;0.000433959960937499;0.459999998838612;47;100 mA
24.1567479390101;0.20001220703125;0.000433959960937499;0.469999998813364;48;100 mA
24.1667479389848;0.199920654296875;0.0004345703125;0.479999998788116;49;100 mA
24.1767479389596;0.199981689453125;0.0004364013671875;0.489999998762869;50;100 mA
24.1867479389343;0.200042724609375;0.00043792724609375;0.499999998737621;51;100 mA
24.1967479389091;0.20001220703125;0.000440368652343751;0.509999998712374;52;100 mA
24.2067479388838;0.199920654296875;0.000440673828125;0.519999998687126;53;100 mA
24.2167479388586;0.199951171875;0.00044281005859375;0.529999998661879;54;100 mA
24.2267479388333;0.20001220703125;0.00044281005859375;0.539999998636631;55;100 mA
24.2367479388081;0.199981689453125;0.000443115234374999;0.549999998611383;56;100 mA
24.2467479387828;0.199951171875;0.0004443359375;0.559999998586136;57;100 mA
24.2567479387576;0.20001220703125;0.000444641113281249;0.569999998560888;58;100 mA
24.2667479387324;0.199920654296875;0.000445556640625;0.579999998535641;59;100 mA
24.2767479387071;0.199951171875;0.000447692871093749;0.589999998510393;60;100 mA
24.2867479386819;0.199981689453125;0.000447692871093749;0.599999998485146;61;100 mA
24.2967479386566;0.20001220703125;0.000449218749999999;0.609999998459898;62;100 mA
24.3067479386314;0.199981689453125;0.0004486083984375;0.61999999843465;63;100 mA
24.3167479386061;0.199981689453125;0.000452270507812499;0.629999998409403;64;100 mA
24.3267479385809;0.199951171875;0.00045318603515625;0.639999998384155;65;100 mA
24.3367479385556;0.20001220703125;0.000452270507812499;0.649999998358908;66;100 mA
24.3467479385304;0.200042724609375;0.000452880859375;0.65999999833366;67;100 mA
24.3567479385051;0.199951171875;0.00045166015625;0.669999998308413;68;100 mA
24.3667479384799;0.20001220703125;0.0004534912109375;0.679999998283165;69;100 mA
24.3767479384546;0.20001220703125;0.00045501708984375;0.689999998257917;70;100 mA
24.3867479384294;0.199981689453125;0.00045318603515625;0.69999999823267;71;100 mA
24.3967479384041;0.200042724609375;0.00045623779296875;0.709999998207422;72;100 mA
24.4067479383789;0.199981689453125;0.000453796386718749;0.719999998182175;73;100 mA
24.4167479383536;0.199951171875;0.00045745849609375;0.729999998156927;74;100 mA
24.4267479383284;0.199951171875;0.000456848144531249;0.73999999813168;75;100 mA
24.4367479383031;0.199981689453125;0.00045623779296875;0.749999998106432;76;100 mA
24.4467479382779;0.199920654296875;0.000458679199218751;0.759999998081184;77;100 mA
24.4567479382526;0.200042724609375;0.00045623779296875;0.769999998055937;78;100 mA
24.4667479382274;0.199981689453125;0.000456848144531249;0.779999998030689;79;100 mA
24.4767479382022;0.199951171875;0.000458679199218751;0.789999998005442;80;100 mA
24.4867479381769;0.199951171875;0.000457763671875;0.799999997980194;81;100 mA
24.4967479381517;0.199951171875;0.00046051025390625;0.809999997954947;82;100 mA
24.5067479381264;0.199951171875;0.000458984375;0.819999997929699;83;100 mA
24.5167479381012;0.199981689453125;0.00046051025390625;0.829999997904451;84;100 mA
24.5267479380759;0.200042724609375;0.000460205078125001;0.839999997879204;85;100 mA
24.5367479380507;0.199981689453125;0.00046234130859375;0.849999997853956;86;100 mA
24.5467479380254;0.199981689453125;0.000464477539062499;0.859999997828709;87;100 mA
24.5567479380002;0.200042724609375;0.00046417236328125;0.869999997803461;88;100 mA
24.5667479379749;0.20001220703125;0.0004656982421875;0.879999997778214;89;100 mA
24.5767479379497;0.20001220703125;0.000464477539062499;0.889999997752966;90;100 mA
24.5867479379244;0.200042724609375;0.0004638671875;0.899999997727718;91;100 mA
24.5967479378992;0.20001220703125;0.0004656982421875;0.909999997702471;92;100 mA
24.6067479378739;0.199981689453125;0.00046234130859375;0.919999997677223;93;100 mA
24.6167479378487;0.199981689453125;0.00046417236328125;0.929999997651976;94;100 mA
24.6267479378234;0.20001220703125;0.00046356201171875;0.939999997626728;95;100 mA
24.6367479377982;0.199981689453125;0.000463256835937501;0.949999997601481;96;100 mA
24.6467479377729;0.199981689453125;0.00046539306640625;0.959999997576233;97;100 mA
24.6567479377477;0.199981689453125;0.000465087890625;0.969999997550985;98;100 mA
24.6667479377224;0.199951171875;0.0004656982421875;0.979999997525738;99;100 mA
24.6767479376972;0.20001220703125;0.00046661376953125;0.98999999750049;100;100 mA
24.686747937672;0.200042724609375;0.00046661376953125;0.999999997475243;101;100 mA
24.6967479376467;0.20001220703125;0.000467529296874999;1.00999999745;102;100 mA
24.7067479376215;0.199981689453125;0.000466308593750001;1.01999999742475;103;100 mA
24.7167479375962;0.199951171875;0.0004681396484375;1.0299999973995;104;100 mA
24.726747937571;0.199951171875;0.000467529296874999;1.03999999737425;105;100 mA
24.7367479375457;0.199981689453125;0.0004656982421875;1.049999997349;106;100 mA
24.7467479375205;0.2000732421875;0.00046844482421875;1.05999999732376;107;100 mA
24.7567479374952;0.20001220703125;0.000465087890625;1.06999999729851;108;100 mA
24.76674793747;0.199920654296875;0.00046844482421875;1.07999999727326;109;100 mA
24.7767479374447;0.199981689453125;0.0004681396484375;1.08999999724801;110;100 mA
24.7867479374195;0.20001220703125;0.000469360351562501;1.09999999722277;111;100 mA
24.7967479373942;0.20001220703125;0.0004718017578125;1.10999999719752;112;100 mA
24.806747937369;0.199920654296875;0.000469055175781249;1.11999999717227;113;100 mA
24.8167479373437;0.20001220703125;0.00047119140625;1.12999999714702;114;100 mA
24.8267479373185;0.199951171875;0.000470581054687499;1.13999999712178;115;100 mA
24.8367479372932;0.199981689453125;0.00046966552734375;1.14999999709653;116;100 mA
24.846747937268;0.199920654296875;0.000470886230468751;1.15999999707128;117;100 mA
24.8567479372427;0.199981689453125;0.000469055175781249;1.16999999704603;118;100 mA
24.8667479372175;0.20001220703125;0.000469970703125;1.17999999702079;119;100 mA
24.8767479371922;0.20001220703125;0.000470581054687499;1.18999999699554;120;100 mA
24.886747937167;0.20001220703125;0.00047027587890625;1.19999999697029;121;100 mA
24.8967479371418;0.199981689453125;0.0004718017578125;1.20999999694504;122;100 mA
24.9067479371165;0.20001220703125;0.00046966552734375;1.2199999969198;123;100 mA
24.9167479370913;0.200042724609375;0.000469970703125;1.22999999689455;124;100 mA
24.926747937066;0.199951171875;0.000470581054687499;1.2399999968693;125;100 mA
24.9367479370408;0.199981689453125;0.00046966552734375;1.24999999684405;126;100 mA
24.9467479370155;0.20001220703125;0.000470886230468751;1.25999999681881;127;100 mA
24.9567479369903;0.2000732421875;0.0004681396484375;1.26999999679356;128;100 mA
24.966747936965;0.199951171875;0.00047027587890625;1.27999999676831;129;100 mA
24.9767479369398;0.20001220703125;0.000469970703125;1.28999999674306;130;100 mA
24.9867479369145;0.199951171875;0.000469055175781249;1.29999999671782;131;100 mA
24.9967479368893;0.200042724609375;0.00046966552734375;1.30999999669257;132;100 mA
25.006747936864;0.199981689453125;0.000469055175781249;1.31999999666732;133;100 mA
25.0167479368388;0.199951171875;0.000469360351562501;1.32999999664207;134;100 mA
25.0267479368135;0.20001220703125;0.00047119140625;1.33999999661683;135;100 mA
25.0367479367883;0.199981689453125;0.0004718017578125;1.34999999659158;136;100 mA
25.046747936763;0.199981689453125;0.0004730224609375;1.35999999656633;137;100 mA
25.0567479367378;0.20001220703125;0.000469970703125;1.36999999654108;138;100 mA
25.0667479367125;0.200042724609375;0.000469970703125;1.37999999651583;139;100 mA
25.0767479366873;0.199951171875;0.00047027587890625;1.38999999649059;140;100 mA
25.0867479366621;0.200042724609375;0.0004681396484375;1.39999999646534;141;100 mA
25.0967479366368;0.20001220703125;0.000470581054687499;1.40999999644009;142;100 mA
25.1067479366116;0.199981689453125;0.00046966552734375;1.41999999641484;143;100 mA
25.1167479365863;0.199981689453125;0.000470581054687499;1.4299999963896;144;100 mA
25.1267479365611;0.199951171875;0.000469970703125;1.43999999636435;145;100 mA
25.1367479365358;0.199951171875;0.00047119140625;1.4499999963391;146;100 mA
25.1467479365106;0.199981689453125;0.00047149658203125;1.45999999631385;147;100 mA
25.1567479364853;0.199981689453125;0.00047027587890625;1.46999999628861;148;100 mA
25.1667479364601;0.20001220703125;0.000472106933593749;1.47999999626336;149;100 mA
25.1767479364348;0.20001220703125;0.00047149658203125;1.48999999623811;150;100 mA
25.1867479364096;0.199951171875;0.000469055175781249;1.49999999621286;151;100 mA
25.1967479363843;0.199981689453125;0.000469055175781249;1.50999999618762;152;100 mA
25.2067479363591;0.20001220703125;0.000467529296874999;1.51999999616237;153;100 mA
25.2167479363338;0.199951171875;0.000469360351562501;1.52999999613712;154;100 mA
25.2267479363086;0.20001220703125;0.00046844482421875;1.53999999611187;155;100 mA
25.2367479362833;0.199951171875;0.00046844482421875;1.54999999608663;156;100 mA
25.2467479362581;0.199981689453125;0.00047027587890625;1.55999999606138;157;100 mA
25.2567479362328;0.20001220703125;0.0004681396484375;1.56999999603613;158;100 mA
25.2667479362076;0.199951171875;0.00046966552734375;1.57999999601088;159;100 mA
25.2767479361823;0.199981689453125;0.00047119140625;1.58999999598564;160;100 mA
25.2867479361571;0.199920654296875;0.000472106933593749;1.59999999596039;161;100 mA
25.2967479361319;0.199951171875;0.000472106933593749;1.60999999593514;162;100 mA
25.3067479361066;0.199920654296875;0.000469055175781249;1.61999999590989;163;100 mA
25.3167479360814;0.20001220703125;0.000469970703125;1.62999999588465;164;100 mA
25.3267479360561;0.199981689453125;0.000469360351562501;1.6399999958594;165;100 mA
25.3367479360309;0.199981689453125;0.000469360351562501;1.64999999583415;166;100 mA
25.3467479360056;0.20001220703125;0.00047119140625;1.6599999958089;167;100 mA
25.3567479359804;0.199951171875;0.000469055175781249;1.66999999578366;168;100 mA
25.3667479359551;0.199981689453125;0.00046875;1.67999999575841;169;100 mA
25.3767479359299;0.199981689453125;0.000470581054687499;1.68999999573316;170;100 mA
25.3867479359046;0.199981689453125;0.00047027587890625;1.69999999570791;171;100 mA
25.3967479358794;0.199981689453125;0.00047119140625;1.70999999568267;172;100 mA
25.4067479358541;0.199981689453125;0.000469055175781249;1.71999999565742;173;100 mA
25.4167479358289;0.20001220703125;0.000470886230468751;1.72999999563217;174;100 mA
25.4267479358036;0.20001220703125;0.000470581054687499;1.73999999560692;175;100 mA
25.4367479357784;0.199951171875;0.00046966552734375;1.74999999558167;176;100 mA
25.4467479357531;0.20001220703125;0.00047149658203125;1.75999999555643;177;100 mA
25.4567479357279;0.199981689453125;0.0004681396484375;1.76999999553118;178;100 mA
25.4667479357026;0.199981689453125;0.000469360351562501;1.77999999550593;179;100 mA
25.4767479356774;0.20001220703125;0.000469360351562501;1.78999999548068;180;100 mA
25.4867479356521;0.199981689453125;0.00046844482421875;1.79999999545544;181;100 mA
25.4967479356269;0.199981689453125;0.00047027587890625;1.80999999543019;182;100 mA
25.5067479356017;0.199981689453125;0.0004681396484375;1.81999999540494;183;100 mA
25.5167479355764;0.200042724609375;0.000470886230468751;1.82999999537969;184;100 mA
25.5267479355512;0.20001220703125;0.00046966552734375;1.83999999535445;185;100 mA
25.5367479355259;0.199981689453125;0.000469055175781249;1.8499999953292;186;100 mA
25.5467479355007;0.199951171875;0.000469970703125;1.85999999530395;187;100 mA
25.5567479354754;0.199981689453125;0.000469055175781249;1.8699999952787;188;100 mA
25.5667479354502;0.20001220703125;0.000469360351562501;1.87999999525346;189;100 mA
25.5767479354249;0.20001220703125;0.000470581054687499;1.88999999522821;190;100 mA
25.5867479353997;0.20001220703125;0.00047027587890625;1.89999999520296;191;100 mA
25.5967479353744;0.199981689453125;0.00047271728515625;1.90999999517771;192;100 mA
25.6067479353492;0.199981689453125;0.000470581054687499;1.91999999515247;193;100 mA
25.6167479353239;0.20001220703125;0.0004730224609375;1.92999999512722;194;100 mA
25.6267479352987;0.20001220703125;0.00047332763671875;1.93999999510197;195;100 mA
25.6367479352734;0.199951171875;0.000472412109375001;1.94999999507672;196;100 mA
25.6467479352482;0.200042724609375;0.000473937988281251;1.95999999505148;197;100 mA
25.6567479352229;0.199981689453125;0.00047149658203125;1.96999999502623;198;100 mA
25.6667479351977;0.199981689453125;0.00047271728515625;1.97999999500098;199;100 mA
25.6767479351724;0.200042724609375;0.000472106933593749;1.98999999497573;200;100 mA
25.6867479351472;0.20001220703125;0.00047271728515625;1.99999999495049;201;100 mA
25.6967479351219;0.20001220703125;0.000473632812499999;2.00999999492524;202;100 mA
25.7067479350967;0.199951171875;0.00047119140625;2.01999999489999;203;100 mA
25.7167479350715;0.199920654296875;0.00047332763671875;2.02999999487474;204;100 mA
25.7267479350462;0.20001220703125;0.000472106933593749;2.0399999948495;205;100 mA
25.736747935021;0.199920654296875;0.000472412109375001;2.04999999482425;206;100 mA
25.7467479349957;0.20001220703125;0.000474853515625;2.059999994799;207;100 mA
25.7567479349705;0.199951171875;0.0004742431640625;2.06999999477375;208;100 mA
25.7667479349452;0.199981689453125;0.000475158691406249;2.0799999947485;209;100 mA
25.77674793492;0.200042724609375;0.000475158691406249;2.08999999472326;210;100 mA
25.7867479348947;0.199981689453125;0.0004730224609375;2.09999999469801;211;100 mA
25.7967479348695;0.200042724609375;0.000475158691406249;2.10999999467276;212;100 mA
25.8067479348442;0.199981689453125;0.0004730224609375;2.11999999464751;213;100 mA
25.816747934819;0.20001220703125;0.000473632812499999;2.12999999462227;214;100 mA
25.8267479347937;0.199981689453125;0.00047332763671875;2.13999999459702;215;100 mA
25.8367479347685;0.199981689453125;0.000473937988281251;2.14999999457177;216;100 mA
25.8467479347432;0.200042724609375;0.00047607421875;2.15999999454652;217;100 mA
25.856747934718;0.199981689453125;0.000474853515625;2.16999999452128;218;100 mA
25.8667479346927;0.20001220703125;0.00047576904296875;2.17999999449603;219;100 mA
25.8767479346675;0.199981689453125;0.000478210449218749;2.18999999447078;220;100 mA
25.8867479346422;0.199951171875;0.000476684570312499;2.19999999444553;221;100 mA
25.896747934617;0.199981689453125;0.0004791259765625;2.20999999442029;222;100 mA
25.9067479345917;0.199920654296875;0.000476684570312499;2.21999999439504;223;100 mA
25.9167479345665;0.199981689453125;0.0004779052734375;2.22999999436979;224;100 mA
25.9267479345413;0.199920654296875;0.000478210449218749;2.23999999434454;225;100 mA
25.936747934516;0.199981689453125;0.000476989746093751;2.2499999943193;226;100 mA
25.9467479344908;0.199951171875;0.000478210449218749;2.25999999429405;227;100 mA
25.9567479344655;0.20001220703125;0.00047576904296875;2.2699999942688;228;100 mA
25.9667479344403;0.20001220703125;0.00047760009765625;2.27999999424355;229;100 mA
25.976747934415;0.199981689453125;0.0004779052734375;2.28999999421831;230;100 mA
25.9867479343898;0.199981689453125;0.000477294921875;2.29999999419306;231;100 mA
25.9967479343645;0.199981689453125;0.0004803466796875;2.30999999416781;232;100 mA
26.0067479343393;0.199981689453125;0.000478210449218749;2.31999999414256;233;100 mA
26.016747934314;0.199951171875;0.00048095703125;2.32999999411732;234;100 mA
26.0267479342888;0.199981689453125;0.00047943115234375;2.33999999409207;235;100 mA
26.0367479342635;0.199951171875;0.0004779052734375;2.34999999406682;236;100 mA
26.0467479342383;0.20001220703125;0.00047882080078125;2.35999999404157;237;100 mA
26.056747934213;0.20001220703125;0.00047607421875;2.36999999401633;238;100 mA
26.0667479341878;0.199951171875;0.00047637939453125;2.37999999399108;239;100 mA
26.0767479341625;0.199951171875;0.000477294921875;2.38999999396583;240;100 mA
26.0867479341373;0.200042724609375;0.000477294921875;2.39999999394058;241;100 mA
26.096747934112;0.199920654296875;0.0004779052734375;2.40999999391533;242;100 mA
26.1067479340868;0.199951171875;0.000476684570312499;2.41999999389009;243;100 mA
26.1167479340616;0.200042724609375;0.000477294921875;2.42999999386484;244;100 mA
26.1267479340363;0.199981689453125;0.000477294921875;2.43999999383959;245;100 mA
26.1367479340111;0.199981689453125;0.000476684570312499;2.44999999381434;246;100 mA
26.1467479339858;0.199951171875;0.0004779052734375;2.4599999937891;247;100 mA
26.1567479339606;0.20001220703125;0.000475463867187501;2.46999999376385;248;100 mA
26.1667479339353;0.200042724609375;0.000477294921875;2.4799999937386;249;100 mA
26.1767479339101;0.20001220703125;0.00047760009765625;2.48999999371335;250;100 mA
26.1867479338848;0.20001220703125;0.00047607421875;2.49999999368811;251;100 mA
26.1967479338596;0.199981689453125;0.0004779052734375;2.50999999366286;252;100 mA
26.2067479338343;0.199981689453125;0.00047760009765625;2.51999999363761;253;100 mA
26.2167479338091;0.199951171875;0.00047760009765625;2.52999999361236;254;100 mA
26.2267479337838;0.20001220703125;0.00047943115234375;2.53999999358712;255;100 mA
26.2367479337586;0.199951171875;0.00047882080078125;2.54999999356187;256;100 mA
26.2467479337333;0.200042724609375;0.000479736328124999;2.55999999353662;257;100 mA
26.2567479337081;0.199951171875;0.000477294921875;2.56999999351137;258;100 mA
26.2667479336828;0.199981689453125;0.000477294921875;2.57999999348613;259;100 mA
26.2767479336576;0.20001220703125;0.000475463867187501;2.58999999346088;260;100 mA
26.2867479336323;0.20001220703125;0.0004742431640625;2.59999999343563;261;100 mA
26.2967479336071;0.199981689453125;0.00047607421875;2.60999999341038;262;100 mA
26.3067479335818;0.200042724609375;0.000474853515625;2.61999999338514;263;100 mA
26.3167479335566;0.20001220703125;0.000477294921875;2.62999999335989;264;100 mA
26.3267479335314;0.199951171875;0.00047637939453125;2.63999999333464;265;100 mA
26.3367479335061;0.20001220703125;0.00047607421875;2.64999999330939;266;100 mA
26.3467479334809;0.20001220703125;0.000477294921875;2.65999999328415;267;100 mA
26.3567479334556;0.200042724609375;0.000474853515625;2.6699999932589;268;100 mA
26.3667479334304;0.20001220703125;0.000476989746093751;2.67999999323365;269;100 mA
26.3767479334051;0.199951171875;0.000476684570312499;2.6899999932084;270;100 mA
26.3867479333799;0.199981689453125;0.00047454833984375;2.69999999318316;271;100 mA
26.3967479333546;0.199951171875;0.00047576904296875;2.70999999315791;272;100 mA
26.4067479333294;0.20001220703125;0.00047332763671875;2.71999999313266;273;100 mA
26.4167479333041;0.199981689453125;0.000475463867187501;2.72999999310741;274;100 mA
26.4267479332789;0.199981689453125;0.0004742431640625;2.73999999308217;275;100 mA
26.4367479332536;0.20001220703125;0.000473937988281251;2.74999999305692;276;100 mA
26.4467479332284;0.199981689453125;0.00047576904296875;2.75999999303167;277;100 mA
26.4567479332031;0.199920654296875;0.00047454833984375;2.76999999300642;278;100 mA
26.4667479331779;0.20001220703125;0.000476684570312499;2.77999999298117;279;100 mA
26.4767479331526;0.199981689453125;0.00047760009765625;2.78999999295593;280;100 mA
26.4867479331274;0.199951171875;0.000478515625000001;2.79999999293068;281;100 mA
26.4967479331021;0.199981689453125;0.000478210449218749;2.80999999290543;282;100 mA
26.5067479330769;0.199981689453125;0.000475463867187501;2.81999999288018;283;100 mA
26.5167479330516;0.200042724609375;0.00047607421875;2.82999999285494;284;100 mA
26.5267479330264;0.199951171875;0.00047576904296875;2.83999999282969;285;100 mA
26.5367479330012;0.20001220703125;0.000475463867187501;2.84999999280444;286;100 mA
26.5467479329759;0.20001220703125;0.000476684570312499;2.85999999277919;287;100 mA
26.5567479329507;0.199920654296875;0.000474853515625;2.86999999275395;288;100 mA
26.5667479329254;0.199981689453125;0.000473937988281251;2.8799999927287;289;100 mA
26.5767479329002;0.199951171875;0.000475463867187501;2.88999999270345;290;100 mA
26.5867479328749;0.20001220703125;0.000473632812499999;2.8999999926782;291;100 mA
26.5967479328497;0.199981689453125;0.000475463867187501;2.90999999265296;292;100 mA
26.6067479328244;0.199981689453125;0.000473632812499999;2.91999999262771;293;100 mA
26.6167479327992;0.199981689453125;0.000474853515625;2.92999999260246;294;100 mA
26.6267479327739;0.199981689453125;0.000473937988281251;2.93999999257721;295;100 mA
26.6367479327487;0.199981689453125;0.000473632812499999;2.94999999255197;296;100 mA
26.6467479327234;0.200042724609375;0.0004742431640625;2.95999999252672;297;100 mA
26.6567479326982;0.199981689453125;0.00047271728515625;2.96999999250147;298;100 mA
26.6667479326729;0.199981689453125;0.00047332763671875;2.97999999247622;299;100 mA
26.6767479326477;0.20001220703125;0.000473937988281251;2.98999999245098;300;100 mA
26.6867479326224;0.200042724609375;0.00047332763671875;2.99999999242573;301;100 mA
26.6967479325972;0.20001220703125;0.00047454833984375;3.00999999240048;302;100 mA
26.7067479325719;0.200042724609375;0.0004730224609375;3.01999999237523;303;100 mA
26.7167479325467;0.199920654296875;0.000475158691406249;3.02999999234999;304;100 mA
26.7267479325214;0.20001220703125;0.0004742431640625;3.03999999232474;305;100 mA
26.7367479324962;0.199951171875;0.000473632812499999;3.04999999229949;306;100 mA
26.746747932471;0.20001220703125;0.000475463867187501;3.05999999227424;307;100 mA
26.7567479324457;0.20001220703125;0.00047454833984375;3.069999992249;308;100 mA
26.7667479324205;0.199981689453125;0.000475158691406249;3.07999999222375;309;100 mA
26.7767479323952;0.199981689453125;0.00047607421875;3.0899999921985;310;100 mA
26.78674793237;0.199951171875;0.000475158691406249;3.09999999217325;311;100 mA
26.7967479323447;0.199981689453125;0.000477294921875;3.109999992148;312;100 mA
26.8067479323195;0.20001220703125;0.000475158691406249;3.11999999212276;313;100 mA
26.8167479322942;0.200042724609375;0.00047607421875;3.12999999209751;314;100 mA
26.826747932269;0.199920654296875;0.000476684570312499;3.13999999207226;315;100 mA
26.8367479322437;0.199920654296875;0.00047576904296875;3.14999999204701;316;100 mA
26.8467479322185;0.199951171875;0.000477294921875;3.15999999202177;317;100 mA
26.8567479321932;0.20001220703125;0.00047454833984375;3.16999999199652;318;100 mA
26.866747932168;0.199920654296875;0.00047454833984375;3.17999999197127;319;100 mA
26.8767479321427;0.199951171875;0.00047576904296875;3.18999999194602;320;100 mA
26.8867479321175;0.199951171875;0.000473937988281251;3.19999999192078;321;100 mA
26.8967479320922;0.20001220703125;0.000475463867187501;3.20999999189553;322;100 mA
26.906747932067;0.199981689453125;0.000473632812499999;3.21999999187028;323;100 mA
26.9167479320417;0.199981689453125;0.00047332763671875;3.22999999184503;324;100 mA
26.9267479320165;0.199981689453125;0.000474853515625;3.23999999181979;325;100 mA
26.9367479319912;0.199981689453125;0.000474853515625;3.24999999179454;326;100 mA
26.946747931966;0.199951171875;0.00047760009765625;3.25999999176929;327;100 mA
26.9567479319408;0.199981689453125;0.000476684570312499;3.26999999174404;328;100 mA
26.9667479319155;0.199981689453125;0.000475158691406249;3.2799999917188;329;100 mA
26.9767479318903;0.199920654296875;0.00047607421875;3.28999999169355;330;100 mA
26.986747931865;0.20001220703125;0.00047332763671875;3.2999999916683;331;100 mA
26.9967479318398;0.200042724609375;0.00047607421875;3.30999999164305;332;100 mA
27.0067479318145;0.199981689453125;0.00047271728515625;3.31999999161781;333;100 mA
27.0167479317893;0.199981689453125;0.000473632812499999;3.32999999159256;334;100 mA
27.026747931764;0.199981689453125;0.000474853515625;3.33999999156731;335;100 mA
27.0367479317388;0.20001220703125;0.00047576904296875;3.34999999154206;336;100 mA
27.0467479317135;0.20001220703125;0.00047760009765625;3.35999999151682;337;100 mA
27.0567479316883;0.200042724609375;0.00047607421875;3.36999999149157;338;100 mA
27.066747931663;0.199981689453125;0.00047760009765625;3.37999999146632;339;100 mA
27.0767479316378;0.200042724609375;0.00047760009765625;3.38999999144107;340;100 mA
27.0867479316125;0.199981689453125;0.000477294921875;3.39999999141583;341;100 mA
27.0967479315873;0.20001220703125;0.0004791259765625;3.40999999139058;342;100 mA
27.106747931562;0.199981689453125;0.000476989746093751;3.41999999136533;343;100 mA
27.1167479315368;0.199981689453125;0.00047882080078125;3.42999999134008;344;100 mA
27.1267479315115;0.199981689453125;0.000480041503906251;3.43999999131483;345;100 mA
27.1367479314863;0.199981689453125;0.000478515625000001;3.44999999128959;346;100 mA
27.1467479314611;0.199981689453125;0.000479736328124999;3.45999999126434;347;100 mA
27.1567479314358;0.199981689453125;0.000478515625000001;3.46999999123909;348;100 mA
27.1667479314106;0.200042724609375;0.000480041503906251;3.47999999121384;349;100 mA
27.1767479313853;0.199981689453125;0.000479736328124999;3.4899999911886;350;100 mA
27.1867479313601;0.199981689453125;0.000481262207031249;3.49999999116335;351;100 mA
27.1967479313348;0.199981689453125;0.000482177734375;3.5099999911381;352;100 mA
27.2067479313096;0.20001220703125;0.00048095703125;3.51999999111285;353;100 mA
27.2167479312843;0.199981689453125;0.000484619140625001;3.52999999108761;354;100 mA
27.2267479312591;0.200042724609375;0.000482788085937499;3.53999999106236;355;100 mA
27.2367479312338;0.2000732421875;0.000481262207031249;3.54999999103711;356;100 mA
27.2467479312086;0.199981689453125;0.00048187255859375;3.55999999101186;357;100 mA
27.2567479311833;0.199981689453125;0.0004803466796875;3.56999999098662;358;100 mA
27.2667479311581;0.199981689453125;0.000482177734375;3.57999999096137;359;100 mA
27.2767479311328;0.20001220703125;0.000482177734375;3.58999999093612;360;100 mA
27.2867479311076;0.20001220703125;0.00048248291015625;3.59999999091087;361;100 mA
27.2967479310823;0.199981689453125;0.000483093261718751;3.60999999088563;362;100 mA
27.3067479310571;0.200042724609375;0.000482177734375;3.61999999086038;363;100 mA
27.3167479310318;0.199951171875;0.00048370361328125;3.62999999083513;364;100 mA
27.3267479310066;0.199981689453125;0.000482788085937499;3.63999999080988;365;100 mA
27.3367479309813;0.199981689453125;0.000483093261718751;3.64999999078464;366;100 mA
27.3467479309561;0.20001220703125;0.000484619140625001;3.65999999075939;367;100 mA
27.3567479309309;0.199981689453125;0.000482788085937499;3.66999999073414;368;100 mA
27.3667479309056;0.199920654296875;0.0004833984375;3.67999999070889;369;100 mA
27.3767479308804;0.199981689453125;0.0004833984375;3.68999999068365;370;100 mA
27.3867479308551;0.20001220703125;0.00048248291015625;3.6999999906584;371;100 mA
27.3967479308299;0.20001220703125;0.00048553466796875;3.70999999063315;372;100 mA
27.4067479308046;0.20001220703125;0.0004840087890625;3.7199999906079;373;100 mA
27.4167479307794;0.20001220703125;0.00048370361328125;3.72999999058266;374;100 mA
27.4267479307541;0.199951171875;0.000485839843749999;3.73999999055741;375;100 mA
27.4367479307289;0.199920654296875;0.00048492431640625;3.74999999053216;376;100 mA
27.4467479307036;0.199981689453125;0.000486145019531251;3.75999999050691;377;100 mA
27.4567479306784;0.20001220703125;0.0004833984375;3.76999999048167;378;100 mA
27.4667479306531;0.199920654296875;0.00048370361328125;3.77999999045642;379;100 mA
27.4767479306279;0.20001220703125;0.00048370361328125;3.78999999043117;380;100 mA
27.4867479306026;0.200042724609375;0.00048248291015625;3.79999999040592;381;100 mA
27.4967479305774;0.199920654296875;0.000484619140625001;3.80999999038067;382;100 mA
27.5067479305521;0.20001220703125;0.000482788085937499;3.81999999035543;383;100 mA
27.5167479305269;0.200042724609375;0.000484619140625001;3.82999999033018;384;100 mA
27.5267479305016;0.199981689453125;0.00048492431640625;3.83999999030493;385;100 mA
27.5367479304764;0.200042724609375;0.0004840087890625;3.84999999027968;386;100 mA
27.5467479304511;0.199951171875;0.000486145019531251;3.85999999025444;387;100 mA
27.5567479304259;0.200042724609375;0.000484313964843749;3.86999999022919;388;100 mA
27.5667479304007;0.199981689453125;0.00048675537109375;3.87999999020394;389;100 mA
27.5767479303754;0.199981689453125;0.000486145019531251;3.88999999017869;390;100 mA
27.5867479303502;0.199951171875;0.00048553466796875;3.89999999015345;391;100 mA
27.5967479303249;0.199981689453125;0.000485839843749999;3.9099999901282;392;100 mA
27.6067479302997;0.199981689453125;0.000484313964843749;3.91999999010295;393;100 mA
27.6167479302744;0.200042724609375;0.00048553466796875;3.9299999900777;394;100 mA
27.6267479302492;0.200042724609375;0.00048553466796875;3.93999999005246;395;100 mA
27.6367479302239;0.199920654296875;0.000484313964843749;3.94999999002721;396;100 mA
27.6467479301987;0.20001220703125;0.00048553466796875;3.95999999000196;397;100 mA
27.6567479301734;0.199981689453125;0.0004833984375;3.96999998997671;398;100 mA
27.6667479301482;0.199981689453125;0.0004864501953125;3.97999998995147;399;100 mA
27.6767479301229;0.199951171875;0.000487060546875;3.98999998992622;400;100 mA
27.6867479300977;0.200042724609375;0.00048797607421875;3.99999998990097;401;100 mA
27.6967479300724;0.199951171875;0.00048797607421875;4.00999998987572;402;100 mA
27.7067479300472;0.200042724609375;0.0004833984375;4.01999998985048;403;100 mA
27.7167479300219;0.20001220703125;0.0004852294921875;4.02999998982523;404;100 mA
27.7267479299967;0.20001220703125;0.00048370361328125;4.03999998979998;405;100 mA
27.7367479299714;0.199981689453125;0.000483093261718751;4.04999998977473;406;100 mA
27.7467479299462;0.199981689453125;0.00048492431640625;4.05999998974949;407;100 mA
27.7567479299209;0.199981689453125;0.0004803466796875;4.06999998972424;408;100 mA
27.7667479298957;0.199981689453125;0.00048248291015625;4.07999998969899;409;100 mA
27.7767479298705;0.200042724609375;0.000482788085937499;4.08999998967374;410;100 mA
27.7867479298452;0.199981689453125;0.00048248291015625;4.0999999896485;411;100 mA
27.79674792982;0.199951171875;0.00048492431640625;4.10999998962325;412;100 mA
27.8067479297947;0.199981689453125;0.000482177734375;4.119999989598;413;100 mA
27.8167479297695;0.199981689453125;0.00048370361328125;4.12999998957275;414;100 mA
27.8267479297442;0.199981689453125;0.00048248291015625;4.1399999895475;415;100 mA
27.836747929719;0.20001220703125;0.000482177734375;4.14999998952226;416;100 mA
27.8467479296937;0.200042724609375;0.000483093261718751;4.15999998949701;417;100 mA
27.8567479296685;0.199951171875;0.000481262207031249;4.16999998947176;418;100 mA
27.8667479296432;0.199981689453125;0.0004833984375;4.17999998944651;419;100 mA
27.876747929618;0.20001220703125;0.000482177734375;4.18999998942127;420;100 mA
27.8867479295927;0.199951171875;0.00048095703125;4.19999998939602;421;100 mA
27.8967479295675;0.199981689453125;0.00048187255859375;4.20999998937077;422;100 mA
27.9067479295422;0.199981689453125;0.0004803466796875;4.21999998934552;423;100 mA
27.916747929517;0.199951171875;0.000482788085937499;4.22999998932028;424;100 mA
27.9267479294917;0.200042724609375;0.00048248291015625;4.23999998929503;425;100 mA
27.9367479294665;0.199920654296875;0.000480041503906251;4.24999998926978;426;100 mA
27.9467479294412;0.199981689453125;0.00048065185546875;4.25999998924453;427;100 mA
27.956747929416;0.20001220703125;0.0004791259765625;4.26999998921929;428;100 mA
27.9667479293907;0.199981689453125;0.000479736328124999;4.27999998919404;429;100 mA
27.9767479293655;0.199981689453125;0.0004791259765625;4.28999998916879;430;100 mA
27.9867479293403;0.20001220703125;0.000476989746093751;4.29999998914354;431;100 mA
27.996747929315;0.199951171875;0.00047882080078125;4.3099999891183;432;100 mA
28.0067479292898;0.199981689453125;0.00047576904296875;4.31999998909305;433;100 mA
28.0167479292645;0.199981689453125;0.000477294921875;4.3299999890678;434;100 mA
28.0267479292393;0.20001220703125;0.000476989746093751;4.33999998904255;435;100 mA
28.036747929214;0.20001220703125;0.000474853515625;4.34999998901731;436;100 mA
28.0467479291888;0.20001220703125;0.00047576904296875;4.35999998899206;437;100 mA
28.0567479291635;0.20001220703125;0.0004730224609375;4.36999998896681;438;100 mA
28.0667479291383;0.199981689453125;0.0004742431640625;4.37999998894156;439;100 mA
28.076747929113;0.20001220703125;0.0004742431640625;4.38999998891632;440;100 mA
28.0867479290878;0.20001220703125;0.00047332763671875;4.39999998889107;441;100 mA
28.0967479290625;0.20001220703125;0.000473632812499999;4.40999998886582;442;100 mA
28.1067479290373;0.199951171875;0.000472412109375001;4.41999998884057;443;100 mA
28.116747929012;0.199951171875;0.000472412109375001;4.42999998881533;444;100 mA
28.1267479289868;0.20001220703125;0.00047271728515625;4.43999998879008;445;100 mA
28.1367479289615;0.20001220703125;0.00047332763671875;4.44999998876483;446;100 mA
28.1467479289363;0.2000732421875;0.00047454833984375;4.45999998873958;447;100 mA
28.156747928911;0.200042724609375;0.00047332763671875;4.46999998871433;448;100 mA
28.1667479288858;0.199981689453125;0.000473937988281251;4.47999998868909;449;100 mA
28.1767479288606;0.200042724609375;0.000473937988281251;4.48999998866384;450;100 mA
28.1867479288353;0.20001220703125;0.0004718017578125;4.49999998863859;451;100 mA
28.1967479288101;0.199920654296875;0.00047271728515625;4.50999998861334;452;100 mA
28.2067479287848;0.199951171875;0.000470581054687499;4.5199999885881;453;100 mA
28.2167479287596;0.199981689453125;0.000470886230468751;4.52999998856285;454;100 mA
28.2267479287343;0.200042724609375;0.000472106933593749;4.5399999885376;455;100 mA
28.2367479287091;0.200042724609375;0.000472106933593749;4.54999998851235;456;100 mA
28.2467479286838;0.20001220703125;0.000473937988281251;4.55999998848711;457;100 mA
28.2567479286586;0.20001220703125;0.00047119140625;4.56999998846186;458;100 mA
28.2667479286333;0.199951171875;0.000472412109375001;4.57999998843661;459;100 mA
28.2767479286081;0.20001220703125;0.0004730224609375;4.58999998841136;460;100 mA
28.2867479285828;0.20001220703125;0.00047119140625;4.59999998838612;461;100 mA
28.2967479285576;0.20001220703125;0.00047271728515625;4.60999998836087;462;100 mA
28.3067479285323;0.20001220703125;0.00046966552734375;4.61999998833562;463;100 mA
28.3167479285071;0.199981689453125;0.00047027587890625;4.62999998831037;464;100 mA
28.3267479284818;0.199981689453125;0.000469970703125;4.63999998828513;465;100 mA
28.3367479284566;0.199981689453125;0.000469055175781249;4.64999998825988;466;100 mA
28.3467479284313;0.199981689453125;0.000470581054687499;4.65999998823463;467;100 mA
28.3567479284061;0.199981689453125;0.000467834472656251;4.66999998820938;468;100 mA
28.3667479283808;0.199951171875;0.000469360351562501;4.67999998818414;469;100 mA
28.3767479283556;0.199981689453125;0.00046844482421875;4.68999998815889;470;100 mA
28.3867479283304;0.20001220703125;0.00046844482421875;4.69999998813364;471;100 mA
28.3967479283051;0.20001220703125;0.000470886230468751;4.70999998810839;472;100 mA
28.4067479282799;0.199951171875;0.00046966552734375;4.71999998808315;473;100 mA
28.4167479282546;0.20001220703125;0.000470581054687499;4.7299999880579;474;100 mA
28.4267479282294;0.199981689453125;0.000470886230468751;4.73999998803265;475;100 mA
28.4367479282041;0.19989013671875;0.00046966552734375;4.7499999880074;476;100 mA
28.4467479281789;0.199981689453125;0.00047027587890625;4.75999998798216;477;100 mA
28.4567479281536;0.199920654296875;0.0004681396484375;4.76999998795691;478;100 mA
28.4667479281284;0.199981689453125;0.00047027587890625;4.77999998793166;479;100 mA
28.4767479281031;0.199981689453125;0.00046966552734375;4.78999998790641;480;100 mA
28.4867479280779;0.199981689453125;0.000469360351562501;4.79999998788116;481;100 mA
28.4967479280526;0.199981689453125;0.00046966552734375;4.80999998785592;482;100 mA
28.5067479280274;0.20001220703125;0.00046844482421875;4.81999998783067;483;100 mA
28.5167479280021;0.199951171875;0.00046875;4.82999998780542;484;100 mA
28.5267479279769;0.20001220703125;0.00046875;4.83999998778017;485;100 mA
28.5367479279516;0.20001220703125;0.000469055175781249;4.84999998775493;486;100 mA
28.5467479279264;0.199981689453125;0.000469055175781249;4.85999998772968;487;100 mA
28.5567479279011;0.20001220703125;0.000467529296874999;4.86999998770443;488;100 mA
28.5667479278759;0.199981689453125;0.000467529296874999;4.87999998767918;489;100 mA
28.5767479278506;0.199920654296875;0.0004681396484375;4.88999998765394;490;100 mA
28.5867479278254;0.200042724609375;0.00046722412109375;4.89999998762869;491;100 mA
28.5967479278002;0.20001220703125;0.00046875;4.90999998760344;492;100 mA
28.6067479277749;0.20001220703125;0.00046722412109375;4.91999998757819;493;100 mA
28.6167479277497;0.20001220703125;0.000467529296874999;4.92999998755295;494;100 mA
28.6267479277244;0.199981689453125;0.00046844482421875;4.9399999875277;495;100 mA
28.6367479276992;0.200042724609375;0.00046875;4.94999998750245;496;100 mA
28.6467479276739;0.199981689453125;0.000469055175781249;4.9599999874772;497;100 mA
28.6567479276487;0.200042724609375;0.00046722412109375;4.96999998745196;498;100 mA
28.6667479276234;0.199951171875;0.000467834472656251;4.97999998742671;499;100 mA
28.6767479275982;0.20001220703125;0.0004681396484375;4.98999998740146;500;100 mA
28.6867479275729;0.199981689453125;0.0004669189453125;4.99999998737621;501;100 mA
28.6967479275477;0.20001220703125;0.000467834472656251;5.00999998735097;502;100 mA
28.7067479275224;0.199981689453125;0.0004669189453125;5.01999998732572;503;100 mA
28.7167479274972;0.199951171875;0.000469360351562501;5.02999998730047;504;100 mA
28.7267479274719;0.200042724609375;0.000469360351562501;5.03999998727522;505;100 mA
28.7367479274467;0.199981689453125;0.00046966552734375;5.04999998724998;506;100 mA
28.7467479274214;0.199981689453125;0.00047149658203125;5.05999998722473;507;100 mA
28.7567479273962;0.199951171875;0.000469055175781249;5.06999998719948;508;100 mA
28.7667479273709;0.20001220703125;0.000469360351562501;5.07999998717423;509;100 mA
28.7767479273457;0.199981689453125;0.000469970703125;5.08999998714899;510;100 mA
28.7867479273204;0.199951171875;0.00046875;5.09999998712374;511;100 mA
28.7967479272952;0.199981689453125;0.00047027587890625;5.10999998709849;512;100 mA
28.80674792727;0.199981689453125;0.0004681396484375;5.11999998707324;513;100 mA
28.8167479272447;0.20001220703125;0.000469360351562501;5.129999987048;514;100 mA
28.8267479272195;0.199981689453125;0.000469055175781249;5.13999998702275;515;100 mA
28.8367479271942;0.20001220703125;0.000467834472656251;5.1499999869975;516;100 mA
28.846747927169;0.200042724609375;0.000470886230468751;5.15999998697225;517;100 mA
28.8567479271437;0.200042724609375;0.000469055175781249;5.169999986947;518;100 mA
28.8667479271185;0.20001220703125;0.00046966552734375;5.17999998692176;519;100 mA
28.8767479270932;0.199981689453125;0.0004718017578125;5.18999998689651;520;100 mA
28.886747927068;0.20001220703125;0.0004718017578125;5.19999998687126;521;100 mA
28.8967479270427;0.199951171875;0.00047271728515625;5.20999998684601;522;100 mA
28.9067479270175;0.199951171875;0.00046966552734375;5.21999998682077;523;100 mA
28.9167479269922;0.199981689453125;0.000470886230468751;5.22999998679552;524;100 mA
28.926747926967;0.199920654296875;0.000470581054687499;5.23999998677027;525;100 mA
28.9367479269417;0.200042724609375;0.000470581054687499;5.24999998674502;526;100 mA
28.9467479269165;0.20001220703125;0.00047149658203125;5.25999998671978;527;100 mA
28.9567479268912;0.200042724609375;0.0004681396484375;5.26999998669453;528;100 mA
28.966747926866;0.20001220703125;0.00046966552734375;5.27999998666928;529;100 mA
28.9767479268407;0.199951171875;0.000470886230468751;5.28999998664403;530;100 mA
28.9867479268155;0.199951171875;0.00047027587890625;5.29999998661879;531;100 mA
28.9967479267902;0.20001220703125;0.000473632812499999;5.30999998659354;532;100 mA
29.006747926765;0.199920654296875;0.000470886230468751;5.31999998656829;533;100 mA
29.0167479267398;0.20001220703125;0.000470886230468751;5.32999998654304;534;100 mA
29.0267479267145;0.200042724609375;0.000472106933593749;5.3399999865178;535;100 mA
29.0367479266893;0.199981689453125;0.0004718017578125;5.34999998649255;536;100 mA
29.046747926664;0.199981689453125;0.0004730224609375;5.3599999864673;537;100 mA
29.0567479266388;0.199981689453125;0.000470581054687499;5.36999998644205;538;100 mA
29.0667479266135;0.20001220703125;0.00047271728515625;5.37999998641681;539;100 mA
29.0767479265883;0.199951171875;0.00047271728515625;5.38999998639156;540;100 mA
29.086747926563;0.199951171875;0.000472412109375001;5.39999998636631;541;100 mA
29.0967479265378;0.20001220703125;0.00047271728515625;5.40999998634106;542;100 mA
29.1067479265125;0.200042724609375;0.000472412109375001;5.41999998631582;543;100 mA
29.1167479264873;0.199981689453125;0.000475463867187501;5.42999998629057;544;100 mA
29.126747926462;0.20001220703125;0.00047454833984375;5.43999998626532;545;100 mA
29.1367479264368;0.199981689453125;0.00047454833984375;5.44999998624007;546;100 mA
29.1467479264115;0.199981689453125;0.000475463867187501;5.45999998621483;547;100 mA
29.1567479263863;0.20001220703125;0.000473632812499999;5.46999998618958;548;100 mA
29.166747926361;0.199981689453125;0.000473937988281251;5.47999998616433;549;100 mA
29.1767479263358;0.20001220703125;0.00047454833984375;5.48999998613908;550;100 mA
29.1867479263105;0.199981689453125;0.0004742431640625;5.49999998611383;551;100 mA
29.1967479262853;0.20001220703125;0.000473937988281251;5.50999998608859;552;100 mA
29.2067479262601;0.199981689453125;0.00047271728515625;5.51999998606334;553;100 mA
29.2167479262348;0.199920654296875;0.000473632812499999;5.52999998603809;554;100 mA
29.2267479262096;0.199951171875;0.000473937988281251;5.53999998601284;555;100 mA
29.2367479261843;0.199920654296875;0.0004730224609375;5.5499999859876;556;100 mA
29.2467479261591;0.20001220703125;0.0004718017578125;5.55999998596235;557;100 mA
29.2567479261338;0.20001220703125;0.00047119140625;5.5699999859371;558;100 mA
29.2667479261086;0.199951171875;0.000470581054687499;5.57999998591185;559;100 mA
29.2767479260833;0.199951171875;0.00047119140625;5.58999998588661;560;100 mA
29.2867479260581;0.200042724609375;0.000470886230468751;5.59999998586136;561;100 mA
29.2967479260328;0.20001220703125;0.000472106933593749;5.60999998583611;562;100 mA
29.3067479260076;0.20001220703125;0.00047027587890625;5.61999998581086;563;100 mA
29.3167479259823;0.199981689453125;0.00047271728515625;5.62999998578562;564;100 mA
29.3267479259571;0.199981689453125;0.000472412109375001;5.63999998576037;565;100 mA
29.3367479259318;0.20001220703125;0.00047149658203125;5.64999998573512;566;100 mA
29.3467479259066;0.20001220703125;0.00047454833984375;5.65999998570987;567;100 mA
29.3567479258813;0.20001220703125;0.00047332763671875;5.66999998568463;568;100 mA
29.3667479258561;0.20001220703125;0.0004742431640625;5.67999998565938;569;100 mA
29.3767479258308;0.199951171875;0.000473937988281251;5.68999998563413;570;100 mA
29.3867479258056;0.199981689453125;0.000472412109375001;5.69999998560888;571;100 mA
29.3967479257803;0.20001220703125;0.000473632812499999;5.70999998558364;572;100 mA
29.4067479257551;0.2000732421875;0.000470886230468751;5.71999998555839;573;100 mA
29.4167479257299;0.20001220703125;0.0004718017578125;5.72999998553314;574;100 mA
29.4267479257046;0.199981689453125;0.00047332763671875;5.73999998550789;575;100 mA
29.4367479256794;0.20001220703125;0.000472412109375001;5.74999998548265;576;100 mA
29.4467479256541;0.20001220703125;0.000473937988281251;5.7599999854574;577;100 mA
29.4567479256289;0.200042724609375;0.000472412109375001;5.76999998543215;578;100 mA
29.4667479256036;0.199951171875;0.00047332763671875;5.7799999854069;579;100 mA
29.4767479255784;0.199981689453125;0.000473937988281251;5.78999998538166;580;100 mA
29.4867479255531;0.199981689453125;0.00047271728515625;5.79999998535641;581;100 mA
29.4967479255279;0.20001220703125;0.000473632812499999;5.80999998533116;582;100 mA
29.5067479255026;0.199951171875;0.00047149658203125;5.81999998530591;583;100 mA
29.5167479254774;0.20001220703125;0.000472106933593749;5.82999998528066;584;100 mA
29.5267479254521;0.20001220703125;0.000470886230468751;5.83999998525542;585;100 mA
29.5367479254269;0.199981689453125;0.000470886230468751;5.84999998523017;586;100 mA
29.5467479254016;0.20001220703125;0.0004718017578125;5.85999998520492;587;100 mA
29.5567479253764;0.199981689453125;0.00046844482421875;5.86999998517967;588;100 mA
29.5667479253511;0.20001220703125;0.00047119140625;5.87999998515443;589;100 mA
29.5767479253259;0.199981689453125;0.00047149658203125;5.88999998512918;590;100 mA
29.5867479253006;0.199981689453125;0.0004718017578125;5.89999998510393;591;100 mA
29.5967479252754;0.199951171875;0.000474853515625;5.90999998507868;592;100 mA
29.6067479252501;0.20001220703125;0.000472412109375001;5.91999998505344;593;100 mA
29.6167479252249;0.199981689453125;0.0004742431640625;5.92999998502819;594;100 mA
29.6267479251997;0.20001220703125;0.000473937988281251;5.93999998500294;595;100 mA
29.6367479251744;0.20001220703125;0.0004730224609375;5.94999998497769;596;100 mA
29.6467479251492;0.200042724609375;0.000473937988281251;5.95999998495245;597;100 mA
29.6567479251239;0.199981689453125;0.00047149658203125;5.9699999849272;598;100 mA
29.6667479250987;0.20001220703125;0.000473937988281251;5.97999998490195;599;100 mA
29.6767479250734;0.199981689453125;0.00047332763671875;5.9899999848767;600;100 mA
29.6867479250482;0.199981689453125;0.0004742431640625;5.99999998485146;601;100 mA
29.6967479250229;0.199981689453125;0.000473632812499999;6.00999998482621;602;100 mA
29.7067479249977;0.199981689453125;0.0004730224609375;6.01999998480096;603;100 mA
29.7167479249724;0.199951171875;0.00047332763671875;6.02999998477571;604;100 mA
29.7267479249472;0.20001220703125;0.000472412109375001;6.03999998475047;605;100 mA
29.7367479249219;0.199920654296875;0.0004730224609375;6.04999998472522;606;100 mA
29.7467479248967;0.199981689453125;0.0004730224609375;6.05999998469997;607;100 mA
29.7567479248714;0.199981689453125;0.000470886230468751;6.06999998467472;608;100 mA
29.7667479248462;0.199920654296875;0.0004718017578125;6.07999998464948;609;100 mA
29.7767479248209;0.200042724609375;0.00047332763671875;6.08999998462423;610;100 mA
29.7867479247957;0.199981689453125;0.000472412109375001;6.09999998459898;611;100 mA
29.7967479247704;0.199951171875;0.000473632812499999;6.10999998457373;612;100 mA
29.8067479247452;0.199981689453125;0.00047149658203125;6.11999998454849;613;100 mA
29.8167479247199;0.20001220703125;0.00047149658203125;6.12999998452324;614;100 mA
29.8267479246947;0.200042724609375;0.000472412109375001;6.13999998449799;615;100 mA
29.8367479246695;0.199981689453125;0.000473937988281251;6.14999998447274;616;100 mA
29.8467479246442;0.199981689453125;0.00047607421875;6.1599999844475;617;100 mA
29.856747924619;0.199981689453125;0.000473632812499999;6.16999998442225;618;100 mA
29.8667479245937;0.20001220703125;0.00047332763671875;6.179999984397;619;100 mA
29.8767479245685;0.200042724609375;0.0004730224609375;6.18999998437175;620;100 mA
29.8867479245432;0.199981689453125;0.0004730224609375;6.1999999843465;621;100 mA
29.896747924518;0.199951171875;0.000473937988281251;6.20999998432126;622;100 mA
29.9067479244927;0.20001220703125;0.0004730224609375;6.21999998429601;623;100 mA
29.9167479244675;0.199981689453125;0.000474853515625;6.22999998427076;624;100 mA
29.9267479244422;0.199981689453125;0.000474853515625;6.23999998424551;625;100 mA
29.936747924417;0.199981689453125;0.0004742431640625;6.24999998422027;626;100 mA
29.9467479243917;0.199981689453125;0.000476989746093751;6.25999998419502;627;100 mA
29.9567479243665;0.199981689453125;0.00047332763671875;6.26999998416977;628;100 mA
29.9667479243412;0.199951171875;0.00047332763671875;6.27999998414452;629;100 mA
29.976747924316;0.199981689453125;0.0004742431640625;6.28999998411928;630;100 mA
29.9867479242907;0.199951171875;0.0004730224609375;6.29999998409403;631;100 mA
29.9967479242655;0.199951171875;0.000472412109375001;6.30999998406878;632;100 mA
30.0067479242402;0.199981689453125;0.000470581054687499;6.31999998404353;633;100 mA
30.016747924215;0.20001220703125;0.00047271728515625;6.32999998401829;634;100 mA
30.0267479241897;0.20001220703125;0.00047027587890625;6.33999998399304;635;100 mA
30.0367479241645;0.20001220703125;0.00047119140625;6.34999998396779;636;100 mA
30.0467479241393;0.20001220703125;0.00047119140625;6.35999998394254;637;100 mA
30.056747924114;0.19989013671875;0.00046966552734375;6.3699999839173;638;100 mA
30.0667479240888;0.20001220703125;0.00047149658203125;6.37999998389205;639;100 mA
30.0767479240635;0.199951171875;0.000472412109375001;6.3899999838668;640;100 mA
30.0867479240383;0.199981689453125;0.000470581054687499;6.39999998384155;641;100 mA
30.096747924013;0.199951171875;0.000472106933593749;6.40999998381631;642;100 mA
30.1067479239878;0.199951171875;0.000467529296874999;6.41999998379106;643;100 mA
30.1167479239625;0.199981689453125;0.00046966552734375;6.42999998376581;644;100 mA
30.1267479239373;0.20001220703125;0.00046844482421875;6.43999998374056;645;100 mA
30.136747923912;0.199951171875;0.000467834472656251;6.44999998371532;646;100 mA
30.1467479238868;0.199951171875;0.000469055175781249;6.45999998369007;647;100 mA
30.1567479238615;0.20001220703125;0.0004669189453125;6.46999998366482;648;100 mA
30.1667479238363;0.199981689453125;0.00046661376953125;6.47999998363957;649;100 mA
30.176747923811;0.20001220703125;0.000467834472656251;6.48999998361433;650;100 mA
30.1867479237858;0.199951171875;0.00046875;6.49999998358908;651;100 mA
30.1967479237605;0.20001220703125;0.00047027587890625;6.50999998356383;652;100 mA
30.2067479237353;0.20001220703125;0.000469055175781249;6.51999998353858;653;100 mA
30.21674792371;0.2000732421875;0.000470581054687499;6.52999998351333;654;100 mA
30.2267479236848;0.199920654296875;0.000469055175781249;6.53999998348809;655;100 mA
30.2367479236595;0.199951171875;0.000469055175781249;6.54999998346284;656;100 mA
30.2467479236343;0.199981689453125;0.00047027587890625;6.55999998343759;657;100 mA
30.2567479236091;0.199951171875;0.00046844482421875;6.56999998341234;658;100 mA
30.2667479235838;0.199981689453125;0.000469360351562501;6.5799999833871;659;100 mA
30.2767479235586;0.199981689453125;0.000469360351562501;6.58999998336185;660;100 mA
30.2867479235333;0.199981689453125;0.000469055175781249;6.5999999833366;661;100 mA
30.2967479235081;0.199981689453125;0.000469360351562501;6.60999998331135;662;100 mA
30.3067479234828;0.199951171875;0.000469055175781249;6.61999998328611;663;100 mA
30.3167479234576;0.199981689453125;0.000470886230468751;6.62999998326086;664;100 mA
30.3267479234323;0.199981689453125;0.000470581054687499;6.63999998323561;665;100 mA
30.3367479234071;0.199951171875;0.00047027587890625;6.64999998321036;666;100 mA
30.3467479233818;0.20001220703125;0.000470886230468751;6.65999998318512;667;100 mA
30.3567479233566;0.199981689453125;0.0004681396484375;6.66999998315987;668;100 mA
30.3667479233313;0.199981689453125;0.00046875;6.67999998313462;669;100 mA
30.3767479233061;0.20001220703125;0.00046966552734375;6.68999998310937;670;100 mA
30.3867479232808;0.20001220703125;0.000469360351562501;6.69999998308413;671;100 mA
30.3967479232556;0.199981689453125;0.000470581054687499;6.70999998305888;672;100 mA
30.4067479232303;0.199951171875;0.000469055175781249;6.71999998303363;673;100 mA
30.4167479232051;0.20001220703125;0.00047027587890625;6.72999998300838;674;100 mA
30.4267479231798;0.199951171875;0.000469970703125;6.73999998298314;675;100 mA
30.4367479231546;0.199920654296875;0.000469360351562501;6.74999998295789;676;100 mA
30.4467479231294;0.199951171875;0.000469360351562501;6.75999998293264;677;100 mA
30.4567479231041;0.20001220703125;0.00046844482421875;6.76999998290739;678;100 mA
30.4667479230789;0.20001220703125;0.000469055175781249;6.77999998288215;679;100 mA
30.4767479230536;0.20001220703125;0.0004681396484375;6.7899999828569;680;100 mA
30.4867479230284;0.199981689453125;0.000469055175781249;6.79999998283165;681;100 mA
30.4967479230031;0.199981689453125;0.000470581054687499;6.8099999828064;682;100 mA
30.5067479229779;0.200042724609375;0.000469055175781249;6.81999998278116;683;100 mA
30.5167479229526;0.199981689453125;0.000469055175781249;6.82999998275591;684;100 mA
30.5267479229274;0.20001220703125;0.00047027587890625;6.83999998273066;685;100 mA
30.5367479229021;0.199951171875;0.000469055175781249;6.84999998270541;686;100 mA
30.5467479228769;0.20001220703125;0.0004718017578125;6.85999998268016;687;100 mA
30.5567479228516;0.20001220703125;0.000470581054687499;6.86999998265492;688;100 mA
30.5667479228264;0.20001220703125;0.000470581054687499;6.87999998262967;689;100 mA
30.5767479228011;0.20001220703125;0.00047149658203125;6.88999998260442;690;100 mA
30.5867479227759;0.199981689453125;0.000470886230468751;6.89999998257917;691;100 mA
30.5967479227506;0.199981689453125;0.00046875;6.90999998255393;692;100 mA
30.6067479227254;0.199981689453125;0.0004681396484375;6.91999998252868;693;100 mA
30.6167479227001;0.199920654296875;0.00046966552734375;6.92999998250343;694;100 mA
30.6267479226749;0.199981689453125;0.00046966552734375;6.93999998247818;695;100 mA
30.6367479226496;0.199981689453125;0.000469360351562501;6.94999998245294;696;100 mA
30.6467479226244;0.199981689453125;0.000472106933593749;6.95999998242769;697;100 mA
30.6567479225992;0.20001220703125;0.00047119140625;6.96999998240244;698;100 mA
30.6667479225739;0.199981689453125;0.00047149658203125;6.97999998237719;699;100 mA
30.6767479225487;0.200042724609375;0.00047271728515625;6.98999998235195;700;100 mA
30.6867479225234;0.199951171875;0.0004730224609375;6.9999999823267;701;100 mA
30.6967479224982;0.200042724609375;0.000473937988281251;7.00999998230145;702;100 mA
30.7067479224729;0.20001220703125;0.000470886230468751;7.0199999822762;703;100 mA
30.7167479224477;0.199981689453125;0.000472412109375001;7.02999998225096;704;100 mA
30.7267479224224;0.20001220703125;0.000472412109375001;7.03999998222571;705;100 mA
30.7367479223972;0.199951171875;0.000470886230468751;7.04999998220046;706;100 mA
30.7467479223719;0.199951171875;0.0004730224609375;7.05999998217521;707;100 mA
30.7567479223467;0.199951171875;0.000470886230468751;7.06999998214997;708;100 mA
30.7667479223214;0.20001220703125;0.0004730224609375;7.07999998212472;709;100 mA
30.7767479222962;0.200042724609375;0.00047332763671875;7.08999998209947;710;100 mA
30.7867479222709;0.199920654296875;0.000473632812499999;7.09999998207422;711;100 mA
30.7967479222457;0.20001220703125;0.000475463867187501;7.10999998204898;712;100 mA
30.8067479222204;0.199981689453125;0.000474853515625;7.11999998202373;713;100 mA
30.8167479221952;0.199920654296875;0.000475463867187501;7.12999998199848;714;100 mA
30.8267479221699;0.199951171875;0.0004742431640625;7.13999998197323;715;100 mA
30.8367479221447;0.20001220703125;0.000472412109375001;7.14999998194799;716;100 mA
30.8467479221194;0.20001220703125;0.00047332763671875;7.15999998192274;717;100 mA
30.8567479220942;0.199981689453125;0.0004718017578125;7.16999998189749;718;100 mA
30.866747922069;0.199981689453125;0.00047119140625;7.17999998187224;719;100 mA
30.8767479220437;0.199981689453125;0.000472412109375001;7.189999981847;720;100 mA
30.8867479220185;0.199981689453125;0.00047027587890625;7.19999998182175;721;100 mA
30.8967479219932;0.199981689453125;0.000473632812499999;7.2099999817965;722;100 mA
30.906747921968;0.199920654296875;0.000470886230468751;7.21999998177125;723;100 mA
30.9167479219427;0.200042724609375;0.0004718017578125;7.229999981746;724;100 mA
30.9267479219175;0.199981689453125;0.000472106933593749;7.23999998172076;725;100 mA
30.9367479218922;0.199981689453125;0.000473632812499999;7.24999998169551;726;100 mA
30.946747921867;0.199981689453125;0.0004718017578125;7.25999998167026;727;100 mA
30.9567479218417;0.20001220703125;0.0004718017578125;7.26999998164501;728;100 mA
30.9667479218165;0.20001220703125;0.00047271728515625;7.27999998161977;729;100 mA
30.9767479217912;0.199981689453125;0.0004742431640625;7.28999998159452;730;100 mA
30.986747921766;0.200042724609375;0.00047454833984375;7.29999998156927;731;100 mA
30.9967479217407;0.200042724609375;0.0004742431640625;7.30999998154402;732;100 mA
31.0067479217155;0.199981689453125;0.000473632812499999;7.31999998151878;733;100 mA
31.0167479216902;0.199981689453125;0.00047576904296875;7.32999998149353;734;100 mA
31.026747921665;0.199981689453125;0.00047637939453125;7.33999998146828;735;100 mA
31.0367479216397;0.199951171875;0.000476684570312499;7.34999998144303;736;100 mA
31.0467479216145;0.200042724609375;0.000478210449218749;7.35999998141779;737;100 mA
31.0567479215892;0.199981689453125;0.000477294921875;7.36999998139254;738;100 mA
31.066747921564;0.199981689453125;0.00047760009765625;7.37999998136729;739;100 mA
31.0767479215388;0.199981689453125;0.000477294921875;7.38999998134204;740;100 mA
31.0867479215135;0.199981689453125;0.000477294921875;7.3999999813168;741;100 mA
31.0967479214883;0.199981689453125;0.000478210449218749;7.40999998129155;742;100 mA
31.106747921463;0.199981689453125;0.00047607421875;7.4199999812663;743;100 mA
31.1167479214378;0.199951171875;0.000478210449218749;7.42999998124105;744;100 mA
31.1267479214125;0.199951171875;0.000478515625000001;7.43999998121581;745;100 mA
31.1367479213873;0.20001220703125;0.00047637939453125;7.44999998119056;746;100 mA
31.146747921362;0.199981689453125;0.00047882080078125;7.45999998116531;747;100 mA
31.1567479213368;0.199981689453125;0.00047760009765625;7.46999998114006;748;100 mA
31.1667479213115;0.200042724609375;0.00047637939453125;7.47999998111482;749;100 mA
31.1767479212863;0.199981689453125;0.000476684570312499;7.48999998108957;750;100 mA
31.186747921261;0.199951171875;0.000475463867187501;7.49999998106432;751;100 mA
31.1967479212358;0.199981689453125;0.00047607421875;7.50999998103907;752;100 mA
31.2067479212105;0.200042724609375;0.000475158691406249;7.51999998101383;753;100 mA
31.2167479211853;0.199981689453125;0.0004779052734375;7.52999998098858;754;100 mA
31.22674792116;0.20001220703125;0.000476989746093751;7.53999998096333;755;100 mA
31.2367479211348;0.199981689453125;0.0004779052734375;7.54999998093808;756;100 mA
31.2467479211095;0.200042724609375;0.000479736328124999;7.55999998091283;757;100 mA
31.2567479210843;0.199920654296875;0.000478515625000001;7.56999998088759;758;100 mA
31.266747921059;0.200042724609375;0.000481262207031249;7.57999998086234;759;100 mA
31.2767479210338;0.199951171875;0.00048370361328125;7.58999998083709;760;100 mA
31.2867479210086;0.20001220703125;0.00048095703125;7.59999998081184;761;100 mA
31.2967479209833;0.199981689453125;0.0004833984375;7.6099999807866;762;100 mA
31.3067479209581;0.200042724609375;0.000481567382812501;7.61999998076135;763;100 mA
31.3167479209328;0.199981689453125;0.000482788085937499;7.6299999807361;764;100 mA
31.3267479209076;0.20001220703125;0.000482177734375;7.63999998071085;765;100 mA
31.3367479208823;0.200042724609375;0.00048248291015625;7.64999998068561;766;100 mA
31.3467479208571;0.20001220703125;0.000483093261718751;7.65999998066036;767;100 mA
31.3567479208318;0.200042724609375;0.000482177734375;7.66999998063511;768;100 mA
31.3667479208066;0.200042724609375;0.0004833984375;7.67999998060986;769;100 mA
31.3767479207813;0.20001220703125;0.000484313964843749;7.68999998058462;770;100 mA
31.3867479207561;0.199951171875;0.0004833984375;7.69999998055937;771;100 mA
31.3967479207308;0.20001220703125;0.00048553466796875;7.70999998053412;772;100 mA
31.4067479207056;0.199981689453125;0.000483093261718751;7.71999998050887;773;100 mA
31.4167479206803;0.20001220703125;0.0004852294921875;7.72999998048363;774;100 mA
31.4267479206551;0.199981689453125;0.00048492431640625;7.73999998045838;775;100 mA
31.4367479206298;0.199981689453125;0.000483093261718751;7.74999998043313;776;100 mA
31.4467479206046;0.199981689453125;0.00048553466796875;7.75999998040788;777;100 mA
31.4567479205793;0.20001220703125;0.000482177734375;7.76999998038264;778;100 mA
31.4667479205541;0.20001220703125;0.000483093261718751;7.77999998035739;779;100 mA
31.4767479205289;0.199920654296875;0.0004833984375;7.78999998033214;780;100 mA
31.4867479205036;0.199981689453125;0.000482788085937499;7.79999998030689;781;100 mA
31.4967479204784;0.199981689453125;0.000484619140625001;7.80999998028165;782;100 mA
31.5067479204531;0.20001220703125;0.000483093261718751;7.8199999802564;783;100 mA
31.5167479204279;0.20001220703125;0.000487670898437501;7.82999998023115;784;100 mA
31.5267479204026;0.20001220703125;0.000485839843749999;7.8399999802059;785;100 mA
31.5367479203774;0.199981689453125;0.000487060546875;7.84999998018066;786;100 mA
31.5467479203521;0.199951171875;0.000487670898437501;7.85999998015541;787;100 mA
31.5567479203269;0.200042724609375;0.00048675537109375;7.86999998013016;788;100 mA
31.5667479203016;0.20001220703125;0.000485839843749999;7.87999998010491;789;100 mA
31.5767479202764;0.20001220703125;0.0004864501953125;7.88999998007966;790;100 mA
31.5867479202511;0.199981689453125;0.0004864501953125;7.89999998005442;791;100 mA
31.5967479202259;0.199951171875;0.00048828125;7.90999998002917;792;100 mA
31.6067479202006;0.199981689453125;0.00048675537109375;7.91999998000392;793;100 mA
31.6167479201754;0.199951171875;0.00048828125;7.92999997997867;794;100 mA
31.6267479201501;0.199981689453125;0.000487365722656249;7.93999997995343;795;100 mA
31.6367479201249;0.199981689453125;0.000486145019531251;7.94999997992818;796;100 mA
31.6467479200996;0.199981689453125;0.00048675537109375;7.95999997990293;797;100 mA
31.6567479200744;0.2000732421875;0.000485839843749999;7.96999997987768;798;100 mA
31.6667479200491;0.199981689453125;0.000486145019531251;7.97999997985244;799;100 mA
31.6767479200239;0.199981689453125;0.0004864501953125;7.98999997982719;800;100 mA
31.6867479199987;0.199981689453125;0.000486145019531251;7.99999997980194;801;100 mA
31.6967479199734;0.20001220703125;0.000486145019531251;8.00999997977669;802;100 mA
31.7067479199482;0.199981689453125;0.000484619140625001;8.01999997975145;803;100 mA
31.7167479199229;0.199981689453125;0.00048675537109375;8.0299999797262;804;100 mA
31.7267479198977;0.199981689453125;0.00048675537109375;8.03999997970095;805;100 mA
31.7367479198724;0.199981689453125;0.000486145019531251;8.0499999796757;806;100 mA
31.7467479198472;0.200042724609375;0.00048675537109375;8.05999997965046;807;100 mA
31.7567479198219;0.199920654296875;0.00048675537109375;8.06999997962521;808;100 mA
31.7667479197967;0.20001220703125;0.00048828125;8.07999997959996;809;100 mA
31.7767479197714;0.199951171875;0.00048797607421875;8.08999997957471;810;100 mA
31.7867479197462;0.199981689453125;0.000486145019531251;8.09999997954947;811;100 mA
31.7967479197209;0.200042724609375;0.000486145019531251;8.10999997952422;812;100 mA
31.8067479196957;0.200042724609375;0.0004852294921875;8.11999997949897;813;100 mA
31.8167479196704;0.199981689453125;0.00048797607421875;8.12999997947372;814;100 mA
31.8267479196452;0.199951171875;0.00048675537109375;8.13999997944848;815;100 mA
31.8367479196199;0.199951171875;0.00048675537109375;8.14999997942323;816;100 mA
31.8467479195947;0.199951171875;0.00048828125;8.15999997939798;817;100 mA
31.8567479195694;0.199951171875;0.000487365722656249;8.16999997937273;818;100 mA
31.8667479195442;0.199981689453125;0.00048797607421875;8.17999997934749;819;100 mA
31.8767479195189;0.20001220703125;0.00048797607421875;8.18999997932224;820;100 mA
31.8867479194937;0.199981689453125;0.000487670898437501;8.19999997929699;821;100 mA
31.8967479194685;0.199981689453125;0.000487060546875;8.20999997927174;822;100 mA
31.9067479194432;0.200042724609375;0.0004852294921875;8.2199999792465;823;100 mA
31.916747919418;0.199981689453125;0.00048492431640625;8.22999997922125;824;100 mA
31.9267479193927;0.199981689453125;0.00048492431640625;8.239999979196;825;100 mA
31.9367479193675;0.20001220703125;0.00048370361328125;8.24999997917075;826;100 mA
31.9467479193422;0.199981689453125;0.00048370361328125;8.2599999791455;827;100 mA
31.956747919317;0.199981689453125;0.0004833984375;8.26999997912026;828;100 mA
31.9667479192917;0.199951171875;0.000484313964843749;8.27999997909501;829;100 mA
31.9767479192665;0.199981689453125;0.000484619140625001;8.28999997906976;830;100 mA
31.9867479192412;0.200042724609375;0.000483093261718751;8.29999997904451;831;100 mA
31.996747919216;0.20001220703125;0.00048553466796875;8.30999997901927;832;100 mA
32.0067479191907;0.199951171875;0.0004864501953125;8.31999997899402;833;100 mA
32.0167479191655;0.200042724609375;0.00048675537109375;8.32999997896877;834;100 mA
32.0267479191402;0.199951171875;0.0004852294921875;8.33999997894352;835;100 mA
32.036747919115;0.200042724609375;0.0004840087890625;8.34999997891828;836;100 mA
32.0467479190897;0.199981689453125;0.00048553466796875;8.35999997889303;837;100 mA
32.0567479190645;0.199951171875;0.000482177734375;8.36999997886778;838;100 mA
32.0667479190392;0.199981689453125;0.00048492431640625;8.37999997884253;839;100 mA
32.076747919014;0.199981689453125;0.000484313964843749;8.38999997881729;840;100 mA
32.0867479189887;0.199981689453125;0.000483093261718751;8.39999997879204;841;100 mA
32.0967479189635;0.20001220703125;0.000484619140625001;8.40999997876679;842;100 mA
32.1067479189383;0.20001220703125;0.00048248291015625;8.41999997874154;843;100 mA
32.116747918913;0.199920654296875;0.000484619140625001;8.4299999787163;844;100 mA
32.1267479188878;0.199981689453125;0.0004833984375;8.43999997869105;845;100 mA
32.1367479188625;0.20001220703125;0.000483093261718751;8.4499999786658;846;100 mA
32.1467479188373;0.199981689453125;0.000484313964843749;8.45999997864055;847;100 mA
32.156747918812;0.199981689453125;0.000482177734375;8.46999997861531;848;100 mA
32.1667479187868;0.20001220703125;0.000482177734375;8.47999997859006;849;100 mA
32.1767479187615;0.200042724609375;0.000482177734375;8.48999997856481;850;100 mA
32.1867479187363;0.200042724609375;0.000481567382812501;8.49999997853956;851;100 mA
32.196747918711;0.199981689453125;0.00048370361328125;8.50999997851432;852;100 mA
32.2067479186858;0.20001220703125;0.00048095703125;8.51999997848907;853;100 mA
32.2167479186605;0.199981689453125;0.00048187255859375;8.52999997846382;854;100 mA
32.2267479186353;0.199920654296875;0.000483093261718751;8.53999997843857;855;100 mA
32.23674791861;0.199981689453125;0.00048370361328125;8.54999997841333;856;100 mA
32.2467479185848;0.199981689453125;0.000484619140625001;8.55999997838808;857;100 mA
32.2567479185595;0.199981689453125;0.000482177734375;8.56999997836283;858;100 mA
32.2667479185343;0.20001220703125;0.000483093261718751;8.57999997833758;859;100 mA
32.276747918509;0.199981689453125;0.000483093261718751;8.58999997831233;860;100 mA
32.2867479184838;0.199981689453125;0.0004833984375;8.59999997828709;861;100 mA
32.2967479184585;0.200042724609375;0.00048187255859375;8.60999997826184;862;100 mA
32.3067479184333;0.199981689453125;0.00048187255859375;8.61999997823659;863;100 mA
32.3167479184081;0.199981689453125;0.00048370361328125;8.62999997821134;864;100 mA
32.3267479183828;0.20001220703125;0.00048370361328125;8.6399999781861;865;100 mA
32.3367479183576;0.199951171875;0.0004833984375;8.64999997816085;866;100 mA
32.3467479183323;0.199920654296875;0.000484313964843749;8.6599999781356;867;100 mA
32.3567479183071;0.20001220703125;0.00048248291015625;8.66999997811035;868;100 mA
32.3667479182818;0.199981689453125;0.000483093261718751;8.67999997808511;869;100 mA
32.3767479182566;0.199951171875;0.00048248291015625;8.68999997805986;870;100 mA
32.3867479182313;0.199981689453125;0.000481262207031249;8.69999997803461;871;100 mA
32.3967479182061;0.199981689453125;0.00048187255859375;8.70999997800936;872;100 mA
32.4067479181808;0.20001220703125;0.000479736328124999;8.71999997798412;873;100 mA
32.4167479181556;0.200042724609375;0.000482177734375;8.72999997795887;874;100 mA
32.4267479181303;0.20001220703125;0.000482177734375;8.73999997793362;875;100 mA
32.4367479181051;0.199951171875;0.000481262207031249;8.74999997790837;876;100 mA
32.4467479180798;0.199981689453125;0.00048248291015625;8.75999997788313;877;100 mA
32.4567479180546;0.20001220703125;0.00048095703125;8.76999997785788;878;100 mA
32.4667479180293;0.199981689453125;0.0004840087890625;8.77999997783263;879;100 mA
32.4767479180041;0.200042724609375;0.00048492431640625;8.78999997780738;880;100 mA
32.4867479179788;0.199951171875;0.000484313964843749;8.79999997778214;881;100 mA
32.4967479179536;0.20001220703125;0.00048492431640625;8.80999997775689;882;100 mA
32.5067479179284;0.199981689453125;0.00048187255859375;8.81999997773164;883;100 mA
32.5167479179031;0.199951171875;0.0004833984375;8.82999997770639;884;100 mA
32.5267479178779;0.199981689453125;0.00048248291015625;8.83999997768115;885;100 mA
32.5367479178526;0.199951171875;0.000482788085937499;8.8499999776559;886;100 mA
32.5467479178274;0.199951171875;0.00048248291015625;8.85999997763065;887;100 mA
32.5567479178021;0.20001220703125;0.00048187255859375;8.8699999776054;888;100 mA
32.5667479177769;0.20001220703125;0.0004840087890625;8.87999997758016;889;100 mA
32.5767479177516;0.199951171875;0.0004840087890625;8.88999997755491;890;100 mA
32.5867479177264;0.199981689453125;0.000483093261718751;8.89999997752966;891;100 mA
32.5967479177011;0.199981689453125;0.0004852294921875;8.90999997750441;892;100 mA
32.6067479176759;0.20001220703125;0.00048248291015625;8.91999997747916;893;100 mA
32.6167479176506;0.199981689453125;0.000483093261718751;8.92999997745392;894;100 mA
32.6267479176254;0.199981689453125;0.0004833984375;8.93999997742867;895;100 mA
32.6367479176001;0.20001220703125;0.000483093261718751;8.94999997740342;896;100 mA
32.6467479175749;0.20001220703125;0.00048370361328125;8.95999997737817;897;100 mA
32.6567479175496;0.20001220703125;0.000481262207031249;8.96999997735293;898;100 mA
32.6667479175244;0.199981689453125;0.00048370361328125;8.97999997732768;899;100 mA
32.6767479174991;0.20001220703125;0.000481567382812501;8.98999997730243;900;100 mA
32.6867479174739;0.199951171875;0.000481567382812501;8.99999997727718;901;100 mA
32.6967479174486;0.199981689453125;0.0004833984375;9.00999997725194;902;100 mA
32.7067479174234;0.200042724609375;0.000482177734375;9.01999997722669;903;100 mA
32.7167479173982;0.199981689453125;0.000486145019531251;9.02999997720144;904;100 mA
32.7267479173729;0.199981689453125;0.000486145019531251;9.03999997717619;905;100 mA
32.7367479173477;0.20001220703125;0.000485839843749999;9.04999997715095;906;100 mA
32.7467479173224;0.200042724609375;0.000486145019531251;9.0599999771257;907;100 mA
32.7567479172972;0.20001220703125;0.000484619140625001;9.06999997710045;908;100 mA
32.7667479172719;0.20001220703125;0.0004864501953125;9.0799999770752;909;100 mA
32.7767479172467;0.199981689453125;0.000485839843749999;9.08999997704996;910;100 mA
32.7867479172214;0.20001220703125;0.00048553466796875;9.09999997702471;911;100 mA
32.7967479171962;0.20001220703125;0.0004864501953125;9.10999997699946;912;100 mA
32.8067479171709;0.20001220703125;0.0004852294921875;9.11999997697421;913;100 mA
32.8167479171457;0.199981689453125;0.000487670898437501;9.12999997694897;914;100 mA
32.8267479171204;0.199981689453125;0.000485839843749999;9.13999997692372;915;100 mA
32.8367479170952;0.200042724609375;0.000485839843749999;9.14999997689847;916;100 mA
32.8467479170699;0.20001220703125;0.00048553466796875;9.15999997687322;917;100 mA
32.8567479170447;0.199981689453125;0.00048553466796875;9.16999997684798;918;100 mA
32.8667479170194;0.199981689453125;0.000487060546875;9.17999997682273;919;100 mA
32.8767479169942;0.199981689453125;0.00048553466796875;9.18999997679748;920;100 mA
32.8867479169689;0.20001220703125;0.00048492431640625;9.19999997677223;921;100 mA
32.8967479169437;0.199951171875;0.000486145019531251;9.20999997674699;922;100 mA
32.9067479169184;0.199951171875;0.00048370361328125;9.21999997672174;923;100 mA
32.9167479168932;0.199951171875;0.000485839843749999;9.22999997669649;924;100 mA
32.926747916868;0.199981689453125;0.00048675537109375;9.23999997667124;925;100 mA
32.9367479168427;0.199951171875;0.00048492431640625;9.249999976646;926;100 mA
32.9467479168175;0.199951171875;0.000487670898437501;9.25999997662075;927;100 mA
32.9567479167922;0.199951171875;0.000486145019531251;9.2699999765955;928;100 mA
32.966747916767;0.199981689453125;0.000487670898437501;9.27999997657025;929;100 mA
32.9767479167417;0.199951171875;0.0004864501953125;9.289999976545;930;100 mA
32.9867479167165;0.20001220703125;0.0004840087890625;9.29999997651976;931;100 mA
32.9967479166912;0.200042724609375;0.000484313964843749;9.30999997649451;932;100 mA
33.006747916666;0.20001220703125;0.00048187255859375;9.31999997646926;933;100 mA
33.0167479166407;0.199951171875;0.00048553466796875;9.32999997644401;934;100 mA
33.0267479166155;0.20001220703125;0.0004864501953125;9.33999997641877;935;100 mA
33.0367479165902;0.20001220703125;0.00048553466796875;9.34999997639352;936;100 mA
33.046747916565;0.20001220703125;0.0004864501953125;9.35999997636827;937;100 mA
33.0567479165397;0.200042724609375;0.00048492431640625;9.36999997634302;938;100 mA
33.0667479165145;0.199981689453125;0.000487670898437501;9.37999997631778;939;100 mA
33.0767479164892;0.199981689453125;0.000487060546875;9.38999997629253;940;100 mA
33.086747916464;0.199981689453125;0.000487365722656249;9.39999997626728;941;100 mA
33.0967479164387;0.199981689453125;0.000486145019531251;9.40999997624203;942;100 mA
33.1067479164135;0.199981689453125;0.00048553466796875;9.41999997621679;943;100 mA
33.1167479163882;0.199951171875;0.0004864501953125;9.42999997619154;944;100 mA
33.126747916363;0.20001220703125;0.00048553466796875;9.43999997616629;945;100 mA
33.1367479163378;0.20001220703125;0.000485839843749999;9.44999997614104;946;100 mA
33.1467479163125;0.20001220703125;0.000487365722656249;9.4599999761158;947;100 mA
33.1567479162873;0.199981689453125;0.00048553466796875;9.46999997609055;948;100 mA
33.166747916262;0.20001220703125;0.000487060546875;9.4799999760653;949;100 mA
33.1767479162368;0.199981689453125;0.0004864501953125;9.48999997604005;950;100 mA
33.1867479162115;0.199951171875;0.00048858642578125;9.49999997601481;951;100 mA
33.1967479161863;0.20001220703125;0.000490417480468749;9.50999997598956;952;100 mA
33.206747916161;0.199981689453125;0.000490722656250001;9.51999997596431;953;100 mA
33.2167479161358;0.199951171875;0.000490417480468749;9.52999997593906;954;100 mA
33.2267479161105;0.20001220703125;0.00048858642578125;9.53999997591382;955;100 mA
33.2367479160853;0.199951171875;0.000487365722656249;9.54999997588857;956;100 mA
33.24674791606;0.199951171875;0.00048980712890625;9.55999997586332;957;100 mA
33.2567479160348;0.199951171875;0.000487060546875;9.56999997583807;958;100 mA
33.2667479160095;0.20001220703125;0.000487670898437501;9.57999997581283;959;100 mA
33.2767479159843;0.199981689453125;0.000487670898437501;9.58999997578758;960;100 mA
33.286747915959;0.20001220703125;0.000486145019531251;9.59999997576233;961;100 mA
33.2967479159338;0.20001220703125;0.00048797607421875;9.60999997573708;962;100 mA
33.3067479159085;0.199951171875;0.000487365722656249;9.61999997571183;963;100 mA
33.3167479158833;0.199981689453125;0.00048858642578125;9.62999997568659;964;100 mA
33.326747915858;0.20001220703125;0.00048828125;9.63999997566134;965;100 mA
33.3367479158328;0.199981689453125;0.00048828125;9.64999997563609;966;100 mA
33.3467479158076;0.199951171875;0.000489196777343751;9.65999997561084;967;100 mA
33.3567479157823;0.20001220703125;0.00048797607421875;9.6699999755856;968;100 mA
33.3667479157571;0.20001220703125;0.000488891601562499;9.67999997556035;969;100 mA
33.3767479157318;0.199920654296875;0.000489196777343751;9.6899999755351;970;100 mA
33.3867479157066;0.20001220703125;0.000488891601562499;9.69999997550985;971;100 mA
33.3967479156813;0.199981689453125;0.0004901123046875;9.70999997548461;972;100 mA
33.4067479156561;0.200042724609375;0.000488891601562499;9.71999997545936;973;100 mA
33.4167479156308;0.20001220703125;0.000488891601562499;9.72999997543411;974;100 mA
33.4267479156056;0.199951171875;0.0004913330078125;9.73999997540886;975;100 mA
33.4367479155803;0.199920654296875;0.000492248535156251;9.74999997538362;976;100 mA
33.4467479155551;0.200042724609375;0.000491943359374999;9.75999997535837;977;100 mA
33.4567479155298;0.199951171875;0.00049102783203125;9.76999997533312;978;100 mA
33.4667479155046;0.20001220703125;0.000490722656250001;9.77999997530787;979;100 mA
33.4767479154793;0.199951171875;0.00049163818359375;9.78999997528263;980;100 mA
33.4867479154541;0.199981689453125;0.000490722656250001;9.79999997525738;981;100 mA
33.4967479154288;0.199981689453125;0.00049102783203125;9.80999997523213;982;100 mA
33.5067479154036;0.199981689453125;0.0004901123046875;9.81999997520688;983;100 mA
33.5167479153783;0.20001220703125;0.00049102783203125;9.82999997518164;984;100 mA
33.5267479153531;0.199981689453125;0.000490722656250001;9.83999997515639;985;100 mA
33.5367479153279;0.199981689453125;0.000490417480468749;9.84999997513114;986;100 mA
33.5467479153026;0.199981689453125;0.000490722656250001;9.85999997510589;987;100 mA
33.5567479152774;0.20001220703125;0.00048858642578125;9.86999997508065;988;100 mA
33.5667479152521;0.20001220703125;0.000489196777343751;9.8799999750554;989;100 mA
33.5767479152269;0.200042724609375;0.00048858642578125;9.88999997503015;990;100 mA
33.5867479152016;0.200042724609375;0.00048828125;9.8999999750049;991;100 mA
33.5967479151764;0.199981689453125;0.00048828125;9.90999997497966;992;100 mA
33.6067479151511;0.199981689453125;0.00048675537109375;9.91999997495441;993;100 mA
33.6167479151259;0.199951171875;0.00048858642578125;9.92999997492916;994;100 mA
33.6267479151006;0.20001220703125;0.000488891601562499;9.93999997490391;995;100 mA
33.6367479150754;0.2000732421875;0.000487060546875;9.94999997487866;996;100 mA
33.6467479150501;0.199981689453125;0.00048828125;9.95999997485342;997;100 mA
33.6567479150249;0.199981689453125;0.00048828125;9.96999997482817;998;100 mA
33.6667479149996;0.200042724609375;0.000490722656250001;9.97999997480292;999;100 mA
33.6767479149744;0.199951171875;0.000491943359374999;9.98999997477767;1000;100 mA
