Time (s);WE(1).Potential (V);WE(1).Current (A);Corrected time (s);Index;Current range
34.147028913787;-0.699859619140625;-0.32025146484375;0;1;100 mA
34.1570289137618;-0.699554443359375;-0.237396240234375;0.00999999997475243;2;100 mA
34.1670289137365;-0.699554443359375;-0.196868896484375;0.0199999999495049;3;100 mA
34.1770289137113;-0.6995849609375;-0.171630859375;0.0299999999242573;4;100 mA
34.187028913686;-0.69964599609375;-0.15411376953125;0.0399999998990097;5;100 mA
34.1970289136608;-0.699554443359375;-0.141082763671875;0.0499999998737621;6;100 mA
34.2070289136356;-0.699615478515625;-0.130889892578125;0.0599999998485146;7;100 mA
34.2170289136103;-0.69964599609375;-0.12261962890625;0.069999999823267;8;100 mA
34.2270289135851;-0.699676513671875;-0.11572265625;0.0799999997980194;9;100 mA
34.2370289135598;-0.699676513671875;-0.109893798828125;0.0899999997727718;10;100 mA
34.2470289135346;-0.699676513671875;-0.10491943359375;0.0999999997475243;11;100 mA
34.2570289135093;-0.69964599609375;-0.100616455078125;0.109999999722277;12;100 mA
34.2670289134841;-0.69970703125;-0.0968017578125;0.119999999697029;13;100 mA
34.2770289134588;-0.699676513671875;-0.09332275390625;0.129999999671782;14;100 mA
34.2870289134336;-0.69970703125;-0.090240478515625;0.139999999646534;15;100 mA
34.2970289134083;-0.69964599609375;-0.087493896484375;0.149999999621286;16;100 mA
34.3070289133831;-0.699676513671875;-0.084991455078125;0.159999999596039;17;100 mA
34.3170289133578;-0.69970703125;-0.08270263671875;0.169999999570791;18;100 mA
34.3270289133326;-0.69970703125;-0.080596923828125;0.179999999545544;19;100 mA
34.3370289133073;-0.69964599609375;-0.078643798828125;0.189999999520296;20;100 mA
34.3470289132821;-0.699676513671875;-0.07684326171875;0.199999999495049;21;100 mA
34.3570289132568;-0.699615478515625;-0.075164794921875;0.209999999469801;22;100 mA
34.3670289132316;-0.69970703125;-0.073577880859375;0.219999999444553;23;100 mA
34.3770289132063;-0.69970703125;-0.072235107421875;0.229999999419306;24;100 mA
34.3870289131811;-0.699676513671875;-0.07086181640625;0.239999999394058;25;100 mA
34.3970289131559;-0.69970703125;-0.06964111328125;0.249999999368811;26;100 mA
34.4070289131306;-0.699676513671875;-0.068359375;0.259999999343563;27;100 mA
34.4170289131054;-0.699676513671875;-0.067230224609375;0.269999999318316;28;100 mA
34.4270289130801;-0.69970703125;-0.066131591796875;0.279999999293068;29;100 mA
34.4370289130549;-0.699737548828125;-0.065185546875;0.28999999926782;30;100 mA
34.4470289130296;-0.699676513671875;-0.064239501953125;0.299999999242573;31;100 mA
34.4570289130044;-0.699676513671875;-0.063323974609375;0.309999999217325;32;100 mA
34.4670289129791;-0.699676513671875;-0.0625;0.319999999192078;33;100 mA
34.4770289129539;-0.699737548828125;-0.061614990234375;0.32999999916683;34;100 mA
34.4870289129286;-0.699676513671875;-0.0609130859375;0.339999999141583;35;100 mA
34.4970289129034;-0.69970703125;-0.0601806640625;0.349999999116335;36;100 mA
34.5070289128781;-0.699676513671875;-0.059478759765625;0.359999999091087;37;100 mA
34.5170289128529;-0.699676513671875;-0.058807373046875;0.36999999906584;38;100 mA
34.5270289128276;-0.69976806640625;-0.05816650390625;0.379999999040592;39;100 mA
34.5370289128024;-0.69976806640625;-0.057525634765625;0.389999999015345;40;100 mA
34.5470289127771;-0.699737548828125;-0.05694580078125;0.399999998990097;41;100 mA
34.5570289127519;-0.69976806640625;-0.05633544921875;0.40999999896485;42;100 mA
34.5670289127266;-0.69970703125;-0.055816650390625;0.419999998939602;43;100 mA
34.5770289127014;-0.69976806640625;-0.055328369140625;0.429999998914354;44;100 mA
34.5870289126761;-0.699676513671875;-0.054840087890625;0.439999998889107;45;100 mA
34.5970289126509;-0.699737548828125;-0.0543212890625;0.449999998863859;46;100 mA
34.6070289126257;-0.699737548828125;-0.0538330078125;0.459999998838612;47;100 mA
34.6170289126004;-0.699676513671875;-0.053436279296875;0.469999998813364;48;100 mA
34.6270289125752;-0.699798583984375;-0.053070068359375;0.479999998788116;49;100 mA
34.6370289125499;-0.699737548828125;-0.052642822265625;0.489999998762869;50;100 mA
34.6470289125247;-0.69976806640625;-0.05224609375;0.499999998737621;51;100 mA
34.6570289124994;-0.699676513671875;-0.05181884765625;0.509999998712374;52;100 mA
34.6670289124742;-0.69976806640625;-0.05145263671875;0.519999998687126;53;100 mA
34.6770289124489;-0.69976806640625;-0.051116943359375;0.529999998661879;54;100 mA
34.6870289124237;-0.699737548828125;-0.050811767578125;0.539999998636631;55;100 mA
34.6970289123984;-0.699737548828125;-0.050445556640625;0.549999998611383;56;100 mA
34.7070289123732;-0.699737548828125;-0.050201416015625;0.559999998586136;57;100 mA
34.7170289123479;-0.699737548828125;-0.049896240234375;0.569999998560888;58;100 mA
34.7270289123227;-0.69970703125;-0.0495941162109375;0.579999998535641;59;100 mA
34.7370289122974;-0.699676513671875;-0.0493133544921875;0.589999998510393;60;100 mA
34.7470289122722;-0.69970703125;-0.0490386962890625;0.599999998485146;61;100 mA
34.7570289122469;-0.69970703125;-0.0487518310546875;0.609999998459898;62;100 mA
34.7670289122217;-0.69976806640625;-0.0484649658203125;0.61999999843465;63;100 mA
34.7770289121964;-0.699737548828125;-0.0481964111328125;0.629999998409403;64;100 mA
34.7870289121712;-0.699737548828125;-0.047979736328125;0.639999998384155;65;100 mA
34.7970289121459;-0.69976806640625;-0.04771728515625;0.649999998358908;66;100 mA
34.8070289121207;-0.69970703125;-0.04749755859375;0.65999999833366;67;100 mA
34.8170289120955;-0.69970703125;-0.04730224609375;0.669999998308413;68;100 mA
34.8270289120702;-0.699737548828125;-0.047088623046875;0.679999998283165;69;100 mA
34.837028912045;-0.69970703125;-0.0468963623046875;0.689999998257917;70;100 mA
34.8470289120197;-0.699737548828125;-0.0467681884765625;0.69999999823267;71;100 mA
34.8570289119945;-0.699737548828125;-0.046612548828125;0.709999998207422;72;100 mA
34.8670289119692;-0.699737548828125;-0.0465606689453125;0.719999998182175;73;100 mA
34.877028911944;-0.69976806640625;-0.046307373046875;0.729999998156927;74;100 mA
34.8870289119187;-0.699737548828125;-0.046142578125;0.73999999813168;75;100 mA
34.8970289118935;-0.69976806640625;-0.0459503173828125;0.749999998106432;76;100 mA
34.9070289118682;-0.699737548828125;-0.0457977294921875;0.759999998081184;77;100 mA
34.917028911843;-0.69970703125;-0.04564208984375;0.769999998055937;78;100 mA
34.9270289118177;-0.699737548828125;-0.0454620361328125;0.779999998030689;79;100 mA
34.9370289117925;-0.69970703125;-0.04527587890625;0.789999998005442;80;100 mA
34.9470289117672;-0.699798583984375;-0.045166015625;0.799999997980194;81;100 mA
34.957028911742;-0.69970703125;-0.0450592041015625;0.809999997954947;82;100 mA
34.9670289117167;-0.699737548828125;-0.044927978515625;0.819999997929699;83;100 mA
34.9770289116915;-0.699737548828125;-0.0447723388671875;0.829999997904451;84;100 mA
34.9870289116662;-0.699676513671875;-0.044659423828125;0.839999997879204;85;100 mA
34.997028911641;-0.699737548828125;-0.04447021484375;0.849999997853956;86;100 mA
35.0070289116157;-0.69976806640625;-0.0443328857421875;0.859999997828709;87;100 mA
35.0170289115905;-0.69976806640625;-0.0441558837890625;0.869999997803461;88;100 mA
35.0270289115653;-0.69970703125;-0.0440155029296875;0.879999997778214;89;100 mA
35.03702891154;-0.69970703125;-0.0438934326171875;0.889999997752966;90;100 mA
35.0470289115148;-0.69970703125;-0.0437713623046875;0.899999997727718;91;100 mA
35.0570289114895;-0.69970703125;-0.043621826171875;0.909999997702471;92;100 mA
35.0670289114643;-0.699798583984375;-0.04351806640625;0.919999997677223;93;100 mA
35.077028911439;-0.69976806640625;-0.0434356689453125;0.929999997651976;94;100 mA
35.0870289114138;-0.699737548828125;-0.0433258056640625;0.939999997626728;95;100 mA
35.0970289113885;-0.699737548828125;-0.0433441162109375;0.949999997601481;96;100 mA
35.1070289113633;-0.699737548828125;-0.0433380126953125;0.959999997576233;97;100 mA
35.117028911338;-0.699737548828125;-0.0432586669921875;0.969999997550985;98;100 mA
35.1270289113128;-0.699737548828125;-0.0432464599609375;0.979999997525738;99;100 mA
35.1370289112875;-0.69976806640625;-0.043145751953125;0.98999999750049;100;100 mA
35.1470289112623;-0.699737548828125;-0.0430694580078125;0.999999997475243;101;100 mA
35.157028911237;-0.69976806640625;-0.0429840087890625;1.00999999745;102;100 mA
35.1670289112118;-0.699737548828125;-0.0429412841796875;1.01999999742475;103;100 mA
35.1770289111865;-0.69970703125;-0.0428985595703125;1.0299999973995;104;100 mA
35.1870289111613;-0.699737548828125;-0.0428131103515625;1.03999999737425;105;100 mA
35.197028911136;-0.69976806640625;-0.042767333984375;1.049999997349;106;100 mA
35.2070289111108;-0.69976806640625;-0.042645263671875;1.05999999732376;107;100 mA
35.2170289110855;-0.699737548828125;-0.0425537109375;1.06999999729851;108;100 mA
35.2270289110603;-0.69976806640625;-0.042431640625;1.07999999727326;109;100 mA
35.2370289110351;-0.69970703125;-0.0423370361328125;1.08999999724801;110;100 mA
35.2470289110098;-0.69970703125;-0.04224853515625;1.09999999722277;111;100 mA
35.2570289109846;-0.69976806640625;-0.04215087890625;1.10999999719752;112;100 mA
35.2670289109593;-0.69976806640625;-0.0420623779296875;1.11999999717227;113;100 mA
35.2770289109341;-0.699737548828125;-0.041949462890625;1.12999999714702;114;100 mA
35.2870289109088;-0.69976806640625;-0.04185791015625;1.13999999712178;115;100 mA
35.2970289108836;-0.699737548828125;-0.0417633056640625;1.14999999709653;116;100 mA
35.3070289108583;-0.699737548828125;-0.0416717529296875;1.15999999707128;117;100 mA
35.3170289108331;-0.69970703125;-0.041680908203125;1.16999999704603;118;100 mA
35.3270289108078;-0.699737548828125;-0.04156494140625;1.17999999702079;119;100 mA
35.3370289107826;-0.69970703125;-0.04156494140625;1.18999999699554;120;100 mA
35.3470289107573;-0.699737548828125;-0.0415863037109375;1.19999999697029;121;100 mA
35.3570289107321;-0.69970703125;-0.0415130615234375;1.20999999694504;122;100 mA
35.3670289107068;-0.699737548828125;-0.04146728515625;1.2199999969198;123;100 mA
35.3770289106816;-0.699737548828125;-0.0413543701171875;1.22999999689455;124;100 mA
35.3870289106563;-0.699737548828125;-0.0412933349609375;1.2399999968693;125;100 mA
35.3970289106311;-0.69976806640625;-0.04124755859375;1.24999999684405;126;100 mA
35.4070289106058;-0.699798583984375;-0.0412261962890625;1.25999999681881;127;100 mA
35.4170289105806;-0.69976806640625;-0.0412261962890625;1.26999999679356;128;100 mA
35.4270289105554;-0.699737548828125;-0.04122314453125;1.27999999676831;129;100 mA
35.4370289105301;-0.69970703125;-0.041192626953125;1.28999999674306;130;100 mA
35.4470289105049;-0.69976806640625;-0.0411834716796875;1.29999999671782;131;100 mA
35.4570289104796;-0.69976806640625;-0.04112548828125;1.30999999669257;132;100 mA
35.4670289104544;-0.69970703125;-0.0410430908203125;1.31999999666732;133;100 mA
35.4770289104291;-0.69976806640625;-0.040997314453125;1.32999999664207;134;100 mA
35.4870289104039;-0.69976806640625;-0.0409149169921875;1.33999999661683;135;100 mA
35.4970289103786;-0.69976806640625;-0.0408203125;1.34999999659158;136;100 mA
35.5070289103534;-0.699676513671875;-0.040728759765625;1.35999999656633;137;100 mA
35.5170289103281;-0.69976806640625;-0.0406494140625;1.36999999654108;138;100 mA
35.5270289103029;-0.69970703125;-0.0406463623046875;1.37999999651583;139;100 mA
35.5370289102776;-0.69976806640625;-0.0405914306640625;1.38999999649059;140;100 mA
35.5470289102524;-0.69976806640625;-0.040533447265625;1.39999999646534;141;100 mA
35.5570289102271;-0.699737548828125;-0.04051513671875;1.40999999644009;142;100 mA
35.5670289102019;-0.699737548828125;-0.0404754638671875;1.41999999641484;143;100 mA
35.5770289101766;-0.699737548828125;-0.0405853271484375;1.4299999963896;144;100 mA
35.5870289101514;-0.69976806640625;-0.040631103515625;1.43999999636435;145;100 mA
35.5970289101261;-0.699737548828125;-0.04063720703125;1.4499999963391;146;100 mA
35.6070289101009;-0.699737548828125;-0.0405364990234375;1.45999999631385;147;100 mA
35.6170289100756;-0.69970703125;-0.0404449462890625;1.46999999628861;148;100 mA
35.6270289100504;-0.699737548828125;-0.04041748046875;1.47999999626336;149;100 mA
35.6370289100252;-0.69970703125;-0.0403900146484375;1.48999999623811;150;100 mA
35.6470289099999;-0.699737548828125;-0.0403594970703125;1.49999999621286;151;100 mA
35.6570289099747;-0.699737548828125;-0.0403045654296875;1.50999999618762;152;100 mA
35.6670289099494;-0.69976806640625;-0.0402679443359375;1.51999999616237;153;100 mA
35.6770289099242;-0.699737548828125;-0.040228271484375;1.52999999613712;154;100 mA
35.6870289098989;-0.69976806640625;-0.04024658203125;1.53999999611187;155;100 mA
35.6970289098737;-0.69970703125;-0.0401947021484375;1.54999999608663;156;100 mA
35.7070289098484;-0.69970703125;-0.0401824951171875;1.55999999606138;157;100 mA
35.7170289098232;-0.69970703125;-0.040155029296875;1.56999999603613;158;100 mA
35.7270289097979;-0.69976806640625;-0.0401214599609375;1.57999999601088;159;100 mA
35.7370289097727;-0.699737548828125;-0.0400299072265625;1.58999999598564;160;100 mA
35.7470289097474;-0.699737548828125;-0.0399993896484375;1.59999999596039;161;100 mA
35.7570289097222;-0.699737548828125;-0.0399200439453125;1.60999999593514;162;100 mA
35.7670289096969;-0.69976806640625;-0.03988037109375;1.61999999590989;163;100 mA
35.7770289096717;-0.699798583984375;-0.0398834228515625;1.62999999588465;164;100 mA
35.7870289096464;-0.699737548828125;-0.0398284912109375;1.6399999958594;165;100 mA
35.7970289096212;-0.699737548828125;-0.039801025390625;1.64999999583415;166;100 mA
35.8070289095959;-0.69976806640625;-0.0397491455078125;1.6599999958089;167;100 mA
35.8170289095707;-0.699737548828125;-0.0397705078125;1.66999999578366;168;100 mA
35.8270289095454;-0.699798583984375;-0.0398773193359375;1.67999999575841;169;100 mA
35.8370289095202;-0.69976806640625;-0.0398284912109375;1.68999999573316;170;100 mA
35.847028909495;-0.699859619140625;-0.0398040771484375;1.69999999570791;171;100 mA
35.8570289094697;-0.699737548828125;-0.0397430419921875;1.70999999568267;172;100 mA
35.8670289094445;-0.69970703125;-0.0397308349609375;1.71999999565742;173;100 mA
35.8770289094192;-0.69976806640625;-0.0397064208984375;1.72999999563217;174;100 mA
35.887028909394;-0.699737548828125;-0.0396759033203125;1.73999999560692;175;100 mA
35.8970289093687;-0.699737548828125;-0.0396270751953125;1.74999999558167;176;100 mA
35.9070289093435;-0.69970703125;-0.039617919921875;1.75999999555643;177;100 mA
35.9170289093182;-0.69964599609375;-0.039617919921875;1.76999999553118;178;100 mA
35.927028909293;-0.699798583984375;-0.03956298828125;1.77999999550593;179;100 mA
35.9370289092677;-0.699737548828125;-0.0395263671875;1.78999999548068;180;100 mA
35.9470289092425;-0.699798583984375;-0.03946533203125;1.79999999545544;181;100 mA
35.9570289092172;-0.69976806640625;-0.039337158203125;1.80999999543019;182;100 mA
35.967028909192;-0.699737548828125;-0.0393341064453125;1.81999999540494;183;100 mA
35.9770289091667;-0.699737548828125;-0.0392486572265625;1.82999999537969;184;100 mA
35.9870289091415;-0.69976806640625;-0.0392547607421875;1.83999999535445;185;100 mA
35.9970289091162;-0.699737548828125;-0.03919677734375;1.8499999953292;186;100 mA
36.007028909091;-0.69976806640625;-0.039141845703125;1.85999999530395;187;100 mA
36.0170289090657;-0.699737548828125;-0.0391448974609375;1.8699999952787;188;100 mA
36.0270289090405;-0.699798583984375;-0.0390777587890625;1.87999999525346;189;100 mA
36.0370289090152;-0.69976806640625;-0.0390869140625;1.88999999522821;190;100 mA
36.04702890899;-0.69976806640625;-0.039141845703125;1.89999999520296;191;100 mA
36.0570289089648;-0.699676513671875;-0.0391357421875;1.90999999517771;192;100 mA
36.0670289089395;-0.699737548828125;-0.03924560546875;1.91999999515247;193;100 mA
36.0770289089143;-0.69970703125;-0.0391021728515625;1.92999999512722;194;100 mA
36.087028908889;-0.69970703125;-0.039080810546875;1.93999999510197;195;100 mA
36.0970289088638;-0.699737548828125;-0.03902587890625;1.94999999507672;196;100 mA
36.1070289088385;-0.699737548828125;-0.0389892578125;1.95999999505148;197;100 mA
36.1170289088133;-0.6998291015625;-0.03896484375;1.96999999502623;198;100 mA
36.127028908788;-0.699676513671875;-0.0388946533203125;1.97999999500098;199;100 mA
36.1370289087628;-0.699737548828125;-0.0388702392578125;1.98999999497573;200;100 mA
36.1470289087375;-0.69970703125;-0.03887939453125;1.99999999495049;201;100 mA
36.1570289087123;-0.69970703125;-0.0389007568359375;2.00999999492524;202;100 mA
36.167028908687;-0.699676513671875;-0.0388916015625;2.01999999489999;203;100 mA
36.1770289086618;-0.699737548828125;-0.038836669921875;2.02999999487474;204;100 mA
36.1870289086365;-0.699737548828125;-0.0388427734375;2.0399999948495;205;100 mA
36.1970289086113;-0.699737548828125;-0.0387664794921875;2.04999999482425;206;100 mA
36.207028908586;-0.699737548828125;-0.0387481689453125;2.059999994799;207;100 mA
36.2170289085608;-0.69970703125;-0.038677978515625;2.06999999477375;208;100 mA
36.2270289085355;-0.699737548828125;-0.0386199951171875;2.0799999947485;209;100 mA
36.2370289085103;-0.69970703125;-0.0385528564453125;2.08999999472326;210;100 mA
36.247028908485;-0.699798583984375;-0.03851318359375;2.09999999469801;211;100 mA
36.2570289084598;-0.69970703125;-0.03846435546875;2.10999999467276;212;100 mA
36.2670289084346;-0.69976806640625;-0.0384063720703125;2.11999999464751;213;100 mA
36.2770289084093;-0.69970703125;-0.0384033203125;2.12999999462227;214;100 mA
36.2870289083841;-0.69970703125;-0.0383514404296875;2.13999999459702;215;100 mA
36.2970289083588;-0.69970703125;-0.0384521484375;2.14999999457177;216;100 mA
36.3070289083336;-0.69970703125;-0.0385223388671875;2.15999999454652;217;100 mA
36.3170289083083;-0.69970703125;-0.0385345458984375;2.16999999452128;218;100 mA
36.3270289082831;-0.699798583984375;-0.0385650634765625;2.17999999449603;219;100 mA
36.3370289082578;-0.699737548828125;-0.0384796142578125;2.18999999447078;220;100 mA
36.3470289082326;-0.69976806640625;-0.0384307861328125;2.19999999444553;221;100 mA
36.3570289082073;-0.699737548828125;-0.038421630859375;2.20999999442029;222;100 mA
36.3670289081821;-0.69976806640625;-0.038409423828125;2.21999999439504;223;100 mA
36.3770289081568;-0.699798583984375;-0.0384002685546875;2.22999999436979;224;100 mA
36.3870289081316;-0.699798583984375;-0.0383880615234375;2.23999999434454;225;100 mA
36.3970289081063;-0.69976806640625;-0.0383941650390625;2.2499999943193;226;100 mA
36.4070289080811;-0.699676513671875;-0.0383026123046875;2.25999999429405;227;100 mA
36.4170289080558;-0.69976806640625;-0.03828125;2.2699999942688;228;100 mA
36.4270289080306;-0.69976806640625;-0.038226318359375;2.27999999424355;229;100 mA
36.4370289080053;-0.69976806640625;-0.038189697265625;2.28999999421831;230;100 mA
36.4470289079801;-0.69976806640625;-0.0381683349609375;2.29999999419306;231;100 mA
36.4570289079549;-0.699798583984375;-0.0381134033203125;2.30999999416781;232;100 mA
36.4670289079296;-0.69970703125;-0.0380645751953125;2.31999999414256;233;100 mA
36.4770289079044;-0.69976806640625;-0.03800048828125;2.32999999411732;234;100 mA
36.4870289078791;-0.69976806640625;-0.0379669189453125;2.33999999409207;235;100 mA
36.4970289078539;-0.69970703125;-0.0379180908203125;2.34999999406682;236;100 mA
36.5070289078286;-0.69976806640625;-0.0378631591796875;2.35999999404157;237;100 mA
36.5170289078034;-0.699737548828125;-0.0379058837890625;2.36999999401633;238;100 mA
36.5270289077781;-0.69976806640625;-0.037823486328125;2.37999999399108;239;100 mA
36.5370289077529;-0.69976806640625;-0.037872314453125;2.38999999396583;240;100 mA
36.5470289077276;-0.699737548828125;-0.0379364013671875;2.39999999394058;241;100 mA
36.5570289077024;-0.699798583984375;-0.0378997802734375;2.40999999391533;242;100 mA
36.5670289076771;-0.69970703125;-0.0378753662109375;2.41999999389009;243;100 mA
36.5770289076519;-0.699737548828125;-0.037799072265625;2.42999999386484;244;100 mA
36.5870289076266;-0.69970703125;-0.0378082275390625;2.43999999383959;245;100 mA
36.5970289076014;-0.69976806640625;-0.0378265380859375;2.44999999381434;246;100 mA
36.6070289075761;-0.69976806640625;-0.0378570556640625;2.4599999937891;247;100 mA
36.6170289075509;-0.699737548828125;-0.037896728515625;2.46999999376385;248;100 mA
36.6270289075256;-0.69976806640625;-0.0379150390625;2.4799999937386;249;100 mA
36.6370289075004;-0.699737548828125;-0.0379241943359375;2.48999999371335;250;100 mA
36.6470289074751;-0.699737548828125;-0.0379150390625;2.49999999368811;251;100 mA
36.6570289074499;-0.699737548828125;-0.0378936767578125;2.50999999366286;252;100 mA
36.6670289074247;-0.69970703125;-0.037841796875;2.51999999363761;253;100 mA
36.6770289073994;-0.69976806640625;-0.0377960205078125;2.52999999361236;254;100 mA
36.6870289073742;-0.69976806640625;-0.0377410888671875;2.53999999358712;255;100 mA
36.6970289073489;-0.699676513671875;-0.0376220703125;2.54999999356187;256;100 mA
36.7070289073237;-0.699798583984375;-0.0375701904296875;2.55999999353662;257;100 mA
36.7170289072984;-0.69976806640625;-0.0375213623046875;2.56999999351137;258;100 mA
36.7270289072732;-0.699798583984375;-0.0375152587890625;2.57999999348613;259;100 mA
36.7370289072479;-0.69976806640625;-0.0374664306640625;2.58999999346088;260;100 mA
36.7470289072227;-0.69976806640625;-0.0374176025390625;2.59999999343563;261;100 mA
36.7570289071974;-0.69976806640625;-0.0373779296875;2.60999999341038;262;100 mA
36.7670289071722;-0.69976806640625;-0.0373565673828125;2.61999999338514;263;100 mA
36.7770289071469;-0.699737548828125;-0.0374420166015625;2.62999999335989;264;100 mA
36.7870289071217;-0.699737548828125;-0.0375274658203125;2.63999999333464;265;100 mA
36.7970289070964;-0.699676513671875;-0.0375091552734375;2.64999999330939;266;100 mA
36.8070289070712;-0.69976806640625;-0.0374481201171875;2.65999999328415;267;100 mA
36.8170289070459;-0.699737548828125;-0.0373748779296875;2.6699999932589;268;100 mA
36.8270289070207;-0.69976806640625;-0.0374176025390625;2.67999999323365;269;100 mA
36.8370289069954;-0.699737548828125;-0.0374237060546875;2.6899999932084;270;100 mA
36.8470289069702;-0.699737548828125;-0.037408447265625;2.69999999318316;271;100 mA
36.8570289069449;-0.69976806640625;-0.0373809814453125;2.70999999315791;272;100 mA
36.8670289069197;-0.69970703125;-0.0373565673828125;2.71999999313266;273;100 mA
36.8770289068945;-0.69970703125;-0.037359619140625;2.72999999310741;274;100 mA
36.8870289068692;-0.69976806640625;-0.0373931884765625;2.73999999308217;275;100 mA
36.897028906844;-0.699737548828125;-0.037384033203125;2.74999999305692;276;100 mA
36.9070289068187;-0.699798583984375;-0.0373992919921875;2.75999999303167;277;100 mA
36.9170289067935;-0.699737548828125;-0.0373931884765625;2.76999999300642;278;100 mA
36.9270289067682;-0.69976806640625;-0.03736572265625;2.77999999298117;279;100 mA
36.937028906743;-0.699737548828125;-0.0373016357421875;2.78999999295593;280;100 mA
36.9470289067177;-0.699737548828125;-0.0372589111328125;2.79999999293068;281;100 mA
36.9570289066925;-0.69970703125;-0.0371673583984375;2.80999999290543;282;100 mA
36.9670289066672;-0.699737548828125;-0.0371124267578125;2.81999999288018;283;100 mA
36.977028906642;-0.699737548828125;-0.0371185302734375;2.82999999285494;284;100 mA
36.9870289066167;-0.699798583984375;-0.037060546875;2.83999999282969;285;100 mA
36.9970289065915;-0.69976806640625;-0.0370635986328125;2.84999999280444;286;100 mA
37.0070289065662;-0.699798583984375;-0.037030029296875;2.85999999277919;287;100 mA
37.017028906541;-0.69970703125;-0.0370819091796875;2.86999999275395;288;100 mA
37.0270289065157;-0.699737548828125;-0.037188720703125;2.8799999927287;289;100 mA
37.0370289064905;-0.699737548828125;-0.0371246337890625;2.88999999270345;290;100 mA
37.0470289064652;-0.699798583984375;-0.0371429443359375;2.8999999926782;291;100 mA
37.05702890644;-0.69970703125;-0.037115478515625;2.90999999265296;292;100 mA
37.0670289064147;-0.699737548828125;-0.0371124267578125;2.91999999262771;293;100 mA
37.0770289063895;-0.69970703125;-0.0371673583984375;2.92999999260246;294;100 mA
37.0870289063643;-0.69976806640625;-0.03720703125;2.93999999257721;295;100 mA
37.097028906339;-0.699737548828125;-0.03721923828125;2.94999999255197;296;100 mA
37.1070289063138;-0.69970703125;-0.03721923828125;2.95999999252672;297;100 mA
37.1170289062885;-0.699676513671875;-0.037249755859375;2.96999999250147;298;100 mA
37.1270289062633;-0.699798583984375;-0.0372222900390625;2.97999999247622;299;100 mA
37.137028906238;-0.699798583984375;-0.037176513671875;2.98999999245098;300;100 mA
37.1470289062128;-0.699798583984375;-0.0371337890625;2.99999999242573;301;100 mA
37.1570289061875;-0.699798583984375;-0.037042236328125;3.00999999240048;302;100 mA
37.1670289061623;-0.699676513671875;-0.037060546875;3.01999999237523;303;100 mA
37.177028906137;-0.69976806640625;-0.0370025634765625;3.02999999234999;304;100 mA
37.1870289061118;-0.69976806640625;-0.03699951171875;3.03999999232474;305;100 mA
37.1970289060865;-0.69976806640625;-0.0369720458984375;3.04999999229949;306;100 mA
37.2070289060613;-0.699737548828125;-0.036907958984375;3.05999999227424;307;100 mA
37.217028906036;-0.699737548828125;-0.03687744140625;3.069999992249;308;100 mA
37.2270289060108;-0.699737548828125;-0.0368011474609375;3.07999999222375;309;100 mA
37.2370289059855;-0.699737548828125;-0.03681640625;3.0899999921985;310;100 mA
37.2470289059603;-0.69976806640625;-0.036859130859375;3.09999999217325;311;100 mA
37.257028905935;-0.699798583984375;-0.0368804931640625;3.109999992148;312;100 mA
37.2670289059098;-0.69970703125;-0.036993408203125;3.11999999212276;313;100 mA
37.2770289058845;-0.699798583984375;-0.036907958984375;3.12999999209751;314;100 mA
37.2870289058593;-0.699737548828125;-0.036895751953125;3.13999999207226;315;100 mA
37.2970289058341;-0.699798583984375;-0.0368560791015625;3.14999999204701;316;100 mA
37.3070289058088;-0.699798583984375;-0.0367919921875;3.15999999202177;317;100 mA
37.3170289057836;-0.69976806640625;-0.0367767333984375;3.16999999199652;318;100 mA
37.3270289057583;-0.699676513671875;-0.036761474609375;3.17999999197127;319;100 mA
37.3370289057331;-0.69976806640625;-0.036761474609375;3.18999999194602;320;100 mA
37.3470289057078;-0.69970703125;-0.0368560791015625;3.19999999192078;321;100 mA
37.3570289056826;-0.69976806640625;-0.0369354248046875;3.20999999189553;322;100 mA
37.3670289056573;-0.699737548828125;-0.036981201171875;3.21999999187028;323;100 mA
37.3770289056321;-0.699737548828125;-0.036956787109375;3.22999999184503;324;100 mA
37.3870289056068;-0.69976806640625;-0.0369598388671875;3.23999999181979;325;100 mA
37.3970289055816;-0.699798583984375;-0.0369110107421875;3.24999999179454;326;100 mA
37.4070289055563;-0.69976806640625;-0.0368896484375;3.25999999176929;327;100 mA
37.4170289055311;-0.69976806640625;-0.0368194580078125;3.26999999174404;328;100 mA
37.4270289055058;-0.69970703125;-0.0367401123046875;3.2799999917188;329;100 mA
37.4370289054806;-0.699737548828125;-0.0366851806640625;3.28999999169355;330;100 mA
37.4470289054553;-0.69976806640625;-0.0366912841796875;3.2999999916683;331;100 mA
37.4570289054301;-0.699737548828125;-0.036688232421875;3.30999999164305;332;100 mA
37.4670289054048;-0.699676513671875;-0.036663818359375;3.31999999161781;333;100 mA
37.4770289053796;-0.69976806640625;-0.03663330078125;3.32999999159256;334;100 mA
37.4870289053544;-0.699737548828125;-0.0365814208984375;3.33999999156731;335;100 mA
37.4970289053291;-0.699737548828125;-0.036651611328125;3.34999999154206;336;100 mA
37.5070289053039;-0.699737548828125;-0.0367095947265625;3.35999999151682;337;100 mA
37.5170289052786;-0.699737548828125;-0.03671875;3.36999999149157;338;100 mA
37.5270289052534;-0.69970703125;-0.0367340087890625;3.37999999146632;339;100 mA
37.5370289052281;-0.69976806640625;-0.0366607666015625;3.38999999144107;340;100 mA
37.5470289052029;-0.699737548828125;-0.0366851806640625;3.39999999141583;341;100 mA
37.5570289051776;-0.699737548828125;-0.0367034912109375;3.40999999139058;342;100 mA
37.5670289051524;-0.699737548828125;-0.036700439453125;3.41999999136533;343;100 mA
37.5770289051271;-0.699737548828125;-0.03671875;3.42999999134008;344;100 mA
37.5870289051019;-0.69976806640625;-0.03671875;3.43999999131483;345;100 mA
37.5970289050766;-0.69970703125;-0.0367034912109375;3.44999999128959;346;100 mA
37.6070289050514;-0.69970703125;-0.036676025390625;3.45999999126434;347;100 mA
37.6170289050261;-0.69976806640625;-0.0366851806640625;3.46999999123909;348;100 mA
37.6270289050009;-0.699737548828125;-0.0366729736328125;3.47999999121384;349;100 mA
37.6370289049756;-0.69976806640625;-0.0366668701171875;3.4899999911886;350;100 mA
37.6470289049504;-0.69976806640625;-0.0366790771484375;3.49999999116335;351;100 mA
37.6570289049251;-0.699798583984375;-0.036639404296875;3.5099999911381;352;100 mA
37.6670289048999;-0.699737548828125;-0.0366058349609375;3.51999999111285;353;100 mA
37.6770289048746;-0.69976806640625;-0.0365478515625;3.52999999108761;354;100 mA
37.6870289048494;-0.699798583984375;-0.0364898681640625;3.53999999106236;355;100 mA
37.6970289048242;-0.699676513671875;-0.036444091796875;3.54999999103711;356;100 mA
37.7070289047989;-0.699737548828125;-0.0364044189453125;3.55999999101186;357;100 mA
37.7170289047737;-0.699737548828125;-0.036431884765625;3.56999999098662;358;100 mA
37.7270289047484;-0.69976806640625;-0.036376953125;3.57999999096137;359;100 mA
37.7370289047232;-0.69976806640625;-0.036407470703125;3.58999999093612;360;100 mA
37.7470289046979;-0.699737548828125;-0.0364837646484375;3.59999999091087;361;100 mA
37.7570289046727;-0.699798583984375;-0.03643798828125;3.60999999088563;362;100 mA
37.7670289046474;-0.699737548828125;-0.0364166259765625;3.61999999086038;363;100 mA
37.7770289046222;-0.699798583984375;-0.036328125;3.62999999083513;364;100 mA
37.7870289045969;-0.69976806640625;-0.036297607421875;3.63999999080988;365;100 mA
37.7970289045717;-0.69976806640625;-0.0363128662109375;3.64999999078464;366;100 mA
37.8070289045464;-0.69976806640625;-0.03634033203125;3.65999999075939;367;100 mA
37.8170289045212;-0.69976806640625;-0.0364715576171875;3.66999999073414;368;100 mA
37.8270289044959;-0.699737548828125;-0.0365509033203125;3.67999999070889;369;100 mA
37.8370289044707;-0.699737548828125;-0.036602783203125;3.68999999068365;370;100 mA
37.8470289044454;-0.699737548828125;-0.036614990234375;3.6999999906584;371;100 mA
37.8570289044202;-0.699737548828125;-0.0366058349609375;3.70999999063315;372;100 mA
37.8670289043949;-0.69976806640625;-0.0365875244140625;3.7199999906079;373;100 mA
37.8770289043697;-0.699737548828125;-0.0365631103515625;3.72999999058266;374;100 mA
37.8870289043444;-0.69976806640625;-0.0365325927734375;3.73999999055741;375;100 mA
37.8970289043192;-0.69970703125;-0.0364593505859375;3.74999999053216;376;100 mA
37.907028904294;-0.699798583984375;-0.0364349365234375;3.75999999050691;377;100 mA
37.9170289042687;-0.699737548828125;-0.0364105224609375;3.76999999048167;378;100 mA
37.9270289042435;-0.69976806640625;-0.0364166259765625;3.77999999045642;379;100 mA
37.9370289042182;-0.69976806640625;-0.036395263671875;3.78999999043117;380;100 mA
37.947028904193;-0.699737548828125;-0.0363189697265625;3.79999999040592;381;100 mA
37.9570289041677;-0.699737548828125;-0.03626708984375;3.80999999038067;382;100 mA
37.9670289041425;-0.69970703125;-0.0362548828125;3.81999999035543;383;100 mA
37.9770289041172;-0.699737548828125;-0.0363128662109375;3.82999999033018;384;100 mA
37.987028904092;-0.699798583984375;-0.0364013671875;3.83999999030493;385;100 mA
37.9970289040667;-0.69976806640625;-0.0363525390625;3.84999999027968;386;100 mA
38.0070289040415;-0.69976806640625;-0.03629150390625;3.85999999025444;387;100 mA
38.0170289040162;-0.699737548828125;-0.03621826171875;3.86999999022919;388;100 mA
38.027028903991;-0.699676513671875;-0.036181640625;3.87999999020394;389;100 mA
38.0370289039657;-0.699737548828125;-0.0361724853515625;3.88999999017869;390;100 mA
38.0470289039405;-0.69976806640625;-0.0361572265625;3.89999999015345;391;100 mA
38.0570289039152;-0.699798583984375;-0.03616943359375;3.9099999901282;392;100 mA
38.06702890389;-0.69976806640625;-0.0361846923828125;3.91999999010295;393;100 mA
38.0770289038647;-0.699737548828125;-0.036236572265625;3.9299999900777;394;100 mA
38.0870289038395;-0.699737548828125;-0.03634033203125;3.93999999005246;395;100 mA
38.0970289038142;-0.69976806640625;-0.036376953125;3.94999999002721;396;100 mA
38.107028903789;-0.69976806640625;-0.036419677734375;3.95999999000196;397;100 mA
38.1170289037638;-0.69970703125;-0.0364349365234375;3.96999998997671;398;100 mA
38.1270289037385;-0.69976806640625;-0.0364349365234375;3.97999998995147;399;100 mA
38.1370289037133;-0.69976806640625;-0.0363800048828125;3.98999998992622;400;100 mA
38.147028903688;-0.699737548828125;-0.036334228515625;3.99999998990097;401;100 mA
38.1570289036628;-0.69976806640625;-0.0362548828125;4.00999998987572;402;100 mA
38.1670289036375;-0.69970703125;-0.03619384765625;4.01999998985048;403;100 mA
38.1770289036123;-0.699737548828125;-0.036199951171875;4.02999998982523;404;100 mA
38.187028903587;-0.69976806640625;-0.03614501953125;4.03999998979998;405;100 mA
38.1970289035618;-0.699737548828125;-0.036138916015625;4.04999998977473;406;100 mA
38.2070289035365;-0.699798583984375;-0.0360992431640625;4.05999998974949;407;100 mA
38.2170289035113;-0.699737548828125;-0.0361541748046875;4.06999998972424;408;100 mA
38.227028903486;-0.69970703125;-0.036248779296875;4.07999998969899;409;100 mA
38.2370289034608;-0.69976806640625;-0.036181640625;4.08999998967374;410;100 mA
38.2470289034355;-0.69970703125;-0.0361968994140625;4.0999999896485;411;100 mA
38.2570289034103;-0.699798583984375;-0.036163330078125;4.10999998962325;412;100 mA
38.267028903385;-0.699737548828125;-0.0361328125;4.119999989598;413;100 mA
38.2770289033598;-0.69976806640625;-0.0361114501953125;4.12999998957275;414;100 mA
38.2870289033345;-0.69976806640625;-0.036138916015625;4.1399999895475;415;100 mA
38.2970289033093;-0.699737548828125;-0.03623046875;4.14999998952226;416;100 mA
38.307028903284;-0.69976806640625;-0.0362579345703125;4.15999998949701;417;100 mA
38.3170289032588;-0.699798583984375;-0.0362884521484375;4.16999998947176;418;100 mA
38.3270289032336;-0.699737548828125;-0.0362701416015625;4.17999998944651;419;100 mA
38.3370289032083;-0.699798583984375;-0.0362335205078125;4.18999998942127;420;100 mA
38.3470289031831;-0.69976806640625;-0.03621826171875;4.19999998939602;421;100 mA
38.3570289031578;-0.69976806640625;-0.036175537109375;4.20999998937077;422;100 mA
38.3670289031326;-0.699737548828125;-0.03621826171875;4.21999998934552;423;100 mA
38.3770289031073;-0.699798583984375;-0.036187744140625;4.22999998932028;424;100 mA
38.3870289030821;-0.699737548828125;-0.036187744140625;4.23999998929503;425;100 mA
38.3970289030568;-0.699737548828125;-0.036175537109375;4.24999998926978;426;100 mA
38.4070289030316;-0.699676513671875;-0.0361328125;4.25999998924453;427;100 mA
38.4170289030063;-0.699737548828125;-0.0361083984375;4.26999998921929;428;100 mA
38.4270289029811;-0.699737548828125;-0.036053466796875;4.27999998919404;429;100 mA
38.4370289029558;-0.699798583984375;-0.0360748291015625;4.28999998916879;430;100 mA
38.4470289029306;-0.699737548828125;-0.03609619140625;4.29999998914354;431;100 mA
38.4570289029053;-0.69976806640625;-0.0361328125;4.3099999891183;432;100 mA
38.4670289028801;-0.69976806640625;-0.0362335205078125;4.31999998909305;433;100 mA
38.4770289028548;-0.6998291015625;-0.0361572265625;4.3299999890678;434;100 mA
38.4870289028296;-0.699798583984375;-0.03612060546875;4.33999998904255;435;100 mA
38.4970289028043;-0.69976806640625;-0.0360870361328125;4.34999998901731;436;100 mA
38.5070289027791;-0.69976806640625;-0.03602294921875;4.35999998899206;437;100 mA
38.5170289027539;-0.699798583984375;-0.0360015869140625;4.36999998896681;438;100 mA
38.5270289027286;-0.699737548828125;-0.0359710693359375;4.37999998894156;439;100 mA
38.5370289027034;-0.69976806640625;-0.035992431640625;4.38999998891632;440;100 mA
38.5470289026781;-0.699737548828125;-0.03607177734375;4.39999998889107;441;100 mA
38.5570289026529;-0.699737548828125;-0.036212158203125;4.40999998886582;442;100 mA
38.5670289026276;-0.69976806640625;-0.036273193359375;4.41999998884057;443;100 mA
38.5770289026024;-0.69976806640625;-0.0362762451171875;4.42999998881533;444;100 mA
38.5870289025771;-0.699798583984375;-0.0362762451171875;4.43999998879008;445;100 mA
38.5970289025519;-0.699798583984375;-0.0362457275390625;4.44999998876483;446;100 mA
38.6070289025266;-0.69976806640625;-0.036248779296875;4.45999998873958;447;100 mA
38.6170289025014;-0.69970703125;-0.036224365234375;4.46999998871433;448;100 mA
38.6270289024761;-0.69976806640625;-0.0361846923828125;4.47999998868909;449;100 mA
38.6370289024509;-0.699737548828125;-0.03614501953125;4.48999998866384;450;100 mA
38.6470289024256;-0.69976806640625;-0.0361480712890625;4.49999998863859;451;100 mA
38.6570289024004;-0.699798583984375;-0.0361419677734375;4.50999998861334;452;100 mA
38.6670289023751;-0.69976806640625;-0.0361083984375;4.5199999885881;453;100 mA
38.6770289023499;-0.69976806640625;-0.0360809326171875;4.52999998856285;454;100 mA
38.6870289023246;-0.69976806640625;-0.0360595703125;4.5399999885376;455;100 mA
38.6970289022994;-0.69970703125;-0.036138916015625;4.54999998851235;456;100 mA
38.7070289022741;-0.699676513671875;-0.0362030029296875;4.55999998848711;457;100 mA
38.7170289022489;-0.69970703125;-0.0362335205078125;4.56999998846186;458;100 mA
38.7270289022237;-0.699737548828125;-0.0362335205078125;4.57999998843661;459;100 mA
38.7370289021984;-0.69976806640625;-0.0361663818359375;4.58999998841136;460;100 mA
38.7470289021732;-0.69970703125;-0.036102294921875;4.59999998838612;461;100 mA
38.7570289021479;-0.69976806640625;-0.036102294921875;4.60999998836087;462;100 mA
38.7670289021227;-0.69976806640625;-0.0360992431640625;4.61999998833562;463;100 mA
38.7770289020974;-0.69976806640625;-0.0360443115234375;4.62999998831037;464;100 mA
38.7870289020722;-0.69976806640625;-0.0360076904296875;4.63999998828513;465;100 mA
38.7970289020469;-0.6998291015625;-0.0360198974609375;4.64999998825988;466;100 mA
38.8070289020217;-0.69976806640625;-0.03607177734375;4.65999998823463;467;100 mA
38.8170289019964;-0.699737548828125;-0.0360809326171875;4.66999998820938;468;100 mA
38.8270289019712;-0.69976806640625;-0.03609619140625;4.67999998818414;469;100 mA
38.8370289019459;-0.69970703125;-0.0360992431640625;4.68999998815889;470;100 mA
38.8470289019207;-0.69970703125;-0.036102294921875;4.69999998813364;471;100 mA
38.8570289018954;-0.69976806640625;-0.03607177734375;4.70999998810839;472;100 mA
38.8670289018702;-0.69976806640625;-0.03604736328125;4.71999998808315;473;100 mA
38.8770289018449;-0.699737548828125;-0.0359771728515625;4.7299999880579;474;100 mA
38.8870289018197;-0.699737548828125;-0.035943603515625;4.73999998803265;475;100 mA
38.8970289017944;-0.699737548828125;-0.035943603515625;4.7499999880074;476;100 mA
38.9070289017692;-0.69976806640625;-0.03594970703125;4.75999998798216;477;100 mA
38.9170289017439;-0.69970703125;-0.035980224609375;4.76999998795691;478;100 mA
38.9270289017187;-0.699798583984375;-0.035968017578125;4.77999998793166;479;100 mA
38.9370289016935;-0.699798583984375;-0.03599853515625;4.78999998790641;480;100 mA
38.9470289016682;-0.699737548828125;-0.0361083984375;4.79999998788116;481;100 mA
38.957028901643;-0.69970703125;-0.0360687255859375;4.80999998785592;482;100 mA
38.9670289016177;-0.69976806640625;-0.0360687255859375;4.81999998783067;483;100 mA
38.9770289015925;-0.69976806640625;-0.0359893798828125;4.82999998780542;484;100 mA
38.9870289015672;-0.69976806640625;-0.0359710693359375;4.83999998778017;485;100 mA
38.997028901542;-0.699798583984375;-0.0359893798828125;4.84999998775493;486;100 mA
39.0070289015167;-0.699737548828125;-0.0360687255859375;4.85999998772968;487;100 mA
39.0170289014915;-0.69976806640625;-0.0361328125;4.86999998770443;488;100 mA
39.0270289014662;-0.69976806640625;-0.036126708984375;4.87999998767918;489;100 mA
39.037028901441;-0.699737548828125;-0.03614501953125;4.88999998765394;490;100 mA
39.0470289014157;-0.69970703125;-0.0361114501953125;4.89999998762869;491;100 mA
39.0570289013905;-0.699798583984375;-0.0360595703125;4.90999998760344;492;100 mA
39.0670289013652;-0.699798583984375;-0.0360321044921875;4.91999998757819;493;100 mA
39.07702890134;-0.69976806640625;-0.0359893798828125;4.92999998755295;494;100 mA
39.0870289013147;-0.69976806640625;-0.0359588623046875;4.9399999875277;495;100 mA
39.0970289012895;-0.699737548828125;-0.03592529296875;4.94999998750245;496;100 mA
39.1070289012642;-0.699737548828125;-0.035919189453125;4.9599999874772;497;100 mA
39.117028901239;-0.69970703125;-0.03592529296875;4.96999998745196;498;100 mA
39.1270289012137;-0.69976806640625;-0.035955810546875;4.97999998742671;499;100 mA
39.1370289011885;-0.69976806640625;-0.035955810546875;4.98999998740146;500;100 mA
39.1470289011633;-0.69970703125;-0.0359100341796875;4.99999998737621;501;100 mA
39.157028901138;-0.699798583984375;-0.0359161376953125;5.00999998735097;502;100 mA
39.1670289011128;-0.699737548828125;-0.03597412109375;5.01999998732572;503;100 mA
39.1770289010875;-0.699798583984375;-0.036053466796875;5.02999998730047;504;100 mA
39.1870289010623;-0.69970703125;-0.036175537109375;5.03999998727522;505;100 mA
39.197028901037;-0.69976806640625;-0.03612060546875;5.04999998724998;506;100 mA
39.2070289010118;-0.69976806640625;-0.036102294921875;5.05999998722473;507;100 mA
39.2170289009865;-0.69976806640625;-0.0360443115234375;5.06999998719948;508;100 mA
39.2270289009613;-0.699737548828125;-0.0360107421875;5.07999998717423;509;100 mA
39.237028900936;-0.699798583984375;-0.03597412109375;5.08999998714899;510;100 mA
39.2470289009108;-0.69970703125;-0.0359588623046875;5.09999998712374;511;100 mA
39.2570289008855;-0.699737548828125;-0.035906982421875;5.10999998709849;512;100 mA
39.2670289008603;-0.69976806640625;-0.0359375;5.11999998707324;513;100 mA
39.277028900835;-0.69976806640625;-0.03603515625;5.129999987048;514;100 mA
39.2870289008098;-0.69970703125;-0.0361236572265625;5.13999998702275;515;100 mA
39.2970289007845;-0.69976806640625;-0.036126708984375;5.1499999869975;516;100 mA
39.3070289007593;-0.699798583984375;-0.0361572265625;5.15999998697225;517;100 mA
39.317028900734;-0.699737548828125;-0.036151123046875;5.169999986947;518;100 mA
39.3270289007088;-0.699737548828125;-0.0361572265625;5.17999998692176;519;100 mA
39.3370289006835;-0.69970703125;-0.0361083984375;5.18999998689651;520;100 mA
39.3470289006583;-0.69976806640625;-0.03609619140625;5.19999998687126;521;100 mA
39.3570289006331;-0.699737548828125;-0.0360687255859375;5.20999998684601;522;100 mA
39.3670289006078;-0.69976806640625;-0.0360809326171875;5.21999998682077;523;100 mA
39.3770289005826;-0.69976806640625;-0.036151123046875;5.22999998679552;524;100 mA
39.3870289005573;-0.69976806640625;-0.036151123046875;5.23999998677027;525;100 mA
39.3970289005321;-0.69976806640625;-0.0361907958984375;5.24999998674502;526;100 mA
39.4070289005068;-0.69970703125;-0.0361602783203125;5.25999998671978;527;100 mA
39.4170289004816;-0.69976806640625;-0.0362060546875;5.26999998669453;528;100 mA
39.4270289004563;-0.69976806640625;-0.036309814453125;5.27999998666928;529;100 mA
39.4370289004311;-0.699798583984375;-0.036236572265625;5.28999998664403;530;100 mA
39.4470289004058;-0.6998291015625;-0.036273193359375;5.29999998661879;531;100 mA
39.4570289003806;-0.69970703125;-0.0362579345703125;5.30999998659354;532;100 mA
39.4670289003553;-0.699798583984375;-0.0362335205078125;5.31999998656829;533;100 mA
39.4770289003301;-0.69976806640625;-0.0362579345703125;5.32999998654304;534;100 mA
39.4870289003048;-0.699737548828125;-0.0362884521484375;5.3399999865178;535;100 mA
39.4970289002796;-0.699798583984375;-0.0363037109375;5.34999998649255;536;100 mA
39.5070289002543;-0.699798583984375;-0.036285400390625;5.3599999864673;537;100 mA
39.5170289002291;-0.69976806640625;-0.036260986328125;5.36999998644205;538;100 mA
39.5270289002038;-0.69970703125;-0.0362091064453125;5.37999998641681;539;100 mA
39.5370289001786;-0.699798583984375;-0.03616943359375;5.38999998639156;540;100 mA
39.5470289001534;-0.699737548828125;-0.0361602783203125;5.39999998636631;541;100 mA
39.5570289001281;-0.699798583984375;-0.036138916015625;5.40999998634106;542;100 mA
39.5670289001029;-0.699676513671875;-0.0361724853515625;5.41999998631582;543;100 mA
39.5770289000776;-0.699737548828125;-0.036138916015625;5.42999998629057;544;100 mA
39.5870289000524;-0.699737548828125;-0.0361175537109375;5.43999998626532;545;100 mA
39.5970289000271;-0.699737548828125;-0.036102294921875;5.44999998624007;546;100 mA
39.6070289000019;-0.69970703125;-0.03607177734375;5.45999998621483;547;100 mA
39.6170288999766;-0.69976806640625;-0.0360382080078125;5.46999998618958;548;100 mA
39.6270288999514;-0.69976806640625;-0.035992431640625;5.47999998616433;549;100 mA
39.6370288999261;-0.699737548828125;-0.036041259765625;5.48999998613908;550;100 mA
39.6470288999009;-0.69976806640625;-0.0360321044921875;5.49999998611383;551;100 mA
39.6570288998756;-0.69970703125;-0.0361083984375;5.50999998608859;552;100 mA
39.6670288998504;-0.69976806640625;-0.0361663818359375;5.51999998606334;553;100 mA
39.6770288998251;-0.699737548828125;-0.0361419677734375;5.52999998603809;554;100 mA
39.6870288997999;-0.69976806640625;-0.0360992431640625;5.53999998601284;555;100 mA
39.6970288997746;-0.699737548828125;-0.036065673828125;5.5499999859876;556;100 mA
39.7070288997494;-0.69976806640625;-0.0360260009765625;5.55999998596235;557;100 mA
39.7170288997241;-0.699737548828125;-0.0360076904296875;5.5699999859371;558;100 mA
39.7270288996989;-0.699737548828125;-0.0359954833984375;5.57999998591185;559;100 mA
39.7370288996736;-0.69970703125;-0.036065673828125;5.58999998588661;560;100 mA
39.7470288996484;-0.69976806640625;-0.0361846923828125;5.59999998586136;561;100 mA
39.7570288996232;-0.69970703125;-0.0362548828125;5.60999998583611;562;100 mA
39.7670288995979;-0.699737548828125;-0.036273193359375;5.61999998581086;563;100 mA
39.7770288995727;-0.69970703125;-0.0362518310546875;5.62999998578562;564;100 mA
39.7870288995474;-0.699676513671875;-0.03624267578125;5.63999998576037;565;100 mA
39.7970288995222;-0.69970703125;-0.036224365234375;5.64999998573512;566;100 mA
39.8070288994969;-0.699798583984375;-0.0362060546875;5.65999998570987;567;100 mA
39.8170288994717;-0.69976806640625;-0.0361785888671875;5.66999998568463;568;100 mA
39.8270288994464;-0.699798583984375;-0.0361236572265625;5.67999998565938;569;100 mA
39.8370288994212;-0.699798583984375;-0.036083984375;5.68999998563413;570;100 mA
39.8470288993959;-0.699737548828125;-0.0360748291015625;5.69999998560888;571;100 mA
39.8570288993707;-0.699737548828125;-0.036077880859375;5.70999998558364;572;100 mA
39.8670288993454;-0.6998291015625;-0.0360565185546875;5.71999998555839;573;100 mA
39.8770288993202;-0.699798583984375;-0.0360198974609375;5.72999998553314;574;100 mA
39.8870288992949;-0.699737548828125;-0.0359893798828125;5.73999998550789;575;100 mA
39.8970288992697;-0.699737548828125;-0.036077880859375;5.74999998548265;576;100 mA
39.9070288992444;-0.699737548828125;-0.0361358642578125;5.7599999854574;577;100 mA
39.9170288992192;-0.69970703125;-0.0361846923828125;5.76999998543215;578;100 mA
39.9270288991939;-0.69976806640625;-0.0361541748046875;5.7799999854069;579;100 mA
39.9370288991687;-0.69976806640625;-0.036126708984375;5.78999998538166;580;100 mA
39.9470288991434;-0.69976806640625;-0.0361328125;5.79999998535641;581;100 mA
39.9570288991182;-0.699737548828125;-0.036126708984375;5.80999998533116;582;100 mA
39.967028899093;-0.69976806640625;-0.036114501953125;5.81999998530591;583;100 mA
39.9770288990677;-0.69976806640625;-0.0360992431640625;5.82999998528066;584;100 mA
39.9870288990425;-0.69976806640625;-0.036102294921875;5.83999998525542;585;100 mA
39.9970288990172;-0.69970703125;-0.0360595703125;5.84999998523017;586;100 mA
40.007028898992;-0.699737548828125;-0.036090087890625;5.85999998520492;587;100 mA
40.0170288989667;-0.699798583984375;-0.0361236572265625;5.86999998517967;588;100 mA
40.0270288989415;-0.699737548828125;-0.036163330078125;5.87999998515443;589;100 mA
40.0370288989162;-0.69976806640625;-0.03619384765625;5.88999998512918;590;100 mA
40.047028898891;-0.699798583984375;-0.036199951171875;5.89999998510393;591;100 mA
40.0570288988657;-0.69976806640625;-0.0361846923828125;5.90999998507868;592;100 mA
40.0670288988405;-0.69976806640625;-0.0362030029296875;5.91999998505344;593;100 mA
40.0770288988152;-0.69976806640625;-0.0361572265625;5.92999998502819;594;100 mA
40.08702889879;-0.69976806640625;-0.0361419677734375;5.93999998500294;595;100 mA
40.0970288987647;-0.69976806640625;-0.0361328125;5.94999998497769;596;100 mA
40.1070288987395;-0.699737548828125;-0.0361541748046875;5.95999998495245;597;100 mA
40.1170288987142;-0.69976806640625;-0.036181640625;5.9699999849272;598;100 mA
40.127028898689;-0.69976806640625;-0.0362030029296875;5.97999998490195;599;100 mA
40.1370288986637;-0.699737548828125;-0.0362335205078125;5.9899999848767;600;100 mA
40.1470288986385;-0.69976806640625;-0.036322021484375;5.99999998485146;601;100 mA
40.1570288986132;-0.699737548828125;-0.0362945556640625;6.00999998482621;602;100 mA
40.167028898588;-0.69976806640625;-0.036279296875;6.01999998480096;603;100 mA
40.1770288985628;-0.69976806640625;-0.03623046875;6.02999998477571;604;100 mA
40.1870288985375;-0.699737548828125;-0.03621826171875;6.03999998475047;605;100 mA
40.1970288985123;-0.69976806640625;-0.036273193359375;6.04999998472522;606;100 mA
40.207028898487;-0.69976806640625;-0.036309814453125;6.05999998469997;607;100 mA
40.2170288984618;-0.69970703125;-0.0363555908203125;6.06999998467472;608;100 mA
40.2270288984365;-0.69976806640625;-0.0363739013671875;6.07999998464948;609;100 mA
40.2370288984113;-0.699737548828125;-0.0363861083984375;6.08999998462423;610;100 mA
40.247028898386;-0.69976806640625;-0.03638916015625;6.09999998459898;611;100 mA
40.2570288983608;-0.69976806640625;-0.036334228515625;6.10999998457373;612;100 mA
40.2670288983355;-0.69976806640625;-0.0363494873046875;6.11999998454849;613;100 mA
40.2770288983103;-0.69976806640625;-0.036322021484375;6.12999998452324;614;100 mA
40.287028898285;-0.699737548828125;-0.036273193359375;6.13999998449799;615;100 mA
40.2970288982598;-0.699798583984375;-0.0362457275390625;6.14999998447274;616;100 mA
40.3070288982345;-0.699798583984375;-0.036236572265625;6.1599999844475;617;100 mA
40.3170288982093;-0.69976806640625;-0.0362335205078125;6.16999998442225;618;100 mA
40.327028898184;-0.699798583984375;-0.036248779296875;6.179999984397;619;100 mA
40.3370288981588;-0.699798583984375;-0.0362579345703125;6.18999998437175;620;100 mA
40.3470288981335;-0.699798583984375;-0.03621826171875;6.1999999843465;621;100 mA
40.3570288981083;-0.69970703125;-0.036199951171875;6.20999998432126;622;100 mA
40.367028898083;-0.69970703125;-0.0362579345703125;6.21999998429601;623;100 mA
40.3770288980578;-0.699737548828125;-0.03631591796875;6.22999998427076;624;100 mA
40.3870288980326;-0.699737548828125;-0.036456298828125;6.23999998424551;625;100 mA
40.3970288980073;-0.699798583984375;-0.0364044189453125;6.24999998422027;626;100 mA
40.4070288979821;-0.699737548828125;-0.03638916015625;6.25999998419502;627;100 mA
40.4170288979568;-0.69970703125;-0.0363800048828125;6.26999998416977;628;100 mA
40.4270288979316;-0.69976806640625;-0.0363739013671875;6.27999998414452;629;100 mA
40.4370288979063;-0.69976806640625;-0.0363433837890625;6.28999998411928;630;100 mA
40.4470288978811;-0.69976806640625;-0.036309814453125;6.29999998409403;631;100 mA
40.4570288978558;-0.69970703125;-0.036279296875;6.30999998406878;632;100 mA
40.4670288978306;-0.69976806640625;-0.0363250732421875;6.31999998404353;633;100 mA
40.4770288978053;-0.699737548828125;-0.0364044189453125;6.32999998401829;634;100 mA
40.4870288977801;-0.69976806640625;-0.03643798828125;6.33999998399304;635;100 mA
40.4970288977548;-0.69970703125;-0.0364166259765625;6.34999998396779;636;100 mA
40.5070288977296;-0.69989013671875;-0.03646240234375;6.35999998394254;637;100 mA
40.5170288977043;-0.699737548828125;-0.03643798828125;6.3699999839173;638;100 mA
40.5270288976791;-0.69976806640625;-0.0364501953125;6.37999998389205;639;100 mA
40.5370288976538;-0.69976806640625;-0.0364044189453125;6.3899999838668;640;100 mA
40.5470288976286;-0.69976806640625;-0.036370849609375;6.39999998384155;641;100 mA
40.5570288976033;-0.699737548828125;-0.03636474609375;6.40999998381631;642;100 mA
40.5670288975781;-0.69976806640625;-0.0363494873046875;6.41999998379106;643;100 mA
40.5770288975529;-0.69976806640625;-0.036370849609375;6.42999998376581;644;100 mA
40.5870288975276;-0.69976806640625;-0.0363555908203125;6.43999998374056;645;100 mA
40.5970288975024;-0.69976806640625;-0.036370849609375;6.44999998371532;646;100 mA
40.6070288974771;-0.699737548828125;-0.0363372802734375;6.45999998369007;647;100 mA
40.6170288974519;-0.699798583984375;-0.0363800048828125;6.46999998366482;648;100 mA
40.6270288974266;-0.69976806640625;-0.0364776611328125;6.47999998363957;649;100 mA
40.6370288974014;-0.6998291015625;-0.0364288330078125;6.48999998361433;650;100 mA
40.6470288973761;-0.699737548828125;-0.0364715576171875;6.49999998358908;651;100 mA
40.6570288973509;-0.699798583984375;-0.0364898681640625;6.50999998356383;652;100 mA
40.6670288973256;-0.699798583984375;-0.0365234375;6.51999998353858;653;100 mA
40.6770288973004;-0.699737548828125;-0.0365203857421875;6.52999998351333;654;100 mA
40.6870288972751;-0.69976806640625;-0.0365081787109375;6.53999998348809;655;100 mA
40.6970288972499;-0.699798583984375;-0.0365081787109375;6.54999998346284;656;100 mA
40.7070288972246;-0.699737548828125;-0.036492919921875;6.55999998343759;657;100 mA
40.7170288971994;-0.69976806640625;-0.0365142822265625;6.56999998341234;658;100 mA
40.7270288971741;-0.699737548828125;-0.0364959716796875;6.5799999833871;659;100 mA
40.7370288971489;-0.699737548828125;-0.036444091796875;6.58999998336185;660;100 mA
40.7470288971236;-0.69976806640625;-0.0364349365234375;6.5999999833366;661;100 mA
40.7570288970984;-0.69976806640625;-0.0364105224609375;6.60999998331135;662;100 mA
40.7670288970731;-0.699737548828125;-0.0364349365234375;6.61999998328611;663;100 mA
40.7770288970479;-0.69976806640625;-0.0364105224609375;6.62999998326086;664;100 mA
40.7870288970227;-0.69976806640625;-0.0363983154296875;6.63999998323561;665;100 mA
40.7970288969974;-0.69976806640625;-0.0363861083984375;6.64999998321036;666;100 mA
40.8070288969722;-0.699676513671875;-0.0363677978515625;6.65999998318512;667;100 mA
40.8170288969469;-0.699798583984375;-0.0363677978515625;6.66999998315987;668;100 mA
40.8270288969217;-0.69970703125;-0.0363128662109375;6.67999998313462;669;100 mA
40.8370288968964;-0.69976806640625;-0.036370849609375;6.68999998310937;670;100 mA
40.8470288968712;-0.69976806640625;-0.0363677978515625;6.69999998308413;671;100 mA
40.8570288968459;-0.699798583984375;-0.0364349365234375;6.70999998305888;672;100 mA
40.8670288968207;-0.69970703125;-0.036456298828125;6.71999998303363;673;100 mA
40.8770288967954;-0.69976806640625;-0.036444091796875;6.72999998300838;674;100 mA
40.8870288967702;-0.699676513671875;-0.0364227294921875;6.73999998298314;675;100 mA
40.8970288967449;-0.6998291015625;-0.0363861083984375;6.74999998295789;676;100 mA
40.9070288967197;-0.699798583984375;-0.0363311767578125;6.75999998293264;677;100 mA
40.9170288966944;-0.699798583984375;-0.036383056640625;6.76999998290739;678;100 mA
40.9270288966692;-0.69970703125;-0.036419677734375;6.77999998288215;679;100 mA
40.9370288966439;-0.69970703125;-0.0364715576171875;6.7899999828569;680;100 mA
40.9470288966187;-0.69976806640625;-0.036505126953125;6.79999998283165;681;100 mA
40.9570288965934;-0.699798583984375;-0.03651123046875;6.8099999828064;682;100 mA
40.9670288965682;-0.69976806640625;-0.03653564453125;6.81999998278116;683;100 mA
40.9770288965429;-0.699798583984375;-0.0364898681640625;6.82999998275591;684;100 mA
40.9870288965177;-0.69976806640625;-0.036468505859375;6.83999998273066;685;100 mA
40.9970288964925;-0.699798583984375;-0.036456298828125;6.84999998270541;686;100 mA
41.0070288964672;-0.69976806640625;-0.0364166259765625;6.85999998268016;687;100 mA
41.017028896442;-0.6998291015625;-0.036383056640625;6.86999998265492;688;100 mA
41.0270288964167;-0.69976806640625;-0.03634033203125;6.87999998262967;689;100 mA
41.0370288963915;-0.699737548828125;-0.0363006591796875;6.88999998260442;690;100 mA
41.0470288963662;-0.69976806640625;-0.0363037109375;6.89999998257917;691;100 mA
41.057028896341;-0.699798583984375;-0.03629150390625;6.90999998255393;692;100 mA
41.0670288963157;-0.699737548828125;-0.0362762451171875;6.91999998252868;693;100 mA
41.0770288962905;-0.69970703125;-0.036236572265625;6.92999998250343;694;100 mA
41.0870288962652;-0.69976806640625;-0.0362091064453125;6.93999998247818;695;100 mA
41.09702889624;-0.69976806640625;-0.0363189697265625;6.94999998245294;696;100 mA
41.1070288962147;-0.69976806640625;-0.036370849609375;6.95999998242769;697;100 mA
41.1170288961895;-0.69976806640625;-0.036444091796875;6.96999998240244;698;100 mA
41.1270288961642;-0.6998291015625;-0.0364105224609375;6.97999998237719;699;100 mA
41.137028896139;-0.69976806640625;-0.0363433837890625;6.98999998235195;700;100 mA
41.1470288961137;-0.6998291015625;-0.036328125;6.9999999823267;701;100 mA
41.1570288960885;-0.699798583984375;-0.0363433837890625;7.00999998230145;702;100 mA
41.1670288960632;-0.69976806640625;-0.0363494873046875;7.0199999822762;703;100 mA
41.177028896038;-0.699737548828125;-0.0363372802734375;7.02999998225096;704;100 mA
41.1870288960127;-0.69970703125;-0.0363433837890625;7.03999998222571;705;100 mA
41.1970288959875;-0.699737548828125;-0.0363250732421875;7.04999998220046;706;100 mA
41.2070288959623;-0.69976806640625;-0.0363525390625;7.05999998217521;707;100 mA
41.217028895937;-0.699798583984375;-0.0363494873046875;7.06999998214997;708;100 mA
41.2270288959118;-0.699798583984375;-0.036358642578125;7.07999998212472;709;100 mA
41.2370288958865;-0.699737548828125;-0.0363525390625;7.08999998209947;710;100 mA
41.2470288958613;-0.69976806640625;-0.036328125;7.09999998207422;711;100 mA
41.257028895836;-0.699737548828125;-0.0362640380859375;7.10999998204898;712;100 mA
41.2670288958108;-0.699737548828125;-0.0362579345703125;7.11999998202373;713;100 mA
41.2770288957855;-0.699737548828125;-0.036212158203125;7.12999998199848;714;100 mA
41.2870288957603;-0.699737548828125;-0.03619384765625;7.13999998197323;715;100 mA
41.297028895735;-0.699798583984375;-0.0362030029296875;7.14999998194799;716;100 mA
41.3070288957098;-0.6998291015625;-0.036224365234375;7.15999998192274;717;100 mA
41.3170288956845;-0.69970703125;-0.03619384765625;7.16999998189749;718;100 mA
41.3270288956593;-0.69970703125;-0.036175537109375;7.17999998187224;719;100 mA
41.337028895634;-0.699737548828125;-0.03619384765625;7.189999981847;720;100 mA
41.3470288956088;-0.69970703125;-0.03626708984375;7.19999998182175;721;100 mA
41.3570288955835;-0.699737548828125;-0.0362335205078125;7.2099999817965;722;100 mA
41.3670288955583;-0.69970703125;-0.03623046875;7.21999998177125;723;100 mA
41.377028895533;-0.699737548828125;-0.036199951171875;7.229999981746;724;100 mA
41.3870288955078;-0.69976806640625;-0.0362579345703125;7.23999998172076;725;100 mA
41.3970288954825;-0.699737548828125;-0.0363525390625;7.24999998169551;726;100 mA
41.4070288954573;-0.69976806640625;-0.036370849609375;7.25999998167026;727;100 mA
41.4170288954321;-0.69976806640625;-0.0363922119140625;7.26999998164501;728;100 mA
41.4270288954068;-0.699737548828125;-0.0364166259765625;7.27999998161977;729;100 mA
41.4370288953816;-0.69976806640625;-0.0364044189453125;7.28999998159452;730;100 mA
41.4470288953563;-0.69976806640625;-0.036419677734375;7.29999998156927;731;100 mA
41.4570288953311;-0.699676513671875;-0.036358642578125;7.30999998154402;732;100 mA
41.4670288953058;-0.699737548828125;-0.0363525390625;7.31999998151878;733;100 mA
41.4770288952806;-0.69976806640625;-0.0363128662109375;7.32999998149353;734;100 mA
41.4870288952553;-0.69976806640625;-0.0362396240234375;7.33999998146828;735;100 mA
41.4970288952301;-0.699737548828125;-0.036187744140625;7.34999998144303;736;100 mA
41.5070288952048;-0.69970703125;-0.0361572265625;7.35999998141779;737;100 mA
41.5170288951796;-0.69970703125;-0.0361236572265625;7.36999998139254;738;100 mA
41.5270288951543;-0.6998291015625;-0.0361083984375;7.37999998136729;739;100 mA
41.5370288951291;-0.699737548828125;-0.0360870361328125;7.38999998134204;740;100 mA
41.5470288951038;-0.699737548828125;-0.0360260009765625;7.3999999813168;741;100 mA
41.5570288950786;-0.699737548828125;-0.035992431640625;7.40999998129155;742;100 mA
41.5670288950533;-0.699737548828125;-0.0360321044921875;7.4199999812663;743;100 mA
41.5770288950281;-0.69976806640625;-0.0360595703125;7.42999998124105;744;100 mA
41.5870288950028;-0.699737548828125;-0.0361724853515625;7.43999998121581;745;100 mA
41.5970288949776;-0.69976806640625;-0.0361328125;7.44999998119056;746;100 mA
41.6070288949524;-0.6998291015625;-0.036102294921875;7.45999998116531;747;100 mA
41.6170288949271;-0.699798583984375;-0.0360748291015625;7.46999998114006;748;100 mA
41.6270288949019;-0.69976806640625;-0.0360626220703125;7.47999998111482;749;100 mA
41.6370288948766;-0.69976806640625;-0.0360565185546875;7.48999998108957;750;100 mA
41.6470288948514;-0.699737548828125;-0.0361083984375;7.49999998106432;751;100 mA
41.6570288948261;-0.699737548828125;-0.0361480712890625;7.50999998103907;752;100 mA
41.6670288948009;-0.699798583984375;-0.03621826171875;7.51999998101383;753;100 mA
41.6770288947756;-0.699737548828125;-0.036279296875;7.52999998098858;754;100 mA
41.6870288947504;-0.6998291015625;-0.03631591796875;7.53999998096333;755;100 mA
41.6970288947251;-0.69976806640625;-0.036285400390625;7.54999998093808;756;100 mA
41.7070288946999;-0.699798583984375;-0.0363128662109375;7.55999998091283;757;100 mA
41.7170288946746;-0.69976806640625;-0.0362701416015625;7.56999998088759;758;100 mA
41.7270288946494;-0.69976806640625;-0.0362518310546875;7.57999998086234;759;100 mA
41.7370288946241;-0.69976806640625;-0.036187744140625;7.58999998083709;760;100 mA
41.7470288945989;-0.69976806640625;-0.0361328125;7.59999998081184;761;100 mA
41.7570288945736;-0.69970703125;-0.0360931396484375;7.6099999807866;762;100 mA
41.7670288945484;-0.699798583984375;-0.0360565185546875;7.61999998076135;763;100 mA
41.7770288945231;-0.69976806640625;-0.0360382080078125;7.6299999807361;764;100 mA
41.7870288944979;-0.699737548828125;-0.036004638671875;7.63999998071085;765;100 mA
41.7970288944726;-0.69976806640625;-0.0359954833984375;7.64999998068561;766;100 mA
41.8070288944474;-0.69976806640625;-0.0359375;7.65999998066036;767;100 mA
41.8170288944222;-0.699737548828125;-0.035968017578125;7.66999998063511;768;100 mA
41.8270288943969;-0.699798583984375;-0.0360321044921875;7.67999998060986;769;100 mA
41.8370288943717;-0.699798583984375;-0.0359954833984375;7.68999998058462;770;100 mA
41.8470288943464;-0.69970703125;-0.0360382080078125;7.69999998055937;771;100 mA
41.8570288943212;-0.69976806640625;-0.036053466796875;7.70999998053412;772;100 mA
41.8670288942959;-0.69976806640625;-0.03604736328125;7.71999998050887;773;100 mA
41.8770288942707;-0.699737548828125;-0.0360626220703125;7.72999998048363;774;100 mA
41.8870288942454;-0.69976806640625;-0.036114501953125;7.73999998045838;775;100 mA
41.8970288942202;-0.69970703125;-0.036151123046875;7.74999998043313;776;100 mA
41.9070288941949;-0.699737548828125;-0.0361572265625;7.75999998040788;777;100 mA
41.9170288941697;-0.699798583984375;-0.0361968994140625;7.76999998038264;778;100 mA
41.9270288941444;-0.699737548828125;-0.0361846923828125;7.77999998035739;779;100 mA
41.9370288941192;-0.69976806640625;-0.0361541748046875;7.78999998033214;780;100 mA
41.9470288940939;-0.699737548828125;-0.03614501953125;7.79999998030689;781;100 mA
41.9570288940687;-0.69970703125;-0.03612060546875;7.80999998028165;782;100 mA
41.9670288940434;-0.69976806640625;-0.03612060546875;7.8199999802564;783;100 mA
41.9770288940182;-0.69976806640625;-0.036083984375;7.82999998023115;784;100 mA
41.9870288939929;-0.69970703125;-0.036041259765625;7.8399999802059;785;100 mA
41.9970288939677;-0.699737548828125;-0.036004638671875;7.84999998018066;786;100 mA
42.0070288939424;-0.69976806640625;-0.03597412109375;7.85999998015541;787;100 mA
42.0170288939172;-0.69976806640625;-0.0359619140625;7.86999998013016;788;100 mA
42.027028893892;-0.69976806640625;-0.03592529296875;7.87999998010491;789;100 mA
42.0370288938667;-0.69976806640625;-0.0359710693359375;7.88999998007966;790;100 mA
42.0470288938415;-0.699798583984375;-0.0359405517578125;7.89999998005442;791;100 mA
42.0570288938162;-0.699737548828125;-0.03599853515625;7.90999998002917;792;100 mA
42.067028893791;-0.699798583984375;-0.0360015869140625;7.91999998000392;793;100 mA
42.0770288937657;-0.699737548828125;-0.0359619140625;7.92999997997867;794;100 mA
42.0870288937405;-0.69976806640625;-0.0359375;7.93999997995343;795;100 mA
42.0970288937152;-0.69976806640625;-0.03590087890625;7.94999997992818;796;100 mA
42.10702889369;-0.699737548828125;-0.03590087890625;7.95999997990293;797;100 mA
42.1170288936647;-0.69976806640625;-0.035931396484375;7.96999997987768;798;100 mA
42.1270288936395;-0.69976806640625;-0.03597412109375;7.97999997985244;799;100 mA
42.1370288936142;-0.699737548828125;-0.0360260009765625;7.98999997982719;800;100 mA
42.147028893589;-0.699737548828125;-0.0360565185546875;7.99999997980194;801;100 mA
42.1570288935637;-0.69976806640625;-0.0360595703125;8.00999997977669;802;100 mA
42.1670288935385;-0.699798583984375;-0.0360931396484375;8.01999997975145;803;100 mA
42.1770288935132;-0.699737548828125;-0.036053466796875;8.0299999797262;804;100 mA
42.187028893488;-0.699737548828125;-0.036041259765625;8.03999997970095;805;100 mA
42.1970288934627;-0.69970703125;-0.0360321044921875;8.0499999796757;806;100 mA
42.2070288934375;-0.699798583984375;-0.0359832763671875;8.05999997965046;807;100 mA
42.2170288934122;-0.69970703125;-0.035919189453125;8.06999997962521;808;100 mA
42.227028893387;-0.69976806640625;-0.035845947265625;8.07999997959996;809;100 mA
42.2370288933618;-0.699798583984375;-0.035784912109375;8.08999997957471;810;100 mA
42.2470288933365;-0.699676513671875;-0.035772705078125;8.09999997954947;811;100 mA
42.2570288933113;-0.69976806640625;-0.0357391357421875;8.10999997952422;812;100 mA
42.267028893286;-0.69976806640625;-0.035699462890625;8.11999997949897;813;100 mA
42.2770288932608;-0.69976806640625;-0.0356597900390625;8.12999997947372;814;100 mA
42.2870288932355;-0.69976806640625;-0.0356170654296875;8.13999997944848;815;100 mA
42.2970288932103;-0.69970703125;-0.0357147216796875;8.14999997942323;816;100 mA
42.307028893185;-0.69976806640625;-0.0357696533203125;8.15999997939798;817;100 mA
42.3170288931598;-0.69976806640625;-0.0358184814453125;8.16999997937273;818;100 mA
42.3270288931345;-0.69976806640625;-0.035791015625;8.17999997934749;819;100 mA
42.3370288931093;-0.69976806640625;-0.0357421875;8.18999997932224;820;100 mA
42.347028893084;-0.69970703125;-0.035772705078125;8.19999997929699;821;100 mA
42.3570288930588;-0.69976806640625;-0.035797119140625;8.20999997927174;822;100 mA
42.3670288930335;-0.69970703125;-0.0358123779296875;8.2199999792465;823;100 mA
42.3770288930083;-0.69976806640625;-0.035821533203125;8.22999997922125;824;100 mA
42.387028892983;-0.699676513671875;-0.03582763671875;8.239999979196;825;100 mA
42.3970288929578;-0.699737548828125;-0.0358245849609375;8.24999997917075;826;100 mA
42.4070288929325;-0.699798583984375;-0.0358642578125;8.2599999791455;827;100 mA
42.4170288929073;-0.69970703125;-0.035858154296875;8.26999997912026;828;100 mA
42.427028892882;-0.69976806640625;-0.035882568359375;8.27999997909501;829;100 mA
42.4370288928568;-0.69976806640625;-0.0358642578125;8.28999997906976;830;100 mA
42.4470288928316;-0.699737548828125;-0.035833740234375;8.29999997904451;831;100 mA
42.4570288928063;-0.69976806640625;-0.035760498046875;8.30999997901927;832;100 mA
42.4670288927811;-0.69976806640625;-0.03572998046875;8.31999997899402;833;100 mA
42.4770288927558;-0.699798583984375;-0.0356719970703125;8.32999997896877;834;100 mA
42.4870288927306;-0.69976806640625;-0.03563232421875;8.33999997894352;835;100 mA
42.4970288927053;-0.699737548828125;-0.0356170654296875;8.34999997891828;836;100 mA
42.5070288926801;-0.69976806640625;-0.035601806640625;8.35999997889303;837;100 mA
42.5170288926548;-0.69976806640625;-0.035552978515625;8.36999997886778;838;100 mA
42.5270288926296;-0.699737548828125;-0.0355010986328125;8.37999997884253;839;100 mA
42.5370288926043;-0.69970703125;-0.0355194091796875;8.38999997881729;840;100 mA
42.5470288925791;-0.69976806640625;-0.0355865478515625;8.39999997879204;841;100 mA
42.5570288925538;-0.69976806640625;-0.0355377197265625;8.40999997876679;842;100 mA
42.5670288925286;-0.69970703125;-0.035552978515625;8.41999997874154;843;100 mA
42.5770288925033;-0.69976806640625;-0.035546875;8.4299999787163;844;100 mA
42.5870288924781;-0.699798583984375;-0.0355865478515625;8.43999997869105;845;100 mA
42.5970288924528;-0.69976806640625;-0.03564453125;8.4499999786658;846;100 mA
42.6070288924276;-0.69976806640625;-0.03565673828125;8.45999997864055;847;100 mA
42.6170288924023;-0.69976806640625;-0.03568115234375;8.46999997861531;848;100 mA
42.6270288923771;-0.69976806640625;-0.0357421875;8.47999997859006;849;100 mA
42.6370288923519;-0.69976806640625;-0.0357635498046875;8.48999997856481;850;100 mA
42.6470288923266;-0.69976806640625;-0.035791015625;8.49999997853956;851;100 mA
42.6570288923014;-0.699798583984375;-0.0357696533203125;8.50999997851432;852;100 mA
42.6670288922761;-0.69970703125;-0.0358062744140625;8.51999997848907;853;100 mA
42.6770288922509;-0.699737548828125;-0.035760498046875;8.52999997846382;854;100 mA
42.6870288922256;-0.699737548828125;-0.035736083984375;8.53999997843857;855;100 mA
42.6970288922004;-0.69970703125;-0.0356964111328125;8.54999997841333;856;100 mA
42.7070288921751;-0.699798583984375;-0.035693359375;8.55999997838808;857;100 mA
42.7170288921499;-0.69976806640625;-0.0356689453125;8.56999997836283;858;100 mA
42.7270288921246;-0.69970703125;-0.0356597900390625;8.57999997833758;859;100 mA
42.7370288920994;-0.69976806640625;-0.035662841796875;8.58999997831233;860;100 mA
42.7470288920741;-0.699737548828125;-0.035638427734375;8.59999997828709;861;100 mA
42.7570288920489;-0.69970703125;-0.0356597900390625;8.60999997826184;862;100 mA
42.7670288920236;-0.69976806640625;-0.0357269287109375;8.61999997823659;863;100 mA
42.7770288919984;-0.69976806640625;-0.0357696533203125;8.62999997821134;864;100 mA
42.7870288919731;-0.69976806640625;-0.0358489990234375;8.6399999781861;865;100 mA
42.7970288919479;-0.69976806640625;-0.03577880859375;8.64999997816085;866;100 mA
42.8070288919226;-0.69976806640625;-0.0357666015625;8.6599999781356;867;100 mA
42.8170288918974;-0.699737548828125;-0.0357452392578125;8.66999997811035;868;100 mA
42.8270288918721;-0.69970703125;-0.035760498046875;8.67999997808511;869;100 mA
42.8370288918469;-0.699798583984375;-0.035809326171875;8.68999997805986;870;100 mA
42.8470288918217;-0.699737548828125;-0.035809326171875;8.69999997803461;871;100 mA
42.8570288917964;-0.699737548828125;-0.0358001708984375;8.70999997800936;872;100 mA
42.8670288917712;-0.69976806640625;-0.0358428955078125;8.71999997798412;873;100 mA
42.8770288917459;-0.699737548828125;-0.035888671875;8.72999997795887;874;100 mA
42.8870288917207;-0.69976806640625;-0.0359161376953125;8.73999997793362;875;100 mA
42.8970288916954;-0.699737548828125;-0.035894775390625;8.74999997790837;876;100 mA
42.9070288916702;-0.699798583984375;-0.0359527587890625;8.75999997788313;877;100 mA
42.9170288916449;-0.699737548828125;-0.0359405517578125;8.76999997785788;878;100 mA
42.9270288916197;-0.699737548828125;-0.03592529296875;8.77999997783263;879;100 mA
42.9370288915944;-0.699798583984375;-0.035888671875;8.78999997780738;880;100 mA
42.9470288915692;-0.699737548828125;-0.0358642578125;8.79999997778214;881;100 mA
42.9570288915439;-0.699737548828125;-0.0358428955078125;8.80999997775689;882;100 mA
42.9670288915187;-0.699798583984375;-0.0358367919921875;8.81999997773164;883;100 mA
42.9770288914934;-0.699737548828125;-0.0358306884765625;8.82999997770639;884;100 mA
42.9870288914682;-0.69970703125;-0.035833740234375;8.83999997768115;885;100 mA
42.9970288914429;-0.699737548828125;-0.03585205078125;8.8499999776559;886;100 mA
43.0070288914177;-0.699737548828125;-0.0358367919921875;8.85999997763065;887;100 mA
43.0170288913924;-0.69976806640625;-0.0359130859375;8.8699999776054;888;100 mA
43.0270288913672;-0.699737548828125;-0.036004638671875;8.87999997758016;889;100 mA
43.0370288913419;-0.699798583984375;-0.0360443115234375;8.88999997755491;890;100 mA
43.0470288913167;-0.699737548828125;-0.036077880859375;8.89999997752966;891;100 mA
43.0570288912915;-0.69976806640625;-0.0360565185546875;8.90999997750441;892;100 mA
43.0670288912662;-0.699737548828125;-0.0360198974609375;8.91999997747916;893;100 mA
43.077028891241;-0.699798583984375;-0.0360321044921875;8.92999997745392;894;100 mA
43.0870288912157;-0.699798583984375;-0.0360870361328125;8.93999997742867;895;100 mA
43.0970288911905;-0.69976806640625;-0.036138916015625;8.94999997740342;896;100 mA
43.1070288911652;-0.69964599609375;-0.0361663818359375;8.95999997737817;897;100 mA
43.11702889114;-0.69976806640625;-0.036212158203125;8.96999997735293;898;100 mA
43.1270288911147;-0.699676513671875;-0.0361785888671875;8.97999997732768;899;100 mA
43.1370288910895;-0.699798583984375;-0.036163330078125;8.98999997730243;900;100 mA
43.1470288910642;-0.699737548828125;-0.0361785888671875;8.99999997727718;901;100 mA
43.157028891039;-0.699737548828125;-0.0361572265625;9.00999997725194;902;100 mA
43.1670288910137;-0.699737548828125;-0.036151123046875;9.01999997722669;903;100 mA
43.1770288909885;-0.69976806640625;-0.0361083984375;9.02999997720144;904;100 mA
43.1870288909632;-0.69976806640625;-0.036077880859375;9.03999997717619;905;100 mA
43.197028890938;-0.699737548828125;-0.0360504150390625;9.04999997715095;906;100 mA
43.2070288909127;-0.69976806640625;-0.036016845703125;9.0599999771257;907;100 mA
43.2170288908875;-0.699798583984375;-0.0360076904296875;9.06999997710045;908;100 mA
43.2270288908622;-0.69976806640625;-0.035986328125;9.0799999770752;909;100 mA
43.237028890837;-0.699798583984375;-0.036004638671875;9.08999997704996;910;100 mA
43.2470288908117;-0.69976806640625;-0.035943603515625;9.09999997702471;911;100 mA
43.2570288907865;-0.69976806640625;-0.0359710693359375;9.10999997699946;912;100 mA
43.2670288907613;-0.699737548828125;-0.0360076904296875;9.11999997697421;913;100 mA
43.277028890736;-0.69970703125;-0.036004638671875;9.12999997694897;914;100 mA
43.2870288907108;-0.69970703125;-0.0360076904296875;9.13999997692372;915;100 mA
43.2970288906855;-0.69976806640625;-0.0359771728515625;9.14999997689847;916;100 mA
43.3070288906603;-0.69970703125;-0.03594970703125;9.15999997687322;917;100 mA
43.317028890635;-0.69976806640625;-0.0359649658203125;9.16999997684798;918;100 mA
43.3270288906098;-0.699737548828125;-0.03599853515625;9.17999997682273;919;100 mA
43.3370288905845;-0.69976806640625;-0.03603515625;9.18999997679748;920;100 mA
43.3470288905593;-0.6998291015625;-0.03607177734375;9.19999997677223;921;100 mA
43.357028890534;-0.699798583984375;-0.0360870361328125;9.20999997674699;922;100 mA
43.3670288905088;-0.699798583984375;-0.036114501953125;9.21999997672174;923;100 mA
43.3770288904835;-0.69976806640625;-0.0360870361328125;9.22999997669649;924;100 mA
43.3870288904583;-0.69976806640625;-0.0360931396484375;9.23999997667124;925;100 mA
43.397028890433;-0.699676513671875;-0.0360931396484375;9.249999976646;926;100 mA
43.4070288904078;-0.69976806640625;-0.0360504150390625;9.25999997662075;927;100 mA
43.4170288903825;-0.69970703125;-0.0359954833984375;9.2699999765955;928;100 mA
43.4270288903573;-0.699798583984375;-0.0359405517578125;9.27999997657025;929;100 mA
43.437028890332;-0.699737548828125;-0.0358978271484375;9.289999976545;930;100 mA
43.4470288903068;-0.699798583984375;-0.035894775390625;9.29999997651976;931;100 mA
43.4570288902815;-0.69976806640625;-0.0358673095703125;9.30999997649451;932;100 mA
43.4670288902563;-0.699798583984375;-0.0358428955078125;9.31999997646926;933;100 mA
43.4770288902311;-0.699676513671875;-0.03582763671875;9.32999997644401;934;100 mA
43.4870288902058;-0.69976806640625;-0.03582763671875;9.33999997641877;935;100 mA
43.4970288901806;-0.699737548828125;-0.035906982421875;9.34999997639352;936;100 mA
43.5070288901553;-0.69976806640625;-0.035943603515625;9.35999997636827;937;100 mA
43.5170288901301;-0.69976806640625;-0.0359405517578125;9.36999997634302;938;100 mA
43.5270288901048;-0.69970703125;-0.0358856201171875;9.37999997631778;939;100 mA
43.5370288900796;-0.699798583984375;-0.035809326171875;9.38999997629253;940;100 mA
43.5470288900543;-0.69976806640625;-0.0358001708984375;9.39999997626728;941;100 mA
43.5570288900291;-0.69970703125;-0.0358184814453125;9.40999997624203;942;100 mA
43.5670288900038;-0.699737548828125;-0.0358367919921875;9.41999997621679;943;100 mA
43.5770288899786;-0.6998291015625;-0.03585205078125;9.42999997619154;944;100 mA
43.5870288899533;-0.69970703125;-0.0358367919921875;9.43999997616629;945;100 mA
43.5970288899281;-0.6998291015625;-0.0358428955078125;9.44999997614104;946;100 mA
43.6070288899028;-0.699737548828125;-0.0358795166015625;9.4599999761158;947;100 mA
43.6170288898776;-0.699798583984375;-0.0358734130859375;9.46999997609055;948;100 mA
43.6270288898523;-0.699737548828125;-0.03590087890625;9.4799999760653;949;100 mA
43.6370288898271;-0.69976806640625;-0.035888671875;9.48999997604005;950;100 mA
43.6470288898018;-0.69976806640625;-0.0358642578125;9.49999997601481;951;100 mA
43.6570288897766;-0.699737548828125;-0.0358245849609375;9.50999997598956;952;100 mA
43.6670288897514;-0.699737548828125;-0.0357879638671875;9.51999997596431;953;100 mA
43.6770288897261;-0.699798583984375;-0.035736083984375;9.52999997593906;954;100 mA
43.6870288897009;-0.699737548828125;-0.0357086181640625;9.53999997591382;955;100 mA
43.6970288896756;-0.699737548828125;-0.035711669921875;9.54999997588857;956;100 mA
43.7070288896504;-0.699676513671875;-0.035675048828125;9.55999997586332;957;100 mA
43.7170288896251;-0.69976806640625;-0.0356414794921875;9.56999997583807;958;100 mA
43.7270288895999;-0.699737548828125;-0.0355712890625;9.57999997581283;959;100 mA
43.7370288895746;-0.69976806640625;-0.0355987548828125;9.58999997578758;960;100 mA
43.7470288895494;-0.69976806640625;-0.0356689453125;9.59999997576233;961;100 mA
43.7570288895241;-0.699676513671875;-0.03565673828125;9.60999997573708;962;100 mA
43.7670288894989;-0.699737548828125;-0.0356964111328125;9.61999997571183;963;100 mA
43.7770288894736;-0.69970703125;-0.0356781005859375;9.62999997568659;964;100 mA
43.7870288894484;-0.699798583984375;-0.0356689453125;9.63999997566134;965;100 mA
43.7970288894231;-0.69970703125;-0.0356842041015625;9.64999997563609;966;100 mA
43.8070288893979;-0.69970703125;-0.035675048828125;9.65999997561084;967;100 mA
43.8170288893726;-0.69976806640625;-0.03568115234375;9.6699999755856;968;100 mA
43.8270288893474;-0.699798583984375;-0.0357025146484375;9.67999997556035;969;100 mA
43.8370288893221;-0.699737548828125;-0.0357330322265625;9.6899999755351;970;100 mA
43.8470288892969;-0.699737548828125;-0.035748291015625;9.69999997550985;971;100 mA
43.8570288892716;-0.69976806640625;-0.035736083984375;9.70999997548461;972;100 mA
43.8670288892464;-0.699737548828125;-0.0357513427734375;9.71999997545936;973;100 mA
43.8770288892212;-0.699798583984375;-0.035699462890625;9.72999997543411;974;100 mA
43.8870288891959;-0.69976806640625;-0.0357025146484375;9.73999997540886;975;100 mA
43.8970288891707;-0.69976806640625;-0.0356689453125;9.74999997538362;976;100 mA
43.9070288891454;-0.6998291015625;-0.0356658935546875;9.75999997535837;977;100 mA
43.9170288891202;-0.699737548828125;-0.035650634765625;9.76999997533312;978;100 mA
43.9270288890949;-0.69976806640625;-0.0356231689453125;9.77999997530787;979;100 mA
43.9370288890697;-0.699798583984375;-0.0356201171875;9.78999997528263;980;100 mA
43.9470288890444;-0.69970703125;-0.035577392578125;9.79999997525738;981;100 mA
43.9570288890192;-0.69970703125;-0.03558349609375;9.80999997523213;982;100 mA
43.9670288889939;-0.699737548828125;-0.03560791015625;9.81999997520688;983;100 mA
43.9770288889687;-0.69976806640625;-0.03563232421875;9.82999997518164;984;100 mA
43.9870288889434;-0.699798583984375;-0.0356597900390625;9.83999997515639;985;100 mA
43.9970288889182;-0.699737548828125;-0.035565185546875;9.84999997513114;986;100 mA
44.0070288888929;-0.69976806640625;-0.035528564453125;9.85999997510589;987;100 mA
44.0170288888677;-0.699737548828125;-0.0355255126953125;9.86999997508065;988;100 mA
44.0270288888424;-0.699737548828125;-0.035491943359375;9.8799999750554;989;100 mA
44.0370288888172;-0.69976806640625;-0.0354949951171875;9.88999997503015;990;100 mA
44.0470288887919;-0.699737548828125;-0.0354644775390625;9.8999999750049;991;100 mA
44.0570288887667;-0.69970703125;-0.03544921875;9.90999997497966;992;100 mA
44.0670288887414;-0.69976806640625;-0.035491943359375;9.91999997495441;993;100 mA
44.0770288887162;-0.69976806640625;-0.0355255126953125;9.92999997492916;994;100 mA
44.087028888691;-0.699798583984375;-0.035528564453125;9.93999997490391;995;100 mA
44.0970288886657;-0.69970703125;-0.0355010986328125;9.94999997487866;996;100 mA
44.1070288886405;-0.69976806640625;-0.0355316162109375;9.95999997485342;997;100 mA
44.1170288886152;-0.699737548828125;-0.0355133056640625;9.96999997482817;998;100 mA
44.12702888859;-0.69976806640625;-0.0355010986328125;9.97999997480292;999;100 mA
44.1370288885647;-0.69970703125;-0.035455322265625;9.98999997477767;1000;100 mA
