Time (s);WE(1).Potential (V);WE(1).Current (A);Corrected time (s);Index;Current range
74.7733878112153;-0.8001708984375;-0.333984375;0;1;100 mA
74.7833878111901;-0.799560546875;-0.24615478515625;0.00999999997475243;2;100 mA
74.7933878111648;-0.79986572265625;-0.204345703125;0.0199999999495049;3;100 mA
74.8033878111396;-0.8001708984375;-0.178466796875;0.0299999999242573;4;100 mA
74.8133878111144;-0.79986572265625;-0.160308837890625;0.0399999998990097;5;100 mA
74.8233878110891;-0.799560546875;-0.14666748046875;0.0499999998737621;6;100 mA
74.8333878110639;-0.799560546875;-0.135894775390625;0.0599999998485146;7;100 mA
74.8433878110386;-0.79986572265625;-0.12725830078125;0.069999999823267;8;100 mA
74.8533878110134;-0.799560546875;-0.119964599609375;0.0799999997980194;9;100 mA
74.8633878109881;-0.79986572265625;-0.113800048828125;0.0899999997727718;10;100 mA
74.8733878109629;-0.799560546875;-0.108489990234375;0.0999999997475243;11;100 mA
74.8833878109376;-0.799560546875;-0.103912353515625;0.109999999722277;12;100 mA
74.8933878109124;-0.79986572265625;-0.099853515625;0.119999999697029;13;100 mA
74.9033878108871;-0.799560546875;-0.09619140625;0.129999999671782;14;100 mA
74.9133878108619;-0.79986572265625;-0.09295654296875;0.139999999646534;15;100 mA
74.9233878108366;-0.79925537109375;-0.090057373046875;0.149999999621286;16;100 mA
74.9333878108114;-0.79925537109375;-0.087371826171875;0.159999999596039;17;100 mA
74.9433878107861;-0.79925537109375;-0.084930419921875;0.169999999570791;18;100 mA
74.9533878107609;-0.799560546875;-0.08270263671875;0.179999999545544;19;100 mA
74.9633878107356;-0.799560546875;-0.08062744140625;0.189999999520296;20;100 mA
74.9733878107104;-0.799560546875;-0.078765869140625;0.199999999495049;21;100 mA
74.9833878106851;-0.799560546875;-0.0770263671875;0.209999999469801;22;100 mA
74.9933878106599;-0.79925537109375;-0.075408935546875;0.219999999444553;23;100 mA
75.0033878106346;-0.79986572265625;-0.0738525390625;0.229999999419306;24;100 mA
75.0133878106094;-0.799560546875;-0.072479248046875;0.239999999394058;25;100 mA
75.0233878105842;-0.79986572265625;-0.071075439453125;0.249999999368811;26;100 mA
75.0333878105589;-0.79925537109375;-0.069854736328125;0.259999999343563;27;100 mA
75.0433878105337;-0.7989501953125;-0.068695068359375;0.269999999318316;28;100 mA
75.0533878105084;-0.79986572265625;-0.067535400390625;0.279999999293068;29;100 mA
75.0633878104832;-0.79925537109375;-0.0665283203125;0.28999999926782;30;100 mA
75.0733878104579;-0.79925537109375;-0.06549072265625;0.299999999242573;31;100 mA
75.0833878104327;-0.799560546875;-0.0645751953125;0.309999999217325;32;100 mA
75.0933878104074;-0.799560546875;-0.063751220703125;0.319999999192078;33;100 mA
75.1033878103822;-0.799560546875;-0.0628662109375;0.32999999916683;34;100 mA
75.1133878103569;-0.79986572265625;-0.062103271484375;0.339999999141583;35;100 mA
75.1233878103317;-0.7989501953125;-0.06134033203125;0.349999999116335;36;100 mA
75.1333878103064;-0.79925537109375;-0.060638427734375;0.359999999091087;37;100 mA
75.1433878102812;-0.799560546875;-0.05999755859375;0.36999999906584;38;100 mA
75.1533878102559;-0.79925537109375;-0.05938720703125;0.379999999040592;39;100 mA
75.1633878102307;-0.79925537109375;-0.058868408203125;0.389999999015345;40;100 mA
75.1733878102054;-0.79986572265625;-0.058258056640625;0.399999998990097;41;100 mA
75.1833878101802;-0.79925537109375;-0.05767822265625;0.40999999896485;42;100 mA
75.1933878101549;-0.799560546875;-0.05712890625;0.419999998939602;43;100 mA
75.2033878101297;-0.799560546875;-0.056610107421875;0.429999998914354;44;100 mA
75.2133878101045;-0.79986572265625;-0.05609130859375;0.439999998889107;45;100 mA
75.2233878100792;-0.799560546875;-0.05560302734375;0.449999998863859;46;100 mA
75.233387810054;-0.799560546875;-0.05511474609375;0.459999998838612;47;100 mA
75.2433878100287;-0.799560546875;-0.05462646484375;0.469999998813364;48;100 mA
75.2533878100035;-0.799560546875;-0.054229736328125;0.479999998788116;49;100 mA
75.2633878099782;-0.799560546875;-0.053802490234375;0.489999998762869;50;100 mA
75.273387809953;-0.799560546875;-0.05340576171875;0.499999998737621;51;100 mA
75.2833878099277;-0.79986572265625;-0.053070068359375;0.509999998712374;52;100 mA
75.2933878099025;-0.799560546875;-0.05267333984375;0.519999998687126;53;100 mA
75.3033878098772;-0.79986572265625;-0.052337646484375;0.529999998661879;54;100 mA
75.313387809852;-0.799560546875;-0.051971435546875;0.539999998636631;55;100 mA
75.3233878098267;-0.799560546875;-0.051605224609375;0.549999998611383;56;100 mA
75.3333878098015;-0.799560546875;-0.051300048828125;0.559999998586136;57;100 mA
75.3433878097762;-0.79925537109375;-0.050994873046875;0.569999998560888;58;100 mA
75.353387809751;-0.79925537109375;-0.050750732421875;0.579999998535641;59;100 mA
75.3633878097257;-0.79986572265625;-0.050445556640625;0.589999998510393;60;100 mA
75.3733878097005;-0.79986572265625;-0.0501708984375;0.599999998485146;61;100 mA
75.3833878096752;-0.79925537109375;-0.049896240234375;0.609999998459898;62;100 mA
75.39338780965;-0.79925537109375;-0.0497344970703125;0.61999999843465;63;100 mA
75.4033878096247;-0.7989501953125;-0.049530029296875;0.629999998409403;64;100 mA
75.4133878095995;-0.79986572265625;-0.0492645263671875;0.639999998384155;65;100 mA
75.4233878095743;-0.79925537109375;-0.049017333984375;0.649999998358908;66;100 mA
75.433387809549;-0.79925537109375;-0.0488067626953125;0.65999999833366;67;100 mA
75.4433878095238;-0.7989501953125;-0.0486083984375;0.669999998308413;68;100 mA
75.4533878094985;-0.7989501953125;-0.0483917236328125;0.679999998283165;69;100 mA
75.4633878094733;-0.79986572265625;-0.0481781005859375;0.689999998257917;70;100 mA
75.473387809448;-0.799560546875;-0.0480255126953125;0.69999999823267;71;100 mA
75.4833878094228;-0.79925537109375;-0.04779052734375;0.709999998207422;72;100 mA
75.4933878093975;-0.79925537109375;-0.0476318359375;0.719999998182175;73;100 mA
75.5033878093723;-0.799560546875;-0.0474395751953125;0.729999998156927;74;100 mA
75.513387809347;-0.79925537109375;-0.047216796875;0.73999999813168;75;100 mA
75.5233878093218;-0.799560546875;-0.047064208984375;0.749999998106432;76;100 mA
75.5333878092965;-0.79986572265625;-0.0468597412109375;0.759999998081184;77;100 mA
75.5433878092713;-0.7989501953125;-0.0467193603515625;0.769999998055937;78;100 mA
75.553387809246;-0.79925537109375;-0.04664306640625;0.779999998030689;79;100 mA
75.5633878092208;-0.7989501953125;-0.0464599609375;0.789999998005442;80;100 mA
75.5733878091955;-0.79986572265625;-0.04635009765625;0.799999997980194;81;100 mA
75.5833878091703;-0.799560546875;-0.046136474609375;0.809999997954947;82;100 mA
75.593387809145;-0.79925537109375;-0.0460052490234375;0.819999997929699;83;100 mA
75.6033878091198;-0.79925537109375;-0.0458831787109375;0.829999997904451;84;100 mA
75.6133878090945;-0.799560546875;-0.045849609375;0.839999997879204;85;100 mA
75.6233878090693;-0.799560546875;-0.0458038330078125;0.849999997853956;86;100 mA
75.6333878090441;-0.799560546875;-0.0458465576171875;0.859999997828709;87;100 mA
75.6433878090188;-0.79925537109375;-0.0457275390625;0.869999997803461;88;100 mA
75.6533878089936;-0.799560546875;-0.04554443359375;0.879999997778214;89;100 mA
75.6633878089683;-0.79986572265625;-0.0453521728515625;0.889999997752966;90;100 mA
75.6733878089431;-0.79925537109375;-0.0452056884765625;0.899999997727718;91;100 mA
75.6833878089178;-0.799560546875;-0.04498291015625;0.909999997702471;92;100 mA
75.6933878088926;-0.799560546875;-0.044830322265625;0.919999997677223;93;100 mA
75.7033878088673;-0.79925537109375;-0.0446868896484375;0.929999997651976;94;100 mA
75.7133878088421;-0.799560546875;-0.0446197509765625;0.939999997626728;95;100 mA
75.7233878088168;-0.79925537109375;-0.0445343017578125;0.949999997601481;96;100 mA
75.7333878087916;-0.79925537109375;-0.0444671630859375;0.959999997576233;97;100 mA
75.7433878087663;-0.79925537109375;-0.0443939208984375;0.969999997550985;98;100 mA
75.7533878087411;-0.79925537109375;-0.0442718505859375;0.979999997525738;99;100 mA
75.7633878087158;-0.79925537109375;-0.0442138671875;0.98999999750049;100;100 mA
75.7733878086906;-0.79986572265625;-0.044122314453125;0.999999997475243;101;100 mA
75.7833878086653;-0.799560546875;-0.0440399169921875;1.00999999745;102;100 mA
75.7933878086401;-0.79986572265625;-0.0439544677734375;1.01999999742475;103;100 mA
75.8033878086148;-0.799560546875;-0.043804931640625;1.0299999973995;104;100 mA
75.8133878085896;-0.799560546875;-0.0437744140625;1.03999999737425;105;100 mA
75.8233878085643;-0.799560546875;-0.043634033203125;1.049999997349;106;100 mA
75.8333878085391;-0.79925537109375;-0.0435943603515625;1.05999999732376;107;100 mA
75.8433878085139;-0.79925537109375;-0.0435546875;1.06999999729851;108;100 mA
75.8533878084886;-0.79925537109375;-0.0435028076171875;1.07999999727326;109;100 mA
75.8633878084634;-0.799560546875;-0.0434906005859375;1.08999999724801;110;100 mA
75.8733878084381;-0.79925537109375;-0.0435333251953125;1.09999999722277;111;100 mA
75.8833878084129;-0.79986572265625;-0.04351806640625;1.10999999719752;112;100 mA
75.8933878083876;-0.799560546875;-0.043511962890625;1.11999999717227;113;100 mA
75.9033878083624;-0.7989501953125;-0.0433868408203125;1.12999999714702;114;100 mA
75.9133878083371;-0.79986572265625;-0.0433258056640625;1.13999999712178;115;100 mA
75.9233878083119;-0.7989501953125;-0.0432037353515625;1.14999999709653;116;100 mA
75.9333878082866;-0.799560546875;-0.043133544921875;1.15999999707128;117;100 mA
75.9433878082614;-0.799560546875;-0.04306640625;1.16999999704603;118;100 mA
75.9533878082361;-0.79986572265625;-0.0429931640625;1.17999999702079;119;100 mA
75.9633878082109;-0.79986572265625;-0.0429351806640625;1.18999999699554;120;100 mA
75.9733878081856;-0.799560546875;-0.042822265625;1.19999999697029;121;100 mA
75.9833878081604;-0.799560546875;-0.0427825927734375;1.20999999694504;122;100 mA
75.9933878081351;-0.799560546875;-0.042681884765625;1.2199999969198;123;100 mA
76.0033878081099;-0.79925537109375;-0.0426788330078125;1.22999999689455;124;100 mA
76.0133878080846;-0.79925537109375;-0.0426116943359375;1.2399999968693;125;100 mA
76.0233878080594;-0.799560546875;-0.042547607421875;1.24999999684405;126;100 mA
76.0333878080341;-0.79925537109375;-0.0424652099609375;1.25999999681881;127;100 mA
76.0433878080089;-0.8001708984375;-0.04239501953125;1.26999999679356;128;100 mA
76.0533878079837;-0.79986572265625;-0.04234619140625;1.27999999676831;129;100 mA
76.0633878079584;-0.79986572265625;-0.0422637939453125;1.28999999674306;130;100 mA
76.0733878079332;-0.799560546875;-0.042230224609375;1.29999999671782;131;100 mA
76.0833878079079;-0.79986572265625;-0.0422271728515625;1.30999999669257;132;100 mA
76.0933878078827;-0.799560546875;-0.0421905517578125;1.31999999666732;133;100 mA
76.1033878078574;-0.799560546875;-0.04212646484375;1.32999999664207;134;100 mA
76.1133878078322;-0.799560546875;-0.04217529296875;1.33999999661683;135;100 mA
76.1233878078069;-0.799560546875;-0.04217529296875;1.34999999659158;136;100 mA
76.1333878077817;-0.79986572265625;-0.042083740234375;1.35999999656633;137;100 mA
76.1433878077564;-0.799560546875;-0.0419891357421875;1.36999999654108;138;100 mA
76.1533878077312;-0.79864501953125;-0.0419158935546875;1.37999999651583;139;100 mA
76.1633878077059;-0.799560546875;-0.041845703125;1.38999999649059;140;100 mA
76.1733878076807;-0.799560546875;-0.0418121337890625;1.39999999646534;141;100 mA
76.1833878076554;-0.799560546875;-0.041796875;1.40999999644009;142;100 mA
76.1933878076302;-0.79986572265625;-0.0418121337890625;1.41999999641484;143;100 mA
76.2033878076049;-0.8001708984375;-0.0417510986328125;1.4299999963896;144;100 mA
76.2133878075797;-0.799560546875;-0.0417572021484375;1.43999999636435;145;100 mA
76.2233878075544;-0.79925537109375;-0.04171142578125;1.4499999963391;146;100 mA
76.2333878075292;-0.79925537109375;-0.0416168212890625;1.45999999631385;147;100 mA
76.243387807504;-0.799560546875;-0.041650390625;1.46999999628861;148;100 mA
76.2533878074787;-0.79925537109375;-0.0415435791015625;1.47999999626336;149;100 mA
76.2633878074535;-0.79986572265625;-0.0414947509765625;1.48999999623811;150;100 mA
76.2733878074282;-0.799560546875;-0.0413909912109375;1.49999999621286;151;100 mA
76.283387807403;-0.799560546875;-0.04134521484375;1.50999999618762;152;100 mA
76.2933878073777;-0.79925537109375;-0.0413482666015625;1.51999999616237;153;100 mA
76.3033878073525;-0.799560546875;-0.041290283203125;1.52999999613712;154;100 mA
76.3133878073272;-0.79925537109375;-0.0412567138671875;1.53999999611187;155;100 mA
76.323387807302;-0.799560546875;-0.0411956787109375;1.54999999608663;156;100 mA
76.3333878072767;-0.79986572265625;-0.041192626953125;1.55999999606138;157;100 mA
76.3433878072515;-0.7989501953125;-0.0412689208984375;1.56999999603613;158;100 mA
76.3533878072262;-0.799560546875;-0.0413238525390625;1.57999999601088;159;100 mA
76.363387807201;-0.799560546875;-0.0414276123046875;1.58999999598564;160;100 mA
76.3733878071757;-0.799560546875;-0.04130859375;1.59999999596039;161;100 mA
76.3833878071505;-0.79925537109375;-0.041241455078125;1.60999999593514;162;100 mA
76.3933878071252;-0.79925537109375;-0.041168212890625;1.61999999590989;163;100 mA
76.4033878071;-0.79986572265625;-0.0410858154296875;1.62999999588465;164;100 mA
76.4133878070747;-0.7989501953125;-0.0410064697265625;1.6399999958594;165;100 mA
76.4233878070495;-0.799560546875;-0.0409454345703125;1.64999999583415;166;100 mA
76.4333878070242;-0.79925537109375;-0.040869140625;1.6599999958089;167;100 mA
76.443387806999;-0.79986572265625;-0.0407989501953125;1.66999999578366;168;100 mA
76.4533878069738;-0.79925537109375;-0.0408203125;1.67999999575841;169;100 mA
76.4633878069485;-0.79925537109375;-0.0407989501953125;1.68999999573316;170;100 mA
76.4733878069233;-0.79925537109375;-0.040740966796875;1.69999999570791;171;100 mA
76.483387806898;-0.79925537109375;-0.0407745361328125;1.70999999568267;172;100 mA
76.4933878068728;-0.79986572265625;-0.0407440185546875;1.71999999565742;173;100 mA
76.5033878068475;-0.79925537109375;-0.0407135009765625;1.72999999563217;174;100 mA
76.5133878068223;-0.799560546875;-0.040673828125;1.73999999560692;175;100 mA
76.523387806797;-0.79864501953125;-0.04063720703125;1.74999999558167;176;100 mA
76.5333878067718;-0.79925537109375;-0.0407196044921875;1.75999999555643;177;100 mA
76.5433878067465;-0.79925537109375;-0.0405792236328125;1.76999999553118;178;100 mA
76.5533878067213;-0.799560546875;-0.0405792236328125;1.77999999550593;179;100 mA
76.563387806696;-0.799560546875;-0.04056396484375;1.78999999548068;180;100 mA
76.5733878066708;-0.79925537109375;-0.0405517578125;1.79999999545544;181;100 mA
76.5833878066455;-0.79986572265625;-0.040570068359375;1.80999999543019;182;100 mA
76.5933878066203;-0.799560546875;-0.040679931640625;1.81999999540494;183;100 mA
76.603387806595;-0.79925537109375;-0.040716552734375;1.82999999537969;184;100 mA
76.6133878065698;-0.79925537109375;-0.0406524658203125;1.83999999535445;185;100 mA
76.6233878065445;-0.79925537109375;-0.0405975341796875;1.8499999953292;186;100 mA
76.6333878065193;-0.79925537109375;-0.0405914306640625;1.85999999530395;187;100 mA
76.643387806494;-0.799560546875;-0.0405303955078125;1.8699999952787;188;100 mA
76.6533878064688;-0.799560546875;-0.0404937744140625;1.87999999525346;189;100 mA
76.6633878064436;-0.79925537109375;-0.0404052734375;1.88999999522821;190;100 mA
76.6733878064183;-0.799560546875;-0.04039306640625;1.89999999520296;191;100 mA
76.6833878063931;-0.799560546875;-0.0403472900390625;1.90999999517771;192;100 mA
76.6933878063678;-0.799560546875;-0.04033203125;1.91999999515247;193;100 mA
76.7033878063426;-0.799560546875;-0.04029541015625;1.92999999512722;194;100 mA
76.7133878063173;-0.79925537109375;-0.040167236328125;1.93999999510197;195;100 mA
76.7233878062921;-0.799560546875;-0.0401336669921875;1.94999999507672;196;100 mA
76.7333878062668;-0.799560546875;-0.0401123046875;1.95999999505148;197;100 mA
76.7433878062416;-0.7989501953125;-0.040069580078125;1.96999999502623;198;100 mA
76.7533878062163;-0.799560546875;-0.040081787109375;1.97999999500098;199;100 mA
76.7633878061911;-0.799560546875;-0.0400360107421875;1.98999999497573;200;100 mA
76.7733878061658;-0.799560546875;-0.04005126953125;1.99999999495049;201;100 mA
76.7833878061406;-0.7989501953125;-0.040045166015625;2.00999999492524;202;100 mA
76.7933878061153;-0.79925537109375;-0.04002685546875;2.01999999489999;203;100 mA
76.8033878060901;-0.79986572265625;-0.040045166015625;2.02999999487474;204;100 mA
76.8133878060648;-0.79925537109375;-0.0401580810546875;2.0399999948495;205;100 mA
76.8233878060396;-0.79925537109375;-0.0401611328125;2.04999999482425;206;100 mA
76.8333878060143;-0.799560546875;-0.0403289794921875;2.059999994799;207;100 mA
76.8433878059891;-0.79925537109375;-0.040277099609375;2.06999999477375;208;100 mA
76.8533878059638;-0.79986572265625;-0.0402679443359375;2.0799999947485;209;100 mA
76.8633878059386;-0.79925537109375;-0.0401641845703125;2.08999999472326;210;100 mA
76.8733878059134;-0.79986572265625;-0.0401336669921875;2.09999999469801;211;100 mA
76.8833878058881;-0.799560546875;-0.04005126953125;2.10999999467276;212;100 mA
76.8933878058629;-0.799560546875;-0.039990234375;2.11999999464751;213;100 mA
76.9033878058376;-0.7989501953125;-0.0399505615234375;2.12999999462227;214;100 mA
76.9133878058124;-0.79986572265625;-0.039959716796875;2.13999999459702;215;100 mA
76.9233878057871;-0.79925537109375;-0.0399505615234375;2.14999999457177;216;100 mA
76.9333878057619;-0.8001708984375;-0.039935302734375;2.15999999454652;217;100 mA
76.9433878057366;-0.799560546875;-0.0399322509765625;2.16999999452128;218;100 mA
76.9533878057114;-0.799560546875;-0.03984375;2.17999999449603;219;100 mA
76.9633878056861;-0.799560546875;-0.039862060546875;2.18999999447078;220;100 mA
76.9733878056609;-0.79986572265625;-0.0398345947265625;2.19999999444553;221;100 mA
76.9833878056356;-0.799560546875;-0.0397857666015625;2.20999999442029;222;100 mA
76.9933878056104;-0.7989501953125;-0.039739990234375;2.21999999439504;223;100 mA
77.0033878055851;-0.79925537109375;-0.0396575927734375;2.22999999436979;224;100 mA
77.0133878055599;-0.79925537109375;-0.039666748046875;2.23999999434454;225;100 mA
77.0233878055346;-0.8001708984375;-0.039617919921875;2.2499999943193;226;100 mA
77.0333878055094;-0.799560546875;-0.0396331787109375;2.25999999429405;227;100 mA
77.0433878054841;-0.8001708984375;-0.039654541015625;2.2699999942688;228;100 mA
77.0533878054589;-0.8001708984375;-0.0396484375;2.27999999424355;229;100 mA
77.0633878054336;-0.799560546875;-0.0397125244140625;2.28999999421831;230;100 mA
77.0733878054084;-0.7989501953125;-0.039813232421875;2.29999999419306;231;100 mA
77.0833878053832;-0.7989501953125;-0.0398529052734375;2.30999999416781;232;100 mA
77.0933878053579;-0.799560546875;-0.039874267578125;2.31999999414256;233;100 mA
77.1033878053327;-0.799560546875;-0.0397613525390625;2.32999999411732;234;100 mA
77.1133878053074;-0.79925537109375;-0.0397186279296875;2.33999999409207;235;100 mA
77.1233878052822;-0.7989501953125;-0.039630126953125;2.34999999406682;236;100 mA
77.1333878052569;-0.79925537109375;-0.039581298828125;2.35999999404157;237;100 mA
77.1433878052317;-0.799560546875;-0.0395538330078125;2.36999999401633;238;100 mA
77.1533878052064;-0.7989501953125;-0.0395172119140625;2.37999999399108;239;100 mA
77.1633878051812;-0.79925537109375;-0.039483642578125;2.38999999396583;240;100 mA
77.1733878051559;-0.7989501953125;-0.03941650390625;2.39999999394058;241;100 mA
77.1833878051307;-0.79925537109375;-0.0394287109375;2.40999999391533;242;100 mA
77.1933878051054;-0.799560546875;-0.0393402099609375;2.41999999389009;243;100 mA
77.2033878050802;-0.79925537109375;-0.039398193359375;2.42999999386484;244;100 mA
77.2133878050549;-0.79986572265625;-0.0393768310546875;2.43999999383959;245;100 mA
77.2233878050297;-0.79986572265625;-0.03936767578125;2.44999999381434;246;100 mA
77.2333878050044;-0.8001708984375;-0.0393585205078125;2.4599999937891;247;100 mA
77.2433878049792;-0.799560546875;-0.0393341064453125;2.46999999376385;248;100 mA
77.2533878049539;-0.799560546875;-0.0393798828125;2.4799999937386;249;100 mA
77.2633878049287;-0.79986572265625;-0.0393585205078125;2.48999999371335;250;100 mA
77.2733878049035;-0.799560546875;-0.039398193359375;2.49999999368811;251;100 mA
77.2833878048782;-0.79925537109375;-0.0394561767578125;2.50999999366286;252;100 mA
77.293387804853;-0.79925537109375;-0.039434814453125;2.51999999363761;253;100 mA
77.3033878048277;-0.79925537109375;-0.0394683837890625;2.52999999361236;254;100 mA
77.3133878048025;-0.799560546875;-0.0396026611328125;2.53999999358712;255;100 mA
77.3233878047772;-0.79925537109375;-0.0396575927734375;2.54999999356187;256;100 mA
77.333387804752;-0.799560546875;-0.039599609375;2.55999999353662;257;100 mA
77.3433878047267;-0.79925537109375;-0.0395233154296875;2.56999999351137;258;100 mA
77.3533878047015;-0.799560546875;-0.03948974609375;2.57999999348613;259;100 mA
77.3633878046762;-0.799560546875;-0.039453125;2.58999999346088;260;100 mA
77.373387804651;-0.79925537109375;-0.0394683837890625;2.59999999343563;261;100 mA
77.3833878046257;-0.79925537109375;-0.039471435546875;2.60999999341038;262;100 mA
77.3933878046005;-0.79925537109375;-0.0394927978515625;2.61999999338514;263;100 mA
77.4033878045752;-0.79986572265625;-0.039453125;2.62999999335989;264;100 mA
77.41338780455;-0.79925537109375;-0.03946533203125;2.63999999333464;265;100 mA
77.4233878045247;-0.79925537109375;-0.03946533203125;2.64999999330939;266;100 mA
77.4333878044995;-0.79986572265625;-0.03935546875;2.65999999328415;267;100 mA
77.4433878044742;-0.799560546875;-0.0393951416015625;2.6699999932589;268;100 mA
77.453387804449;-0.799560546875;-0.0393280029296875;2.67999999323365;269;100 mA
77.4633878044237;-0.79925537109375;-0.03929443359375;2.6899999932084;270;100 mA
77.4733878043985;-0.7989501953125;-0.039263916015625;2.69999999318316;271;100 mA
77.4833878043733;-0.799560546875;-0.0392303466796875;2.70999999315791;272;100 mA
77.493387804348;-0.79986572265625;-0.0392852783203125;2.71999999313266;273;100 mA
77.5033878043228;-0.799560546875;-0.0392669677734375;2.72999999310741;274;100 mA
77.5133878042975;-0.799560546875;-0.0393218994140625;2.73999999308217;275;100 mA
77.5233878042723;-0.799560546875;-0.039337158203125;2.74999999305692;276;100 mA
77.533387804247;-0.79986572265625;-0.0393951416015625;2.75999999303167;277;100 mA
77.5433878042218;-0.79925537109375;-0.0395263671875;2.76999999300642;278;100 mA
77.5533878041965;-0.799560546875;-0.0396270751953125;2.77999999298117;279;100 mA
77.5633878041713;-0.79925537109375;-0.039764404296875;2.78999999295593;280;100 mA
77.573387804146;-0.79986572265625;-0.0396728515625;2.79999999293068;281;100 mA
77.5833878041208;-0.7989501953125;-0.039630126953125;2.80999999290543;282;100 mA
77.5933878040955;-0.79925537109375;-0.0395782470703125;2.81999999288018;283;100 mA
77.6033878040703;-0.799560546875;-0.0395050048828125;2.82999999285494;284;100 mA
77.613387804045;-0.799560546875;-0.0394805908203125;2.83999999282969;285;100 mA
77.6233878040198;-0.799560546875;-0.0394378662109375;2.84999999280444;286;100 mA
77.6333878039945;-0.799560546875;-0.0393768310546875;2.85999999277919;287;100 mA
77.6433878039693;-0.799560546875;-0.0393463134765625;2.86999999275395;288;100 mA
77.653387803944;-0.79925537109375;-0.0393646240234375;2.8799999927287;289;100 mA
77.6633878039188;-0.7989501953125;-0.03935546875;2.88999999270345;290;100 mA
77.6733878038935;-0.799560546875;-0.0392913818359375;2.8999999926782;291;100 mA
77.6833878038683;-0.799560546875;-0.03934326171875;2.90999999265296;292;100 mA
77.6933878038431;-0.79986572265625;-0.039324951171875;2.91999999262771;293;100 mA
77.7033878038178;-0.799560546875;-0.0393157958984375;2.92999999260246;294;100 mA
77.7133878037926;-0.8001708984375;-0.0393402099609375;2.93999999257721;295;100 mA
77.7233878037673;-0.799560546875;-0.0392974853515625;2.94999999255197;296;100 mA
77.7333878037421;-0.79925537109375;-0.0393218994140625;2.95999999252672;297;100 mA
77.7433878037168;-0.7989501953125;-0.0393463134765625;2.96999999250147;298;100 mA
77.7533878036916;-0.799560546875;-0.0393951416015625;2.97999999247622;299;100 mA
77.7633878036663;-0.799560546875;-0.0394073486328125;2.98999999245098;300;100 mA
77.7733878036411;-0.799560546875;-0.03944091796875;2.99999999242573;301;100 mA
77.7833878036158;-0.79986572265625;-0.039508056640625;3.00999999240048;302;100 mA
77.7933878035906;-0.79925537109375;-0.03966064453125;3.01999999237523;303;100 mA
77.8033878035653;-0.79986572265625;-0.0397308349609375;3.02999999234999;304;100 mA
77.8133878035401;-0.79925537109375;-0.0397369384765625;3.03999999232474;305;100 mA
77.8233878035148;-0.79925537109375;-0.0397308349609375;3.04999999229949;306;100 mA
77.8333878034896;-0.79925537109375;-0.0397491455078125;3.05999999227424;307;100 mA
77.8433878034643;-0.799560546875;-0.0396881103515625;3.069999992249;308;100 mA
77.8533878034391;-0.79925537109375;-0.039642333984375;3.07999999222375;309;100 mA
77.8633878034138;-0.79925537109375;-0.039593505859375;3.0899999921985;310;100 mA
77.8733878033886;-0.799560546875;-0.0395751953125;3.09999999217325;311;100 mA
77.8833878033633;-0.79986572265625;-0.039544677734375;3.109999992148;312;100 mA
77.8933878033381;-0.79925537109375;-0.03951416015625;3.11999999212276;313;100 mA
77.9033878033129;-0.7989501953125;-0.039483642578125;3.12999999209751;314;100 mA
77.9133878032876;-0.7989501953125;-0.0393463134765625;3.13999999207226;315;100 mA
77.9233878032624;-0.799560546875;-0.039312744140625;3.14999999204701;316;100 mA
77.9333878032371;-0.79925537109375;-0.0392913818359375;3.15999999202177;317;100 mA
77.9433878032119;-0.799560546875;-0.0392486572265625;3.16999999199652;318;100 mA
77.9533878031866;-0.799560546875;-0.039251708984375;3.17999999197127;319;100 mA
77.9633878031614;-0.79925537109375;-0.0392242431640625;3.18999999194602;320;100 mA
77.9733878031361;-0.79925537109375;-0.03922119140625;3.19999999192078;321;100 mA
77.9833878031109;-0.799560546875;-0.03922119140625;3.20999999189553;322;100 mA
77.9933878030856;-0.79925537109375;-0.039208984375;3.21999999187028;323;100 mA
78.0033878030604;-0.799560546875;-0.0392547607421875;3.22999999184503;324;100 mA
78.0133878030351;-0.799560546875;-0.039361572265625;3.23999999181979;325;100 mA
78.0233878030099;-0.799560546875;-0.0393798828125;3.24999999179454;326;100 mA
78.0333878029846;-0.8001708984375;-0.0395294189453125;3.25999999176929;327;100 mA
78.0433878029594;-0.799560546875;-0.039483642578125;3.26999999174404;328;100 mA
78.0533878029341;-0.799560546875;-0.039483642578125;3.2799999917188;329;100 mA
78.0633878029089;-0.79925537109375;-0.03941650390625;3.28999999169355;330;100 mA
78.0733878028836;-0.79986572265625;-0.039385986328125;3.2999999916683;331;100 mA
78.0833878028584;-0.79925537109375;-0.0393341064453125;3.30999999164305;332;100 mA
78.0933878028331;-0.79925537109375;-0.0392974853515625;3.31999999161781;333;100 mA
78.1033878028079;-0.79925537109375;-0.039288330078125;3.32999999159256;334;100 mA
78.1133878027827;-0.799560546875;-0.039288330078125;3.33999999156731;335;100 mA
78.1233878027574;-0.7989501953125;-0.0392852783203125;3.34999999154206;336;100 mA
78.1333878027322;-0.799560546875;-0.0392669677734375;3.35999999151682;337;100 mA
78.1433878027069;-0.79925537109375;-0.0392791748046875;3.36999999149157;338;100 mA
78.1533878026817;-0.799560546875;-0.0391845703125;3.37999999146632;339;100 mA
78.1633878026564;-0.79986572265625;-0.0392120361328125;3.38999999144107;340;100 mA
78.1733878026312;-0.8001708984375;-0.039190673828125;3.39999999141583;341;100 mA
78.1833878026059;-0.7989501953125;-0.0391387939453125;3.40999999139058;342;100 mA
78.1933878025807;-0.799560546875;-0.0390899658203125;3.41999999136533;343;100 mA
78.2033878025554;-0.79986572265625;-0.0390167236328125;3.42999999134008;344;100 mA
78.2133878025302;-0.79925537109375;-0.0390106201171875;3.43999999131483;345;100 mA
78.2233878025049;-0.79925537109375;-0.0389862060546875;3.44999999128959;346;100 mA
78.2333878024797;-0.79925537109375;-0.038995361328125;3.45999999126434;347;100 mA
78.2433878024544;-0.79925537109375;-0.039013671875;3.46999999123909;348;100 mA
78.2533878024292;-0.8001708984375;-0.0390228271484375;3.47999999121384;349;100 mA
78.2633878024039;-0.799560546875;-0.0390960693359375;3.4899999911886;350;100 mA
78.2733878023787;-0.79925537109375;-0.039227294921875;3.49999999116335;351;100 mA
78.2833878023534;-0.799560546875;-0.039300537109375;3.5099999911381;352;100 mA
78.2933878023282;-0.799560546875;-0.03931884765625;3.51999999111285;353;100 mA
78.303387802303;-0.799560546875;-0.0392303466796875;3.52999999108761;354;100 mA
78.3133878022777;-0.79925537109375;-0.039178466796875;3.53999999106236;355;100 mA
78.3233878022525;-0.799560546875;-0.0391143798828125;3.54999999103711;356;100 mA
78.3333878022272;-0.799560546875;-0.0390625;3.55999999101186;357;100 mA
78.343387802202;-0.8001708984375;-0.0390472412109375;3.56999999098662;358;100 mA
78.3533878021767;-0.79925537109375;-0.0390106201171875;3.57999999096137;359;100 mA
78.3633878021515;-0.8001708984375;-0.038958740234375;3.58999999093612;360;100 mA
78.3733878021262;-0.79925537109375;-0.038897705078125;3.59999999091087;361;100 mA
78.383387802101;-0.79986572265625;-0.0388763427734375;3.60999999088563;362;100 mA
78.3933878020757;-0.799560546875;-0.0387725830078125;3.61999999086038;363;100 mA
78.4033878020505;-0.7989501953125;-0.0387908935546875;3.62999999083513;364;100 mA
78.4133878020252;-0.79986572265625;-0.038720703125;3.63999999080988;365;100 mA
78.423387802;-0.799560546875;-0.0386627197265625;3.64999999078464;366;100 mA
78.4333878019747;-0.799560546875;-0.0385833740234375;3.65999999075939;367;100 mA
78.4433878019495;-0.8001708984375;-0.038519287109375;3.66999999073414;368;100 mA
78.4533878019242;-0.799560546875;-0.0385223388671875;3.67999999070889;369;100 mA
78.463387801899;-0.79925537109375;-0.0384735107421875;3.68999999068365;370;100 mA
78.4733878018737;-0.79925537109375;-0.0384857177734375;3.6999999906584;371;100 mA
78.4833878018485;-0.79925537109375;-0.03848876953125;3.70999999063315;372;100 mA
78.4933878018232;-0.8001708984375;-0.0384368896484375;3.7199999906079;373;100 mA
78.503387801798;-0.799560546875;-0.0384246826171875;3.72999999058266;374;100 mA
78.5133878017728;-0.79925537109375;-0.03853759765625;3.73999999055741;375;100 mA
78.5233878017475;-0.799560546875;-0.03858642578125;3.74999999053216;376;100 mA
78.5333878017223;-0.79925537109375;-0.0385498046875;3.75999999050691;377;100 mA
78.543387801697;-0.79925537109375;-0.038507080078125;3.76999999048167;378;100 mA
78.5533878016718;-0.79925537109375;-0.0385223388671875;3.77999999045642;379;100 mA
78.5633878016465;-0.79986572265625;-0.038531494140625;3.78999999043117;380;100 mA
78.5733878016213;-0.79986572265625;-0.038543701171875;3.79999999040592;381;100 mA
78.583387801596;-0.799560546875;-0.0385467529296875;3.80999999038067;382;100 mA
78.5933878015708;-0.7989501953125;-0.03853759765625;3.81999999035543;383;100 mA
78.6033878015455;-0.799560546875;-0.038519287109375;3.82999999033018;384;100 mA
78.6133878015203;-0.799560546875;-0.03851318359375;3.83999999030493;385;100 mA
78.623387801495;-0.799560546875;-0.038494873046875;3.84999999027968;386;100 mA
78.6333878014698;-0.79925537109375;-0.0383880615234375;3.85999999025444;387;100 mA
78.6433878014445;-0.79925537109375;-0.038397216796875;3.86999999022919;388;100 mA
78.6533878014193;-0.799560546875;-0.0383056640625;3.87999999020394;389;100 mA
78.663387801394;-0.7989501953125;-0.038214111328125;3.88999999017869;390;100 mA
78.6733878013688;-0.799560546875;-0.0381439208984375;3.89999999015345;391;100 mA
78.6833878013435;-0.79925537109375;-0.03804931640625;3.9099999901282;392;100 mA
78.6933878013183;-0.79925537109375;-0.03802490234375;3.91999999010295;393;100 mA
78.703387801293;-0.799560546875;-0.03795166015625;3.9299999900777;394;100 mA
78.7133878012678;-0.79925537109375;-0.037921142578125;3.93999999005246;395;100 mA
78.7233878012426;-0.799560546875;-0.037890625;3.94999999002721;396;100 mA
78.7333878012173;-0.799560546875;-0.037890625;3.95999999000196;397;100 mA
78.7433878011921;-0.79925537109375;-0.03797607421875;3.96999998997671;398;100 mA
78.7533878011668;-0.799560546875;-0.038043212890625;3.97999998995147;399;100 mA
78.7633878011416;-0.79925537109375;-0.0380950927734375;3.98999998992622;400;100 mA
78.7733878011163;-0.79925537109375;-0.0379913330078125;3.99999998990097;401;100 mA
78.7833878010911;-0.79925537109375;-0.037921142578125;4.00999998987572;402;100 mA
78.7933878010658;-0.80047607421875;-0.037890625;4.01999998985048;403;100 mA
78.8033878010406;-0.799560546875;-0.037847900390625;4.02999998982523;404;100 mA
78.8133878010153;-0.79925537109375;-0.0378265380859375;4.03999998979998;405;100 mA
78.8233878009901;-0.7989501953125;-0.0377838134765625;4.04999998977473;406;100 mA
78.8333878009648;-0.79925537109375;-0.0377593994140625;4.05999998974949;407;100 mA
78.8433878009396;-0.79925537109375;-0.0377410888671875;4.06999998972424;408;100 mA
78.8533878009143;-0.799560546875;-0.0377532958984375;4.07999998969899;409;100 mA
78.8633878008891;-0.799560546875;-0.0377471923828125;4.08999998967374;410;100 mA
78.8733878008638;-0.799560546875;-0.0376708984375;4.0999999896485;411;100 mA
78.8833878008386;-0.799560546875;-0.0376800537109375;4.10999998962325;412;100 mA
78.8933878008133;-0.79925537109375;-0.037640380859375;4.119999989598;413;100 mA
78.9033878007881;-0.799560546875;-0.0375701904296875;4.12999998957275;414;100 mA
78.9133878007628;-0.79925537109375;-0.0375518798828125;4.1399999895475;415;100 mA
78.9233878007376;-0.799560546875;-0.037457275390625;4.14999998952226;416;100 mA
78.9333878007124;-0.799560546875;-0.0374237060546875;4.15999998949701;417;100 mA
78.9433878006871;-0.799560546875;-0.0374176025390625;4.16999998947176;418;100 mA
78.9533878006619;-0.799560546875;-0.03736572265625;4.17999998944651;419;100 mA
78.9633878006366;-0.799560546875;-0.037353515625;4.18999998942127;420;100 mA
78.9733878006114;-0.79925537109375;-0.0373291015625;4.19999998939602;421;100 mA
78.9833878005861;-0.7989501953125;-0.03734130859375;4.20999998937077;422;100 mA
78.9933878005609;-0.79925537109375;-0.0374481201171875;4.21999998934552;423;100 mA
79.0033878005356;-0.799560546875;-0.037469482421875;4.22999998932028;424;100 mA
79.0133878005104;-0.79986572265625;-0.0374969482421875;4.23999998929503;425;100 mA
79.0233878004851;-0.79925537109375;-0.0374847412109375;4.24999998926978;426;100 mA
79.0333878004599;-0.799560546875;-0.0374786376953125;4.25999998924453;427;100 mA
79.0433878004346;-0.799560546875;-0.037432861328125;4.26999998921929;428;100 mA
79.0533878004094;-0.79986572265625;-0.0373992919921875;4.27999998919404;429;100 mA
79.0633878003841;-0.8001708984375;-0.03736572265625;4.28999998916879;430;100 mA
79.0733878003589;-0.799560546875;-0.0373626708984375;4.29999998914354;431;100 mA
79.0833878003336;-0.799560546875;-0.03734130859375;4.3099999891183;432;100 mA
79.0933878003084;-0.79925537109375;-0.0373260498046875;4.31999998909305;433;100 mA
79.1033878002831;-0.79986572265625;-0.0372894287109375;4.3299999890678;434;100 mA
79.1133878002579;-0.79925537109375;-0.0371826171875;4.33999998904255;435;100 mA
79.1233878002326;-0.799560546875;-0.0371673583984375;4.34999998901731;436;100 mA
79.1333878002074;-0.799560546875;-0.037139892578125;4.35999998899206;437;100 mA
79.1433878001822;-0.79925537109375;-0.037091064453125;4.36999998896681;438;100 mA
79.1533878001569;-0.799560546875;-0.0370513916015625;4.37999998894156;439;100 mA
79.1633878001317;-0.799560546875;-0.037005615234375;4.38999998891632;440;100 mA
79.1733878001064;-0.7989501953125;-0.0369720458984375;4.39999998889107;441;100 mA
79.1833878000812;-0.79925537109375;-0.0369384765625;4.40999998886582;442;100 mA
79.1933878000559;-0.799560546875;-0.036932373046875;4.41999998884057;443;100 mA
79.2033878000307;-0.79925537109375;-0.03695068359375;4.42999998881533;444;100 mA
79.2133878000054;-0.79986572265625;-0.0370025634765625;4.43999998879008;445;100 mA
79.2233877999802;-0.79925537109375;-0.036981201171875;4.44999998876483;446;100 mA
79.2333877999549;-0.799560546875;-0.037066650390625;4.45999998873958;447;100 mA
79.2433877999297;-0.79925537109375;-0.03702392578125;4.46999998871433;448;100 mA
79.2533877999044;-0.799560546875;-0.0369781494140625;4.47999998868909;449;100 mA
79.2633877998792;-0.79925537109375;-0.036932373046875;4.48999998866384;450;100 mA
79.2733877998539;-0.79925537109375;-0.0368865966796875;4.49999998863859;451;100 mA
79.2833877998287;-0.7989501953125;-0.036834716796875;4.50999998861334;452;100 mA
79.2933877998034;-0.79925537109375;-0.036822509765625;4.5199999885881;453;100 mA
79.3033877997782;-0.79925537109375;-0.0368377685546875;4.52999998856285;454;100 mA
79.3133877997529;-0.799560546875;-0.036859130859375;4.5399999885376;455;100 mA
79.3233877997277;-0.79986572265625;-0.0368682861328125;4.54999998851235;456;100 mA
79.3333877997025;-0.799560546875;-0.0368896484375;4.55999998848711;457;100 mA
79.3433877996772;-0.79925537109375;-0.0369171142578125;4.56999998846186;458;100 mA
79.353387799652;-0.79986572265625;-0.036846923828125;4.57999998843661;459;100 mA
79.3633877996267;-0.79986572265625;-0.0368804931640625;4.58999998841136;460;100 mA
79.3733877996015;-0.79925537109375;-0.0368560791015625;4.59999998838612;461;100 mA
79.3833877995762;-0.79986572265625;-0.0368377685546875;4.60999998836087;462;100 mA
79.393387799551;-0.8001708984375;-0.0367828369140625;4.61999998833562;463;100 mA
79.4033877995257;-0.79986572265625;-0.0367279052734375;4.62999998831037;464;100 mA
79.4133877995005;-0.8001708984375;-0.0367034912109375;4.63999998828513;465;100 mA
79.4233877994752;-0.79986572265625;-0.0366943359375;4.64999998825988;466;100 mA
79.43338779945;-0.79986572265625;-0.0367034912109375;4.65999998823463;467;100 mA
79.4433877994247;-0.8001708984375;-0.036700439453125;4.66999998820938;468;100 mA
79.4533877993995;-0.8001708984375;-0.03670654296875;4.67999998818414;469;100 mA
79.4633877993742;-0.799560546875;-0.0367523193359375;4.68999998815889;470;100 mA
79.473387799349;-0.79864501953125;-0.036871337890625;4.69999998813364;471;100 mA
79.4833877993237;-0.799560546875;-0.03695068359375;4.70999998810839;472;100 mA
79.4933877992985;-0.799560546875;-0.0369293212890625;4.71999998808315;473;100 mA
79.5033877992732;-0.799560546875;-0.0368621826171875;4.7299999880579;474;100 mA
79.513387799248;-0.79986572265625;-0.0368133544921875;4.73999998803265;475;100 mA
79.5233877992227;-0.79864501953125;-0.0367584228515625;4.7499999880074;476;100 mA
79.5333877991975;-0.799560546875;-0.0367156982421875;4.75999998798216;477;100 mA
79.5433877991723;-0.79925537109375;-0.036724853515625;4.76999998795691;478;100 mA
79.553387799147;-0.799560546875;-0.0367218017578125;4.77999998793166;479;100 mA
79.5633877991218;-0.799560546875;-0.03668212890625;4.78999998790641;480;100 mA
79.5733877990965;-0.799560546875;-0.0367034912109375;4.79999998788116;481;100 mA
79.5833877990713;-0.79986572265625;-0.036737060546875;4.80999998785592;482;100 mA
79.593387799046;-0.7989501953125;-0.036724853515625;4.81999998783067;483;100 mA
79.6033877990208;-0.79925537109375;-0.036798095703125;4.82999998780542;484;100 mA
79.6133877989955;-0.799560546875;-0.0367889404296875;4.83999998778017;485;100 mA
79.6233877989703;-0.79925537109375;-0.0368011474609375;4.84999998775493;486;100 mA
79.633387798945;-0.79925537109375;-0.036785888671875;4.85999998772968;487;100 mA
79.6433877989198;-0.79925537109375;-0.03675537109375;4.86999998770443;488;100 mA
79.6533877988945;-0.799560546875;-0.0367950439453125;4.87999998767918;489;100 mA
79.6633877988693;-0.799560546875;-0.0367950439453125;4.88999998765394;490;100 mA
79.673387798844;-0.79925537109375;-0.03681640625;4.89999998762869;491;100 mA
79.6833877988188;-0.799560546875;-0.0368499755859375;4.90999998760344;492;100 mA
79.6933877987935;-0.79925537109375;-0.036871337890625;4.91999998757819;493;100 mA
79.7033877987683;-0.79925537109375;-0.0368865966796875;4.92999998755295;494;100 mA
79.713387798743;-0.799560546875;-0.03702392578125;4.9399999875277;495;100 mA
79.7233877987178;-0.799560546875;-0.03707275390625;4.94999998750245;496;100 mA
79.7333877986925;-0.799560546875;-0.037060546875;4.9599999874772;497;100 mA
79.7433877986673;-0.799560546875;-0.0370208740234375;4.96999998745196;498;100 mA
79.7533877986421;-0.79925537109375;-0.0370269775390625;4.97999998742671;499;100 mA
79.7633877986168;-0.79925537109375;-0.0370330810546875;4.98999998740146;500;100 mA
79.7733877985916;-0.799560546875;-0.037005615234375;4.99999998737621;501;100 mA
79.7833877985663;-0.799560546875;-0.037017822265625;5.00999998735097;502;100 mA
79.7933877985411;-0.799560546875;-0.036993408203125;5.01999998732572;503;100 mA
79.8033877985158;-0.79986572265625;-0.0369842529296875;5.02999998730047;504;100 mA
79.8133877984906;-0.799560546875;-0.0369964599609375;5.03999998727522;505;100 mA
79.8233877984653;-0.79986572265625;-0.0369598388671875;5.04999998724998;506;100 mA
79.8333877984401;-0.79986572265625;-0.03692626953125;5.05999998722473;507;100 mA
79.8433877984148;-0.79925537109375;-0.0369384765625;5.06999998719948;508;100 mA
79.8533877983896;-0.799560546875;-0.036883544921875;5.07999998717423;509;100 mA
79.8633877983643;-0.79925537109375;-0.0368682861328125;5.08999998714899;510;100 mA
79.8733877983391;-0.7989501953125;-0.036859130859375;5.09999998712374;511;100 mA
79.8833877983138;-0.799560546875;-0.0368560791015625;5.10999998709849;512;100 mA
79.8933877982886;-0.79925537109375;-0.0368988037109375;5.11999998707324;513;100 mA
79.9033877982633;-0.799560546875;-0.0369049072265625;5.129999987048;514;100 mA
79.9133877982381;-0.8001708984375;-0.0369384765625;5.13999998702275;515;100 mA
79.9233877982128;-0.79925537109375;-0.03695068359375;5.1499999869975;516;100 mA
79.9333877981876;-0.799560546875;-0.0370361328125;5.15999998697225;517;100 mA
79.9433877981623;-0.79986572265625;-0.0371185302734375;5.169999986947;518;100 mA
79.9533877981371;-0.7989501953125;-0.03724365234375;5.17999998692176;519;100 mA
79.9633877981119;-0.7989501953125;-0.0373077392578125;5.18999998689651;520;100 mA
79.9733877980866;-0.79925537109375;-0.0372802734375;5.19999998687126;521;100 mA
79.9833877980614;-0.79864501953125;-0.0372528076171875;5.20999998684601;522;100 mA
79.9933877980361;-0.79925537109375;-0.0372283935546875;5.21999998682077;523;100 mA
80.0033877980109;-0.8001708984375;-0.03719482421875;5.22999998679552;524;100 mA
80.0133877979856;-0.79986572265625;-0.0371795654296875;5.23999998677027;525;100 mA
80.0233877979604;-0.79925537109375;-0.0371307373046875;5.24999998674502;526;100 mA
80.0333877979351;-0.799560546875;-0.03712158203125;5.25999998671978;527;100 mA
80.0433877979099;-0.799560546875;-0.0371307373046875;5.26999998669453;528;100 mA
80.0533877978846;-0.7989501953125;-0.0371429443359375;5.27999998666928;529;100 mA
80.0633877978594;-0.79925537109375;-0.037152099609375;5.28999998664403;530;100 mA
80.0733877978341;-0.79986572265625;-0.0371185302734375;5.29999998661879;531;100 mA
80.0833877978089;-0.79925537109375;-0.0371307373046875;5.30999998659354;532;100 mA
80.0933877977836;-0.79925537109375;-0.037139892578125;5.31999998656829;533;100 mA
80.1033877977584;-0.79925537109375;-0.0370849609375;5.32999998654304;534;100 mA
80.1133877977331;-0.79925537109375;-0.0370941162109375;5.3399999865178;535;100 mA
80.1233877977079;-0.79925537109375;-0.037054443359375;5.34999998649255;536;100 mA
80.1333877976826;-0.799560546875;-0.037054443359375;5.3599999864673;537;100 mA
80.1433877976574;-0.799560546875;-0.0370758056640625;5.36999998644205;538;100 mA
80.1533877976321;-0.7989501953125;-0.0370574951171875;5.37999998641681;539;100 mA
80.1633877976069;-0.79925537109375;-0.037091064453125;5.38999998639156;540;100 mA
80.1733877975817;-0.799560546875;-0.037109375;5.39999998636631;541;100 mA
80.1833877975564;-0.799560546875;-0.0371612548828125;5.40999998634106;542;100 mA
80.1933877975312;-0.799560546875;-0.0373046875;5.41999998631582;543;100 mA
80.2033877975059;-0.79925537109375;-0.0373016357421875;5.42999998629057;544;100 mA
80.2133877974807;-0.79925537109375;-0.0373687744140625;5.43999998626532;545;100 mA
80.2233877974554;-0.7989501953125;-0.037353515625;5.44999998624007;546;100 mA
80.2333877974302;-0.8001708984375;-0.0373504638671875;5.45999998621483;547;100 mA
80.2433877974049;-0.79925537109375;-0.0373046875;5.46999998618958;548;100 mA
80.2533877973797;-0.799560546875;-0.03726806640625;5.47999998616433;549;100 mA
80.2633877973544;-0.79925537109375;-0.0372467041015625;5.48999998613908;550;100 mA
80.2733877973292;-0.79925537109375;-0.03724365234375;5.49999998611383;551;100 mA
80.2833877973039;-0.79986572265625;-0.0372467041015625;5.50999998608859;552;100 mA
80.2933877972787;-0.799560546875;-0.0372283935546875;5.51999998606334;553;100 mA
80.3033877972534;-0.79986572265625;-0.037200927734375;5.52999998603809;554;100 mA
80.3133877972282;-0.799560546875;-0.0371246337890625;5.53999998601284;555;100 mA
80.3233877972029;-0.799560546875;-0.0371429443359375;5.5499999859876;556;100 mA
80.3333877971777;-0.799560546875;-0.03714599609375;5.55999998596235;557;100 mA
80.3433877971524;-0.7989501953125;-0.0371337890625;5.5699999859371;558;100 mA
80.3533877971272;-0.799560546875;-0.03709716796875;5.57999998591185;559;100 mA
80.363387797102;-0.799560546875;-0.037078857421875;5.58999998588661;560;100 mA
80.3733877970767;-0.79986572265625;-0.0370849609375;5.59999998586136;561;100 mA
80.3833877970515;-0.79925537109375;-0.03707275390625;5.60999998583611;562;100 mA
80.3933877970262;-0.799560546875;-0.03707275390625;5.61999998581086;563;100 mA
80.403387797001;-0.799560546875;-0.0371337890625;5.62999998578562;564;100 mA
80.4133877969757;-0.79986572265625;-0.0371673583984375;5.63999998576037;565;100 mA
80.4233877969505;-0.799560546875;-0.0372039794921875;5.64999998573512;566;100 mA
80.4333877969252;-0.799560546875;-0.037298583984375;5.65999998570987;567;100 mA
80.4433877969;-0.799560546875;-0.0373291015625;5.66999998568463;568;100 mA
80.4533877968747;-0.79925537109375;-0.037286376953125;5.67999998565938;569;100 mA
80.4633877968495;-0.79986572265625;-0.0372467041015625;5.68999998563413;570;100 mA
80.4733877968242;-0.79925537109375;-0.037213134765625;5.69999998560888;571;100 mA
80.483387796799;-0.799560546875;-0.0371673583984375;5.70999998558364;572;100 mA
80.4933877967737;-0.79925537109375;-0.0371612548828125;5.71999998555839;573;100 mA
80.5033877967485;-0.799560546875;-0.037176513671875;5.72999998553314;574;100 mA
80.5133877967232;-0.79925537109375;-0.03719482421875;5.73999998550789;575;100 mA
80.523387796698;-0.799560546875;-0.037200927734375;5.74999998548265;576;100 mA
80.5333877966727;-0.79925537109375;-0.0372161865234375;5.7599999854574;577;100 mA
80.5433877966475;-0.799560546875;-0.03721923828125;5.76999998543215;578;100 mA
80.5533877966222;-0.79986572265625;-0.037164306640625;5.7799999854069;579;100 mA
80.563387796597;-0.79925537109375;-0.0371917724609375;5.78999998538166;580;100 mA
80.5733877965718;-0.799560546875;-0.0371551513671875;5.79999998535641;581;100 mA
80.5833877965465;-0.799560546875;-0.0371337890625;5.80999998533116;582;100 mA
80.5933877965213;-0.79925537109375;-0.0370758056640625;5.81999998530591;583;100 mA
80.603387796496;-0.79925537109375;-0.0370361328125;5.82999998528066;584;100 mA
80.6133877964708;-0.79925537109375;-0.037042236328125;5.83999998525542;585;100 mA
80.6233877964455;-0.799560546875;-0.0370452880859375;5.84999998523017;586;100 mA
80.6333877964203;-0.799560546875;-0.0370635986328125;5.85999998520492;587;100 mA
80.643387796395;-0.80047607421875;-0.0370574951171875;5.86999998517967;588;100 mA
80.6533877963698;-0.799560546875;-0.0370635986328125;5.87999998515443;589;100 mA
80.6633877963445;-0.79986572265625;-0.037139892578125;5.88999998512918;590;100 mA
80.6733877963193;-0.79925537109375;-0.037225341796875;5.89999998510393;591;100 mA
80.683387796294;-0.799560546875;-0.03731689453125;5.90999998507868;592;100 mA
80.6933877962688;-0.79925537109375;-0.0372772216796875;5.91999998505344;593;100 mA
80.7033877962435;-0.79986572265625;-0.03721923828125;5.92999998502819;594;100 mA
80.7133877962183;-0.799560546875;-0.0371795654296875;5.93999998500294;595;100 mA
80.723387796193;-0.79925537109375;-0.0371368408203125;5.94999998497769;596;100 mA
80.7333877961678;-0.79925537109375;-0.037103271484375;5.95999998495245;597;100 mA
80.7433877961425;-0.799560546875;-0.0370941162109375;5.9699999849272;598;100 mA
80.7533877961173;-0.79986572265625;-0.03707275390625;5.97999998490195;599;100 mA
80.763387796092;-0.79925537109375;-0.0369964599609375;5.9899999848767;600;100 mA
80.7733877960668;-0.799560546875;-0.0370208740234375;5.99999998485146;601;100 mA
80.7833877960416;-0.79986572265625;-0.03702392578125;6.00999998482621;602;100 mA
80.7933877960163;-0.79925537109375;-0.0370025634765625;6.01999998480096;603;100 mA
80.8033877959911;-0.799560546875;-0.0370513916015625;6.02999998477571;604;100 mA
80.8133877959658;-0.79925537109375;-0.0370208740234375;6.03999998475047;605;100 mA
80.8233877959406;-0.79925537109375;-0.037017822265625;6.04999998472522;606;100 mA
80.8333877959153;-0.79986572265625;-0.03699951171875;6.05999998469997;607;100 mA
80.8433877958901;-0.799560546875;-0.036956787109375;6.06999998467472;608;100 mA
80.8533877958648;-0.8001708984375;-0.036962890625;6.07999998464948;609;100 mA
80.8633877958396;-0.799560546875;-0.036956787109375;6.08999998462423;610;100 mA
80.8733877958143;-0.799560546875;-0.0369842529296875;6.09999998459898;611;100 mA
80.8833877957891;-0.8001708984375;-0.036968994140625;6.10999998457373;612;100 mA
80.8933877957638;-0.79925537109375;-0.037005615234375;6.11999998454849;613;100 mA
80.9033877957386;-0.79925537109375;-0.0370086669921875;6.12999998452324;614;100 mA
80.9133877957133;-0.79986572265625;-0.0371124267578125;6.13999998449799;615;100 mA
80.9233877956881;-0.799560546875;-0.037152099609375;6.14999998447274;616;100 mA
80.9333877956628;-0.799560546875;-0.0371063232421875;6.1599999844475;617;100 mA
80.9433877956376;-0.799560546875;-0.0370697021484375;6.16999998442225;618;100 mA
80.9533877956123;-0.79986572265625;-0.0370635986328125;6.179999984397;619;100 mA
80.9633877955871;-0.79986572265625;-0.0370574951171875;6.18999998437175;620;100 mA
80.9733877955618;-0.79925537109375;-0.037030029296875;6.1999999843465;621;100 mA
80.9833877955366;-0.799560546875;-0.0370330810546875;6.20999998432126;622;100 mA
80.9933877955114;-0.79986572265625;-0.0370361328125;6.21999998429601;623;100 mA
81.0033877954861;-0.79925537109375;-0.03701171875;6.22999998427076;624;100 mA
81.0133877954609;-0.79925537109375;-0.0370330810546875;6.23999998424551;625;100 mA
81.0233877954356;-0.7989501953125;-0.0369964599609375;6.24999998422027;626;100 mA
81.0333877954104;-0.79925537109375;-0.036944580078125;6.25999998419502;627;100 mA
81.0433877953851;-0.7989501953125;-0.03695068359375;6.26999998416977;628;100 mA
81.0533877953599;-0.79925537109375;-0.0368865966796875;6.27999998414452;629;100 mA
81.0633877953346;-0.79925537109375;-0.0368682861328125;6.28999998411928;630;100 mA
81.0733877953094;-0.799560546875;-0.0368560791015625;6.29999998409403;631;100 mA
81.0833877952841;-0.799560546875;-0.0368316650390625;6.30999998406878;632;100 mA
81.0933877952589;-0.7989501953125;-0.0368682861328125;6.31999998404353;633;100 mA
81.1033877952336;-0.799560546875;-0.0368438720703125;6.32999998401829;634;100 mA
81.1133877952084;-0.79925537109375;-0.0368560791015625;6.33999998399304;635;100 mA
81.1233877951831;-0.799560546875;-0.0368438720703125;6.34999998396779;636;100 mA
81.1333877951579;-0.79986572265625;-0.03690185546875;6.35999998394254;637;100 mA
81.1433877951326;-0.79986572265625;-0.0369384765625;6.3699999839173;638;100 mA
81.1533877951074;-0.799560546875;-0.0370269775390625;6.37999998389205;639;100 mA
81.1633877950821;-0.79925537109375;-0.0370361328125;6.3899999838668;640;100 mA
81.1733877950569;-0.799560546875;-0.0369720458984375;6.39999998384155;641;100 mA
81.1833877950316;-0.79925537109375;-0.03690185546875;6.40999998381631;642;100 mA
81.1933877950064;-0.79925537109375;-0.036859130859375;6.41999998379106;643;100 mA
81.2033877949812;-0.79925537109375;-0.036785888671875;6.42999998376581;644;100 mA
81.2133877949559;-0.799560546875;-0.0367401123046875;6.43999998374056;645;100 mA
81.2233877949307;-0.79925537109375;-0.036676025390625;6.44999998371532;646;100 mA
81.2333877949054;-0.799560546875;-0.0366546630859375;6.45999998369007;647;100 mA
81.2433877948802;-0.79925537109375;-0.0366546630859375;6.46999998366482;648;100 mA
81.2533877948549;-0.799560546875;-0.036663818359375;6.47999998363957;649;100 mA
81.2633877948297;-0.799560546875;-0.0366546630859375;6.48999998361433;650;100 mA
81.2733877948044;-0.799560546875;-0.036614990234375;6.49999998358908;651;100 mA
81.2833877947792;-0.799560546875;-0.0366058349609375;6.50999998356383;652;100 mA
81.2933877947539;-0.799560546875;-0.0366058349609375;6.51999998353858;653;100 mA
81.3033877947287;-0.799560546875;-0.036541748046875;6.52999998351333;654;100 mA
81.3133877947034;-0.79925537109375;-0.0365234375;6.53999998348809;655;100 mA
81.3233877946782;-0.799560546875;-0.0364715576171875;6.54999998346284;656;100 mA
81.3333877946529;-0.79986572265625;-0.0364715576171875;6.55999998343759;657;100 mA
81.3433877946277;-0.79925537109375;-0.0364715576171875;6.56999998341234;658;100 mA
81.3533877946024;-0.79925537109375;-0.036474609375;6.5799999833871;659;100 mA
81.3633877945772;-0.79986572265625;-0.03648681640625;6.58999998336185;660;100 mA
81.3733877945519;-0.799560546875;-0.0364990234375;6.5999999833366;661;100 mA
81.3833877945267;-0.7989501953125;-0.03653564453125;6.60999998331135;662;100 mA
81.3933877945015;-0.79864501953125;-0.036639404296875;6.61999998328611;663;100 mA
81.4033877944762;-0.79925537109375;-0.0366363525390625;6.62999998326086;664;100 mA
81.413387794451;-0.79986572265625;-0.036676025390625;6.63999998323561;665;100 mA
81.4233877944257;-0.7989501953125;-0.0366363525390625;6.64999998321036;666;100 mA
81.4333877944005;-0.79986572265625;-0.036602783203125;6.65999998318512;667;100 mA
81.4433877943752;-0.799560546875;-0.0365570068359375;6.66999998315987;668;100 mA
81.45338779435;-0.799560546875;-0.0365234375;6.67999998313462;669;100 mA
81.4633877943247;-0.799560546875;-0.0364898681640625;6.68999998310937;670;100 mA
81.4733877942995;-0.79925537109375;-0.036468505859375;6.69999998308413;671;100 mA
81.4833877942742;-0.799560546875;-0.0364471435546875;6.70999998305888;672;100 mA
81.493387794249;-0.799560546875;-0.0363983154296875;6.71999998303363;673;100 mA
81.5033877942237;-0.799560546875;-0.036370849609375;6.72999998300838;674;100 mA
81.5133877941985;-0.79986572265625;-0.0362884521484375;6.73999998298314;675;100 mA
81.5233877941732;-0.79986572265625;-0.0362884521484375;6.74999998295789;676;100 mA
81.533387794148;-0.799560546875;-0.0362640380859375;6.75999998293264;677;100 mA
81.5433877941227;-0.799560546875;-0.036224365234375;6.76999998290739;678;100 mA
81.5533877940975;-0.79986572265625;-0.036187744140625;6.77999998288215;679;100 mA
81.5633877940722;-0.799560546875;-0.0361480712890625;6.7899999828569;680;100 mA
81.573387794047;-0.79925537109375;-0.036126708984375;6.79999998283165;681;100 mA
81.5833877940217;-0.799560546875;-0.0361053466796875;6.8099999828064;682;100 mA
81.5933877939965;-0.79986572265625;-0.0360931396484375;6.81999998278116;683;100 mA
81.6033877939713;-0.79925537109375;-0.0361297607421875;6.82999998275591;684;100 mA
81.613387793946;-0.799560546875;-0.0361236572265625;6.83999998273066;685;100 mA
81.6233877939208;-0.79925537109375;-0.0361419677734375;6.84999998270541;686;100 mA
81.6333877938955;-0.799560546875;-0.036187744140625;6.85999998268016;687;100 mA
81.6433877938703;-0.799560546875;-0.036212158203125;6.86999998265492;688;100 mA
81.653387793845;-0.79986572265625;-0.0361541748046875;6.87999998262967;689;100 mA
81.6633877938198;-0.79925537109375;-0.036090087890625;6.88999998260442;690;100 mA
81.6733877937945;-0.799560546875;-0.0360260009765625;6.89999998257917;691;100 mA
81.6833877937693;-0.799560546875;-0.0359710693359375;6.90999998255393;692;100 mA
81.693387793744;-0.79986572265625;-0.0359710693359375;6.91999998252868;693;100 mA
81.7033877937188;-0.8001708984375;-0.03597412109375;6.92999998250343;694;100 mA
81.7133877936935;-0.79986572265625;-0.0359832763671875;6.93999998247818;695;100 mA
81.7233877936683;-0.799560546875;-0.0359527587890625;6.94999998245294;696;100 mA
81.733387793643;-0.79925537109375;-0.0359619140625;6.95999998242769;697;100 mA
81.7433877936178;-0.799560546875;-0.035931396484375;6.96999998240244;698;100 mA
81.7533877935925;-0.799560546875;-0.035870361328125;6.97999998237719;699;100 mA
81.7633877935673;-0.79925537109375;-0.035888671875;6.98999998235195;700;100 mA
81.773387793542;-0.7989501953125;-0.03582763671875;6.9999999823267;701;100 mA
81.7833877935168;-0.79986572265625;-0.0357757568359375;7.00999998230145;702;100 mA
81.7933877934915;-0.79925537109375;-0.035711669921875;7.0199999822762;703;100 mA
81.8033877934663;-0.799560546875;-0.035675048828125;7.02999998225096;704;100 mA
81.8133877934411;-0.79986572265625;-0.0357025146484375;7.03999998222571;705;100 mA
81.8233877934158;-0.79925537109375;-0.0356903076171875;7.04999998220046;706;100 mA
81.8333877933906;-0.7989501953125;-0.0357147216796875;7.05999998217521;707;100 mA
81.8433877933653;-0.8001708984375;-0.0357086181640625;7.06999998214997;708;100 mA
81.8533877933401;-0.79925537109375;-0.0357147216796875;7.07999998212472;709;100 mA
81.8633877933148;-0.799560546875;-0.0357879638671875;7.08999998209947;710;100 mA
81.8733877932896;-0.799560546875;-0.035858154296875;7.09999998207422;711;100 mA
81.8833877932643;-0.799560546875;-0.0359466552734375;7.10999998204898;712;100 mA
81.8933877932391;-0.79925537109375;-0.0359039306640625;7.11999998202373;713;100 mA
81.9033877932138;-0.79925537109375;-0.0358551025390625;7.12999998199848;714;100 mA
81.9133877931886;-0.79925537109375;-0.0358306884765625;7.13999998197323;715;100 mA
81.9233877931633;-0.799560546875;-0.0357818603515625;7.14999998194799;716;100 mA
81.9333877931381;-0.799560546875;-0.0357513427734375;7.15999998192274;717;100 mA
81.9433877931128;-0.799560546875;-0.0357421875;7.16999998189749;718;100 mA
81.9533877930876;-0.79925537109375;-0.0357025146484375;7.17999998187224;719;100 mA
81.9633877930623;-0.79986572265625;-0.0356475830078125;7.189999981847;720;100 mA
81.9733877930371;-0.79925537109375;-0.0356781005859375;7.19999998182175;721;100 mA
81.9833877930118;-0.799560546875;-0.0356597900390625;7.2099999817965;722;100 mA
81.9933877929866;-0.79925537109375;-0.03564453125;7.21999998177125;723;100 mA
82.0033877929613;-0.799560546875;-0.0356658935546875;7.229999981746;724;100 mA
82.0133877929361;-0.79925537109375;-0.035626220703125;7.23999998172076;725;100 mA
82.0233877929109;-0.79925537109375;-0.0355926513671875;7.24999998169551;726;100 mA
82.0333877928856;-0.79986572265625;-0.0355499267578125;7.25999998167026;727;100 mA
82.0433877928604;-0.799560546875;-0.03551025390625;7.26999998164501;728;100 mA
82.0533877928351;-0.799560546875;-0.0355010986328125;7.27999998161977;729;100 mA
82.0633877928099;-0.7989501953125;-0.035491943359375;7.28999998159452;730;100 mA
82.0733877927846;-0.799560546875;-0.0355072021484375;7.29999998156927;731;100 mA
82.0833877927594;-0.799560546875;-0.0354888916015625;7.30999998154402;732;100 mA
82.0933877927341;-0.79925537109375;-0.035516357421875;7.31999998151878;733;100 mA
82.1033877927089;-0.799560546875;-0.035540771484375;7.32999998149353;734;100 mA
82.1133877926836;-0.79986572265625;-0.035626220703125;7.33999998146828;735;100 mA
82.1233877926584;-0.79925537109375;-0.035650634765625;7.34999998144303;736;100 mA
82.1333877926331;-0.79986572265625;-0.0356292724609375;7.35999998141779;737;100 mA
82.1433877926079;-0.79986572265625;-0.0356109619140625;7.36999998139254;738;100 mA
82.1533877925826;-0.799560546875;-0.0356414794921875;7.37999998136729;739;100 mA
82.1633877925574;-0.799560546875;-0.0356475830078125;7.38999998134204;740;100 mA
82.1733877925321;-0.79925537109375;-0.0356475830078125;7.3999999813168;741;100 mA
82.1833877925069;-0.79986572265625;-0.0356536865234375;7.40999998129155;742;100 mA
82.1933877924816;-0.799560546875;-0.035699462890625;7.4199999812663;743;100 mA
82.2033877924564;-0.7989501953125;-0.0356903076171875;7.42999998124105;744;100 mA
82.2133877924311;-0.799560546875;-0.035723876953125;7.43999998121581;745;100 mA
82.2233877924059;-0.79925537109375;-0.03572998046875;7.44999998119056;746;100 mA
82.2333877923807;-0.799560546875;-0.0356781005859375;7.45999998116531;747;100 mA
82.2433877923554;-0.79986572265625;-0.0356903076171875;7.46999998114006;748;100 mA
82.2533877923302;-0.799560546875;-0.0356475830078125;7.47999998111482;749;100 mA
82.2633877923049;-0.79925537109375;-0.0356170654296875;7.48999998108957;750;100 mA
82.2733877922797;-0.799560546875;-0.03560791015625;7.49999998106432;751;100 mA
82.2833877922544;-0.79925537109375;-0.0355712890625;7.50999998103907;752;100 mA
82.2933877922292;-0.79925537109375;-0.0355987548828125;7.51999998101383;753;100 mA
82.3033877922039;-0.79986572265625;-0.0355682373046875;7.52999998098858;754;100 mA
82.3133877921787;-0.799560546875;-0.035552978515625;7.53999998096333;755;100 mA
82.3233877921534;-0.799560546875;-0.0355377197265625;7.54999998093808;756;100 mA
82.3333877921282;-0.799560546875;-0.0355865478515625;7.55999998091283;757;100 mA
82.3433877921029;-0.79925537109375;-0.0355987548828125;7.56999998088759;758;100 mA
82.3533877920777;-0.799560546875;-0.0356842041015625;7.57999998086234;759;100 mA
82.3633877920524;-0.79925537109375;-0.0356781005859375;7.58999998083709;760;100 mA
82.3733877920272;-0.799560546875;-0.0356475830078125;7.59999998081184;761;100 mA
82.3833877920019;-0.7989501953125;-0.035589599609375;7.6099999807866;762;100 mA
82.3933877919767;-0.799560546875;-0.03558349609375;7.61999998076135;763;100 mA
82.4033877919514;-0.799560546875;-0.0355560302734375;7.6299999807361;764;100 mA
82.4133877919262;-0.799560546875;-0.035528564453125;7.63999998071085;765;100 mA
82.423387791901;-0.79925537109375;-0.0355194091796875;7.64999998068561;766;100 mA
82.4333877918757;-0.79986572265625;-0.0355682373046875;7.65999998066036;767;100 mA
82.4433877918505;-0.799560546875;-0.03560791015625;7.66999998063511;768;100 mA
82.4533877918252;-0.79986572265625;-0.035662841796875;7.67999998060986;769;100 mA
82.4633877918;-0.799560546875;-0.035699462890625;7.68999998058462;770;100 mA
82.4733877917747;-0.799560546875;-0.035693359375;7.69999998055937;771;100 mA
82.4833877917495;-0.79986572265625;-0.0357208251953125;7.70999998053412;772;100 mA
82.4933877917242;-0.79925537109375;-0.0357330322265625;7.71999998050887;773;100 mA
82.503387791699;-0.79925537109375;-0.035699462890625;7.72999998048363;774;100 mA
82.5133877916737;-0.799560546875;-0.035699462890625;7.73999998045838;775;100 mA
82.5233877916485;-0.79925537109375;-0.03564453125;7.74999998043313;776;100 mA
82.5333877916232;-0.7989501953125;-0.0356475830078125;7.75999998040788;777;100 mA
82.543387791598;-0.8001708984375;-0.035614013671875;7.76999998038264;778;100 mA
82.5533877915727;-0.79986572265625;-0.03560791015625;7.77999998035739;779;100 mA
82.5633877915475;-0.79925537109375;-0.03560791015625;7.78999998033214;780;100 mA
82.5733877915222;-0.799560546875;-0.035595703125;7.79999998030689;781;100 mA
82.583387791497;-0.799560546875;-0.0356231689453125;7.80999998028165;782;100 mA
82.5933877914717;-0.799560546875;-0.0357025146484375;7.8199999802564;783;100 mA
82.6033877914465;-0.8001708984375;-0.0357208251953125;7.82999998023115;784;100 mA
82.6133877914212;-0.799560546875;-0.035760498046875;7.8399999802059;785;100 mA
82.623387791396;-0.799560546875;-0.0357330322265625;7.84999998018066;786;100 mA
82.6333877913708;-0.799560546875;-0.0357177734375;7.85999998015541;787;100 mA
82.6433877913455;-0.799560546875;-0.035699462890625;7.86999998013016;788;100 mA
82.6533877913203;-0.79925537109375;-0.0356964111328125;7.87999998010491;789;100 mA
82.663387791295;-0.7989501953125;-0.0357086181640625;7.88999998007966;790;100 mA
82.6733877912698;-0.79986572265625;-0.035736083984375;7.89999998005442;791;100 mA
82.6833877912445;-0.799560546875;-0.035760498046875;7.90999998002917;792;100 mA
82.6933877912193;-0.799560546875;-0.03575439453125;7.91999998000392;793;100 mA
82.703387791194;-0.79925537109375;-0.035791015625;7.92999997997867;794;100 mA
82.7133877911688;-0.79925537109375;-0.0357696533203125;7.93999997995343;795;100 mA
82.7233877911435;-0.799560546875;-0.0358184814453125;7.94999997992818;796;100 mA
82.7333877911183;-0.79986572265625;-0.035821533203125;7.95999997990293;797;100 mA
82.743387791093;-0.79925537109375;-0.035791015625;7.96999997987768;798;100 mA
82.7533877910678;-0.79925537109375;-0.0357574462890625;7.97999997985244;799;100 mA
82.7633877910425;-0.799560546875;-0.0357177734375;7.98999997982719;800;100 mA
82.7733877910173;-0.799560546875;-0.0356903076171875;7.99999997980194;801;100 mA
82.783387790992;-0.799560546875;-0.03565673828125;8.00999997977669;802;100 mA
82.7933877909668;-0.79925537109375;-0.0356414794921875;8.01999997975145;803;100 mA
82.8033877909415;-0.799560546875;-0.0356597900390625;8.0299999797262;804;100 mA
82.8133877909163;-0.799560546875;-0.0356231689453125;8.03999997970095;805;100 mA
82.823387790891;-0.79925537109375;-0.0356231689453125;8.0499999796757;806;100 mA
82.8333877908658;-0.79925537109375;-0.0356719970703125;8.05999997965046;807;100 mA
82.8433877908406;-0.799560546875;-0.035675048828125;8.06999997962521;808;100 mA
82.8533877908153;-0.79925537109375;-0.0356231689453125;8.07999997959996;809;100 mA
82.8633877907901;-0.79925537109375;-0.0355712890625;8.08999997957471;810;100 mA
82.8733877907648;-0.79925537109375;-0.0355377197265625;8.09999997954947;811;100 mA
82.8833877907396;-0.8001708984375;-0.035516357421875;8.10999997952422;812;100 mA
82.8933877907143;-0.799560546875;-0.035552978515625;8.11999997949897;813;100 mA
82.9033877906891;-0.8001708984375;-0.035595703125;8.12999997947372;814;100 mA
82.9133877906638;-0.799560546875;-0.035650634765625;8.13999997944848;815;100 mA
82.9233877906386;-0.79986572265625;-0.0356689453125;8.14999997942323;816;100 mA
82.9333877906133;-0.7989501953125;-0.03572998046875;8.15999997939798;817;100 mA
82.9433877905881;-0.799560546875;-0.0357513427734375;8.16999997937273;818;100 mA
82.9533877905628;-0.79925537109375;-0.0357421875;8.17999997934749;819;100 mA
82.9633877905376;-0.79986572265625;-0.035809326171875;8.18999997932224;820;100 mA
82.9733877905123;-0.7989501953125;-0.0357818603515625;8.19999997929699;821;100 mA
82.9833877904871;-0.7989501953125;-0.0357330322265625;8.20999997927174;822;100 mA
82.9933877904618;-0.799560546875;-0.0356781005859375;8.2199999792465;823;100 mA
83.0033877904366;-0.79925537109375;-0.0356414794921875;8.22999997922125;824;100 mA
83.0133877904113;-0.799560546875;-0.03564453125;8.239999979196;825;100 mA
83.0233877903861;-0.799560546875;-0.0356048583984375;8.24999997917075;826;100 mA
83.0333877903608;-0.7989501953125;-0.0355865478515625;8.2599999791455;827;100 mA
83.0433877903356;-0.799560546875;-0.0355438232421875;8.26999997912026;828;100 mA
83.0533877903104;-0.79925537109375;-0.03551025390625;8.27999997909501;829;100 mA
83.0633877902851;-0.799560546875;-0.035552978515625;8.28999997906976;830;100 mA
83.0733877902599;-0.79986572265625;-0.0355804443359375;8.29999997904451;831;100 mA
83.0833877902346;-0.799560546875;-0.0356231689453125;8.30999997901927;832;100 mA
83.0933877902094;-0.799560546875;-0.0355499267578125;8.31999997899402;833;100 mA
83.1033877901841;-0.799560546875;-0.0354736328125;8.32999997896877;834;100 mA
83.1133877901589;-0.79925537109375;-0.03543701171875;8.33999997894352;835;100 mA
83.1233877901336;-0.79925537109375;-0.03538818359375;8.34999997891828;836;100 mA
83.1333877901084;-0.799560546875;-0.0353759765625;8.35999997889303;837;100 mA
83.1433877900831;-0.79925537109375;-0.0353790283203125;8.36999997886778;838;100 mA
83.1533877900579;-0.79925537109375;-0.0353546142578125;8.37999997884253;839;100 mA
83.1633877900326;-0.79925537109375;-0.0353546142578125;8.38999997881729;840;100 mA
83.1733877900074;-0.79925537109375;-0.0354217529296875;8.39999997879204;841;100 mA
83.1833877899821;-0.79925537109375;-0.0354400634765625;8.40999997876679;842;100 mA
83.1933877899569;-0.7989501953125;-0.0354461669921875;8.41999997874154;843;100 mA
83.2033877899316;-0.79925537109375;-0.0354766845703125;8.4299999787163;844;100 mA
83.2133877899064;-0.799560546875;-0.035467529296875;8.43999997869105;845;100 mA
83.2233877898811;-0.7989501953125;-0.0354461669921875;8.4499999786658;846;100 mA
83.2333877898559;-0.799560546875;-0.035418701171875;8.45999997864055;847;100 mA
83.2433877898306;-0.79925537109375;-0.0353790283203125;8.46999997861531;848;100 mA
83.2533877898054;-0.79986572265625;-0.035357666015625;8.47999997859006;849;100 mA
83.2633877897802;-0.79925537109375;-0.0353363037109375;8.48999997856481;850;100 mA
83.2733877897549;-0.799560546875;-0.0353271484375;8.49999997853956;851;100 mA
83.2833877897297;-0.79925537109375;-0.035284423828125;8.50999997851432;852;100 mA
83.2933877897044;-0.79925537109375;-0.035260009765625;8.51999997848907;853;100 mA
83.3033877896792;-0.799560546875;-0.035247802734375;8.52999997846382;854;100 mA
83.3133877896539;-0.79925537109375;-0.0352874755859375;8.53999997843857;855;100 mA
83.3233877896287;-0.799560546875;-0.0352783203125;8.54999997841333;856;100 mA
83.3333877896034;-0.79925537109375;-0.035235595703125;8.55999997838808;857;100 mA
83.3433877895782;-0.79986572265625;-0.035198974609375;8.56999997836283;858;100 mA
83.3533877895529;-0.79986572265625;-0.0351959228515625;8.57999997833758;859;100 mA
83.3633877895277;-0.799560546875;-0.035186767578125;8.58999997831233;860;100 mA
83.3733877895024;-0.799560546875;-0.0351776123046875;8.59999997828709;861;100 mA
83.3833877894772;-0.79925537109375;-0.035174560546875;8.60999997826184;862;100 mA
83.3933877894519;-0.79925537109375;-0.0352142333984375;8.61999997823659;863;100 mA
83.4033877894267;-0.799560546875;-0.03521728515625;8.62999997821134;864;100 mA
83.4133877894014;-0.79986572265625;-0.03525390625;8.6399999781861;865;100 mA
83.4233877893762;-0.799560546875;-0.0352783203125;8.64999997816085;866;100 mA
83.4333877893509;-0.79864501953125;-0.035247802734375;8.6599999781356;867;100 mA
83.4433877893257;-0.799560546875;-0.0352508544921875;8.66999997811035;868;100 mA
83.4533877893005;-0.7989501953125;-0.03524169921875;8.67999997808511;869;100 mA
83.4633877892752;-0.79986572265625;-0.0352203369140625;8.68999997805986;870;100 mA
83.47338778925;-0.7989501953125;-0.035223388671875;8.69999997803461;871;100 mA
83.4833877892247;-0.799560546875;-0.03519287109375;8.70999997800936;872;100 mA
83.4933877891995;-0.799560546875;-0.035211181640625;8.71999997798412;873;100 mA
83.5033877891742;-0.799560546875;-0.03519287109375;8.72999997795887;874;100 mA
83.513387789149;-0.799560546875;-0.03516845703125;8.73999997793362;875;100 mA
83.5233877891237;-0.79925537109375;-0.035150146484375;8.74999997790837;876;100 mA
83.5333877890985;-0.79925537109375;-0.0351898193359375;8.75999997788313;877;100 mA
83.5433877890732;-0.79925537109375;-0.035186767578125;8.76999997785788;878;100 mA
83.553387789048;-0.799560546875;-0.0352630615234375;8.77999997783263;879;100 mA
83.5633877890227;-0.799560546875;-0.0352294921875;8.78999997780738;880;100 mA
83.5733877889975;-0.799560546875;-0.0352081298828125;8.79999997778214;881;100 mA
83.5833877889722;-0.7989501953125;-0.0351470947265625;8.80999997775689;882;100 mA
83.593387788947;-0.799560546875;-0.0351165771484375;8.81999997773164;883;100 mA
83.6033877889217;-0.8001708984375;-0.0350799560546875;8.82999997770639;884;100 mA
83.6133877888965;-0.799560546875;-0.0350372314453125;8.83999997768115;885;100 mA
83.6233877888712;-0.799560546875;-0.0350433349609375;8.8499999776559;886;100 mA
83.633387788846;-0.79925537109375;-0.035101318359375;8.85999997763065;887;100 mA
83.6433877888207;-0.799560546875;-0.035137939453125;8.8699999776054;888;100 mA
83.6533877887955;-0.799560546875;-0.0351715087890625;8.87999997758016;889;100 mA
83.6633877887703;-0.799560546875;-0.03519287109375;8.88999997755491;890;100 mA
83.673387788745;-0.799560546875;-0.0351806640625;8.89999997752966;891;100 mA
83.6833877887198;-0.79925537109375;-0.0352142333984375;8.90999997750441;892;100 mA
83.6933877886945;-0.79986572265625;-0.0352264404296875;8.91999997747916;893;100 mA
83.7033877886693;-0.799560546875;-0.03519287109375;8.92999997745392;894;100 mA
83.713387788644;-0.799560546875;-0.0351959228515625;8.93999997742867;895;100 mA
83.7233877886188;-0.799560546875;-0.0351409912109375;8.94999997740342;896;100 mA
83.7333877885935;-0.79925537109375;-0.03515625;8.95999997737817;897;100 mA
83.7433877885683;-0.7989501953125;-0.035137939453125;8.96999997735293;898;100 mA
83.753387788543;-0.79986572265625;-0.0351287841796875;8.97999997732768;899;100 mA
83.7633877885178;-0.79925537109375;-0.0351470947265625;8.98999997730243;900;100 mA
83.7733877884925;-0.79925537109375;-0.035125732421875;8.99999997727718;901;100 mA
83.7833877884673;-0.799560546875;-0.035174560546875;9.00999997725194;902;100 mA
83.793387788442;-0.79986572265625;-0.0352386474609375;9.01999997722669;903;100 mA
83.8033877884168;-0.7989501953125;-0.0352630615234375;9.02999997720144;904;100 mA
83.8133877883915;-0.79986572265625;-0.035308837890625;9.03999997717619;905;100 mA
83.8233877883663;-0.79986572265625;-0.035272216796875;9.04999997715095;906;100 mA
83.833387788341;-0.79925537109375;-0.0352630615234375;9.0599999771257;907;100 mA
83.8433877883158;-0.79986572265625;-0.03524169921875;9.06999997710045;908;100 mA
83.8533877882905;-0.79925537109375;-0.0352325439453125;9.0799999770752;909;100 mA
83.8633877882653;-0.79986572265625;-0.03524169921875;9.08999997704996;910;100 mA
83.8733877882401;-0.799560546875;-0.035247802734375;9.09999997702471;911;100 mA
83.8833877882148;-0.79986572265625;-0.0352569580078125;9.10999997699946;912;100 mA
83.8933877881896;-0.79925537109375;-0.035235595703125;9.11999997697421;913;100 mA
83.9033877881643;-0.799560546875;-0.0352630615234375;9.12999997694897;914;100 mA
83.9133877881391;-0.79986572265625;-0.0352447509765625;9.13999997692372;915;100 mA
83.9233877881138;-0.799560546875;-0.035296630859375;9.14999997689847;916;100 mA
83.9333877880886;-0.799560546875;-0.035296630859375;9.15999997687322;917;100 mA
83.9433877880633;-0.799560546875;-0.035284423828125;9.16999997684798;918;100 mA
83.9533877880381;-0.79925537109375;-0.0352752685546875;9.17999997682273;919;100 mA
83.9633877880128;-0.799560546875;-0.035260009765625;9.18999997679748;920;100 mA
83.9733877879876;-0.799560546875;-0.0352752685546875;9.19999997677223;921;100 mA
83.9833877879623;-0.79986572265625;-0.035272216796875;9.20999997674699;922;100 mA
83.9933877879371;-0.79925537109375;-0.035284423828125;9.21999997672174;923;100 mA
84.0033877879118;-0.799560546875;-0.03531494140625;9.22999997669649;924;100 mA
84.0133877878866;-0.799560546875;-0.0353057861328125;9.23999997667124;925;100 mA
84.0233877878613;-0.79925537109375;-0.0353363037109375;9.249999976646;926;100 mA
84.0333877878361;-0.799560546875;-0.0354217529296875;9.25999997662075;927;100 mA
84.0433877878108;-0.79925537109375;-0.0354644775390625;9.2699999765955;928;100 mA
84.0533877877856;-0.799560546875;-0.0354400634765625;9.27999997657025;929;100 mA
84.0633877877603;-0.799560546875;-0.0354034423828125;9.289999976545;930;100 mA
84.0733877877351;-0.799560546875;-0.03538818359375;9.29999997651976;931;100 mA
84.0833877877099;-0.799560546875;-0.0353790283203125;9.30999997649451;932;100 mA
84.0933877876846;-0.7989501953125;-0.0354156494140625;9.31999997646926;933;100 mA
84.1033877876594;-0.79986572265625;-0.03543701171875;9.32999997644401;934;100 mA
84.1133877876341;-0.79925537109375;-0.0354827880859375;9.33999997641877;935;100 mA
84.1233877876089;-0.799560546875;-0.03548583984375;9.34999997639352;936;100 mA
84.1333877875836;-0.8001708984375;-0.035516357421875;9.35999997636827;937;100 mA
84.1433877875584;-0.79925537109375;-0.0355438232421875;9.36999997634302;938;100 mA
84.1533877875331;-0.799560546875;-0.03551025390625;9.37999997631778;939;100 mA
84.1633877875079;-0.799560546875;-0.0355621337890625;9.38999997629253;940;100 mA
84.1733877874826;-0.79925537109375;-0.0355377197265625;9.39999997626728;941;100 mA
84.1833877874574;-0.79925537109375;-0.035498046875;9.40999997624203;942;100 mA
84.1933877874321;-0.79925537109375;-0.0354736328125;9.41999997621679;943;100 mA
84.2033877874069;-0.7989501953125;-0.035455322265625;9.42999997619154;944;100 mA
84.2133877873816;-0.7989501953125;-0.03548583984375;9.43999997616629;945;100 mA
84.2233877873564;-0.799560546875;-0.0354644775390625;9.44999997614104;946;100 mA
84.2333877873311;-0.79925537109375;-0.035479736328125;9.4599999761158;947;100 mA
84.2433877873059;-0.79986572265625;-0.0354766845703125;9.46999997609055;948;100 mA
84.2533877872806;-0.799560546875;-0.0355072021484375;9.4799999760653;949;100 mA
84.2633877872554;-0.79925537109375;-0.0355926513671875;9.48999997604005;950;100 mA
84.2733877872301;-0.799560546875;-0.0356597900390625;9.49999997601481;951;100 mA
84.2833877872049;-0.799560546875;-0.0357330322265625;9.50999997598956;952;100 mA
84.2933877871797;-0.79925537109375;-0.03568115234375;9.51999997596431;953;100 mA
84.3033877871544;-0.79925537109375;-0.035638427734375;9.52999997593906;954;100 mA
84.3133877871292;-0.79925537109375;-0.0356353759765625;9.53999997591382;955;100 mA
84.3233877871039;-0.799560546875;-0.03560791015625;9.54999997588857;956;100 mA
84.3333877870787;-0.799560546875;-0.0355926513671875;9.55999997586332;957;100 mA
84.3433877870534;-0.79986572265625;-0.035589599609375;9.56999997583807;958;100 mA
84.3533877870282;-0.799560546875;-0.0355712890625;9.57999997581283;959;100 mA
84.3633877870029;-0.799560546875;-0.035577392578125;9.58999997578758;960;100 mA
84.3733877869777;-0.799560546875;-0.0356414794921875;9.59999997576233;961;100 mA
84.3833877869524;-0.799560546875;-0.0356597900390625;9.60999997573708;962;100 mA
84.3933877869272;-0.79925537109375;-0.03568115234375;9.61999997571183;963;100 mA
84.4033877869019;-0.79925537109375;-0.0357147216796875;9.62999997568659;964;100 mA
84.4133877868767;-0.799560546875;-0.0357208251953125;9.63999997566134;965;100 mA
84.4233877868514;-0.799560546875;-0.035723876953125;9.64999997563609;966;100 mA
84.4333877868262;-0.79925537109375;-0.0357269287109375;9.65999997561084;967;100 mA
84.4433877868009;-0.79986572265625;-0.0357086181640625;9.6699999755856;968;100 mA
84.4533877867757;-0.799560546875;-0.03572998046875;9.67999997556035;969;100 mA
84.4633877867504;-0.799560546875;-0.03575439453125;9.6899999755351;970;100 mA
84.4733877867252;-0.799560546875;-0.035772705078125;9.69999997550985;971;100 mA
84.4833877867;-0.799560546875;-0.035784912109375;9.70999997548461;972;100 mA
84.4933877866747;-0.79925537109375;-0.0358123779296875;9.71999997545936;973;100 mA
84.5033877866495;-0.799560546875;-0.0358551025390625;9.72999997543411;974;100 mA
84.5133877866242;-0.79925537109375;-0.0359619140625;9.73999997540886;975;100 mA
84.523387786599;-0.8001708984375;-0.0360015869140625;9.74999997538362;976;100 mA
84.5333877865737;-0.79925537109375;-0.0360107421875;9.75999997535837;977;100 mA
84.5433877865485;-0.799560546875;-0.0360076904296875;9.76999997533312;978;100 mA
84.5533877865232;-0.799560546875;-0.0360260009765625;9.77999997530787;979;100 mA
84.563387786498;-0.79986572265625;-0.0360260009765625;9.78999997528263;980;100 mA
84.5733877864727;-0.799560546875;-0.03602294921875;9.79999997525738;981;100 mA
84.5833877864475;-0.799560546875;-0.0360198974609375;9.80999997523213;982;100 mA
84.5933877864222;-0.7989501953125;-0.036053466796875;9.81999997520688;983;100 mA
84.603387786397;-0.7989501953125;-0.036053466796875;9.82999997518164;984;100 mA
84.6133877863717;-0.799560546875;-0.0360687255859375;9.83999997515639;985;100 mA
84.6233877863465;-0.7989501953125;-0.0360809326171875;9.84999997513114;986;100 mA
84.6333877863212;-0.79986572265625;-0.0360382080078125;9.85999997510589;987;100 mA
84.643387786296;-0.799560546875;-0.036029052734375;9.86999997508065;988;100 mA
84.6533877862707;-0.79925537109375;-0.036029052734375;9.8799999750554;989;100 mA
84.6633877862455;-0.79925537109375;-0.0360137939453125;9.88999997503015;990;100 mA
84.6733877862202;-0.79986572265625;-0.036029052734375;9.8999999750049;991;100 mA
84.683387786195;-0.79986572265625;-0.0360260009765625;9.90999997497966;992;100 mA
84.6933877861698;-0.799560546875;-0.03604736328125;9.91999997495441;993;100 mA
84.7033877861445;-0.799560546875;-0.0360595703125;9.92999997492916;994;100 mA
84.7133877861193;-0.799560546875;-0.036077880859375;9.93999997490391;995;100 mA
84.723387786094;-0.79925537109375;-0.0361083984375;9.94999997487866;996;100 mA
84.7333877860688;-0.79925537109375;-0.0361846923828125;9.95999997485342;997;100 mA
84.7433877860435;-0.799560546875;-0.03621826171875;9.96999997482817;998;100 mA
84.7533877860183;-0.799560546875;-0.0363433837890625;9.97999997480292;999;100 mA
84.763387785993;-0.799560546875;-0.0363372802734375;9.98999997477767;1000;100 mA
