Time (s);WE(1).Potential (V);WE(1).Current (A);Corrected time (s);Index;Current range
115.826297707567;-0.89996337890625;-0.34002685546875;0;1;100 mA
115.836297707541;-0.899658203125;-0.250579833984375;0.00999999997475243;2;100 mA
115.846297707516;-0.89935302734375;-0.207611083984375;0.0199999999495049;3;100 mA
115.856297707491;-0.8990478515625;-0.1810302734375;0.0299999999242573;4;100 mA
115.866297707466;-0.89935302734375;-0.162445068359375;0.0399999998990097;5;100 mA
115.87629770744;-0.899658203125;-0.1484375;0.0499999998737621;6;100 mA
115.886297707415;-0.89935302734375;-0.13763427734375;0.0599999998485146;7;100 mA
115.89629770739;-0.89935302734375;-0.1287841796875;0.069999999823267;8;100 mA
115.906297707365;-0.89996337890625;-0.121368408203125;0.0799999997980194;9;100 mA
115.916297707339;-0.8990478515625;-0.1151123046875;0.0899999997727718;10;100 mA
115.926297707314;-0.899658203125;-0.109771728515625;0.0999999997475243;11;100 mA
115.936297707289;-0.89935302734375;-0.1051025390625;0.109999999722277;12;100 mA
115.946297707264;-0.89935302734375;-0.100982666015625;0.119999999697029;13;100 mA
115.956297707238;-0.8990478515625;-0.097259521484375;0.129999999671782;14;100 mA
115.966297707213;-0.89996337890625;-0.093994140625;0.139999999646534;15;100 mA
115.976297707188;-0.8990478515625;-0.091064453125;0.149999999621286;16;100 mA
115.986297707163;-0.899658203125;-0.08831787109375;0.159999999596039;17;100 mA
115.996297707138;-0.89996337890625;-0.0858154296875;0.169999999570791;18;100 mA
116.006297707112;-0.899658203125;-0.08355712890625;0.179999999545544;19;100 mA
116.016297707087;-0.89935302734375;-0.081451416015625;0.189999999520296;20;100 mA
116.026297707062;-0.899658203125;-0.07952880859375;0.199999999495049;21;100 mA
116.036297707037;-0.899658203125;-0.0777587890625;0.209999999469801;22;100 mA
116.046297707011;-0.89935302734375;-0.07611083984375;0.219999999444553;23;100 mA
116.056297706986;-0.8990478515625;-0.074554443359375;0.229999999419306;24;100 mA
116.066297706961;-0.899658203125;-0.073089599609375;0.239999999394058;25;100 mA
116.076297706936;-0.89935302734375;-0.071746826171875;0.249999999368811;26;100 mA
116.08629770691;-0.89935302734375;-0.07049560546875;0.259999999343563;27;100 mA
116.096297706885;-0.89935302734375;-0.06927490234375;0.269999999318316;28;100 mA
116.10629770686;-0.8990478515625;-0.068145751953125;0.279999999293068;29;100 mA
116.116297706835;-0.899658203125;-0.067108154296875;0.28999999926782;30;100 mA
116.126297706809;-0.899658203125;-0.06610107421875;0.299999999242573;31;100 mA
116.136297706784;-0.899658203125;-0.065155029296875;0.309999999217325;32;100 mA
116.146297706759;-0.899658203125;-0.064300537109375;0.319999999192078;33;100 mA
116.156297706734;-0.89935302734375;-0.063446044921875;0.32999999916683;34;100 mA
116.166297706708;-0.89935302734375;-0.062713623046875;0.339999999141583;35;100 mA
116.176297706683;-0.899658203125;-0.061920166015625;0.349999999116335;36;100 mA
116.186297706658;-0.8990478515625;-0.061248779296875;0.359999999091087;37;100 mA
116.196297706633;-0.899658203125;-0.060516357421875;0.36999999906584;38;100 mA
116.206297706607;-0.899658203125;-0.059906005859375;0.379999999040592;39;100 mA
116.216297706582;-0.89935302734375;-0.059295654296875;0.389999999015345;40;100 mA
116.226297706557;-0.899658203125;-0.0587158203125;0.399999998990097;41;100 mA
116.236297706532;-0.89935302734375;-0.058135986328125;0.40999999896485;42;100 mA
116.246297706506;-0.899658203125;-0.0576171875;0.419999998939602;43;100 mA
116.256297706481;-0.89874267578125;-0.05706787109375;0.429999998914354;44;100 mA
116.266297706456;-0.89935302734375;-0.05657958984375;0.439999998889107;45;100 mA
116.276297706431;-0.899658203125;-0.056121826171875;0.449999998863859;46;100 mA
116.286297706405;-0.89996337890625;-0.055633544921875;0.459999998838612;47;100 mA
116.29629770638;-0.89935302734375;-0.05517578125;0.469999998813364;48;100 mA
116.306297706355;-0.899658203125;-0.05474853515625;0.479999998788116;49;100 mA
116.31629770633;-0.89935302734375;-0.0543212890625;0.489999998762869;50;100 mA
116.326297706304;-0.89935302734375;-0.053924560546875;0.499999998737621;51;100 mA
116.336297706279;-0.899658203125;-0.05352783203125;0.509999998712374;52;100 mA
116.346297706254;-0.899658203125;-0.05316162109375;0.519999998687126;53;100 mA
116.356297706229;-0.89935302734375;-0.05279541015625;0.529999998661879;54;100 mA
116.366297706203;-0.899658203125;-0.05242919921875;0.539999998636631;55;100 mA
116.376297706178;-0.899658203125;-0.0521240234375;0.549999998611383;56;100 mA
116.386297706153;-0.899658203125;-0.05181884765625;0.559999998586136;57;100 mA
116.396297706128;-0.89935302734375;-0.051544189453125;0.569999998560888;58;100 mA
116.406297706102;-0.8990478515625;-0.05133056640625;0.579999998535641;59;100 mA
116.416297706077;-0.89996337890625;-0.050994873046875;0.589999998510393;60;100 mA
116.426297706052;-0.89935302734375;-0.05072021484375;0.599999998485146;61;100 mA
116.436297706027;-0.899658203125;-0.050445556640625;0.609999998459898;62;100 mA
116.446297706001;-0.89935302734375;-0.0501708984375;0.61999999843465;63;100 mA
116.456297705976;-0.89935302734375;-0.049896240234375;0.629999998409403;64;100 mA
116.466297705951;-0.89996337890625;-0.0496368408203125;0.639999998384155;65;100 mA
116.476297705926;-0.899658203125;-0.049420166015625;0.649999998358908;66;100 mA
116.4862977059;-0.8990478515625;-0.0492340087890625;0.65999999833366;67;100 mA
116.496297705875;-0.899658203125;-0.049053955078125;0.669999998308413;68;100 mA
116.50629770585;-0.8990478515625;-0.0488800048828125;0.679999998283165;69;100 mA
116.516297705825;-0.89996337890625;-0.04873046875;0.689999998257917;70;100 mA
116.526297705799;-0.8990478515625;-0.0485198974609375;0.69999999823267;71;100 mA
116.536297705774;-0.89935302734375;-0.0483428955078125;0.709999998207422;72;100 mA
116.546297705749;-0.89935302734375;-0.0481658935546875;0.719999998182175;73;100 mA
116.556297705724;-0.89935302734375;-0.0479644775390625;0.729999998156927;74;100 mA
116.566297705698;-0.89935302734375;-0.047784423828125;0.73999999813168;75;100 mA
116.576297705673;-0.8990478515625;-0.0475616455078125;0.749999998106432;76;100 mA
116.586297705648;-0.8990478515625;-0.04739990234375;0.759999998081184;77;100 mA
116.596297705623;-0.8990478515625;-0.047216796875;0.769999998055937;78;100 mA
116.606297705597;-0.89935302734375;-0.04703369140625;0.779999998030689;79;100 mA
116.616297705572;-0.89935302734375;-0.046893310546875;0.789999998005442;80;100 mA
116.626297705547;-0.899658203125;-0.046759033203125;0.799999997980194;81;100 mA
116.636297705522;-0.89935302734375;-0.0466705322265625;0.809999997954947;82;100 mA
116.646297705496;-0.8990478515625;-0.04659423828125;0.819999997929699;83;100 mA
116.656297705471;-0.89935302734375;-0.0465057373046875;0.829999997904451;84;100 mA
116.666297705446;-0.899658203125;-0.0464019775390625;0.839999997879204;85;100 mA
116.676297705421;-0.89996337890625;-0.04622802734375;0.849999997853956;86;100 mA
116.686297705395;-0.89935302734375;-0.0460479736328125;0.859999997828709;87;100 mA
116.69629770537;-0.89935302734375;-0.04588623046875;0.869999997803461;88;100 mA
116.706297705345;-0.89935302734375;-0.045751953125;0.879999997778214;89;100 mA
116.71629770532;-0.89935302734375;-0.0456512451171875;0.889999997752966;90;100 mA
116.726297705294;-0.899658203125;-0.045538330078125;0.899999997727718;91;100 mA
116.736297705269;-0.89935302734375;-0.0454071044921875;0.909999997702471;92;100 mA
116.746297705244;-0.89996337890625;-0.0452789306640625;0.919999997677223;93;100 mA
116.756297705219;-0.89935302734375;-0.0451995849609375;0.929999997651976;94;100 mA
116.766297705193;-0.8990478515625;-0.0450958251953125;0.939999997626728;95;100 mA
116.776297705168;-0.89935302734375;-0.045013427734375;0.949999997601481;96;100 mA
116.786297705143;-0.899658203125;-0.0449432373046875;0.959999997576233;97;100 mA
116.796297705118;-0.89935302734375;-0.04482421875;0.969999997550985;98;100 mA
116.806297705092;-0.89935302734375;-0.0447021484375;0.979999997525738;99;100 mA
116.816297705067;-0.89935302734375;-0.0445892333984375;0.98999999750049;100;100 mA
116.826297705042;-0.89935302734375;-0.0445037841796875;0.999999997475243;101;100 mA
116.836297705017;-0.89935302734375;-0.044427490234375;1.00999999745;102;100 mA
116.846297704991;-0.89996337890625;-0.044354248046875;1.01999999742475;103;100 mA
116.856297704966;-0.89935302734375;-0.0443115234375;1.0299999973995;104;100 mA
116.866297704941;-0.89935302734375;-0.0442230224609375;1.03999999737425;105;100 mA
116.876297704916;-0.899658203125;-0.04415283203125;1.049999997349;106;100 mA
116.88629770489;-0.8990478515625;-0.044207763671875;1.05999999732376;107;100 mA
116.896297704865;-0.899658203125;-0.0441375732421875;1.06999999729851;108;100 mA
116.90629770484;-0.89935302734375;-0.0440582275390625;1.07999999727326;109;100 mA
116.916297704815;-0.899658203125;-0.0439208984375;1.08999999724801;110;100 mA
116.926297704789;-0.8990478515625;-0.0438629150390625;1.09999999722277;111;100 mA
116.936297704764;-0.89996337890625;-0.043804931640625;1.10999999719752;112;100 mA
116.946297704739;-0.899658203125;-0.0437652587890625;1.11999999717227;113;100 mA
116.956297704714;-0.89996337890625;-0.04373779296875;1.12999999714702;114;100 mA
116.966297704688;-0.89935302734375;-0.04368896484375;1.13999999712178;115;100 mA
116.976297704663;-0.89935302734375;-0.043670654296875;1.14999999709653;116;100 mA
116.986297704638;-0.899658203125;-0.04361572265625;1.15999999707128;117;100 mA
116.996297704613;-0.89874267578125;-0.043560791015625;1.16999999704603;118;100 mA
117.006297704587;-0.8990478515625;-0.043475341796875;1.17999999702079;119;100 mA
117.016297704562;-0.9002685546875;-0.043402099609375;1.18999999699554;120;100 mA
117.026297704537;-0.89935302734375;-0.043310546875;1.19999999697029;121;100 mA
117.036297704512;-0.89935302734375;-0.0432037353515625;1.20999999694504;122;100 mA
117.046297704487;-0.899658203125;-0.043115234375;1.2199999969198;123;100 mA
117.056297704461;-0.89996337890625;-0.0430511474609375;1.22999999689455;124;100 mA
117.066297704436;-0.89935302734375;-0.043011474609375;1.2399999968693;125;100 mA
117.076297704411;-0.899658203125;-0.0429595947265625;1.24999999684405;126;100 mA
117.086297704386;-0.899658203125;-0.042901611328125;1.25999999681881;127;100 mA
117.09629770436;-0.899658203125;-0.0428558349609375;1.26999999679356;128;100 mA
117.106297704335;-0.89935302734375;-0.04287109375;1.27999999676831;129;100 mA
117.11629770431;-0.89935302734375;-0.0429168701171875;1.28999999674306;130;100 mA
117.126297704285;-0.89935302734375;-0.0429901123046875;1.29999999671782;131;100 mA
117.136297704259;-0.899658203125;-0.0429351806640625;1.30999999669257;132;100 mA
117.146297704234;-0.89935302734375;-0.04285888671875;1.31999999666732;133;100 mA
117.156297704209;-0.89935302734375;-0.0427520751953125;1.32999999664207;134;100 mA
117.166297704184;-0.899658203125;-0.0427154541015625;1.33999999661683;135;100 mA
117.176297704158;-0.89935302734375;-0.0426483154296875;1.34999999659158;136;100 mA
117.186297704133;-0.89935302734375;-0.0426239013671875;1.35999999656633;137;100 mA
117.196297704108;-0.89935302734375;-0.0425628662109375;1.36999999654108;138;100 mA
117.206297704083;-0.899658203125;-0.042535400390625;1.37999999651583;139;100 mA
117.216297704057;-0.89996337890625;-0.0425750732421875;1.38999999649059;140;100 mA
117.226297704032;-0.899658203125;-0.0425689697265625;1.39999999646534;141;100 mA
117.236297704007;-0.89935302734375;-0.0425567626953125;1.40999999644009;142;100 mA
117.246297703982;-0.899658203125;-0.0425567626953125;1.41999999641484;143;100 mA
117.256297703956;-0.89996337890625;-0.04254150390625;1.4299999963896;144;100 mA
117.266297703931;-0.89996337890625;-0.0425628662109375;1.43999999636435;145;100 mA
117.276297703906;-0.899658203125;-0.0425018310546875;1.4499999963391;146;100 mA
117.286297703881;-0.8990478515625;-0.0424896240234375;1.45999999631385;147;100 mA
117.296297703855;-0.8990478515625;-0.0424285888671875;1.46999999628861;148;100 mA
117.30629770383;-0.8990478515625;-0.042376708984375;1.47999999626336;149;100 mA
117.316297703805;-0.899658203125;-0.042376708984375;1.48999999623811;150;100 mA
117.32629770378;-0.899658203125;-0.042315673828125;1.49999999621286;151;100 mA
117.336297703754;-0.8990478515625;-0.042315673828125;1.50999999618762;152;100 mA
117.346297703729;-0.89935302734375;-0.0422821044921875;1.51999999616237;153;100 mA
117.356297703704;-0.899658203125;-0.0423309326171875;1.52999999613712;154;100 mA
117.366297703679;-0.9002685546875;-0.0424652099609375;1.53999999611187;155;100 mA
117.376297703653;-0.89935302734375;-0.042413330078125;1.54999999608663;156;100 mA
117.386297703628;-0.89935302734375;-0.042437744140625;1.55999999606138;157;100 mA
117.396297703603;-0.89935302734375;-0.0423858642578125;1.56999999603613;158;100 mA
117.406297703578;-0.899658203125;-0.0423583984375;1.57999999601088;159;100 mA
117.416297703552;-0.89935302734375;-0.042315673828125;1.58999999598564;160;100 mA
117.426297703527;-0.89935302734375;-0.04227294921875;1.59999999596039;161;100 mA
117.436297703502;-0.899658203125;-0.042266845703125;1.60999999593514;162;100 mA
117.446297703477;-0.899658203125;-0.042266845703125;1.61999999590989;163;100 mA
117.456297703451;-0.89935302734375;-0.0422760009765625;1.62999999588465;164;100 mA
117.466297703426;-0.89935302734375;-0.0422637939453125;1.6399999958594;165;100 mA
117.476297703401;-0.899658203125;-0.0421966552734375;1.64999999583415;166;100 mA
117.486297703376;-0.899658203125;-0.042108154296875;1.6599999958089;167;100 mA
117.49629770335;-0.89996337890625;-0.0420745849609375;1.66999999578366;168;100 mA
117.506297703325;-0.8990478515625;-0.042071533203125;1.67999999575841;169;100 mA
117.5162977033;-0.89874267578125;-0.04200439453125;1.68999999573316;170;100 mA
117.526297703275;-0.9002685546875;-0.04195556640625;1.69999999570791;171;100 mA
117.536297703249;-0.89935302734375;-0.0418975830078125;1.70999999568267;172;100 mA
117.546297703224;-0.899658203125;-0.041876220703125;1.71999999565742;173;100 mA
117.556297703199;-0.899658203125;-0.0418548583984375;1.72999999563217;174;100 mA
117.566297703174;-0.89935302734375;-0.0418182373046875;1.73999999560692;175;100 mA
117.576297703148;-0.89935302734375;-0.04185791015625;1.74999999558167;176;100 mA
117.586297703123;-0.8990478515625;-0.041827392578125;1.75999999555643;177;100 mA
117.596297703098;-0.89996337890625;-0.04188232421875;1.76999999553118;178;100 mA
117.606297703073;-0.89935302734375;-0.0419281005859375;1.77999999550593;179;100 mA
117.616297703047;-0.8990478515625;-0.04188232421875;1.78999999548068;180;100 mA
117.626297703022;-0.89935302734375;-0.041839599609375;1.79999999545544;181;100 mA
117.636297702997;-0.89935302734375;-0.0417877197265625;1.80999999543019;182;100 mA
117.646297702972;-0.8990478515625;-0.04173583984375;1.81999999540494;183;100 mA
117.656297702946;-0.9002685546875;-0.0417083740234375;1.82999999537969;184;100 mA
117.666297702921;-0.8990478515625;-0.04168701171875;1.83999999535445;185;100 mA
117.676297702896;-0.899658203125;-0.0417144775390625;1.8499999953292;186;100 mA
117.686297702871;-0.899658203125;-0.0417572021484375;1.85999999530395;187;100 mA
117.696297702845;-0.89935302734375;-0.04178466796875;1.8699999952787;188;100 mA
117.70629770282;-0.89935302734375;-0.041790771484375;1.87999999525346;189;100 mA
117.716297702795;-0.8990478515625;-0.041802978515625;1.88999999522821;190;100 mA
117.72629770277;-0.899658203125;-0.0417327880859375;1.89999999520296;191;100 mA
117.736297702744;-0.89935302734375;-0.04173583984375;1.90999999517771;192;100 mA
117.746297702719;-0.89935302734375;-0.0417022705078125;1.91999999515247;193;100 mA
117.756297702694;-0.89996337890625;-0.0416351318359375;1.92999999512722;194;100 mA
117.766297702669;-0.89935302734375;-0.041571044921875;1.93999999510197;195;100 mA
117.776297702643;-0.89935302734375;-0.04146728515625;1.94999999507672;196;100 mA
117.786297702618;-0.89935302734375;-0.0414154052734375;1.95999999505148;197;100 mA
117.796297702593;-0.89935302734375;-0.0413818359375;1.96999999502623;198;100 mA
117.806297702568;-0.8990478515625;-0.0413299560546875;1.97999999500098;199;100 mA
117.816297702542;-0.89935302734375;-0.04130859375;1.98999999497573;200;100 mA
117.826297702517;-0.89996337890625;-0.0412841796875;1.99999999495049;201;100 mA
117.836297702492;-0.89935302734375;-0.04136962890625;2.00999999492524;202;100 mA
117.846297702467;-0.899658203125;-0.04144287109375;2.01999999489999;203;100 mA
117.856297702441;-0.89935302734375;-0.0415069580078125;2.02999999487474;204;100 mA
117.866297702416;-0.89996337890625;-0.041448974609375;2.0399999948495;205;100 mA
117.876297702391;-0.899658203125;-0.0413604736328125;2.04999999482425;206;100 mA
117.886297702366;-0.89935302734375;-0.0412811279296875;2.059999994799;207;100 mA
117.89629770234;-0.89935302734375;-0.041253662109375;2.06999999477375;208;100 mA
117.906297702315;-0.899658203125;-0.041229248046875;2.0799999947485;209;100 mA
117.91629770229;-0.899658203125;-0.0412017822265625;2.08999999472326;210;100 mA
117.926297702265;-0.9002685546875;-0.0412109375;2.09999999469801;211;100 mA
117.936297702239;-0.89935302734375;-0.0411468505859375;2.10999999467276;212;100 mA
117.946297702214;-0.89935302734375;-0.0411590576171875;2.11999999464751;213;100 mA
117.956297702189;-0.89996337890625;-0.0411895751953125;2.12999999462227;214;100 mA
117.966297702164;-0.899658203125;-0.0411529541015625;2.13999999459702;215;100 mA
117.976297702138;-0.8990478515625;-0.04114990234375;2.14999999457177;216;100 mA
117.986297702113;-0.899658203125;-0.041143798828125;2.15999999454652;217;100 mA
117.996297702088;-0.8990478515625;-0.0410888671875;2.16999999452128;218;100 mA
118.006297702063;-0.89996337890625;-0.0410858154296875;2.17999999449603;219;100 mA
118.016297702037;-0.89935302734375;-0.041009521484375;2.18999999447078;220;100 mA
118.026297702012;-0.89935302734375;-0.0409881591796875;2.19999999444553;221;100 mA
118.036297701987;-0.899658203125;-0.0409942626953125;2.20999999442029;222;100 mA
118.046297701962;-0.89935302734375;-0.0409942626953125;2.21999999439504;223;100 mA
118.056297701937;-0.89996337890625;-0.0409576416015625;2.22999999436979;224;100 mA
118.066297701911;-0.899658203125;-0.0409515380859375;2.23999999434454;225;100 mA
118.076297701886;-0.89935302734375;-0.0409393310546875;2.2499999943193;226;100 mA
118.086297701861;-0.89935302734375;-0.041033935546875;2.25999999429405;227;100 mA
118.096297701836;-0.89935302734375;-0.0410186767578125;2.2699999942688;228;100 mA
118.10629770181;-0.899658203125;-0.040972900390625;2.27999999424355;229;100 mA
118.116297701785;-0.89935302734375;-0.04090576171875;2.28999999421831;230;100 mA
118.12629770176;-0.8990478515625;-0.0408966064453125;2.29999999419306;231;100 mA
118.136297701735;-0.899658203125;-0.0408966064453125;2.30999999416781;232;100 mA
118.146297701709;-0.899658203125;-0.0408935546875;2.31999999414256;233;100 mA
118.156297701684;-0.89874267578125;-0.040911865234375;2.32999999411732;234;100 mA
118.166297701659;-0.899658203125;-0.0409271240234375;2.33999999409207;235;100 mA
118.176297701634;-0.8990478515625;-0.040936279296875;2.34999999406682;236;100 mA
118.186297701608;-0.899658203125;-0.040960693359375;2.35999999404157;237;100 mA
118.196297701583;-0.89935302734375;-0.0409210205078125;2.36999999401633;238;100 mA
118.206297701558;-0.899658203125;-0.0409027099609375;2.37999999399108;239;100 mA
118.216297701533;-0.89935302734375;-0.040863037109375;2.38999999396583;240;100 mA
118.226297701507;-0.89935302734375;-0.0407806396484375;2.39999999394058;241;100 mA
118.236297701482;-0.8990478515625;-0.0407257080078125;2.40999999391533;242;100 mA
118.246297701457;-0.899658203125;-0.04068603515625;2.41999999389009;243;100 mA
118.256297701432;-0.899658203125;-0.0406707763671875;2.42999999386484;244;100 mA
118.266297701406;-0.899658203125;-0.0406646728515625;2.43999999383959;245;100 mA
118.276297701381;-0.899658203125;-0.0406463623046875;2.44999999381434;246;100 mA
118.286297701356;-0.89996337890625;-0.0406280517578125;2.4599999937891;247;100 mA
118.296297701331;-0.89935302734375;-0.04061279296875;2.46999999376385;248;100 mA
118.306297701305;-0.89996337890625;-0.0406829833984375;2.4799999937386;249;100 mA
118.31629770128;-0.89935302734375;-0.040740966796875;2.48999999371335;250;100 mA
118.326297701255;-0.89935302734375;-0.0408599853515625;2.49999999368811;251;100 mA
118.33629770123;-0.89935302734375;-0.0408203125;2.50999999366286;252;100 mA
118.346297701204;-0.89996337890625;-0.0407684326171875;2.51999999363761;253;100 mA
118.356297701179;-0.89874267578125;-0.040692138671875;2.52999999361236;254;100 mA
118.366297701154;-0.899658203125;-0.040679931640625;2.53999999358712;255;100 mA
118.376297701129;-0.89935302734375;-0.0406097412109375;2.54999999356187;256;100 mA
118.386297701103;-0.899658203125;-0.040594482421875;2.55999999353662;257;100 mA
118.396297701078;-0.89996337890625;-0.040545654296875;2.56999999351137;258;100 mA
118.406297701053;-0.89935302734375;-0.0405548095703125;2.57999999348613;259;100 mA
118.416297701028;-0.899658203125;-0.0406005859375;2.58999999346088;260;100 mA
118.426297701002;-0.89996337890625;-0.0406402587890625;2.59999999343563;261;100 mA
118.436297700977;-0.899658203125;-0.0406158447265625;2.60999999341038;262;100 mA
118.446297700952;-0.89996337890625;-0.0406463623046875;2.61999999338514;263;100 mA
118.456297700927;-0.8990478515625;-0.04061279296875;2.62999999335989;264;100 mA
118.466297700901;-0.89996337890625;-0.040631103515625;2.63999999333464;265;100 mA
118.476297700876;-0.899658203125;-0.0405670166015625;2.64999999330939;266;100 mA
118.486297700851;-0.899658203125;-0.040521240234375;2.65999999328415;267;100 mA
118.496297700826;-0.89935302734375;-0.040478515625;2.6699999932589;268;100 mA
118.5062977008;-0.899658203125;-0.0404083251953125;2.67999999323365;269;100 mA
118.516297700775;-0.89996337890625;-0.040386962890625;2.6899999932084;270;100 mA
118.52629770075;-0.89935302734375;-0.0403350830078125;2.69999999318316;271;100 mA
118.536297700725;-0.89935302734375;-0.0403411865234375;2.70999999315791;272;100 mA
118.546297700699;-0.8990478515625;-0.04033203125;2.71999999313266;273;100 mA
118.556297700674;-0.89935302734375;-0.04036865234375;2.72999999310741;274;100 mA
118.566297700649;-0.89996337890625;-0.0405120849609375;2.73999999308217;275;100 mA
118.576297700624;-0.89935302734375;-0.04044189453125;2.74999999305692;276;100 mA
118.586297700598;-0.899658203125;-0.0405029296875;2.75999999303167;277;100 mA
118.596297700573;-0.89935302734375;-0.04046630859375;2.76999999300642;278;100 mA
118.606297700548;-0.89935302734375;-0.040435791015625;2.77999999298117;279;100 mA
118.616297700523;-0.89935302734375;-0.040399169921875;2.78999999295593;280;100 mA
118.626297700497;-0.89935302734375;-0.0403594970703125;2.79999999293068;281;100 mA
118.636297700472;-0.8990478515625;-0.04036865234375;2.80999999290543;282;100 mA
118.646297700447;-0.89935302734375;-0.040362548828125;2.81999999288018;283;100 mA
118.656297700422;-0.89935302734375;-0.0403839111328125;2.82999999285494;284;100 mA
118.666297700396;-0.89996337890625;-0.0403778076171875;2.83999999282969;285;100 mA
118.676297700371;-0.89996337890625;-0.040338134765625;2.84999999280444;286;100 mA
118.686297700346;-0.89996337890625;-0.0402862548828125;2.85999999277919;287;100 mA
118.696297700321;-0.89935302734375;-0.0402587890625;2.86999999275395;288;100 mA
118.706297700295;-0.8990478515625;-0.0402679443359375;2.8799999927287;289;100 mA
118.71629770027;-0.899658203125;-0.040228271484375;2.88999999270345;290;100 mA
118.726297700245;-0.899658203125;-0.0401824951171875;2.8999999926782;291;100 mA
118.73629770022;-0.89996337890625;-0.040142822265625;2.90999999265296;292;100 mA
118.746297700194;-0.8990478515625;-0.0401214599609375;2.91999999262771;293;100 mA
118.756297700169;-0.899658203125;-0.04010009765625;2.92999999260246;294;100 mA
118.766297700144;-0.89935302734375;-0.040045166015625;2.93999999257721;295;100 mA
118.776297700119;-0.899658203125;-0.0401031494140625;2.94999999255197;296;100 mA
118.786297700093;-0.89935302734375;-0.0400787353515625;2.95999999252672;297;100 mA
118.796297700068;-0.899658203125;-0.0401519775390625;2.96999999250147;298;100 mA
118.806297700043;-0.899658203125;-0.0401947021484375;2.97999999247622;299;100 mA
118.816297700018;-0.899658203125;-0.0401611328125;2.98999999245098;300;100 mA
118.826297699992;-0.899658203125;-0.040130615234375;2.99999999242573;301;100 mA
118.836297699967;-0.89996337890625;-0.0400726318359375;3.00999999240048;302;100 mA
118.846297699942;-0.89935302734375;-0.0400054931640625;3.01999999237523;303;100 mA
118.856297699917;-0.89935302734375;-0.0399505615234375;3.02999999234999;304;100 mA
118.866297699891;-0.899658203125;-0.03994140625;3.03999999232474;305;100 mA
118.876297699866;-0.89935302734375;-0.0399749755859375;3.04999999229949;306;100 mA
118.886297699841;-0.89935302734375;-0.0400177001953125;3.05999999227424;307;100 mA
118.896297699816;-0.899658203125;-0.0400177001953125;3.069999992249;308;100 mA
118.90629769979;-0.89935302734375;-0.0400360107421875;3.07999999222375;309;100 mA
118.916297699765;-0.89996337890625;-0.0400146484375;3.0899999921985;310;100 mA
118.92629769974;-0.89935302734375;-0.039959716796875;3.09999999217325;311;100 mA
118.936297699715;-0.89996337890625;-0.03997802734375;3.109999992148;312;100 mA
118.946297699689;-0.8990478515625;-0.0399505615234375;3.11999999212276;313;100 mA
118.956297699664;-0.89996337890625;-0.039892578125;3.12999999209751;314;100 mA
118.966297699639;-0.9002685546875;-0.0398223876953125;3.13999999207226;315;100 mA
118.976297699614;-0.899658203125;-0.0397491455078125;3.14999999204701;316;100 mA
118.986297699588;-0.8990478515625;-0.0397247314453125;3.15999999202177;317;100 mA
118.996297699563;-0.899658203125;-0.0396942138671875;3.16999999199652;318;100 mA
119.006297699538;-0.8990478515625;-0.0396636962890625;3.17999999197127;319;100 mA
119.016297699513;-0.89935302734375;-0.039654541015625;3.18999999194602;320;100 mA
119.026297699487;-0.89935302734375;-0.0396453857421875;3.19999999192078;321;100 mA
119.036297699462;-0.899658203125;-0.039764404296875;3.20999999189553;322;100 mA
119.046297699437;-0.899658203125;-0.0398223876953125;3.21999999187028;323;100 mA
119.056297699412;-0.899658203125;-0.039892578125;3.22999999184503;324;100 mA
119.066297699386;-0.89935302734375;-0.0398101806640625;3.23999999181979;325;100 mA
119.076297699361;-0.899658203125;-0.0397369384765625;3.24999999179454;326;100 mA
119.086297699336;-0.899658203125;-0.03968505859375;3.25999999176929;327;100 mA
119.096297699311;-0.89996337890625;-0.0396575927734375;3.26999999174404;328;100 mA
119.106297699286;-0.899658203125;-0.0396484375;3.2799999917188;329;100 mA
119.11629769926;-0.89996337890625;-0.0396240234375;3.28999999169355;330;100 mA
119.126297699235;-0.899658203125;-0.039642333984375;3.2999999916683;331;100 mA
119.13629769921;-0.9002685546875;-0.0395721435546875;3.30999999164305;332;100 mA
119.146297699185;-0.899658203125;-0.039599609375;3.31999999161781;333;100 mA
119.156297699159;-0.89935302734375;-0.039605712890625;3.32999999159256;334;100 mA
119.166297699134;-0.89996337890625;-0.039605712890625;3.33999999156731;335;100 mA
119.176297699109;-0.89935302734375;-0.0396240234375;3.34999999154206;336;100 mA
119.186297699084;-0.899658203125;-0.0396240234375;3.35999999151682;337;100 mA
119.196297699058;-0.89935302734375;-0.0395751953125;3.36999999149157;338;100 mA
119.206297699033;-0.8990478515625;-0.0395721435546875;3.37999999146632;339;100 mA
119.216297699008;-0.8990478515625;-0.03951416015625;3.38999999144107;340;100 mA
119.226297698983;-0.89935302734375;-0.0394805908203125;3.39999999141583;341;100 mA
119.236297698957;-0.89935302734375;-0.0394866943359375;3.40999999139058;342;100 mA
119.246297698932;-0.89935302734375;-0.039501953125;3.41999999136533;343;100 mA
119.256297698907;-0.899658203125;-0.039447021484375;3.42999999134008;344;100 mA
119.266297698882;-0.899658203125;-0.039447021484375;3.43999999131483;345;100 mA
119.276297698856;-0.8990478515625;-0.0394683837890625;3.44999999128959;346;100 mA
119.286297698831;-0.899658203125;-0.039569091796875;3.45999999126434;347;100 mA
119.296297698806;-0.8990478515625;-0.03956298828125;3.46999999123909;348;100 mA
119.306297698781;-0.89996337890625;-0.0395172119140625;3.47999999121384;349;100 mA
119.316297698755;-0.8990478515625;-0.0394744873046875;3.4899999911886;350;100 mA
119.32629769873;-0.899658203125;-0.0394683837890625;3.49999999116335;351;100 mA
119.336297698705;-0.89874267578125;-0.0394561767578125;3.5099999911381;352;100 mA
119.34629769868;-0.8990478515625;-0.0394378662109375;3.51999999111285;353;100 mA
119.356297698654;-0.89935302734375;-0.03944091796875;3.52999999108761;354;100 mA
119.366297698629;-0.8990478515625;-0.039459228515625;3.53999999106236;355;100 mA
119.376297698604;-0.89935302734375;-0.039459228515625;3.54999999103711;356;100 mA
119.386297698579;-0.899658203125;-0.039483642578125;3.55999999101186;357;100 mA
119.396297698553;-0.89935302734375;-0.0394287109375;3.56999999098662;358;100 mA
119.406297698528;-0.8990478515625;-0.0394195556640625;3.57999999096137;359;100 mA
119.416297698503;-0.89996337890625;-0.03936767578125;3.58999999093612;360;100 mA
119.426297698478;-0.89935302734375;-0.0393096923828125;3.59999999091087;361;100 mA
119.436297698452;-0.899658203125;-0.03927001953125;3.60999999088563;362;100 mA
119.446297698427;-0.89996337890625;-0.0392547607421875;3.61999999086038;363;100 mA
119.456297698402;-0.89996337890625;-0.03924560546875;3.62999999083513;364;100 mA
119.466297698377;-0.89996337890625;-0.0392486572265625;3.63999999080988;365;100 mA
119.476297698351;-0.899658203125;-0.03924560546875;3.64999999078464;366;100 mA
119.486297698326;-0.89935302734375;-0.0392303466796875;3.65999999075939;367;100 mA
119.496297698301;-0.89935302734375;-0.039215087890625;3.66999999073414;368;100 mA
119.506297698276;-0.8990478515625;-0.0392822265625;3.67999999070889;369;100 mA
119.51629769825;-0.899658203125;-0.039300537109375;3.68999999068365;370;100 mA
119.526297698225;-0.899658203125;-0.03944091796875;3.6999999906584;371;100 mA
119.5362976982;-0.89935302734375;-0.0393524169921875;3.70999999063315;372;100 mA
119.546297698175;-0.89935302734375;-0.0393310546875;3.7199999906079;373;100 mA
119.556297698149;-0.89996337890625;-0.0392486572265625;3.72999999058266;374;100 mA
119.566297698124;-0.8990478515625;-0.0392364501953125;3.73999999055741;375;100 mA
119.576297698099;-0.89996337890625;-0.0391815185546875;3.74999999053216;376;100 mA
119.586297698074;-0.899658203125;-0.039141845703125;3.75999999050691;377;100 mA
119.596297698048;-0.899658203125;-0.0390869140625;3.76999999048167;378;100 mA
119.606297698023;-0.899658203125;-0.0391082763671875;3.77999999045642;379;100 mA
119.616297697998;-0.899658203125;-0.039154052734375;3.78999999043117;380;100 mA
119.626297697973;-0.89996337890625;-0.0391876220703125;3.79999999040592;381;100 mA
119.636297697947;-0.9002685546875;-0.0391448974609375;3.80999999038067;382;100 mA
119.646297697922;-0.89935302734375;-0.0391876220703125;3.81999999035543;383;100 mA
119.656297697897;-0.89935302734375;-0.039154052734375;3.82999999033018;384;100 mA
119.666297697872;-0.89935302734375;-0.0391754150390625;3.83999999030493;385;100 mA
119.676297697846;-0.899658203125;-0.03914794921875;3.84999999027968;386;100 mA
119.686297697821;-0.89935302734375;-0.03909912109375;3.85999999025444;387;100 mA
119.696297697796;-0.8990478515625;-0.039068603515625;3.86999999022919;388;100 mA
119.706297697771;-0.89935302734375;-0.03902587890625;3.87999999020394;389;100 mA
119.716297697745;-0.8990478515625;-0.039013671875;3.88999999017869;390;100 mA
119.72629769772;-0.89996337890625;-0.0390106201171875;3.89999999015345;391;100 mA
119.736297697695;-0.899658203125;-0.039013671875;3.9099999901282;392;100 mA
119.74629769767;-0.899658203125;-0.0389892578125;3.91999999010295;393;100 mA
119.756297697644;-0.89996337890625;-0.0390380859375;3.9299999900777;394;100 mA
119.766297697619;-0.89935302734375;-0.0391510009765625;3.93999999005246;395;100 mA
119.776297697594;-0.9002685546875;-0.0391021728515625;3.94999999002721;396;100 mA
119.786297697569;-0.89935302734375;-0.0391265869140625;3.95999999000196;397;100 mA
119.796297697543;-0.899658203125;-0.0390625;3.96999998997671;398;100 mA
119.806297697518;-0.899658203125;-0.0390106201171875;3.97999998995147;399;100 mA
119.816297697493;-0.89935302734375;-0.0389617919921875;3.98999998992622;400;100 mA
119.826297697468;-0.8990478515625;-0.0389190673828125;3.99999998990097;401;100 mA
119.836297697442;-0.89935302734375;-0.0388916015625;4.00999998987572;402;100 mA
119.846297697417;-0.89935302734375;-0.0388641357421875;4.01999998985048;403;100 mA
119.856297697392;-0.899658203125;-0.0388671875;4.02999998982523;404;100 mA
119.866297697367;-0.899658203125;-0.0388336181640625;4.03999998979998;405;100 mA
119.876297697341;-0.89935302734375;-0.038787841796875;4.04999998977473;406;100 mA
119.886297697316;-0.899658203125;-0.0387298583984375;4.05999998974949;407;100 mA
119.896297697291;-0.89935302734375;-0.038726806640625;4.06999998972424;408;100 mA
119.906297697266;-0.89935302734375;-0.038751220703125;4.07999998969899;409;100 mA
119.91629769724;-0.899658203125;-0.0387359619140625;4.08999998967374;410;100 mA
119.926297697215;-0.89935302734375;-0.0387237548828125;4.0999999896485;411;100 mA
119.93629769719;-0.8990478515625;-0.0386871337890625;4.10999998962325;412;100 mA
119.946297697165;-0.89935302734375;-0.0386810302734375;4.119999989598;413;100 mA
119.956297697139;-0.89935302734375;-0.0386810302734375;4.12999998957275;414;100 mA
119.966297697114;-0.899658203125;-0.0386474609375;4.1399999895475;415;100 mA
119.976297697089;-0.89935302734375;-0.0386962890625;4.14999998952226;416;100 mA
119.986297697064;-0.89935302734375;-0.0386474609375;4.15999998949701;417;100 mA
119.996297697038;-0.9002685546875;-0.0387054443359375;4.16999998947176;418;100 mA
120.006297697013;-0.899658203125;-0.0387481689453125;4.17999998944651;419;100 mA
120.016297696988;-0.8990478515625;-0.0387359619140625;4.18999998942127;420;100 mA
120.026297696963;-0.8990478515625;-0.03868408203125;4.19999998939602;421;100 mA
120.036297696937;-0.89935302734375;-0.038592529296875;4.20999998937077;422;100 mA
120.046297696912;-0.899658203125;-0.0384979248046875;4.21999998934552;423;100 mA
120.056297696887;-0.89935302734375;-0.0384613037109375;4.22999998932028;424;100 mA
120.066297696862;-0.8990478515625;-0.0384613037109375;4.23999998929503;425;100 mA
120.076297696836;-0.8990478515625;-0.0384613037109375;4.24999998926978;426;100 mA
120.086297696811;-0.899658203125;-0.03848876953125;4.25999998924453;427;100 mA
120.096297696786;-0.89996337890625;-0.0384857177734375;4.26999998921929;428;100 mA
120.106297696761;-0.8990478515625;-0.0385040283203125;4.27999998919404;429;100 mA
120.116297696736;-0.8990478515625;-0.0384918212890625;4.28999998916879;430;100 mA
120.12629769671;-0.899658203125;-0.0384521484375;4.29999998914354;431;100 mA
120.136297696685;-0.89996337890625;-0.038470458984375;4.3099999891183;432;100 mA
120.14629769666;-0.89935302734375;-0.0384613037109375;4.31999998909305;433;100 mA
120.156297696635;-0.89935302734375;-0.0384063720703125;4.3299999890678;434;100 mA
120.166297696609;-0.89935302734375;-0.03837890625;4.33999998904255;435;100 mA
120.176297696584;-0.899658203125;-0.038348388671875;4.34999998901731;436;100 mA
120.186297696559;-0.899658203125;-0.0383544921875;4.35999998899206;437;100 mA
120.196297696534;-0.899658203125;-0.0383544921875;4.36999998896681;438;100 mA
120.206297696508;-0.899658203125;-0.03837890625;4.37999998894156;439;100 mA
120.216297696483;-0.89935302734375;-0.0383941650390625;4.38999998891632;440;100 mA
120.226297696458;-0.89935302734375;-0.03839111328125;4.39999998889107;441;100 mA
120.236297696433;-0.899658203125;-0.0384918212890625;4.40999998886582;442;100 mA
120.246297696407;-0.89935302734375;-0.038568115234375;4.41999998884057;443;100 mA
120.256297696382;-0.8990478515625;-0.038641357421875;4.42999998881533;444;100 mA
120.266297696357;-0.89996337890625;-0.038580322265625;4.43999998879008;445;100 mA
120.276297696332;-0.8990478515625;-0.0385101318359375;4.44999998876483;446;100 mA
120.286297696306;-0.8990478515625;-0.038470458984375;4.45999998873958;447;100 mA
120.296297696281;-0.89935302734375;-0.038427734375;4.46999998871433;448;100 mA
120.306297696256;-0.899658203125;-0.0384246826171875;4.47999998868909;449;100 mA
120.316297696231;-0.899658203125;-0.038397216796875;4.48999998866384;450;100 mA
120.326297696205;-0.899658203125;-0.0383819580078125;4.49999998863859;451;100 mA
120.33629769618;-0.89935302734375;-0.0383514404296875;4.50999998861334;452;100 mA
120.346297696155;-0.89935302734375;-0.0384063720703125;4.5199999885881;453;100 mA
120.35629769613;-0.89935302734375;-0.0384185791015625;4.52999998856285;454;100 mA
120.366297696104;-0.899658203125;-0.03843994140625;4.5399999885376;455;100 mA
120.376297696079;-0.89935302734375;-0.0384429931640625;4.54999998851235;456;100 mA
120.386297696054;-0.899658203125;-0.038458251953125;4.55999998848711;457;100 mA
120.396297696029;-0.89935302734375;-0.03841552734375;4.56999998846186;458;100 mA
120.406297696003;-0.899658203125;-0.0384124755859375;4.57999998843661;459;100 mA
120.416297695978;-0.89996337890625;-0.0383941650390625;4.58999998841136;460;100 mA
120.426297695953;-0.89935302734375;-0.0383697509765625;4.59999998838612;461;100 mA
120.436297695928;-0.89996337890625;-0.038385009765625;4.60999998836087;462;100 mA
120.446297695902;-0.89935302734375;-0.0383880615234375;4.61999998833562;463;100 mA
120.456297695877;-0.89935302734375;-0.0383636474609375;4.62999998831037;464;100 mA
120.466297695852;-0.899658203125;-0.0383758544921875;4.63999998828513;465;100 mA
120.476297695827;-0.899658203125;-0.0384307861328125;4.64999998825988;466;100 mA
120.486297695801;-0.89935302734375;-0.038525390625;4.65999998823463;467;100 mA
120.496297695776;-0.899658203125;-0.0385101318359375;4.66999998820938;468;100 mA
120.506297695751;-0.89935302734375;-0.0384857177734375;4.67999998818414;469;100 mA
120.516297695726;-0.89874267578125;-0.0384429931640625;4.68999998815889;470;100 mA
120.5262976957;-0.8990478515625;-0.0384521484375;4.69999998813364;471;100 mA
120.536297695675;-0.8990478515625;-0.038427734375;4.70999998810839;472;100 mA
120.54629769565;-0.899658203125;-0.0384307861328125;4.71999998808315;473;100 mA
120.556297695625;-0.899658203125;-0.0384185791015625;4.7299999880579;474;100 mA
120.566297695599;-0.899658203125;-0.038458251953125;4.73999998803265;475;100 mA
120.576297695574;-0.8990478515625;-0.0384735107421875;4.7499999880074;476;100 mA
120.586297695549;-0.89996337890625;-0.0384857177734375;4.75999998798216;477;100 mA
120.596297695524;-0.899658203125;-0.0384765625;4.76999998795691;478;100 mA
120.606297695498;-0.89935302734375;-0.03846435546875;4.77999998793166;479;100 mA
120.616297695473;-0.89935302734375;-0.0384185791015625;4.78999998790641;480;100 mA
120.626297695448;-0.89935302734375;-0.0384185791015625;4.79999998788116;481;100 mA
120.636297695423;-0.89935302734375;-0.0383941650390625;4.80999998785592;482;100 mA
120.646297695397;-0.89935302734375;-0.0384124755859375;4.81999998783067;483;100 mA
120.656297695372;-0.899658203125;-0.0384033203125;4.82999998780542;484;100 mA
120.666297695347;-0.899658203125;-0.0384063720703125;4.83999998778017;485;100 mA
120.676297695322;-0.89996337890625;-0.03841552734375;4.84999998775493;486;100 mA
120.686297695296;-0.89935302734375;-0.0383941650390625;4.85999998772968;487;100 mA
120.696297695271;-0.89935302734375;-0.038409423828125;4.86999998770443;488;100 mA
120.706297695246;-0.89935302734375;-0.0384765625;4.87999998767918;489;100 mA
120.716297695221;-0.89935302734375;-0.0385040283203125;4.88999998765394;490;100 mA
120.726297695195;-0.89874267578125;-0.038616943359375;4.89999998762869;491;100 mA
120.73629769517;-0.89935302734375;-0.038543701171875;4.90999998760344;492;100 mA
120.746297695145;-0.899658203125;-0.03853759765625;4.91999998757819;493;100 mA
120.75629769512;-0.89935302734375;-0.0384368896484375;4.92999998755295;494;100 mA
120.766297695094;-0.89935302734375;-0.0384063720703125;4.9399999875277;495;100 mA
120.776297695069;-0.899658203125;-0.0383636474609375;4.94999998750245;496;100 mA
120.786297695044;-0.89935302734375;-0.03831787109375;4.9599999874772;497;100 mA
120.796297695019;-0.89935302734375;-0.0383026123046875;4.96999998745196;498;100 mA
120.806297694993;-0.89935302734375;-0.0383514404296875;4.97999998742671;499;100 mA
120.816297694968;-0.8990478515625;-0.0383880615234375;4.98999998740146;500;100 mA
120.826297694943;-0.89935302734375;-0.03841552734375;4.99999998737621;501;100 mA
120.836297694918;-0.89996337890625;-0.03839111328125;5.00999998735097;502;100 mA
120.846297694892;-0.89935302734375;-0.0384368896484375;5.01999998732572;503;100 mA
120.856297694867;-0.89935302734375;-0.0384307861328125;5.02999998730047;504;100 mA
120.866297694842;-0.89935302734375;-0.0384307861328125;5.03999998727522;505;100 mA
120.876297694817;-0.899658203125;-0.0384002685546875;5.04999998724998;506;100 mA
120.886297694791;-0.89996337890625;-0.0383758544921875;5.05999998722473;507;100 mA
120.896297694766;-0.899658203125;-0.0383331298828125;5.06999998719948;508;100 mA
120.906297694741;-0.899658203125;-0.038323974609375;5.07999998717423;509;100 mA
120.916297694716;-0.89935302734375;-0.0383026123046875;5.08999998714899;510;100 mA
120.92629769469;-0.89996337890625;-0.0383148193359375;5.09999998712374;511;100 mA
120.936297694665;-0.89935302734375;-0.038323974609375;5.10999998709849;512;100 mA
120.94629769464;-0.899658203125;-0.0382965087890625;5.11999998707324;513;100 mA
120.956297694615;-0.89935302734375;-0.0383758544921875;5.129999987048;514;100 mA
120.966297694589;-0.8990478515625;-0.0384613037109375;5.13999998702275;515;100 mA
120.976297694564;-0.8990478515625;-0.0384521484375;5.1499999869975;516;100 mA
120.986297694539;-0.89935302734375;-0.0384857177734375;5.15999998697225;517;100 mA
120.996297694514;-0.89935302734375;-0.0384307861328125;5.169999986947;518;100 mA
121.006297694488;-0.899658203125;-0.038385009765625;5.17999998692176;519;100 mA
121.016297694463;-0.8990478515625;-0.03834228515625;5.18999998689651;520;100 mA
121.026297694438;-0.89935302734375;-0.03831787109375;5.19999998687126;521;100 mA
121.036297694413;-0.899658203125;-0.0383087158203125;5.20999998684601;522;100 mA
121.046297694387;-0.89935302734375;-0.038299560546875;5.21999998682077;523;100 mA
121.056297694362;-0.899658203125;-0.038311767578125;5.22999998679552;524;100 mA
121.066297694337;-0.899658203125;-0.0382659912109375;5.23999998677027;525;100 mA
121.076297694312;-0.899658203125;-0.03824462890625;5.24999998674502;526;100 mA
121.086297694286;-0.89935302734375;-0.0382080078125;5.25999998671978;527;100 mA
121.096297694261;-0.899658203125;-0.038214111328125;5.26999998669453;528;100 mA
121.106297694236;-0.89996337890625;-0.03822021484375;5.27999998666928;529;100 mA
121.116297694211;-0.8990478515625;-0.038189697265625;5.28999998664403;530;100 mA
121.126297694185;-0.89935302734375;-0.0381805419921875;5.29999998661879;531;100 mA
121.13629769416;-0.89935302734375;-0.0381500244140625;5.30999998659354;532;100 mA
121.146297694135;-0.8990478515625;-0.038134765625;5.31999998656829;533;100 mA
121.15629769411;-0.899658203125;-0.0381195068359375;5.32999998654304;534;100 mA
121.166297694085;-0.89935302734375;-0.038092041015625;5.3399999865178;535;100 mA
121.176297694059;-0.8990478515625;-0.0381378173828125;5.34999998649255;536;100 mA
121.186297694034;-0.89874267578125;-0.0381011962890625;5.3599999864673;537;100 mA
121.196297694009;-0.89935302734375;-0.0381500244140625;5.36999998644205;538;100 mA
121.206297693984;-0.89935302734375;-0.038201904296875;5.37999998641681;539;100 mA
121.216297693958;-0.89935302734375;-0.03817138671875;5.38999998639156;540;100 mA
121.226297693933;-0.89996337890625;-0.0381317138671875;5.39999998636631;541;100 mA
121.236297693908;-0.89935302734375;-0.038067626953125;5.40999998634106;542;100 mA
121.246297693883;-0.89935302734375;-0.0380096435546875;5.41999998631582;543;100 mA
121.256297693857;-0.89935302734375;-0.0379791259765625;5.42999998629057;544;100 mA
121.266297693832;-0.899658203125;-0.03798828125;5.43999998626532;545;100 mA
121.276297693807;-0.89935302734375;-0.03800048828125;5.44999998624007;546;100 mA
121.286297693782;-0.899658203125;-0.0380401611328125;5.45999998621483;547;100 mA
121.296297693756;-0.89935302734375;-0.038031005859375;5.46999998618958;548;100 mA
121.306297693731;-0.89935302734375;-0.03804931640625;5.47999998616433;549;100 mA
121.316297693706;-0.899658203125;-0.038037109375;5.48999998613908;550;100 mA
121.326297693681;-0.89874267578125;-0.03800048828125;5.49999998611383;551;100 mA
121.336297693655;-0.899658203125;-0.03802490234375;5.50999998608859;552;100 mA
121.34629769363;-0.89935302734375;-0.0380096435546875;5.51999998606334;553;100 mA
121.356297693605;-0.89935302734375;-0.0379302978515625;5.52999998603809;554;100 mA
121.36629769358;-0.89935302734375;-0.037884521484375;5.53999998601284;555;100 mA
121.376297693554;-0.899658203125;-0.0378509521484375;5.5499999859876;556;100 mA
121.386297693529;-0.899658203125;-0.0378662109375;5.55999998596235;557;100 mA
121.396297693504;-0.8990478515625;-0.0378631591796875;5.5699999859371;558;100 mA
121.406297693479;-0.89935302734375;-0.0378570556640625;5.57999998591185;559;100 mA
121.416297693453;-0.899658203125;-0.0378570556640625;5.58999998588661;560;100 mA
121.426297693428;-0.899658203125;-0.0378570556640625;5.59999998586136;561;100 mA
121.436297693403;-0.899658203125;-0.0379608154296875;5.60999998583611;562;100 mA
121.446297693378;-0.89935302734375;-0.038037109375;5.61999998581086;563;100 mA
121.456297693352;-0.89935302734375;-0.0380645751953125;5.62999998578562;564;100 mA
121.466297693327;-0.89874267578125;-0.0379913330078125;5.63999998576037;565;100 mA
121.476297693302;-0.89996337890625;-0.037908935546875;5.64999998573512;566;100 mA
121.486297693277;-0.8990478515625;-0.03787841796875;5.65999998570987;567;100 mA
121.496297693251;-0.899658203125;-0.0378173828125;5.66999998568463;568;100 mA
121.506297693226;-0.89935302734375;-0.03779296875;5.67999998565938;569;100 mA
121.516297693201;-0.89996337890625;-0.03775634765625;5.68999998563413;570;100 mA
121.526297693176;-0.89935302734375;-0.0377288818359375;5.69999998560888;571;100 mA
121.53629769315;-0.89935302734375;-0.037701416015625;5.70999998558364;572;100 mA
121.546297693125;-0.89996337890625;-0.03773193359375;5.71999998555839;573;100 mA
121.5562976931;-0.899658203125;-0.03770751953125;5.72999998553314;574;100 mA
121.566297693075;-0.89935302734375;-0.037701416015625;5.73999998550789;575;100 mA
121.576297693049;-0.89935302734375;-0.03768310546875;5.74999998548265;576;100 mA
121.586297693024;-0.899658203125;-0.0376708984375;5.7599999854574;577;100 mA
121.596297692999;-0.899658203125;-0.0376068115234375;5.76999998543215;578;100 mA
121.606297692974;-0.89935302734375;-0.0375579833984375;5.7799999854069;579;100 mA
121.616297692948;-0.8990478515625;-0.03751220703125;5.78999998538166;580;100 mA
121.626297692923;-0.899658203125;-0.037481689453125;5.79999998535641;581;100 mA
121.636297692898;-0.89935302734375;-0.0374908447265625;5.80999998533116;582;100 mA
121.646297692873;-0.899658203125;-0.0374755859375;5.81999998530591;583;100 mA
121.656297692847;-0.89935302734375;-0.0374420166015625;5.82999998528066;584;100 mA
121.666297692822;-0.89935302734375;-0.03741455078125;5.83999998525542;585;100 mA
121.676297692797;-0.89996337890625;-0.0374481201171875;5.84999998523017;586;100 mA
121.686297692772;-0.89935302734375;-0.037530517578125;5.85999998520492;587;100 mA
121.696297692746;-0.89874267578125;-0.0374786376953125;5.86999998517967;588;100 mA
121.706297692721;-0.89935302734375;-0.03743896484375;5.87999998515443;589;100 mA
121.716297692696;-0.89874267578125;-0.0373779296875;5.88999998512918;590;100 mA
121.726297692671;-0.89935302734375;-0.037371826171875;5.89999998510393;591;100 mA
121.736297692645;-0.89874267578125;-0.0373443603515625;5.90999998507868;592;100 mA
121.74629769262;-0.899658203125;-0.0373291015625;5.91999998505344;593;100 mA
121.756297692595;-0.8990478515625;-0.037298583984375;5.92999998502819;594;100 mA
121.76629769257;-0.899658203125;-0.0373046875;5.93999998500294;595;100 mA
121.776297692544;-0.89935302734375;-0.0373138427734375;5.94999998497769;596;100 mA
121.786297692519;-0.899658203125;-0.0372894287109375;5.95999998495245;597;100 mA
121.796297692494;-0.8990478515625;-0.0372589111328125;5.9699999849272;598;100 mA
121.806297692469;-0.89935302734375;-0.0372344970703125;5.97999998490195;599;100 mA
121.816297692443;-0.899658203125;-0.0371490478515625;5.9899999848767;600;100 mA
121.826297692418;-0.899658203125;-0.03714599609375;5.99999998485146;601;100 mA
121.836297692393;-0.899658203125;-0.0370941162109375;6.00999998482621;602;100 mA
121.846297692368;-0.89935302734375;-0.0370880126953125;6.01999998480096;603;100 mA
121.856297692342;-0.89935302734375;-0.0370513916015625;6.02999998477571;604;100 mA
121.866297692317;-0.899658203125;-0.0370208740234375;6.03999998475047;605;100 mA
121.876297692292;-0.899658203125;-0.0370208740234375;6.04999998472522;606;100 mA
121.886297692267;-0.8990478515625;-0.036981201171875;6.05999998469997;607;100 mA
121.896297692241;-0.89874267578125;-0.0369903564453125;6.06999998467472;608;100 mA
121.906297692216;-0.89935302734375;-0.0370269775390625;6.07999998464948;609;100 mA
121.916297692191;-0.899658203125;-0.0370513916015625;6.08999998462423;610;100 mA
121.926297692166;-0.8990478515625;-0.03714599609375;6.09999998459898;611;100 mA
121.93629769214;-0.89935302734375;-0.037066650390625;6.10999998457373;612;100 mA
121.946297692115;-0.89935302734375;-0.0370513916015625;6.11999998454849;613;100 mA
121.95629769209;-0.89935302734375;-0.0369537353515625;6.12999998452324;614;100 mA
121.966297692065;-0.89935302734375;-0.036895751953125;6.13999998449799;615;100 mA
121.976297692039;-0.89935302734375;-0.0368499755859375;6.14999998447274;616;100 mA
121.986297692014;-0.89996337890625;-0.0367950439453125;6.1599999844475;617;100 mA
121.996297691989;-0.899658203125;-0.036767578125;6.16999998442225;618;100 mA
122.006297691964;-0.89935302734375;-0.036810302734375;6.179999984397;619;100 mA
122.016297691938;-0.899658203125;-0.0368255615234375;6.18999998437175;620;100 mA
122.026297691913;-0.899658203125;-0.0368255615234375;6.1999999843465;621;100 mA
122.036297691888;-0.89935302734375;-0.03680419921875;6.20999998432126;622;100 mA
122.046297691863;-0.899658203125;-0.03681640625;6.21999998429601;623;100 mA
122.056297691837;-0.899658203125;-0.03677978515625;6.22999998427076;624;100 mA
122.066297691812;-0.89935302734375;-0.036761474609375;6.23999998424551;625;100 mA
122.076297691787;-0.89935302734375;-0.0367034912109375;6.24999998422027;626;100 mA
122.086297691762;-0.89996337890625;-0.036669921875;6.25999998419502;627;100 mA
122.096297691736;-0.8990478515625;-0.03660888671875;6.26999998416977;628;100 mA
122.106297691711;-0.89996337890625;-0.0365997314453125;6.27999998414452;629;100 mA
122.116297691686;-0.8990478515625;-0.0365814208984375;6.28999998411928;630;100 mA
122.126297691661;-0.899658203125;-0.0365692138671875;6.29999998409403;631;100 mA
122.136297691635;-0.899658203125;-0.03658447265625;6.30999998406878;632;100 mA
122.14629769161;-0.8990478515625;-0.0365325927734375;6.31999998404353;633;100 mA
122.156297691585;-0.8990478515625;-0.0365966796875;6.32999998401829;634;100 mA
122.16629769156;-0.899658203125;-0.036651611328125;6.33999998399304;635;100 mA
122.176297691535;-0.8990478515625;-0.0366302490234375;6.34999998396779;636;100 mA
122.186297691509;-0.899658203125;-0.036663818359375;6.35999998394254;637;100 mA
122.196297691484;-0.8990478515625;-0.0365966796875;6.3699999839173;638;100 mA
122.206297691459;-0.8990478515625;-0.0365509033203125;6.37999998389205;639;100 mA
122.216297691434;-0.899658203125;-0.0365142822265625;6.3899999838668;640;100 mA
122.226297691408;-0.89935302734375;-0.036480712890625;6.39999998384155;641;100 mA
122.236297691383;-0.89996337890625;-0.0364532470703125;6.40999998381631;642;100 mA
122.246297691358;-0.899658203125;-0.0364349365234375;6.41999998379106;643;100 mA
122.256297691333;-0.89935302734375;-0.0364349365234375;6.42999998376581;644;100 mA
122.266297691307;-0.8990478515625;-0.036376953125;6.43999998374056;645;100 mA
122.276297691282;-0.8990478515625;-0.0363861083984375;6.44999998371532;646;100 mA
122.286297691257;-0.899658203125;-0.036358642578125;6.45999998369007;647;100 mA
122.296297691232;-0.899658203125;-0.0363739013671875;6.46999998366482;648;100 mA
122.306297691206;-0.8990478515625;-0.036383056640625;6.47999998363957;649;100 mA
122.316297691181;-0.899658203125;-0.0363494873046875;6.48999998361433;650;100 mA
122.326297691156;-0.89935302734375;-0.0363189697265625;6.49999998358908;651;100 mA
122.336297691131;-0.89935302734375;-0.0362762451171875;6.50999998356383;652;100 mA
122.346297691105;-0.899658203125;-0.0362640380859375;6.51999998353858;653;100 mA
122.35629769108;-0.8990478515625;-0.036248779296875;6.52999998351333;654;100 mA
122.366297691055;-0.8990478515625;-0.0362274169921875;6.53999998348809;655;100 mA
122.37629769103;-0.89935302734375;-0.036279296875;6.54999998346284;656;100 mA
122.386297691004;-0.89996337890625;-0.0362335205078125;6.55999998343759;657;100 mA
122.396297690979;-0.89935302734375;-0.0362884521484375;6.56999998341234;658;100 mA
122.406297690954;-0.899658203125;-0.0363494873046875;6.5799999833871;659;100 mA
122.416297690929;-0.89935302734375;-0.0363067626953125;6.58999998336185;660;100 mA
122.426297690903;-0.8990478515625;-0.0362579345703125;6.5999999833366;661;100 mA
122.436297690878;-0.899658203125;-0.0361602783203125;6.60999998331135;662;100 mA
122.446297690853;-0.8990478515625;-0.03609619140625;6.61999998328611;663;100 mA
122.456297690828;-0.89935302734375;-0.036077880859375;6.62999998326086;664;100 mA
122.466297690802;-0.89874267578125;-0.03609619140625;6.63999998323561;665;100 mA
122.476297690777;-0.899658203125;-0.03609619140625;6.64999998321036;666;100 mA
122.486297690752;-0.89935302734375;-0.0361297607421875;6.65999998318512;667;100 mA
122.496297690727;-0.899658203125;-0.036126708984375;6.66999998315987;668;100 mA
122.506297690701;-0.89935302734375;-0.0361297607421875;6.67999998313462;669;100 mA
122.516297690676;-0.899658203125;-0.03612060546875;6.68999998310937;670;100 mA
122.526297690651;-0.89935302734375;-0.036077880859375;6.69999998308413;671;100 mA
122.536297690626;-0.899658203125;-0.036065673828125;6.70999998305888;672;100 mA
122.5462976906;-0.899658203125;-0.0360382080078125;6.71999998303363;673;100 mA
122.556297690575;-0.8990478515625;-0.0359649658203125;6.72999998300838;674;100 mA
122.56629769055;-0.899658203125;-0.03592529296875;6.73999998298314;675;100 mA
122.576297690525;-0.8990478515625;-0.035888671875;6.74999998295789;676;100 mA
122.586297690499;-0.8990478515625;-0.035888671875;6.75999998293264;677;100 mA
122.596297690474;-0.899658203125;-0.0358856201171875;6.76999998290739;678;100 mA
122.606297690449;-0.89996337890625;-0.0358795166015625;6.77999998288215;679;100 mA
122.616297690424;-0.8990478515625;-0.035858154296875;6.7899999828569;680;100 mA
122.626297690398;-0.899658203125;-0.03585205078125;6.79999998283165;681;100 mA
122.636297690373;-0.899658203125;-0.0359100341796875;6.8099999828064;682;100 mA
122.646297690348;-0.89935302734375;-0.0359588623046875;6.81999998278116;683;100 mA
122.656297690323;-0.899658203125;-0.035980224609375;6.82999998275591;684;100 mA
122.666297690297;-0.8990478515625;-0.0359161376953125;6.83999998273066;685;100 mA
122.676297690272;-0.899658203125;-0.0358367919921875;6.84999998270541;686;100 mA
122.686297690247;-0.89935302734375;-0.0357940673828125;6.85999998268016;687;100 mA
122.696297690222;-0.89935302734375;-0.0357421875;6.86999998265492;688;100 mA
122.706297690196;-0.89996337890625;-0.0357177734375;6.87999998262967;689;100 mA
122.716297690171;-0.8990478515625;-0.0356719970703125;6.88999998260442;690;100 mA
122.726297690146;-0.8990478515625;-0.0356292724609375;6.89999998257917;691;100 mA
122.736297690121;-0.89935302734375;-0.0356201171875;6.90999998255393;692;100 mA
122.746297690095;-0.89996337890625;-0.03564453125;6.91999998252868;693;100 mA
122.75629769007;-0.899658203125;-0.035638427734375;6.92999998250343;694;100 mA
122.766297690045;-0.8990478515625;-0.03565673828125;6.93999998247818;695;100 mA
122.77629769002;-0.899658203125;-0.0356414794921875;6.94999998245294;696;100 mA
122.786297689994;-0.899658203125;-0.0356231689453125;6.95999998242769;697;100 mA
122.796297689969;-0.89935302734375;-0.035577392578125;6.96999998240244;698;100 mA
122.806297689944;-0.899658203125;-0.0355560302734375;6.97999998237719;699;100 mA
122.816297689919;-0.899658203125;-0.035516357421875;6.98999998235195;700;100 mA
122.826297689893;-0.89935302734375;-0.0354827880859375;6.9999999823267;701;100 mA
122.836297689868;-0.89935302734375;-0.0354766845703125;7.00999998230145;702;100 mA
122.846297689843;-0.89996337890625;-0.0354461669921875;7.0199999822762;703;100 mA
122.856297689818;-0.899658203125;-0.0354400634765625;7.02999998225096;704;100 mA
122.866297689792;-0.89935302734375;-0.03541259765625;7.03999998222571;705;100 mA
122.876297689767;-0.89935302734375;-0.035455322265625;7.04999998220046;706;100 mA
122.886297689742;-0.8990478515625;-0.0355072021484375;7.05999998217521;707;100 mA
122.896297689717;-0.8990478515625;-0.0354644775390625;7.06999998214997;708;100 mA
122.906297689691;-0.89935302734375;-0.0354522705078125;7.07999998212472;709;100 mA
122.916297689666;-0.89996337890625;-0.0354095458984375;7.08999998209947;710;100 mA
122.926297689641;-0.899658203125;-0.0353851318359375;7.09999998207422;711;100 mA
122.936297689616;-0.8990478515625;-0.035357666015625;7.10999998204898;712;100 mA
122.94629768959;-0.899658203125;-0.0353515625;7.11999998202373;713;100 mA
122.956297689565;-0.89935302734375;-0.035333251953125;7.12999998199848;714;100 mA
122.96629768954;-0.8990478515625;-0.035333251953125;7.13999998197323;715;100 mA
122.976297689515;-0.8990478515625;-0.035357666015625;7.14999998194799;716;100 mA
122.986297689489;-0.899658203125;-0.0353485107421875;7.15999998192274;717;100 mA
122.996297689464;-0.8990478515625;-0.0353240966796875;7.16999998189749;718;100 mA
123.006297689439;-0.899658203125;-0.0353179931640625;7.17999998187224;719;100 mA
123.016297689414;-0.899658203125;-0.03525390625;7.189999981847;720;100 mA
123.026297689388;-0.89996337890625;-0.035260009765625;7.19999998182175;721;100 mA
123.036297689363;-0.899658203125;-0.035235595703125;7.2099999817965;722;100 mA
123.046297689338;-0.8990478515625;-0.0352294921875;7.21999998177125;723;100 mA
123.056297689313;-0.89935302734375;-0.035235595703125;7.229999981746;724;100 mA
123.066297689287;-0.8990478515625;-0.035211181640625;7.23999998172076;725;100 mA
123.076297689262;-0.89874267578125;-0.035223388671875;7.24999998169551;726;100 mA
123.086297689237;-0.89996337890625;-0.035205078125;7.25999998167026;727;100 mA
123.096297689212;-0.899658203125;-0.035223388671875;7.26999998164501;728;100 mA
123.106297689186;-0.89935302734375;-0.03526611328125;7.27999998161977;729;100 mA
123.116297689161;-0.899658203125;-0.035284423828125;7.28999998159452;730;100 mA
123.126297689136;-0.8990478515625;-0.035382080078125;7.29999998156927;731;100 mA
123.136297689111;-0.89935302734375;-0.035308837890625;7.30999998154402;732;100 mA
123.146297689085;-0.899658203125;-0.0352996826171875;7.31999998151878;733;100 mA
123.15629768906;-0.899658203125;-0.0352508544921875;7.32999998149353;734;100 mA
123.166297689035;-0.899658203125;-0.035205078125;7.33999998146828;735;100 mA
123.17629768901;-0.8990478515625;-0.035174560546875;7.34999998144303;736;100 mA
123.186297688984;-0.89935302734375;-0.035137939453125;7.35999998141779;737;100 mA
123.196297688959;-0.899658203125;-0.0351470947265625;7.36999998139254;738;100 mA
123.206297688934;-0.8990478515625;-0.0351837158203125;7.37999998136729;739;100 mA
123.216297688909;-0.89935302734375;-0.035211181640625;7.38999998134204;740;100 mA
123.226297688884;-0.899658203125;-0.0352325439453125;7.3999999813168;741;100 mA
123.236297688858;-0.89996337890625;-0.0352325439453125;7.40999998129155;742;100 mA
123.246297688833;-0.89935302734375;-0.0352569580078125;7.4199999812663;743;100 mA
123.256297688808;-0.89935302734375;-0.0352508544921875;7.42999998124105;744;100 mA
123.266297688783;-0.89996337890625;-0.035247802734375;7.43999998121581;745;100 mA
123.276297688757;-0.89935302734375;-0.0352142333984375;7.44999998119056;746;100 mA
123.286297688732;-0.899658203125;-0.035186767578125;7.45999998116531;747;100 mA
123.296297688707;-0.899658203125;-0.0351470947265625;7.46999998114006;748;100 mA
123.306297688682;-0.89935302734375;-0.035150146484375;7.47999998111482;749;100 mA
123.316297688656;-0.89935302734375;-0.035137939453125;7.48999998108957;750;100 mA
123.326297688631;-0.89935302734375;-0.035113525390625;7.49999998106432;751;100 mA
123.336297688606;-0.89996337890625;-0.035137939453125;7.50999998103907;752;100 mA
123.346297688581;-0.8990478515625;-0.035113525390625;7.51999998101383;753;100 mA
123.356297688555;-0.899658203125;-0.035205078125;7.52999998098858;754;100 mA
123.36629768853;-0.89935302734375;-0.03526611328125;7.53999998096333;755;100 mA
123.376297688505;-0.89935302734375;-0.03526611328125;7.54999998093808;756;100 mA
123.38629768848;-0.89935302734375;-0.0352996826171875;7.55999998091283;757;100 mA
123.396297688454;-0.89996337890625;-0.035247802734375;7.56999998088759;758;100 mA
123.406297688429;-0.899658203125;-0.0352081298828125;7.57999998086234;759;100 mA
123.416297688404;-0.899658203125;-0.0351837158203125;7.58999998083709;760;100 mA
123.426297688379;-0.8990478515625;-0.0351654052734375;7.59999998081184;761;100 mA
123.436297688353;-0.89996337890625;-0.03516845703125;7.6099999807866;762;100 mA
123.446297688328;-0.89935302734375;-0.035174560546875;7.61999998076135;763;100 mA
123.456297688303;-0.89935302734375;-0.0351837158203125;7.6299999807361;764;100 mA
123.466297688278;-0.899658203125;-0.03515625;7.63999998071085;765;100 mA
123.476297688252;-0.89935302734375;-0.035174560546875;7.64999998068561;766;100 mA
123.486297688227;-0.8990478515625;-0.0351837158203125;7.65999998066036;767;100 mA
123.496297688202;-0.8990478515625;-0.035198974609375;7.66999998063511;768;100 mA
123.506297688177;-0.89935302734375;-0.0352142333984375;7.67999998060986;769;100 mA
123.516297688151;-0.89874267578125;-0.0351806640625;7.68999998058462;770;100 mA
123.526297688126;-0.89996337890625;-0.035162353515625;7.69999998055937;771;100 mA
123.536297688101;-0.89874267578125;-0.035137939453125;7.70999998053412;772;100 mA
123.546297688076;-0.89935302734375;-0.0351470947265625;7.71999998050887;773;100 mA
123.55629768805;-0.89935302734375;-0.035150146484375;7.72999998048363;774;100 mA
123.566297688025;-0.89935302734375;-0.0351348876953125;7.73999998045838;775;100 mA
123.576297688;-0.89935302734375;-0.0351654052734375;7.74999998043313;776;100 mA
123.586297687975;-0.8990478515625;-0.0351409912109375;7.75999998040788;777;100 mA
123.596297687949;-0.8990478515625;-0.0351837158203125;7.76999998038264;778;100 mA
123.606297687924;-0.89935302734375;-0.0352783203125;7.77999998035739;779;100 mA
123.616297687899;-0.89996337890625;-0.0352630615234375;7.78999998033214;780;100 mA
123.626297687874;-0.89935302734375;-0.0352508544921875;7.79999998030689;781;100 mA
123.636297687848;-0.89935302734375;-0.035205078125;7.80999998028165;782;100 mA
123.646297687823;-0.89935302734375;-0.0351806640625;7.8199999802564;783;100 mA
123.656297687798;-0.89935302734375;-0.0352020263671875;7.82999998023115;784;100 mA
123.666297687773;-0.899658203125;-0.0352325439453125;7.8399999802059;785;100 mA
123.676297687747;-0.8990478515625;-0.03525390625;7.84999998018066;786;100 mA
123.686297687722;-0.8990478515625;-0.0352874755859375;7.85999998015541;787;100 mA
123.696297687697;-0.89935302734375;-0.0353271484375;7.86999998013016;788;100 mA
123.706297687672;-0.899658203125;-0.035333251953125;7.87999998010491;789;100 mA
123.716297687646;-0.8990478515625;-0.0353546142578125;7.88999998007966;790;100 mA
123.726297687621;-0.89935302734375;-0.03536376953125;7.89999998005442;791;100 mA
123.736297687596;-0.89935302734375;-0.0353546142578125;7.90999998002917;792;100 mA
123.746297687571;-0.89935302734375;-0.035345458984375;7.91999998000392;793;100 mA
123.756297687545;-0.89935302734375;-0.0352813720703125;7.92999997997867;794;100 mA
123.76629768752;-0.8990478515625;-0.0352691650390625;7.93999997995343;795;100 mA
123.776297687495;-0.899658203125;-0.0352508544921875;7.94999997992818;796;100 mA
123.78629768747;-0.89935302734375;-0.035260009765625;7.95999997990293;797;100 mA
123.796297687444;-0.899658203125;-0.0352508544921875;7.96999997987768;798;100 mA
123.806297687419;-0.89935302734375;-0.03524169921875;7.97999997985244;799;100 mA
123.816297687394;-0.9002685546875;-0.0352264404296875;7.98999997982719;800;100 mA
123.826297687369;-0.8990478515625;-0.0352447509765625;7.99999997980194;801;100 mA
123.836297687343;-0.899658203125;-0.0353302001953125;8.00999997977669;802;100 mA
123.846297687318;-0.899658203125;-0.035406494140625;8.01999997975145;803;100 mA
123.856297687293;-0.89935302734375;-0.0354095458984375;8.0299999797262;804;100 mA
123.866297687268;-0.89935302734375;-0.0353546142578125;8.03999997970095;805;100 mA
123.876297687242;-0.899658203125;-0.0353057861328125;8.0499999796757;806;100 mA
123.886297687217;-0.89935302734375;-0.0352874755859375;8.05999997965046;807;100 mA
123.896297687192;-0.89935302734375;-0.0352569580078125;8.06999997962521;808;100 mA
123.906297687167;-0.899658203125;-0.035260009765625;8.07999997959996;809;100 mA
123.916297687141;-0.89935302734375;-0.0352264404296875;8.08999997957471;810;100 mA
123.926297687116;-0.89935302734375;-0.0352325439453125;8.09999997954947;811;100 mA
123.936297687091;-0.89996337890625;-0.0352783203125;8.10999997952422;812;100 mA
123.946297687066;-0.9002685546875;-0.0353118896484375;8.11999997949897;813;100 mA
123.95629768704;-0.899658203125;-0.0353240966796875;8.12999997947372;814;100 mA
123.966297687015;-0.899658203125;-0.035369873046875;8.13999997944848;815;100 mA
123.97629768699;-0.89935302734375;-0.035382080078125;8.14999997942323;816;100 mA
123.986297686965;-0.89935302734375;-0.035394287109375;8.15999997939798;817;100 mA
123.996297686939;-0.899658203125;-0.0353729248046875;8.16999997937273;818;100 mA
124.006297686914;-0.899658203125;-0.035382080078125;8.17999997934749;819;100 mA
124.016297686889;-0.8990478515625;-0.0353790283203125;8.18999997932224;820;100 mA
124.026297686864;-0.899658203125;-0.0353607177734375;8.19999997929699;821;100 mA
124.036297686838;-0.89935302734375;-0.035394287109375;8.20999997927174;822;100 mA
124.046297686813;-0.89996337890625;-0.03536376953125;8.2199999792465;823;100 mA
124.056297686788;-0.8990478515625;-0.035382080078125;8.22999997922125;824;100 mA
124.066297686763;-0.899658203125;-0.035369873046875;8.239999979196;825;100 mA
124.076297686737;-0.899658203125;-0.0354278564453125;8.24999997917075;826;100 mA
124.086297686712;-0.89935302734375;-0.0355224609375;8.2599999791455;827;100 mA
124.096297686687;-0.8990478515625;-0.035498046875;8.26999997912026;828;100 mA
124.106297686662;-0.899658203125;-0.0355224609375;8.27999997909501;829;100 mA
124.116297686636;-0.8990478515625;-0.03551025390625;8.28999997906976;830;100 mA
124.126297686611;-0.89935302734375;-0.035516357421875;8.29999997904451;831;100 mA
124.136297686586;-0.899658203125;-0.035498046875;8.30999997901927;832;100 mA
124.146297686561;-0.89935302734375;-0.0354949951171875;8.31999997899402;833;100 mA
124.156297686535;-0.899658203125;-0.0354949951171875;8.32999997896877;834;100 mA
124.16629768651;-0.899658203125;-0.035498046875;8.33999997894352;835;100 mA
124.176297686485;-0.89996337890625;-0.035528564453125;8.34999997891828;836;100 mA
124.18629768646;-0.89935302734375;-0.03553466796875;8.35999997889303;837;100 mA
124.196297686434;-0.89874267578125;-0.0355010986328125;8.36999997886778;838;100 mA
124.206297686409;-0.899658203125;-0.0354949951171875;8.37999997884253;839;100 mA
124.216297686384;-0.899658203125;-0.0354644775390625;8.38999997881729;840;100 mA
124.226297686359;-0.89935302734375;-0.035479736328125;8.39999997879204;841;100 mA
124.236297686334;-0.899658203125;-0.0354644775390625;8.40999997876679;842;100 mA
124.246297686308;-0.89935302734375;-0.0354461669921875;8.41999997874154;843;100 mA
124.256297686283;-0.8990478515625;-0.0354400634765625;8.4299999787163;844;100 mA
124.266297686258;-0.899658203125;-0.0354217529296875;8.43999997869105;845;100 mA
124.276297686233;-0.89935302734375;-0.0354217529296875;8.4499999786658;846;100 mA
124.286297686207;-0.89996337890625;-0.035400390625;8.45999997864055;847;100 mA
124.296297686182;-0.89996337890625;-0.0354278564453125;8.46999997861531;848;100 mA
124.306297686157;-0.89935302734375;-0.0354461669921875;8.47999997859006;849;100 mA
124.316297686132;-0.89935302734375;-0.035498046875;8.48999997856481;850;100 mA
124.326297686106;-0.899658203125;-0.0355712890625;8.49999997853956;851;100 mA
124.336297686081;-0.899658203125;-0.0355194091796875;8.50999997851432;852;100 mA
124.346297686056;-0.89935302734375;-0.0354949951171875;8.51999997848907;853;100 mA
124.356297686031;-0.899658203125;-0.0354644775390625;8.52999997846382;854;100 mA
124.366297686005;-0.899658203125;-0.0354217529296875;8.53999997843857;855;100 mA
124.37629768598;-0.8990478515625;-0.0354156494140625;8.54999997841333;856;100 mA
124.386297685955;-0.899658203125;-0.0353973388671875;8.55999997838808;857;100 mA
124.39629768593;-0.89935302734375;-0.0354339599609375;8.56999997836283;858;100 mA
124.406297685904;-0.89874267578125;-0.0354736328125;8.57999997833758;859;100 mA
124.416297685879;-0.89935302734375;-0.035516357421875;8.58999997831233;860;100 mA
124.426297685854;-0.899658203125;-0.0355499267578125;8.59999997828709;861;100 mA
124.436297685829;-0.89996337890625;-0.0355560302734375;8.60999997826184;862;100 mA
124.446297685803;-0.89935302734375;-0.0355743408203125;8.61999997823659;863;100 mA
124.456297685778;-0.899658203125;-0.0355804443359375;8.62999997821134;864;100 mA
124.466297685753;-0.899658203125;-0.0355743408203125;8.6399999781861;865;100 mA
124.476297685728;-0.899658203125;-0.035565185546875;8.64999997816085;866;100 mA
124.486297685702;-0.899658203125;-0.035540771484375;8.6599999781356;867;100 mA
124.496297685677;-0.89996337890625;-0.035504150390625;8.66999997811035;868;100 mA
124.506297685652;-0.899658203125;-0.035498046875;8.67999997808511;869;100 mA
124.516297685627;-0.899658203125;-0.0355010986328125;8.68999997805986;870;100 mA
124.526297685601;-0.8990478515625;-0.035479736328125;8.69999997803461;871;100 mA
124.536297685576;-0.89935302734375;-0.035491943359375;8.70999997800936;872;100 mA
124.546297685551;-0.899658203125;-0.035479736328125;8.71999997798412;873;100 mA
124.556297685526;-0.89996337890625;-0.0355682373046875;8.72999997795887;874;100 mA
124.5662976855;-0.899658203125;-0.03563232421875;8.73999997793362;875;100 mA
124.576297685475;-0.899658203125;-0.0356597900390625;8.74999997790837;876;100 mA
124.58629768545;-0.8990478515625;-0.035675048828125;8.75999997788313;877;100 mA
124.596297685425;-0.899658203125;-0.035626220703125;8.76999997785788;878;100 mA
124.606297685399;-0.89935302734375;-0.0355804443359375;8.77999997783263;879;100 mA
124.616297685374;-0.89935302734375;-0.0355682373046875;8.78999997780738;880;100 mA
124.626297685349;-0.899658203125;-0.0355438232421875;8.79999997778214;881;100 mA
124.636297685324;-0.89935302734375;-0.035552978515625;8.80999997775689;882;100 mA
124.646297685298;-0.899658203125;-0.035565185546875;8.81999997773164;883;100 mA
124.656297685273;-0.89935302734375;-0.035546875;8.82999997770639;884;100 mA
124.666297685248;-0.899658203125;-0.035565185546875;8.83999997768115;885;100 mA
124.676297685223;-0.899658203125;-0.03558349609375;8.8499999776559;886;100 mA
124.686297685197;-0.89935302734375;-0.0356201171875;8.85999997763065;887;100 mA
124.696297685172;-0.89935302734375;-0.03563232421875;8.8699999776054;888;100 mA
124.706297685147;-0.899658203125;-0.03563232421875;8.87999997758016;889;100 mA
124.716297685122;-0.8990478515625;-0.0356109619140625;8.88999997755491;890;100 mA
124.726297685096;-0.89935302734375;-0.03560791015625;8.89999997752966;891;100 mA
124.736297685071;-0.89935302734375;-0.035577392578125;8.90999997750441;892;100 mA
124.746297685046;-0.899658203125;-0.03558349609375;8.91999997747916;893;100 mA
124.756297685021;-0.899658203125;-0.0355926513671875;8.92999997745392;894;100 mA
124.766297684995;-0.8990478515625;-0.0355804443359375;8.93999997742867;895;100 mA
124.77629768497;-0.899658203125;-0.035601806640625;8.94999997740342;896;100 mA
124.786297684945;-0.89935302734375;-0.0355865478515625;8.95999997737817;897;100 mA
124.79629768492;-0.899658203125;-0.0356109619140625;8.96999997735293;898;100 mA
124.806297684894;-0.89935302734375;-0.0356964111328125;8.97999997732768;899;100 mA
124.816297684869;-0.89996337890625;-0.0356719970703125;8.98999997730243;900;100 mA
124.826297684844;-0.899658203125;-0.03565673828125;8.99999997727718;901;100 mA
124.836297684819;-0.899658203125;-0.0356048583984375;9.00999997725194;902;100 mA
124.846297684793;-0.8990478515625;-0.0355804443359375;9.01999997722669;903;100 mA
124.856297684768;-0.899658203125;-0.035601806640625;9.02999997720144;904;100 mA
124.866297684743;-0.89935302734375;-0.0356170654296875;9.03999997717619;905;100 mA
124.876297684718;-0.8990478515625;-0.0356353759765625;9.04999997715095;906;100 mA
124.886297684692;-0.89935302734375;-0.0356536865234375;9.0599999771257;907;100 mA
124.896297684667;-0.89935302734375;-0.03568115234375;9.06999997710045;908;100 mA
124.906297684642;-0.89935302734375;-0.0356903076171875;9.0799999770752;909;100 mA
124.916297684617;-0.89935302734375;-0.0356781005859375;9.08999997704996;910;100 mA
124.926297684591;-0.89935302734375;-0.0357086181640625;9.09999997702471;911;100 mA
124.936297684566;-0.89996337890625;-0.03568115234375;9.10999997699946;912;100 mA
124.946297684541;-0.89935302734375;-0.0356414794921875;9.11999997697421;913;100 mA
124.956297684516;-0.89935302734375;-0.035595703125;9.12999997694897;914;100 mA
124.96629768449;-0.89935302734375;-0.035565185546875;9.13999997692372;915;100 mA
124.976297684465;-0.8990478515625;-0.0355560302734375;9.14999997689847;916;100 mA
124.98629768444;-0.89935302734375;-0.035546875;9.15999997687322;917;100 mA
124.996297684415;-0.89935302734375;-0.0355377197265625;9.16999997684798;918;100 mA
125.006297684389;-0.899658203125;-0.03551025390625;9.17999997682273;919;100 mA
125.016297684364;-0.89935302734375;-0.0355010986328125;9.18999997679748;920;100 mA
125.026297684339;-0.899658203125;-0.0355224609375;9.19999997677223;921;100 mA
125.036297684314;-0.89935302734375;-0.03558349609375;9.20999997674699;922;100 mA
125.046297684288;-0.89935302734375;-0.0356689453125;9.21999997672174;923;100 mA
125.056297684263;-0.89996337890625;-0.035638427734375;9.22999997669649;924;100 mA
125.066297684238;-0.899658203125;-0.035589599609375;9.23999997667124;925;100 mA
125.076297684213;-0.8990478515625;-0.035528564453125;9.249999976646;926;100 mA
125.086297684187;-0.8990478515625;-0.035491943359375;9.25999997662075;927;100 mA
125.096297684162;-0.8990478515625;-0.035443115234375;9.2699999765955;928;100 mA
125.106297684137;-0.89935302734375;-0.0354400634765625;9.27999997657025;929;100 mA
125.116297684112;-0.89935302734375;-0.0353912353515625;9.289999976545;930;100 mA
125.126297684086;-0.89935302734375;-0.0353759765625;9.29999997651976;931;100 mA
125.136297684061;-0.89935302734375;-0.0354248046875;9.30999997649451;932;100 mA
125.146297684036;-0.899658203125;-0.035418701171875;9.31999997646926;933;100 mA
125.156297684011;-0.89996337890625;-0.03541259765625;9.32999997644401;934;100 mA
125.166297683985;-0.8990478515625;-0.0354522705078125;9.33999997641877;935;100 mA
125.17629768396;-0.899658203125;-0.0354278564453125;9.34999997639352;936;100 mA
125.186297683935;-0.89935302734375;-0.035430908203125;9.35999997636827;937;100 mA
125.19629768391;-0.89935302734375;-0.03538818359375;9.36999997634302;938;100 mA
125.206297683884;-0.899658203125;-0.0353668212890625;9.37999997631778;939;100 mA
125.216297683859;-0.899658203125;-0.035357666015625;9.38999997629253;940;100 mA
125.226297683834;-0.899658203125;-0.035321044921875;9.39999997626728;941;100 mA
125.236297683809;-0.899658203125;-0.0353363037109375;9.40999997624203;942;100 mA
125.246297683783;-0.899658203125;-0.035308837890625;9.41999997621679;943;100 mA
125.256297683758;-0.89874267578125;-0.035333251953125;9.42999997619154;944;100 mA
125.266297683733;-0.899658203125;-0.035308837890625;9.43999997616629;945;100 mA
125.276297683708;-0.89935302734375;-0.03536376953125;9.44999997614104;946;100 mA
125.286297683683;-0.89935302734375;-0.0354522705078125;9.4599999761158;947;100 mA
125.296297683657;-0.89935302734375;-0.0354034423828125;9.46999997609055;948;100 mA
125.306297683632;-0.8990478515625;-0.0354248046875;9.4799999760653;949;100 mA
125.316297683607;-0.899658203125;-0.035406494140625;9.48999997604005;950;100 mA
125.326297683582;-0.89935302734375;-0.03538818359375;9.49999997601481;951;100 mA
125.336297683556;-0.899658203125;-0.0353607177734375;9.50999997598956;952;100 mA
125.346297683531;-0.89935302734375;-0.0353424072265625;9.51999997596431;953;100 mA
125.356297683506;-0.8990478515625;-0.03533935546875;9.52999997593906;954;100 mA
125.366297683481;-0.89996337890625;-0.0353240966796875;9.53999997591382;955;100 mA
125.376297683455;-0.899658203125;-0.035345458984375;9.54999997588857;956;100 mA
125.38629768343;-0.89935302734375;-0.035333251953125;9.55999997586332;957;100 mA
125.396297683405;-0.89935302734375;-0.03529052734375;9.56999997583807;958;100 mA
125.40629768338;-0.89935302734375;-0.0352691650390625;9.57999997581283;959;100 mA
125.416297683354;-0.89935302734375;-0.0352386474609375;9.58999997578758;960;100 mA
125.426297683329;-0.899658203125;-0.0352447509765625;9.59999997576233;961;100 mA
125.436297683304;-0.899658203125;-0.0352142333984375;9.60999997573708;962;100 mA
125.446297683279;-0.899658203125;-0.035186767578125;9.61999997571183;963;100 mA
125.456297683253;-0.89935302734375;-0.03516845703125;9.62999997568659;964;100 mA
125.466297683228;-0.899658203125;-0.0351593017578125;9.63999997566134;965;100 mA
125.476297683203;-0.89996337890625;-0.0351593017578125;9.64999997563609;966;100 mA
125.486297683178;-0.8990478515625;-0.035150146484375;9.65999997561084;967;100 mA
125.496297683152;-0.89935302734375;-0.035198974609375;9.6699999755856;968;100 mA
125.506297683127;-0.89935302734375;-0.0351959228515625;9.67999997556035;969;100 mA
125.516297683102;-0.89935302734375;-0.03525390625;9.6899999755351;970;100 mA
125.526297683077;-0.899658203125;-0.035302734375;9.69999997550985;971;100 mA
125.536297683051;-0.89935302734375;-0.0352691650390625;9.70999997548461;972;100 mA
125.546297683026;-0.899658203125;-0.03524169921875;9.71999997545936;973;100 mA
125.556297683001;-0.8984375;-0.035198974609375;9.72999997543411;974;100 mA
125.566297682976;-0.89935302734375;-0.0351531982421875;9.73999997540886;975;100 mA
125.57629768295;-0.899658203125;-0.035125732421875;9.74999997538362;976;100 mA
125.586297682925;-0.89935302734375;-0.035101318359375;9.75999997535837;977;100 mA
125.5962976829;-0.89935302734375;-0.035125732421875;9.76999997533312;978;100 mA
125.606297682875;-0.899658203125;-0.0351470947265625;9.77999997530787;979;100 mA
125.616297682849;-0.89935302734375;-0.03516845703125;9.78999997528263;980;100 mA
125.626297682824;-0.8990478515625;-0.0351898193359375;9.79999997525738;981;100 mA
125.636297682799;-0.899658203125;-0.0351776123046875;9.80999997523213;982;100 mA
125.646297682774;-0.89996337890625;-0.0351776123046875;9.81999997520688;983;100 mA
125.656297682748;-0.89996337890625;-0.0351776123046875;9.82999997518164;984;100 mA
125.666297682723;-0.89996337890625;-0.0351531982421875;9.83999997515639;985;100 mA
125.676297682698;-0.89935302734375;-0.0351226806640625;9.84999997513114;986;100 mA
125.686297682673;-0.89935302734375;-0.0350982666015625;9.85999997510589;987;100 mA
125.696297682647;-0.8990478515625;-0.0350616455078125;9.86999997508065;988;100 mA
125.706297682622;-0.8990478515625;-0.035064697265625;9.8799999750554;989;100 mA
125.716297682597;-0.89935302734375;-0.0350616455078125;9.88999997503015;990;100 mA
125.726297682572;-0.89935302734375;-0.0350555419921875;9.8999999750049;991;100 mA
125.736297682546;-0.899658203125;-0.035076904296875;9.90999997497966;992;100 mA
125.746297682521;-0.89935302734375;-0.035076904296875;9.91999997495441;993;100 mA
125.756297682496;-0.89996337890625;-0.0351776123046875;9.92999997492916;994;100 mA
125.766297682471;-0.89935302734375;-0.0352447509765625;9.93999997490391;995;100 mA
125.776297682445;-0.89935302734375;-0.0352783203125;9.94999997487866;996;100 mA
125.78629768242;-0.899658203125;-0.0352691650390625;9.95999997485342;997;100 mA
125.796297682395;-0.89935302734375;-0.035223388671875;9.96999997482817;998;100 mA
125.80629768237;-0.899658203125;-0.0351776123046875;9.97999997480292;999;100 mA
125.816297682344;-0.89996337890625;-0.0351654052734375;9.98999997477767;1000;100 mA
