Time (s);WE(1).Potential (V);WE(1).Current (A);Corrected time (s);Index;Current range;Overload
59.8284558489477;-0.91400146484375;-2.33917236328125;0;1;1 A;Current overload
59.8384558489224;-0.9912109375;-1.99920654296875;0.00999999997475243;2;1 A;
59.8484558488972;-1.05072021484375;-1.4556884765625;0.0199999999495049;3;1 A;
59.8584558488719;-1.04949951171875;-1.27593994140625;0.0299999999242573;4;1 A;
59.8684558488467;-1.0498046875;-1.129150390625;0.0399999998990097;5;1 A;
59.8784558488214;-1.05010986328125;-1.0662841796875;0.0499999998737621;6;1 A;
59.8884558487962;-1.04949951171875;-1.00677490234375;0.0599999998485146;7;1 A;
59.8984558487709;-1.04949951171875;-0.982666015625;0.069999999823267;8;1 A;
59.9084558487457;-1.0491943359375;-0.97442626953125;0.0799999997980194;9;1 A;
59.9184558487204;-1.0498046875;-0.93963623046875;0.0899999997727718;10;1 A;
59.9284558486952;-1.05010986328125;-0.931396484375;0.0999999997475243;11;1 A;
59.9384558486699;-1.0498046875;-0.90301513671875;0.109999999722277;12;1 A;
59.9484558486447;-1.04949951171875;-0.89874267578125;0.119999999697029;13;1 A;
59.9584558486195;-1.0491943359375;-0.8795166015625;0.129999999671782;14;1 A;
59.9684558485942;-1.0491943359375;-0.892333984375;0.139999999646534;15;1 A;
59.978455848569;-1.05010986328125;-0.8721923828125;0.149999999621286;16;1 A;
59.9884558485437;-1.04949951171875;-0.87799072265625;0.159999999596039;17;1 A;
59.9984558485185;-1.04949951171875;-0.86456298828125;0.169999999570791;18;1 A;
60.0084558484932;-1.05010986328125;-0.86212158203125;0.179999999545544;19;1 A;
60.018455848468;-1.04949951171875;-0.88470458984375;0.189999999520296;20;1 A;
60.0284558484427;-1.0491943359375;-0.8941650390625;0.199999999495049;21;1 A;
60.0384558484175;-1.0491943359375;-0.90545654296875;0.209999999469801;22;1 A;
60.0484558483922;-1.0498046875;-0.8880615234375;0.219999999444553;23;1 A;
60.058455848367;-1.0491943359375;-0.88226318359375;0.229999999419306;24;1 A;
60.0684558483417;-1.04949951171875;-0.8721923828125;0.239999999394058;25;1 A;
60.0784558483165;-1.04949951171875;-0.8837890625;0.249999999368811;26;1 A;
60.0884558482912;-1.0504150390625;-0.87310791015625;0.259999999343563;27;1 A;
60.098455848266;-1.0498046875;-0.87860107421875;0.269999999318316;28;1 A;
60.1084558482407;-1.04949951171875;-0.86578369140625;0.279999999293068;29;1 A;
60.1184558482155;-1.0491943359375;-0.87677001953125;0.28999999926782;30;1 A;
60.1284558481902;-1.0491943359375;-0.8856201171875;0.299999999242573;31;1 A;
60.138455848165;-1.04949951171875;-0.909423828125;0.309999999217325;32;1 A;
60.1484558481397;-1.04949951171875;-0.91522216796875;0.319999999192078;33;1 A;
60.1584558481145;-1.04949951171875;-0.8978271484375;0.32999999916683;34;1 A;
60.1684558480893;-1.04949951171875;-0.88775634765625;0.339999999141583;35;1 A;
60.178455848064;-1.04949951171875;-0.877685546875;0.349999999116335;36;1 A;
60.1884558480388;-1.04949951171875;-0.89263916015625;0.359999999091087;37;1 A;
60.1984558480135;-1.04949951171875;-0.89385986328125;0.36999999906584;38;1 A;
60.2084558479883;-1.0498046875;-0.89111328125;0.379999999040592;39;1 A;
60.218455847963;-1.04949951171875;-0.87860107421875;0.389999999015345;40;1 A;
60.2284558479378;-1.04949951171875;-0.87982177734375;0.399999998990097;41;1 A;
60.2384558479125;-1.0491943359375;-0.87554931640625;0.40999999896485;42;1 A;
60.2484558478873;-1.04888916015625;-0.88165283203125;0.419999998939602;43;1 A;
60.258455847862;-1.0498046875;-0.87677001953125;0.429999998914354;44;1 A;
60.2684558478368;-1.04949951171875;-0.8740234375;0.439999998889107;45;1 A;
60.2784558478115;-1.04949951171875;-0.87982177734375;0.449999998863859;46;1 A;
60.2884558477863;-1.0498046875;-0.88287353515625;0.459999998838612;47;1 A;
60.298455847761;-1.0498046875;-0.89385986328125;0.469999998813364;48;1 A;
60.3084558477358;-1.0498046875;-0.877685546875;0.479999998788116;49;1 A;
60.3184558477105;-1.04949951171875;-0.867919921875;0.489999998762869;50;1 A;
60.3284558476853;-1.04949951171875;-0.8624267578125;0.499999998737621;51;1 A;
60.33845584766;-1.0491943359375;-0.87615966796875;0.509999998712374;52;1 A;
60.3484558476348;-1.04949951171875;-0.87249755859375;0.519999998687126;53;1 A;
60.3584558476095;-1.04949951171875;-0.87677001953125;0.529999998661879;54;1 A;
60.3684558475843;-1.04949951171875;-0.8660888671875;0.539999998636631;55;1 A;
60.3784558475591;-1.0491943359375;-0.87005615234375;0.549999998611383;56;1 A;
60.3884558475338;-1.04949951171875;-0.86181640625;0.559999998586136;57;1 A;
60.3984558475086;-1.0498046875;-0.84808349609375;0.569999998560888;58;1 A;
60.4084558474833;-1.0491943359375;-0.8502197265625;0.579999998535641;59;1 A;
60.4184558474581;-1.04949951171875;-0.84442138671875;0.589999998510393;60;1 A;
60.4284558474328;-1.04949951171875;-0.8599853515625;0.599999998485146;61;1 A;
60.4384558474076;-1.0491943359375;-0.867919921875;0.609999998459898;62;1 A;
60.4484558473823;-1.04949951171875;-0.88623046875;0.61999999843465;63;1 A;
60.4584558473571;-1.05010986328125;-0.85601806640625;0.629999998409403;64;1 A;
60.4684558473318;-1.04949951171875;-0.86395263671875;0.639999998384155;65;1 A;
60.4784558473066;-1.04949951171875;-0.8526611328125;0.649999998358908;66;1 A;
60.4884558472813;-1.0498046875;-0.8648681640625;0.65999999833366;67;1 A;
60.4984558472561;-1.0491943359375;-0.88470458984375;0.669999998308413;68;1 A;
60.5084558472308;-1.04949951171875;-0.87615966796875;0.679999998283165;69;1 A;
60.5184558472056;-1.0491943359375;-0.8837890625;0.689999998257917;70;1 A;
60.5284558471803;-1.05010986328125;-0.87890625;0.69999999823267;71;1 A;
60.5384558471551;-1.04949951171875;-0.87554931640625;0.709999998207422;72;1 A;
60.5484558471298;-1.04949951171875;-0.86883544921875;0.719999998182175;73;1 A;
60.5584558471046;-1.04949951171875;-0.87310791015625;0.729999998156927;74;1 A;
60.5684558470793;-1.04949951171875;-0.860595703125;0.73999999813168;75;1 A;
60.5784558470541;-1.0498046875;-0.8746337890625;0.749999998106432;76;1 A;
60.5884558470289;-1.0491943359375;-0.8697509765625;0.759999998081184;77;1 A;
60.5984558470036;-1.04949951171875;-0.87677001953125;0.769999998055937;78;1 A;
60.6084558469784;-1.04949951171875;-0.865478515625;0.779999998030689;79;1 A;
60.6184558469531;-1.0491943359375;-0.86151123046875;0.789999998005442;80;1 A;
60.6284558469279;-1.0498046875;-0.86181640625;0.799999997980194;81;1 A;
60.6384558469026;-1.0498046875;-0.8660888671875;0.809999997954947;82;1 A;
60.6484558468774;-1.0491943359375;-0.869140625;0.819999997929699;83;1 A;
60.6584558468521;-1.0498046875;-0.855712890625;0.829999997904451;84;1 A;
60.6684558468269;-1.04949951171875;-0.85906982421875;0.839999997879204;85;1 A;
60.6784558468016;-1.04949951171875;-0.8551025390625;0.849999997853956;86;1 A;
60.6884558467764;-1.0498046875;-0.87249755859375;0.859999997828709;87;1 A;
60.6984558467511;-1.0491943359375;-0.86700439453125;0.869999997803461;88;1 A;
60.7084558467259;-1.0491943359375;-0.86700439453125;0.879999997778214;89;1 A;
60.7184558467006;-1.04949951171875;-0.8624267578125;0.889999997752966;90;1 A;
60.7284558466754;-1.0498046875;-0.88531494140625;0.899999997727718;91;1 A;
60.7384558466501;-1.04949951171875;-0.88836669921875;0.909999997702471;92;1 A;
60.7484558466249;-1.0498046875;-0.88897705078125;0.919999997677223;93;1 A;
60.7584558465996;-1.05010986328125;-0.87982177734375;0.929999997651976;94;1 A;
60.7684558465744;-1.04949951171875;-0.86456298828125;0.939999997626728;95;1 A;
60.7784558465492;-1.04949951171875;-0.87249755859375;0.949999997601481;96;1 A;
60.7884558465239;-1.05010986328125;-0.865478515625;0.959999997576233;97;1 A;
60.7984558464987;-1.0498046875;-0.87921142578125;0.969999997550985;98;1 A;
60.8084558464734;-1.04949951171875;-0.85662841796875;0.979999997525738;99;1 A;
60.8184558464482;-1.04949951171875;-0.863037109375;0.98999999750049;100;1 A;
60.8284558464229;-1.04949951171875;-0.8526611328125;0.999999997475243;101;1 A;
60.8384558463977;-1.04949951171875;-0.882568359375;1.00999999745;102;1 A;
60.8484558463724;-1.0498046875;-0.872802734375;1.01999999742475;103;1 A;
60.8584558463472;-1.0498046875;-0.8782958984375;1.0299999973995;104;1 A;
60.8684558463219;-1.04949951171875;-0.88348388671875;1.03999999737425;105;1 A;
60.8784558462967;-1.0491943359375;-0.859375;1.049999997349;106;1 A;
60.8884558462714;-1.04949951171875;-0.85296630859375;1.05999999732376;107;1 A;
60.8984558462462;-1.04949951171875;-0.84869384765625;1.06999999729851;108;1 A;
60.9084558462209;-1.0498046875;-0.8612060546875;1.07999999727326;109;1 A;
60.9184558461957;-1.04949951171875;-0.86456298828125;1.08999999724801;110;1 A;
60.9284558461704;-1.0491943359375;-0.8721923828125;1.09999999722277;111;1 A;
60.9384558461452;-1.0498046875;-0.87371826171875;1.10999999719752;112;1 A;
60.9484558461199;-1.04949951171875;-0.88623046875;1.11999999717227;113;1 A;
60.9584558460947;-1.0498046875;-0.8740234375;1.12999999714702;114;1 A;
60.9684558460694;-1.04888916015625;-0.87646484375;1.13999999712178;115;1 A;
60.9784558460442;-1.05010986328125;-0.86883544921875;1.14999999709653;116;1 A;
60.988455846019;-1.0498046875;-0.87890625;1.15999999707128;117;1 A;
60.9984558459937;-1.0491943359375;-0.8837890625;1.16999999704603;118;1 A;
61.0084558459685;-1.04949951171875;-0.888671875;1.17999999702079;119;1 A;
61.0184558459432;-1.0498046875;-0.8868408203125;1.18999999699554;120;1 A;
61.028455845918;-1.05010986328125;-0.8624267578125;1.19999999697029;121;1 A;
61.0384558458927;-1.0504150390625;-0.875244140625;1.20999999694504;122;1 A;
61.0484558458675;-1.04949951171875;-0.8758544921875;1.2199999969198;123;1 A;
61.0584558458422;-1.0491943359375;-0.9124755859375;1.22999999689455;124;1 A;
61.068455845817;-1.0498046875;-0.90911865234375;1.2399999968693;125;1 A;
61.0784558457917;-1.0498046875;-0.90362548828125;1.24999999684405;126;1 A;
61.0884558457665;-1.0498046875;-0.8941650390625;1.25999999681881;127;1 A;
61.0984558457412;-1.0498046875;-0.89111328125;1.26999999679356;128;1 A;
61.108455845716;-1.04888916015625;-0.88592529296875;1.27999999676831;129;1 A;
61.1184558456907;-1.0491943359375;-0.894775390625;1.28999999674306;130;1 A;
61.1284558456655;-1.0498046875;-0.89019775390625;1.29999999671782;131;1 A;
61.1384558456402;-1.0498046875;-0.89141845703125;1.30999999669257;132;1 A;
61.148455845615;-1.04949951171875;-0.8978271484375;1.31999999666732;133;1 A;
61.1584558455897;-1.04949951171875;-0.89080810546875;1.32999999664207;134;1 A;
61.1684558455645;-1.0491943359375;-0.90728759765625;1.33999999661683;135;1 A;
61.1784558455392;-1.0498046875;-0.8837890625;1.34999999659158;136;1 A;
61.188455845514;-1.04949951171875;-0.88836669921875;1.35999999656633;137;1 A;
61.1984558454888;-1.0498046875;-0.88104248046875;1.36999999654108;138;1 A;
61.2084558454635;-1.04949951171875;-0.89111328125;1.37999999651583;139;1 A;
61.2184558454383;-1.04949951171875;-0.88897705078125;1.38999999649059;140;1 A;
61.228455845413;-1.04888916015625;-0.877685546875;1.39999999646534;141;1 A;
61.2384558453878;-1.05010986328125;-0.887451171875;1.40999999644009;142;1 A;
61.2484558453625;-1.04949951171875;-0.87890625;1.41999999641484;143;1 A;
61.2584558453373;-1.0504150390625;-0.89691162109375;1.4299999963896;144;1 A;
61.268455845312;-1.04949951171875;-0.89019775390625;1.43999999636435;145;1 A;
61.2784558452868;-1.04949951171875;-0.889892578125;1.4499999963391;146;1 A;
61.2884558452615;-1.0498046875;-0.8905029296875;1.45999999631385;147;1 A;
61.2984558452363;-1.0498046875;-0.89324951171875;1.46999999628861;148;1 A;
61.308455845211;-1.04949951171875;-0.8880615234375;1.47999999626336;149;1 A;
61.3184558451858;-1.0491943359375;-0.90087890625;1.48999999623811;150;1 A;
61.3284558451605;-1.04949951171875;-0.894775390625;1.49999999621286;151;1 A;
61.3384558451353;-1.05010986328125;-0.89508056640625;1.50999999618762;152;1 A;
61.34845584511;-1.0504150390625;-0.8966064453125;1.51999999616237;153;1 A;
61.3584558450848;-1.04949951171875;-0.90240478515625;1.52999999613712;154;1 A;
61.3684558450595;-1.04949951171875;-0.90545654296875;1.53999999611187;155;1 A;
61.3784558450343;-1.0498046875;-0.89202880859375;1.54999999608663;156;1 A;
61.388455845009;-1.05010986328125;-0.90728759765625;1.55999999606138;157;1 A;
61.3984558449838;-1.05010986328125;-0.8917236328125;1.56999999603613;158;1 A;
61.4084558449586;-1.04949951171875;-0.90057373046875;1.57999999601088;159;1 A;
61.4184558449333;-1.05010986328125;-0.88714599609375;1.58999999598564;160;1 A;
61.4284558449081;-1.05010986328125;-0.89385986328125;1.59999999596039;161;1 A;
61.4384558448828;-1.0491943359375;-0.89202880859375;1.60999999593514;162;1 A;
61.4484558448576;-1.04949951171875;-0.9039306640625;1.61999999590989;163;1 A;
61.4584558448323;-1.0498046875;-0.90576171875;1.62999999588465;164;1 A;
61.4684558448071;-1.04949951171875;-0.89630126953125;1.6399999958594;165;1 A;
61.4784558447818;-1.0491943359375;-0.9027099609375;1.64999999583415;166;1 A;
61.4884558447566;-1.04949951171875;-0.89935302734375;1.6599999958089;167;1 A;
61.4984558447313;-1.04949951171875;-0.89996337890625;1.66999999578366;168;1 A;
61.5084558447061;-1.0498046875;-0.88165283203125;1.67999999575841;169;1 A;
61.5184558446808;-1.05010986328125;-0.88592529296875;1.68999999573316;170;1 A;
61.5284558446556;-1.0498046875;-0.8782958984375;1.69999999570791;171;1 A;
61.5384558446303;-1.0491943359375;-0.89508056640625;1.70999999568267;172;1 A;
61.5484558446051;-1.04949951171875;-0.88592529296875;1.71999999565742;173;1 A;
61.5584558445798;-1.04949951171875;-0.89874267578125;1.72999999563217;174;1 A;
61.5684558445546;-1.04949951171875;-0.88897705078125;1.73999999560692;175;1 A;
61.5784558445293;-1.04949951171875;-0.89752197265625;1.74999999558167;176;1 A;
61.5884558445041;-1.0498046875;-0.90484619140625;1.75999999555643;177;1 A;
61.5984558444788;-1.0498046875;-0.89752197265625;1.76999999553118;178;1 A;
61.6084558444536;-1.0491943359375;-0.91278076171875;1.77999999550593;179;1 A;
61.6184558444284;-1.0491943359375;-0.90484619140625;1.78999999548068;180;1 A;
61.6284558444031;-1.0498046875;-0.9124755859375;1.79999999545544;181;1 A;
61.6384558443779;-1.04949951171875;-0.892333984375;1.80999999543019;182;1 A;
61.6484558443526;-1.0491943359375;-0.89630126953125;1.81999999540494;183;1 A;
61.6584558443274;-1.04949951171875;-0.88287353515625;1.82999999537969;184;1 A;
61.6684558443021;-1.04949951171875;-0.8831787109375;1.83999999535445;185;1 A;
61.6784558442769;-1.04949951171875;-0.875244140625;1.8499999953292;186;1 A;
61.6884558442516;-1.04949951171875;-0.88653564453125;1.85999999530395;187;1 A;
61.6984558442264;-1.04949951171875;-0.89263916015625;1.8699999952787;188;1 A;
61.7084558442011;-1.0491943359375;-0.89111328125;1.87999999525346;189;1 A;
61.7184558441759;-1.0498046875;-0.89324951171875;1.88999999522821;190;1 A;
61.7284558441506;-1.04949951171875;-0.87646484375;1.89999999520296;191;1 A;
61.7384558441254;-1.0491943359375;-0.8837890625;1.90999999517771;192;1 A;
61.7484558441001;-1.0498046875;-0.87066650390625;1.91999999515247;193;1 A;
61.7584558440749;-1.05010986328125;-0.8795166015625;1.92999999512722;194;1 A;
61.7684558440496;-1.04949951171875;-0.85784912109375;1.93999999510197;195;1 A;
61.7784558440244;-1.0491943359375;-0.87982177734375;1.94999999507672;196;1 A;
61.7884558439991;-1.0504150390625;-0.87005615234375;1.95999999505148;197;1 A;
61.7984558439739;-1.0491943359375;-0.88226318359375;1.96999999502623;198;1 A;
61.8084558439486;-1.0498046875;-0.894775390625;1.97999999500098;199;1 A;
61.8184558439234;-1.0498046875;-0.89141845703125;1.98999999497573;200;1 A;
61.8284558438982;-1.04949951171875;-0.8935546875;1.99999999495049;201;1 A;
61.8384558438729;-1.04949951171875;-0.90545654296875;2.00999999492524;202;1 A;
61.8484558438477;-1.05010986328125;-0.90789794921875;2.01999999489999;203;1 A;
61.8584558438224;-1.04949951171875;-0.9063720703125;2.02999999487474;204;1 A;
61.8684558437972;-1.04949951171875;-0.90667724609375;2.0399999948495;205;1 A;
61.8784558437719;-1.0498046875;-0.89874267578125;2.04999999482425;206;1 A;
61.8884558437467;-1.04949951171875;-0.9051513671875;2.059999994799;207;1 A;
61.8984558437214;-1.04949951171875;-0.90240478515625;2.06999999477375;208;1 A;
61.9084558436962;-1.04949951171875;-0.91156005859375;2.0799999947485;209;1 A;
61.9184558436709;-1.0491943359375;-0.90576171875;2.08999999472326;210;1 A;
61.9284558436457;-1.0491943359375;-0.9075927734375;2.09999999469801;211;1 A;
61.9384558436204;-1.0498046875;-0.90240478515625;2.10999999467276;212;1 A;
61.9484558435952;-1.04949951171875;-0.8978271484375;2.11999999464751;213;1 A;
61.9584558435699;-1.04949951171875;-0.90118408203125;2.12999999462227;214;1 A;
61.9684558435447;-1.0491943359375;-0.902099609375;2.13999999459702;215;1 A;
61.9784558435194;-1.04949951171875;-0.90606689453125;2.14999999457177;216;1 A;
61.9884558434942;-1.05010986328125;-0.91156005859375;2.15999999454652;217;1 A;
61.9984558434689;-1.0498046875;-0.90789794921875;2.16999999452128;218;1 A;
62.0084558434437;-1.04949951171875;-0.8990478515625;2.17999999449603;219;1 A;
62.0184558434185;-1.04949951171875;-0.89080810546875;2.18999999447078;220;1 A;
62.0284558433932;-1.0491943359375;-0.87890625;2.19999999444553;221;1 A;
62.038455843368;-1.0498046875;-0.89080810546875;2.20999999442029;222;1 A;
62.0484558433427;-1.0498046875;-0.89599609375;2.21999999439504;223;1 A;
62.0584558433175;-1.05010986328125;-0.90789794921875;2.22999999436979;224;1 A;
62.0684558432922;-1.0498046875;-0.9051513671875;2.23999999434454;225;1 A;
62.078455843267;-1.04949951171875;-0.8935546875;2.2499999943193;226;1 A;
62.0884558432417;-1.0498046875;-0.899658203125;2.25999999429405;227;1 A;
62.0984558432165;-1.0491943359375;-0.9014892578125;2.2699999942688;228;1 A;
62.1084558431912;-1.0498046875;-0.90911865234375;2.27999999424355;229;1 A;
62.118455843166;-1.04949951171875;-0.9136962890625;2.28999999421831;230;1 A;
62.1284558431407;-1.04949951171875;-0.9112548828125;2.29999999419306;231;1 A;
62.1384558431155;-1.04949951171875;-0.90362548828125;2.30999999416781;232;1 A;
62.1484558430902;-1.04949951171875;-0.9259033203125;2.31999999414256;233;1 A;
62.158455843065;-1.04949951171875;-0.91705322265625;2.32999999411732;234;1 A;
62.1684558430397;-1.0498046875;-0.91827392578125;2.33999999409207;235;1 A;
62.1784558430145;-1.0498046875;-0.9149169921875;2.34999999406682;236;1 A;
62.1884558429892;-1.04949951171875;-0.92437744140625;2.35999999404157;237;1 A;
62.198455842964;-1.0498046875;-0.9283447265625;2.36999999401633;238;1 A;
62.2084558429387;-1.05010986328125;-0.93048095703125;2.37999999399108;239;1 A;
62.2184558429135;-1.0491943359375;-0.92529296875;2.38999999396583;240;1 A;
62.2284558428883;-1.0498046875;-0.91796875;2.39999999394058;241;1 A;
62.238455842863;-1.0491943359375;-0.91400146484375;2.40999999391533;242;1 A;
62.2484558428378;-1.0498046875;-0.91217041015625;2.41999999389009;243;1 A;
62.2584558428125;-1.0491943359375;-0.92864990234375;2.42999999386484;244;1 A;
62.2684558427873;-1.0491943359375;-0.92437744140625;2.43999999383959;245;1 A;
62.278455842762;-1.0498046875;-0.92498779296875;2.44999999381434;246;1 A;
62.2884558427368;-1.04949951171875;-0.9228515625;2.4599999937891;247;1 A;
62.2984558427115;-1.0491943359375;-0.9295654296875;2.46999999376385;248;1 A;
62.3084558426863;-1.04949951171875;-0.9307861328125;2.4799999937386;249;1 A;
62.318455842661;-1.0498046875;-0.93475341796875;2.48999999371335;250;1 A;
62.3284558426358;-1.0498046875;-0.92010498046875;2.49999999368811;251;1 A;
62.3384558426105;-1.0498046875;-0.91033935546875;2.50999999366286;252;1 A;
62.3484558425853;-1.0491943359375;-0.9112548828125;2.51999999363761;253;1 A;
62.35845584256;-1.0498046875;-0.91583251953125;2.52999999361236;254;1 A;
62.3684558425348;-1.04949951171875;-0.92926025390625;2.53999999358712;255;1 A;
62.3784558425095;-1.0491943359375;-0.93414306640625;2.54999999356187;256;1 A;
62.3884558424843;-1.04888916015625;-0.93963623046875;2.55999999353662;257;1 A;
62.398455842459;-1.04949951171875;-0.93231201171875;2.56999999351137;258;1 A;
62.4084558424338;-1.0491943359375;-0.93994140625;2.57999999348613;259;1 A;
62.4184558424085;-1.04949951171875;-0.9234619140625;2.58999999346088;260;1 A;
62.4284558423833;-1.04949951171875;-0.92620849609375;2.59999999343563;261;1 A;
62.4384558423581;-1.04949951171875;-0.9271240234375;2.60999999341038;262;1 A;
62.4484558423328;-1.0498046875;-0.933837890625;2.61999999338514;263;1 A;
62.4584558423076;-1.04949951171875;-0.9356689453125;2.62999999335989;264;1 A;
62.4684558422823;-1.0498046875;-0.9344482421875;2.63999999333464;265;1 A;
62.4784558422571;-1.04949951171875;-0.9375;2.64999999330939;266;1 A;
62.4884558422318;-1.0498046875;-0.91217041015625;2.65999999328415;267;1 A;
62.4984558422066;-1.05010986328125;-0.92437744140625;2.6699999932589;268;1 A;
62.5084558421813;-1.0498046875;-0.91827392578125;2.67999999323365;269;1 A;
62.5184558421561;-1.04949951171875;-0.92620849609375;2.6899999932084;270;1 A;
62.5284558421308;-1.0498046875;-0.924072265625;2.69999999318316;271;1 A;
62.5384558421056;-1.05010986328125;-0.92864990234375;2.70999999315791;272;1 A;
62.5484558420803;-1.04949951171875;-0.92742919921875;2.71999999313266;273;1 A;
62.5584558420551;-1.04949951171875;-0.9295654296875;2.72999999310741;274;1 A;
62.5684558420298;-1.0498046875;-0.93505859375;2.73999999308217;275;1 A;
62.5784558420046;-1.04949951171875;-0.91796875;2.74999999305692;276;1 A;
62.5884558419793;-1.04949951171875;-0.91766357421875;2.75999999303167;277;1 A;
62.5984558419541;-1.05010986328125;-0.90972900390625;2.76999999300642;278;1 A;
62.6084558419288;-1.04888916015625;-0.93017578125;2.77999999298117;279;1 A;
62.6184558419036;-1.04888916015625;-0.94329833984375;2.78999999295593;280;1 A;
62.6284558418783;-1.0491943359375;-0.936279296875;2.79999999293068;281;1 A;
62.6384558418531;-1.0491943359375;-0.9344482421875;2.80999999290543;282;1 A;
62.6484558418279;-1.04949951171875;-0.9295654296875;2.81999999288018;283;1 A;
62.6584558418026;-1.0498046875;-0.9295654296875;2.82999999285494;284;1 A;
62.6684558417774;-1.0498046875;-0.9326171875;2.83999999282969;285;1 A;
62.6784558417521;-1.04949951171875;-0.927734375;2.84999999280444;286;1 A;
62.6884558417269;-1.0498046875;-0.93902587890625;2.85999999277919;287;1 A;
62.6984558417016;-1.0498046875;-0.9423828125;2.86999999275395;288;1 A;
62.7084558416764;-1.0498046875;-0.9625244140625;2.8799999927287;289;1 A;
62.7184558416511;-1.0498046875;-0.9600830078125;2.88999999270345;290;1 A;
62.7284558416259;-1.05010986328125;-0.943603515625;2.8999999926782;291;1 A;
62.7384558416006;-1.05010986328125;-0.94940185546875;2.90999999265296;292;1 A;
62.7484558415754;-1.04949951171875;-0.9344482421875;2.91999999262771;293;1 A;
62.7584558415501;-1.0498046875;-0.9326171875;2.92999999260246;294;1 A;
62.7684558415249;-1.04949951171875;-0.936279296875;2.93999999257721;295;1 A;
62.7784558414996;-1.04949951171875;-0.9527587890625;2.94999999255197;296;1 A;
62.7884558414744;-1.0498046875;-0.95703125;2.95999999252672;297;1 A;
62.7984558414491;-1.04888916015625;-0.96832275390625;2.96999999250147;298;1 A;
62.8084558414239;-1.04949951171875;-0.95977783203125;2.97999999247622;299;1 A;
62.8184558413986;-1.0491943359375;-0.9503173828125;2.98999999245098;300;1 A;
62.8284558413734;-1.0498046875;-0.94635009765625;2.99999999242573;301;1 A;
62.8384558413481;-1.04949951171875;-0.9503173828125;3.00999999240048;302;1 A;
62.8484558413229;-1.0498046875;-0.96099853515625;3.01999999237523;303;1 A;
62.8584558412977;-1.0491943359375;-0.9619140625;3.02999999234999;304;1 A;
62.8684558412724;-1.0498046875;-0.96710205078125;3.03999999232474;305;1 A;
62.8784558412472;-1.0504150390625;-0.955810546875;3.04999999229949;306;1 A;
62.8884558412219;-1.04949951171875;-0.95550537109375;3.05999999227424;307;1 A;
62.8984558411967;-1.0491943359375;-0.95672607421875;3.069999992249;308;1 A;
62.9084558411714;-1.04949951171875;-0.96160888671875;3.07999999222375;309;1 A;
62.9184558411462;-1.0491943359375;-0.960693359375;3.0899999921985;310;1 A;
62.9284558411209;-1.04949951171875;-0.96343994140625;3.09999999217325;311;1 A;
62.9384558410957;-1.0498046875;-0.96893310546875;3.109999992148;312;1 A;
62.9484558410704;-1.0498046875;-0.96588134765625;3.11999999212276;313;1 A;
62.9584558410452;-1.0498046875;-0.96923828125;3.12999999209751;314;1 A;
62.9684558410199;-1.0498046875;-0.966796875;3.13999999207226;315;1 A;
62.9784558409947;-1.04949951171875;-0.97564697265625;3.14999999204701;316;1 A;
62.9884558409694;-1.04949951171875;-0.9722900390625;3.15999999202177;317;1 A;
62.9984558409442;-1.04949951171875;-0.97015380859375;3.16999999199652;318;1 A;
63.0084558409189;-1.04888916015625;-0.96649169921875;3.17999999197127;319;1 A;
63.0184558408937;-1.0498046875;-0.96923828125;3.18999999194602;320;1 A;
63.0284558408684;-1.0498046875;-0.96405029296875;3.19999999192078;321;1 A;
63.0384558408432;-1.048583984375;-0.97015380859375;3.20999999189553;322;1 A;
63.048455840818;-1.0491943359375;-0.97076416015625;3.21999999187028;323;1 A;
63.0584558407927;-1.04949951171875;-0.9747314453125;3.22999999184503;324;1 A;
63.0684558407675;-1.04888916015625;-0.9716796875;3.23999999181979;325;1 A;
63.0784558407422;-1.05010986328125;-0.97259521484375;3.24999999179454;326;1 A;
63.088455840717;-1.04949951171875;-0.97869873046875;3.25999999176929;327;1 A;
63.0984558406917;-1.04949951171875;-0.9832763671875;3.26999999174404;328;1 A;
63.1084558406665;-1.04949951171875;-0.96771240234375;3.2799999917188;329;1 A;
63.1184558406412;-1.0491943359375;-0.95916748046875;3.28999999169355;330;1 A;
63.128455840616;-1.04949951171875;-0.9710693359375;3.2999999916683;331;1 A;
63.1384558405907;-1.04949951171875;-0.97198486328125;3.30999999164305;332;1 A;
63.1484558405655;-1.0498046875;-0.987548828125;3.31999999161781;333;1 A;
63.1584558405402;-1.04949951171875;-0.98907470703125;3.32999999159256;334;1 A;
63.168455840515;-1.05010986328125;-0.9942626953125;3.33999999156731;335;1 A;
63.1784558404897;-1.0504150390625;-0.97747802734375;3.34999999154206;336;1 A;
63.1884558404645;-1.0498046875;-0.98175048828125;3.35999999151682;337;1 A;
63.1984558404392;-1.0498046875;-0.982666015625;3.36999999149157;338;1 A;
63.208455840414;-1.04949951171875;-0.9930419921875;3.37999999146632;339;1 A;
63.2184558403887;-1.05010986328125;-0.986328125;3.38999999144107;340;1 A;
63.2284558403635;-1.0491943359375;-0.99822998046875;3.39999999141583;341;1 A;
63.2384558403382;-1.05010986328125;-1.00555419921875;3.40999999139058;342;1 A;
63.248455840313;-1.0491943359375;-1.00799560546875;3.41999999136533;343;1 A;
63.2584558402878;-1.04949951171875;-1.01104736328125;3.42999999134008;344;1 A;
63.2684558402625;-1.0498046875;-1.002197265625;3.43999999131483;345;1 A;
63.2784558402373;-1.0491943359375;-1.00799560546875;3.44999999128959;346;1 A;
63.288455840212;-1.0498046875;-0.99029541015625;3.45999999126434;347;1 A;
63.2984558401868;-1.0498046875;-1.0052490234375;3.46999999123909;348;1 A;
63.3084558401615;-1.048583984375;-1.007080078125;3.47999999121384;349;1 A;
63.3184558401363;-1.0498046875;-0.9954833984375;3.4899999911886;350;1 A;
63.328455840111;-1.04888916015625;-0.99365234375;3.49999999116335;351;1 A;
63.3384558400858;-1.0498046875;-0.999755859375;3.5099999911381;352;1 A;
63.3484558400605;-1.0491943359375;-1.01348876953125;3.51999999111285;353;1 A;
63.3584558400353;-1.05010986328125;-1.00067138671875;3.52999999108761;354;1 A;
63.36845584001;-1.04888916015625;-1.026611328125;3.53999999106236;355;1 A;
63.3784558399848;-1.04949951171875;-1.0125732421875;3.54999999103711;356;1 A;
63.3884558399595;-1.0491943359375;-1.03302001953125;3.55999999101186;357;1 A;
63.3984558399343;-1.04888916015625;-1.016845703125;3.56999999098662;358;1 A;
63.408455839909;-1.0498046875;-1.01806640625;3.57999999096137;359;1 A;
63.4184558398838;-1.0504150390625;-0.997314453125;3.58999999093612;360;1 A;
63.4284558398585;-1.0504150390625;-0.99853515625;3.59999999091087;361;1 A;
63.4384558398333;-1.05010986328125;-1.00341796875;3.60999999088563;362;1 A;
63.448455839808;-1.04949951171875;-1.01348876953125;3.61999999086038;363;1 A;
63.4584558397828;-1.05010986328125;-1.0302734375;3.62999999083513;364;1 A;
63.4684558397576;-1.05010986328125;-1.03363037109375;3.63999999080988;365;1 A;
63.4784558397323;-1.04949951171875;-1.041259765625;3.64999999078464;366;1 A;
63.4884558397071;-1.0491943359375;-1.0260009765625;3.65999999075939;367;1 A;
63.4984558396818;-1.0491943359375;-1.0333251953125;3.66999999073414;368;1 A;
63.5084558396566;-1.05072021484375;-1.01593017578125;3.67999999070889;369;1 A;
63.5184558396313;-1.0491943359375;-1.03729248046875;3.68999999068365;370;1 A;
63.5284558396061;-1.0498046875;-1.0260009765625;3.6999999906584;371;1 A;
63.5384558395808;-1.04949951171875;-1.0504150390625;3.70999999063315;372;1 A;
63.5484558395556;-1.05010986328125;-1.043701171875;3.7199999906079;373;1 A;
63.5584558395303;-1.0498046875;-1.0400390625;3.72999999058266;374;1 A;
63.5684558395051;-1.0491943359375;-1.033935546875;3.73999999055741;375;1 A;
63.5784558394798;-1.0504150390625;-1.02142333984375;3.74999999053216;376;1 A;
63.5884558394546;-1.0491943359375;-1.0406494140625;3.75999999050691;377;1 A;
63.5984558394293;-1.0504150390625;-1.02325439453125;3.76999999048167;378;1 A;
63.6084558394041;-1.04888916015625;-1.03973388671875;3.77999999045642;379;1 A;
63.6184558393788;-1.04949951171875;-1.03607177734375;3.78999999043117;380;1 A;
63.6284558393536;-1.0491943359375;-1.05560302734375;3.79999999040592;381;1 A;
63.6384558393283;-1.04949951171875;-1.04583740234375;3.80999999038067;382;1 A;
63.6484558393031;-1.0498046875;-1.05133056640625;3.81999999035543;383;1 A;
63.6584558392778;-1.05010986328125;-1.04949951171875;3.82999999033018;384;1 A;
63.6684558392526;-1.0504150390625;-1.04644775390625;3.83999999030493;385;1 A;
63.6784558392274;-1.0491943359375;-1.0516357421875;3.84999999027968;386;1 A;
63.6884558392021;-1.04888916015625;-1.04461669921875;3.85999999025444;387;1 A;
63.6984558391769;-1.04949951171875;-1.0479736328125;3.86999999022919;388;1 A;
63.7084558391516;-1.04888916015625;-1.046142578125;3.87999999020394;389;1 A;
63.7184558391264;-1.0498046875;-1.06689453125;3.88999999017869;390;1 A;
63.7284558391011;-1.0491943359375;-1.0711669921875;3.89999999015345;391;1 A;
63.7384558390759;-1.05010986328125;-1.09344482421875;3.9099999901282;392;1 A;
63.7484558390506;-1.0498046875;-1.082763671875;3.91999999010295;393;1 A;
63.7584558390254;-1.04888916015625;-1.09283447265625;3.9299999900777;394;1 A;
63.7684558390001;-1.0498046875;-1.08123779296875;3.93999999005246;395;1 A;
63.7784558389749;-1.0491943359375;-1.097412109375;3.94999999002721;396;1 A;
63.7884558389496;-1.04949951171875;-1.07818603515625;3.95999999000196;397;1 A;
63.7984558389244;-1.04949951171875;-1.09283447265625;3.96999998997671;398;1 A;
63.8084558388991;-1.0498046875;-1.09039306640625;3.97999998995147;399;1 A;
63.8184558388739;-1.0498046875;-1.07696533203125;3.98999998992622;400;1 A;
63.8284558388486;-1.05010986328125;-1.08001708984375;3.99999998990097;401;1 A;
63.8384558388234;-1.04949951171875;-1.082763671875;4.00999998987572;402;1 A;
63.8484558387981;-1.0498046875;-1.10626220703125;4.01999998985048;403;1 A;
63.8584558387729;-1.04888916015625;-1.10107421875;4.02999998982523;404;1 A;
63.8684558387476;-1.0491943359375;-1.1102294921875;4.03999998979998;405;1 A;
63.8784558387224;-1.05010986328125;-1.0943603515625;4.04999998977473;406;1 A;
63.8884558386972;-1.0491943359375;-1.10687255859375;4.05999998974949;407;1 A;
63.8984558386719;-1.05010986328125;-1.10076904296875;4.06999998972424;408;1 A;
63.9084558386467;-1.05010986328125;-1.11175537109375;4.07999998969899;409;1 A;
63.9184558386214;-1.04949951171875;-1.0968017578125;4.08999998967374;410;1 A;
63.9284558385962;-1.048583984375;-1.104736328125;4.0999999896485;411;1 A;
63.9384558385709;-1.04949951171875;-1.112060546875;4.10999998962325;412;1 A;
63.9484558385457;-1.04949951171875;-1.109619140625;4.119999989598;413;1 A;
63.9584558385204;-1.0498046875;-1.11572265625;4.12999998957275;414;1 A;
63.9684558384952;-1.04888916015625;-1.10931396484375;4.1399999895475;415;1 A;
63.9784558384699;-1.04888916015625;-1.136474609375;4.14999998952226;416;1 A;
63.9884558384447;-1.05010986328125;-1.123046875;4.15999998949701;417;1 A;
63.9984558384194;-1.04888916015625;-1.15386962890625;4.16999998947176;418;1 A;
64.0084558383942;-1.0491943359375;-1.14837646484375;4.17999998944651;419;1 A;
64.0184558383689;-1.04888916015625;-1.1566162109375;4.18999998942127;420;1 A;
64.0284558383437;-1.04888916015625;-1.14898681640625;4.19999998939602;421;1 A;
64.0384558383184;-1.0491943359375;-1.13555908203125;4.20999998937077;422;1 A;
64.0484558382932;-1.0498046875;-1.1456298828125;4.21999998934552;423;1 A;
64.0584558382679;-1.0498046875;-1.13555908203125;4.22999998932028;424;1 A;
64.0684558382427;-1.0498046875;-1.1578369140625;4.23999998929503;425;1 A;
64.0784558382175;-1.0498046875;-1.15142822265625;4.24999998926978;426;1 A;
64.0884558381922;-1.04949951171875;-1.18988037109375;4.25999998924453;427;1 A;
64.098455838167;-1.0491943359375;-1.18133544921875;4.26999998921929;428;1 A;
64.1084558381417;-1.0498046875;-1.17950439453125;4.27999998919404;429;1 A;
64.1184558381165;-1.04888916015625;-1.1737060546875;4.28999998916879;430;1 A;
64.1284558380912;-1.0504150390625;-1.18377685546875;4.29999998914354;431;1 A;
64.138455838066;-1.04949951171875;-1.17095947265625;4.3099999891183;432;1 A;
64.1484558380407;-1.05010986328125;-1.1968994140625;4.31999998909305;433;1 A;
64.1584558380155;-1.04949951171875;-1.195068359375;4.3299999890678;434;1 A;
64.1684558379902;-1.04949951171875;-1.2103271484375;4.33999998904255;435;1 A;
64.178455837965;-1.0491943359375;-1.2103271484375;4.34999998901731;436;1 A;
64.1884558379397;-1.0498046875;-1.207275390625;4.35999998899206;437;1 A;
64.1984558379145;-1.0498046875;-1.217041015625;4.36999998896681;438;1 A;
64.2084558378892;-1.04949951171875;-1.18804931640625;4.37999998894156;439;1 A;
64.218455837864;-1.04949951171875;-1.21795654296875;4.38999998891632;440;1 A;
64.2284558378387;-1.05010986328125;-1.1859130859375;4.39999998889107;441;1 A;
64.2384558378135;-1.048583984375;-1.214599609375;4.40999998886582;442;1 A;
64.2484558377882;-1.0498046875;-1.195068359375;4.41999998884057;443;1 A;
64.258455837763;-1.05010986328125;-1.21551513671875;4.42999998881533;444;1 A;
64.2684558377377;-1.04949951171875;-1.20452880859375;4.43999998879008;445;1 A;
64.2784558377125;-1.05010986328125;-1.217041015625;4.44999998876483;446;1 A;
64.2884558376873;-1.04949951171875;-1.21185302734375;4.45999998873958;447;1 A;
64.298455837662;-1.0504150390625;-1.2091064453125;4.46999998871433;448;1 A;
64.3084558376368;-1.0491943359375;-1.23809814453125;4.47999998868909;449;1 A;
64.3184558376115;-1.04888916015625;-1.22344970703125;4.48999998866384;450;1 A;
64.3284558375863;-1.04888916015625;-1.259765625;4.49999998863859;451;1 A;
64.338455837561;-1.0491943359375;-1.23138427734375;4.50999998861334;452;1 A;
64.3484558375358;-1.04949951171875;-1.24603271484375;4.5199999885881;453;1 A;
64.3584558375105;-1.0491943359375;-1.219482421875;4.52999998856285;454;1 A;
64.3684558374853;-1.0498046875;-1.236572265625;4.5399999885376;455;1 A;
64.37845583746;-1.05010986328125;-1.22344970703125;4.54999998851235;456;1 A;
64.3884558374348;-1.051025390625;-1.22650146484375;4.55999998848711;457;1 A;
64.3984558374095;-1.0498046875;-1.24298095703125;4.56999998846186;458;1 A;
64.4084558373843;-1.0491943359375;-1.2506103515625;4.57999998843661;459;1 A;
64.418455837359;-1.0498046875;-1.26495361328125;4.58999998841136;460;1 A;
64.4284558373338;-1.0491943359375;-1.2359619140625;4.59999998838612;461;1 A;
64.4384558373085;-1.04949951171875;-1.25274658203125;4.60999998836087;462;1 A;
64.4484558372833;-1.0491943359375;-1.2322998046875;4.61999998833562;463;1 A;
64.458455837258;-1.04888916015625;-1.25396728515625;4.62999998831037;464;1 A;
64.4684558372328;-1.0498046875;-1.25335693359375;4.63999998828513;465;1 A;
64.4784558372075;-1.04888916015625;-1.28387451171875;4.64999998825988;466;1 A;
64.4884558371823;-1.0498046875;-1.26312255859375;4.65999998823463;467;1 A;
64.4984558371571;-1.04888916015625;-1.27471923828125;4.66999998820938;468;1 A;
64.5084558371318;-1.04888916015625;-1.26983642578125;4.67999998818414;469;1 A;
64.5184558371066;-1.05010986328125;-1.28082275390625;4.68999998815889;470;1 A;
64.5284558370813;-1.0498046875;-1.2701416015625;4.69999998813364;471;1 A;
64.5384558370561;-1.05010986328125;-1.2579345703125;4.70999998810839;472;1 A;
64.5484558370308;-1.04949951171875;-1.28021240234375;4.71999998808315;473;1 A;
64.5584558370056;-1.0498046875;-1.2664794921875;4.7299999880579;474;1 A;
64.5684558369803;-1.0491943359375;-1.2945556640625;4.73999998803265;475;1 A;
64.5784558369551;-1.0498046875;-1.2628173828125;4.7499999880074;476;1 A;
64.5884558369298;-1.0491943359375;-1.3067626953125;4.75999998798216;477;1 A;
64.5984558369046;-1.0498046875;-1.29180908203125;4.76999998795691;478;1 A;
64.6084558368793;-1.04949951171875;-1.31591796875;4.77999998793166;479;1 A;
64.6184558368541;-1.0504150390625;-1.2994384765625;4.78999998790641;480;1 A;
64.6284558368288;-1.0504150390625;-1.31988525390625;4.79999998788116;481;1 A;
64.6384558368036;-1.0504150390625;-1.3067626953125;4.80999998785592;482;1 A;
64.6484558367783;-1.0491943359375;-1.30523681640625;4.81999998783067;483;1 A;
64.6584558367531;-1.0491943359375;-1.31378173828125;4.82999998780542;484;1 A;
64.6684558367278;-1.04888916015625;-1.2847900390625;4.83999998778017;485;1 A;
64.6784558367026;-1.0491943359375;-1.3177490234375;4.84999998775493;486;1 A;
64.6884558366773;-1.0491943359375;-1.3006591796875;4.85999998772968;487;1 A;
64.6984558366521;-1.0504150390625;-1.35589599609375;4.86999998770443;488;1 A;
64.7084558366269;-1.0498046875;-1.32354736328125;4.87999998767918;489;1 A;
64.7184558366016;-1.048583984375;-1.3763427734375;4.88999998765394;490;1 A;
64.7284558365764;-1.04949951171875;-1.33026123046875;4.89999998762869;491;1 A;
64.7384558365511;-1.0498046875;-1.34063720703125;4.90999998760344;492;1 A;
64.7484558365259;-1.048583984375;-1.3232421875;4.91999998757819;493;1 A;
64.7584558365006;-1.0491943359375;-1.3128662109375;4.92999998755295;494;1 A;
64.7684558364754;-1.0504150390625;-1.3250732421875;4.9399999875277;495;1 A;
64.7784558364501;-1.05010986328125;-1.33148193359375;4.94999998750245;496;1 A;
64.7884558364249;-1.0504150390625;-1.36688232421875;4.9599999874772;497;1 A;
64.7984558363996;-1.04949951171875;-1.34918212890625;4.96999998745196;498;1 A;
64.8084558363744;-1.0498046875;-1.40655517578125;4.97999998742671;499;1 A;
64.8184558363491;-1.0504150390625;-1.35894775390625;4.98999998740146;500;1 A;
