Time (s);WE(1).Potential (V);WE(1).Current (A);Corrected time (s);Index;Current range
7.95830097990722;0.30255126953125;0.00054931640625;0;1;100 mA
7.96830097988197;0.298858642578125;0.0009002685546875;0.00999999997475243;2;100 mA
7.97830097985673;0.3006591796875;0.0007086181640625;0.0199999999495049;3;100 mA
7.98830097983148;0.30059814453125;0.0010223388671875;0.0299999999242573;4;100 mA
7.99830097980623;0.300537109375;0.001051025390625;0.0399999998990097;5;100 mA
8.00830097978098;0.30047607421875;0.00125701904296875;0.0499999998737621;6;100 mA
8.01830097975574;0.30059814453125;0.00124603271484375;0.0599999998485146;7;100 mA
8.02830097973049;0.300384521484375;0.0014068603515625;0.069999999823267;8;100 mA
8.03830097970524;0.300445556640625;0.001373291015625;0.0799999997980194;9;100 mA
8.04830097967999;0.30047607421875;0.00148040771484375;0.0899999997727718;10;100 mA
8.05830097965475;0.30059814453125;0.0014630126953125;0.0999999997475243;11;100 mA
8.0683009796295;0.300506591796875;0.00150421142578125;0.109999999722277;12;100 mA
8.07830097960425;0.3004150390625;0.0015557861328125;0.119999999697029;13;100 mA
8.088300979579;0.30029296875;0.00150177001953125;0.129999999671782;14;100 mA
8.09830097955376;0.300445556640625;0.001624755859375;0.139999999646534;15;100 mA
8.10830097952851;0.300506591796875;0.00148101806640625;0.149999999621286;16;100 mA
8.11830097950326;0.300537109375;0.0016656494140625;0.159999999596039;17;100 mA
8.12830097947801;0.300506591796875;0.00152740478515625;0.169999999570791;18;100 mA
8.13830097945277;0.30047607421875;0.00166656494140625;0.179999999545544;19;100 mA
8.14830097942752;0.300567626953125;0.0015728759765625;0.189999999520296;20;100 mA
8.15830097940227;0.300506591796875;0.00163177490234375;0.199999999495049;21;100 mA
8.16830097937702;0.300445556640625;0.00161407470703125;0.209999999469801;22;100 mA
8.17830097935177;0.300567626953125;0.0016168212890625;0.219999999444553;23;100 mA
8.18830097932653;0.3006591796875;0.00165313720703125;0.229999999419306;24;100 mA
8.19830097930128;0.300628662109375;0.0016033935546875;0.239999999394058;25;100 mA
8.20830097927603;0.30047607421875;0.0016925048828125;0.249999999368811;26;100 mA
8.21830097925078;0.300506591796875;0.00162017822265625;0.259999999343563;27;100 mA
8.22830097922554;0.30059814453125;0.00173828125;0.269999999318316;28;100 mA
8.23830097920029;0.300567626953125;0.00162933349609375;0.279999999293068;29;100 mA
8.24830097917504;0.30047607421875;0.001761474609375;0.28999999926782;30;100 mA
8.25830097914979;0.300537109375;0.00165435791015625;0.299999999242573;31;100 mA
8.26830097912455;0.300537109375;0.00177764892578125;0.309999999217325;32;100 mA
8.2783009790993;0.300567626953125;0.0016827392578125;0.319999999192078;33;100 mA
8.28830097907405;0.30047607421875;0.00175048828125;0.32999999916683;34;100 mA
8.2983009790488;0.30035400390625;0.00172576904296875;0.339999999141583;35;100 mA
8.30830097902356;0.300384521484375;0.0017156982421875;0.349999999116335;36;100 mA
8.31830097899831;0.300537109375;0.0017816162109375;0.359999999091087;37;100 mA
8.32830097897306;0.300567626953125;0.0017041015625;0.36999999906584;38;100 mA
8.33830097894781;0.3004150390625;0.001802978515625;0.379999999040592;39;100 mA
8.34830097892257;0.300445556640625;0.00166290283203125;0.389999999015345;40;100 mA
8.35830097889732;0.30047607421875;0.001793212890625;0.399999998990097;41;100 mA
8.36830097887207;0.300506591796875;0.0016571044921875;0.40999999896485;42;100 mA
8.37830097884682;0.300445556640625;0.00176727294921875;0.419999998939602;43;100 mA
8.38830097882158;0.300445556640625;0.001663818359375;0.429999998914354;44;100 mA
8.39830097879633;0.30072021484375;0.001749267578125;0.439999998889107;45;100 mA
8.40830097877108;0.300628662109375;0.0017095947265625;0.449999998863859;46;100 mA
8.41830097874583;0.300567626953125;0.0017333984375;0.459999998838612;47;100 mA
8.42830097872059;0.300445556640625;0.00176666259765625;0.469999998813364;48;100 mA
8.43830097869534;0.300445556640625;0.00169464111328125;0.479999998788116;49;100 mA
8.44830097867009;0.30059814453125;0.00180084228515625;0.489999998762869;50;100 mA
8.45830097864484;0.3006591796875;0.00169189453125;0.499999998737621;51;100 mA
8.4683009786196;0.300567626953125;0.0018414306640625;0.509999998712374;52;100 mA
8.47830097859435;0.300567626953125;0.001697998046875;0.519999998687126;53;100 mA
8.4883009785691;0.30047607421875;0.00183868408203125;0.529999998661879;54;100 mA
8.49830097854385;0.30047607421875;0.0017474365234375;0.539999998636631;55;100 mA
8.50830097851861;0.30035400390625;0.0018524169921875;0.549999998611383;56;100 mA
8.51830097849336;0.30047607421875;0.00178955078125;0.559999998586136;57;100 mA
8.52830097846811;0.300506591796875;0.00183868408203125;0.569999998560888;58;100 mA
8.53830097844286;0.300628662109375;0.00181304931640625;0.579999998535641;59;100 mA
8.54830097841761;0.300506591796875;0.00179901123046875;0.589999998510393;60;100 mA
8.55830097839237;0.3004150390625;0.0018310546875;0.599999998485146;61;100 mA
8.56830097836712;0.300384521484375;0.00177734375;0.609999998459898;62;100 mA
8.57830097834187;0.30047607421875;0.0018548583984375;0.61999999843465;63;100 mA
8.58830097831662;0.300537109375;0.0017169189453125;0.629999998409403;64;100 mA
8.59830097829138;0.300506591796875;0.001873779296875;0.639999998384155;65;100 mA
8.60830097826613;0.300537109375;0.001719970703125;0.649999998358908;66;100 mA
8.61830097824088;0.300567626953125;0.001861572265625;0.65999999833366;67;100 mA
8.62830097821563;0.300506591796875;0.00174652099609375;0.669999998308413;68;100 mA
8.63830097819039;0.300506591796875;0.0018267822265625;0.679999998283165;69;100 mA
8.64830097816514;0.3004150390625;0.00178863525390625;0.689999998257917;70;100 mA
8.65830097813989;0.300567626953125;0.00177520751953125;0.69999999823267;71;100 mA
8.66830097811464;0.300628662109375;0.001824951171875;0.709999998207422;72;100 mA
8.6783009780894;0.300567626953125;0.00173095703125;0.719999998182175;73;100 mA
8.68830097806415;0.300506591796875;0.00182952880859375;0.729999998156927;74;100 mA
8.6983009780389;0.30047607421875;0.00173919677734375;0.73999999813168;75;100 mA
8.70830097801365;0.300567626953125;0.00184906005859375;0.749999998106432;76;100 mA
8.71830097798841;0.300567626953125;0.00171875;0.759999998081184;77;100 mA
8.72830097796316;0.300506591796875;0.001837158203125;0.769999998055937;78;100 mA
8.73830097793791;0.300506591796875;0.0017376708984375;0.779999998030689;79;100 mA
8.74830097791266;0.30059814453125;0.0018402099609375;0.789999998005442;80;100 mA
8.75830097788742;0.30059814453125;0.001756591796875;0.799999997980194;81;100 mA
8.76830097786217;0.300384521484375;0.0018243408203125;0.809999997954947;82;100 mA
8.77830097783692;0.300323486328125;0.0017767333984375;0.819999997929699;83;100 mA
8.78830097781167;0.3004150390625;0.00176971435546875;0.829999997904451;84;100 mA
8.79830097778643;0.300567626953125;0.00180999755859375;0.839999997879204;85;100 mA
8.80830097776118;0.30059814453125;0.0017333984375;0.849999997853956;86;100 mA
8.81830097773593;0.300445556640625;0.001846923828125;0.859999997828709;87;100 mA
8.82830097771068;0.300445556640625;0.0016961669921875;0.869999997803461;88;100 mA
8.83830097768544;0.3004150390625;0.0018572998046875;0.879999997778214;89;100 mA
8.84830097766019;0.30059814453125;0.00172149658203125;0.889999997752966;90;100 mA
8.85830097763494;0.3004150390625;0.00183563232421875;0.899999997727718;91;100 mA
8.86830097760969;0.300537109375;0.00175384521484375;0.909999997702471;92;100 mA
8.87830097758444;0.3006591796875;0.00181854248046875;0.919999997677223;93;100 mA
8.8883009775592;0.300628662109375;0.0017938232421875;0.929999997651976;94;100 mA
8.89830097753395;0.300537109375;0.0018121337890625;0.939999997626728;95;100 mA
8.9083009775087;0.3004150390625;0.00183258056640625;0.949999997601481;96;100 mA
8.91830097748345;0.30047607421875;0.00178192138671875;0.959999997576233;97;100 mA
8.92830097745821;0.300567626953125;0.001851806640625;0.969999997550985;98;100 mA
8.93830097743296;0.300689697265625;0.00176483154296875;0.979999997525738;99;100 mA
8.94830097740771;0.30059814453125;0.0018853759765625;0.98999999750049;100;100 mA
8.95830097738246;0.300506591796875;0.00175445556640625;0.999999997475243;101;100 mA
8.96830097735722;0.30047607421875;0.00190338134765625;1.00999999745;102;100 mA
8.97830097733197;0.300506591796875;0.00178985595703125;1.01999999742475;103;100 mA
8.98830097730672;0.300445556640625;0.00187896728515625;1.0299999973995;104;100 mA
8.99830097728147;0.30047607421875;0.0018121337890625;1.03999999737425;105;100 mA
9.00830097725623;0.30047607421875;0.00185943603515625;1.049999997349;106;100 mA
9.01830097723098;0.3006591796875;0.0018310546875;1.05999999732376;107;100 mA
9.02830097720573;0.300506591796875;0.00180419921875;1.06999999729851;108;100 mA
9.03830097718048;0.3004150390625;0.00184906005859375;1.07999999727326;109;100 mA
9.04830097715524;0.300323486328125;0.001781005859375;1.08999999724801;110;100 mA
9.05830097712999;0.300445556640625;0.00186492919921875;1.09999999722277;111;100 mA
9.06830097710474;0.300506591796875;0.00174560546875;1.10999999719752;112;100 mA
9.07830097707949;0.300445556640625;0.00187774658203125;1.11999999717227;113;100 mA
9.08830097705425;0.300506591796875;0.0017413330078125;1.12999999714702;114;100 mA
9.098300977029;0.300537109375;0.001883544921875;1.13999999712178;115;100 mA
9.10830097700375;0.30047607421875;0.00177093505859375;1.14999999709653;116;100 mA
9.1183009769785;0.300537109375;0.00184600830078125;1.15999999707128;117;100 mA
9.12830097695326;0.300445556640625;0.0017919921875;1.16999999704603;118;100 mA
9.13830097692801;0.300567626953125;0.00181732177734375;1.17999999702079;119;100 mA
9.14830097690276;0.300628662109375;0.00185028076171875;1.18999999699554;120;100 mA
9.15830097687751;0.30059814453125;0.001778564453125;1.19999999697029;121;100 mA
9.16830097685227;0.30047607421875;0.0018914794921875;1.20999999694504;122;100 mA
9.17830097682702;0.300506591796875;0.0017822265625;1.2199999969198;123;100 mA
9.18830097680177;0.300628662109375;0.00190277099609375;1.22999999689455;124;100 mA
9.19830097677652;0.300567626953125;0.0018048095703125;1.2399999968693;125;100 mA
9.20830097675127;0.300537109375;0.00190582275390625;1.24999999684405;126;100 mA
9.21830097672603;0.300567626953125;0.0018292236328125;1.25999999681881;127;100 mA
9.22830097670078;0.300628662109375;0.0018853759765625;1.26999999679356;128;100 mA
9.23830097667553;0.300567626953125;0.0018231201171875;1.27999999676831;129;100 mA
9.24830097665028;0.3004150390625;0.00188629150390625;1.28999999674306;130;100 mA
9.25830097662504;0.300384521484375;0.00185028076171875;1.29999999671782;131;100 mA
9.26830097659979;0.300445556640625;0.0018505859375;1.30999999669257;132;100 mA
9.27830097657454;0.300628662109375;0.00186981201171875;1.31999999666732;133;100 mA
9.28830097654929;0.30059814453125;0.00180389404296875;1.32999999664207;134;100 mA
9.29830097652405;0.300445556640625;0.001904296875;1.33999999661683;135;100 mA
9.3083009764988;0.3004150390625;0.00176910400390625;1.34999999659158;136;100 mA
9.31830097647355;0.300445556640625;0.0019244384765625;1.35999999656633;137;100 mA
9.3283009764483;0.30059814453125;0.00178253173828125;1.36999999654108;138;100 mA
9.33830097642306;0.3004150390625;0.00191741943359375;1.37999999651583;139;100 mA
9.34830097639781;0.300537109375;0.0018304443359375;1.38999999649059;140;100 mA
9.35830097637256;0.300537109375;0.00188812255859375;1.39999999646534;141;100 mA
9.36830097634731;0.3006591796875;0.0018701171875;1.40999999644009;142;100 mA
9.37830097632207;0.300506591796875;0.00187652587890625;1.41999999641484;143;100 mA
9.38830097629682;0.3004150390625;0.0019134521484375;1.4299999963896;144;100 mA
9.39830097627157;0.30047607421875;0.00184600830078125;1.43999999636435;145;100 mA
9.40830097624632;0.300628662109375;0.00192901611328125;1.4499999963391;146;100 mA
9.41830097622108;0.30072021484375;0.00185333251953125;1.45999999631385;147;100 mA
9.42830097619583;0.300628662109375;0.00194671630859375;1.46999999628861;148;100 mA
9.43830097617058;0.30047607421875;0.0018170166015625;1.47999999626336;149;100 mA
9.44830097614533;0.300506591796875;0.00193572998046875;1.48999999623811;150;100 mA
9.45830097612009;0.300506591796875;0.00181396484375;1.49999999621286;151;100 mA
9.46830097609484;0.300445556640625;0.0019158935546875;1.50999999618762;152;100 mA
9.47830097606959;0.300445556640625;0.0018206787109375;1.51999999616237;153;100 mA
9.48830097604434;0.300506591796875;0.00189605712890625;1.52999999613712;154;100 mA
9.4983009760191;0.30059814453125;0.0018585205078125;1.53999999611187;155;100 mA
9.50830097599385;0.30047607421875;0.001846923828125;1.54999999608663;156;100 mA
9.5183009759686;0.300445556640625;0.001895751953125;1.55999999606138;157;100 mA
9.52830097594335;0.3004150390625;0.00180511474609375;1.56999999603613;158;100 mA
9.5383009759181;0.3004150390625;0.001917724609375;1.57999999601088;159;100 mA
9.54830097589286;0.300445556640625;0.0017950439453125;1.58999999598564;160;100 mA
9.55830097586761;0.30047607421875;0.001942138671875;1.59999999596039;161;100 mA
9.56830097584236;0.30047607421875;0.00182220458984375;1.60999999593514;162;100 mA
9.57830097581711;0.300537109375;0.00193389892578125;1.61999999590989;163;100 mA
9.58830097579187;0.30059814453125;0.0018267822265625;1.62999999588465;164;100 mA
9.59830097576662;0.300445556640625;0.00191925048828125;1.6399999958594;165;100 mA
9.60830097574137;0.3004150390625;0.00186248779296875;1.64999999583415;166;100 mA
9.61830097571612;0.300567626953125;0.00188201904296875;1.6599999958089;167;100 mA
9.62830097569088;0.30059814453125;0.001895751953125;1.66999999578366;168;100 mA
9.63830097566563;0.300567626953125;0.00183837890625;1.67999999575841;169;100 mA
9.64830097564038;0.30047607421875;0.001927490234375;1.68999999573316;170;100 mA
9.65830097561513;0.300506591796875;0.00181671142578125;1.69999999570791;171;100 mA
9.66830097558989;0.300567626953125;0.001956787109375;1.70999999568267;172;100 mA
9.67830097556464;0.300506591796875;0.00181304931640625;1.71999999565742;173;100 mA
9.68830097553939;0.300537109375;0.00195587158203125;1.72999999563217;174;100 mA
9.69830097551414;0.300537109375;0.0018572998046875;1.73999999560692;175;100 mA
9.7083009754889;0.300567626953125;0.001932373046875;1.74999999558167;176;100 mA
9.71830097546365;0.30059814453125;0.0018707275390625;1.75999999555643;177;100 mA
9.7283009754384;0.3004150390625;0.00190032958984375;1.76999999553118;178;100 mA
9.73830097541315;0.30035400390625;0.0018707275390625;1.77999999550593;179;100 mA
9.74830097538791;0.300384521484375;0.00185516357421875;1.78999999548068;180;100 mA
9.75830097536266;0.300537109375;0.0018896484375;1.79999999545544;181;100 mA
9.76830097533741;0.300628662109375;0.00184051513671875;1.80999999543019;182;100 mA
9.77830097531216;0.30047607421875;0.0019073486328125;1.81999999540494;183;100 mA
9.78830097528692;0.300384521484375;0.0017938232421875;1.82999999537969;184;100 mA
9.79830097526167;0.3004150390625;0.001943359375;1.83999999535445;185;100 mA
9.80830097523642;0.300567626953125;0.00179840087890625;1.8499999953292;186;100 mA
9.81830097521117;0.300445556640625;0.00193023681640625;1.85999999530395;187;100 mA
9.82830097518593;0.30047607421875;0.0018133544921875;1.8699999952787;188;100 mA
9.83830097516068;0.300567626953125;0.00189117431640625;1.87999999525346;189;100 mA
9.84830097513543;0.300628662109375;0.00184844970703125;1.88999999522821;190;100 mA
9.85830097511018;0.300537109375;0.0018505859375;1.89999999520296;191;100 mA
9.86830097508494;0.3004150390625;0.0019097900390625;1.90999999517771;192;100 mA
9.87830097505969;0.300445556640625;0.00181549072265625;1.91999999515247;193;100 mA
9.88830097503444;0.300537109375;0.00190185546875;1.92999999512722;194;100 mA
9.89830097500919;0.3006591796875;0.00180572509765625;1.93999999510197;195;100 mA
9.90830097498394;0.300537109375;0.0019256591796875;1.94999999507672;196;100 mA
9.9183009749587;0.300506591796875;0.00180023193359375;1.95999999505148;197;100 mA
9.92830097493345;0.300506591796875;0.0019061279296875;1.96999999502623;198;100 mA
9.9383009749082;0.300537109375;0.00181304931640625;1.97999999500098;199;100 mA
9.94830097488295;0.30047607421875;0.00188751220703125;1.98999999497573;200;100 mA
9.95830097485771;0.300445556640625;0.0017987060546875;1.99999999495049;201;100 mA
9.96830097483246;0.300506591796875;0.0018572998046875;2.00999999492524;202;100 mA
9.97830097480721;0.300628662109375;0.00179443359375;2.01999999489999;203;100 mA
9.98830097478196;0.300537109375;0.001802978515625;2.02999999487474;204;100 mA
9.99830097475672;0.30047607421875;0.00183868408203125;2.0399999948495;205;100 mA
10.0083009747315;0.30035400390625;0.001761474609375;2.04999999482425;206;100 mA
10.0183009747062;0.3004150390625;0.0018536376953125;2.059999994799;207;100 mA
10.028300974681;0.300567626953125;0.00170806884765625;2.06999999477375;208;100 mA
10.0383009746557;0.30047607421875;0.00187591552734375;2.0799999947485;209;100 mA
10.0483009746305;0.300537109375;0.001727294921875;2.08999999472326;210;100 mA
10.0583009746052;0.300567626953125;0.0018646240234375;2.09999999469801;211;100 mA
10.06830097458;0.300567626953125;0.00176544189453125;2.10999999467276;212;100 mA
10.0783009745547;0.300506591796875;0.001820068359375;2.11999999464751;213;100 mA
10.0883009745295;0.30047607421875;0.0017950439453125;2.12999999462227;214;100 mA
10.0983009745042;0.300537109375;0.0018170166015625;2.13999999459702;215;100 mA
10.108300974479;0.30059814453125;0.00184967041015625;2.14999999457177;216;100 mA
10.1183009744537;0.300689697265625;0.00180908203125;2.15999999454652;217;100 mA
10.1283009744285;0.300506591796875;0.00188018798828125;2.16999999452128;218;100 mA
10.1383009744033;0.30047607421875;0.00180938720703125;2.17999999449603;219;100 mA
10.148300974378;0.300537109375;0.00192596435546875;2.18999999447078;220;100 mA
10.1583009743528;0.300537109375;0.00179412841796875;2.19999999444553;221;100 mA
10.1683009743275;0.300537109375;0.00193511962890625;2.20999999442029;222;100 mA
10.1783009743023;0.300537109375;0.00182281494140625;2.21999999439504;223;100 mA
10.188300974277;0.3006591796875;0.00192108154296875;2.22999999436979;224;100 mA
10.1983009742518;0.300567626953125;0.001842041015625;2.23999999434454;225;100 mA
10.2083009742265;0.300445556640625;0.0019073486328125;2.2499999943193;226;100 mA
10.2183009742013;0.30035400390625;0.00189056396484375;2.25999999429405;227;100 mA
10.228300974176;0.3004150390625;0.00184967041015625;2.2699999942688;228;100 mA
10.2383009741508;0.300537109375;0.00191070556640625;2.27999999424355;229;100 mA
10.2483009741255;0.300628662109375;0.001824951171875;2.28999999421831;230;100 mA
10.2583009741003;0.3004150390625;0.0019195556640625;2.29999999419306;231;100 mA
10.268300974075;0.300445556640625;0.00179595947265625;2.30999999416781;232;100 mA
10.2783009740498;0.300445556640625;0.0019366455078125;2.31999999414256;233;100 mA
10.2883009740245;0.30059814453125;0.0018023681640625;2.32999999411732;234;100 mA
10.2983009739993;0.300445556640625;0.00194122314453125;2.33999999409207;235;100 mA
10.308300973974;0.300445556640625;0.00182891845703125;2.34999999406682;236;100 mA
10.3183009739488;0.300567626953125;0.00193145751953125;2.35999999404157;237;100 mA
10.3283009739235;0.30059814453125;0.0018560791015625;2.36999999401633;238;100 mA
10.3383009738983;0.300567626953125;0.00186981201171875;2.37999999399108;239;100 mA
10.3483009738731;0.300445556640625;0.00190093994140625;2.38999999396583;240;100 mA
10.3583009738478;0.30035400390625;0.00182708740234375;2.39999999394058;241;100 mA
10.3683009738226;0.300537109375;0.00191986083984375;2.40999999391533;242;100 mA
10.3783009737973;0.3006591796875;0.00180816650390625;2.41999999389009;243;100 mA
10.3883009737721;0.300628662109375;0.00192657470703125;2.42999999386484;244;100 mA
10.3983009737468;0.300506591796875;0.00181610107421875;2.43999999383959;245;100 mA
10.4083009737216;0.300567626953125;0.00193756103515625;2.44999999381434;246;100 mA
10.4183009736963;0.300567626953125;0.00184814453125;2.4599999937891;247;100 mA
10.4283009736711;0.30047607421875;0.0019171142578125;2.46999999376385;248;100 mA
10.4383009736458;0.3004150390625;0.00184234619140625;2.4799999937386;249;100 mA
10.4483009736206;0.30047607421875;0.00189910888671875;2.48999999371335;250;100 mA
10.4583009735953;0.300628662109375;0.00185028076171875;2.49999999368811;251;100 mA
10.4683009735701;0.300628662109375;0.0018536376953125;2.50999999366286;252;100 mA
10.4783009735448;0.3004150390625;0.00188720703125;2.51999999363761;253;100 mA
10.4883009735196;0.300384521484375;0.00182281494140625;2.52999999361236;254;100 mA
10.4983009734943;0.300384521484375;0.0019329833984375;2.53999999358712;255;100 mA
10.5083009734691;0.300445556640625;0.0017962646484375;2.54999999356187;256;100 mA
10.5183009734438;0.30047607421875;0.00195953369140625;2.55999999353662;257;100 mA
10.5283009734186;0.300567626953125;0.0017828369140625;2.56999999351137;258;100 mA
10.5383009733933;0.300537109375;0.0019268798828125;2.57999999348613;259;100 mA
10.5483009733681;0.300506591796875;0.00182037353515625;2.58999999346088;260;100 mA
10.5583009733429;0.300567626953125;0.0018902587890625;2.59999999343563;261;100 mA
10.5683009733176;0.3004150390625;0.0018603515625;2.60999999341038;262;100 mA
10.5783009732924;0.300506591796875;0.00184967041015625;2.61999999338514;263;100 mA
10.5883009732671;0.30059814453125;0.00189483642578125;2.62999999335989;264;100 mA
10.5983009732419;0.3006591796875;0.00182373046875;2.63999999333464;265;100 mA
10.6083009732166;0.300567626953125;0.00191162109375;2.64999999330939;266;100 mA
10.6183009731914;0.300537109375;0.00183807373046875;2.65999999328415;267;100 mA
10.6283009731661;0.300567626953125;0.001929931640625;2.6699999932589;268;100 mA
10.6383009731409;0.300537109375;0.00181640625;2.67999999323365;269;100 mA
10.6483009731156;0.300567626953125;0.0019342041015625;2.6899999932084;270;100 mA
10.6583009730904;0.300506591796875;0.00181915283203125;2.69999999318316;271;100 mA
10.6683009730651;0.300567626953125;0.00193206787109375;2.70999999315791;272;100 mA
10.6783009730399;0.30059814453125;0.00184814453125;2.71999999313266;273;100 mA
10.6883009730146;0.30047607421875;0.00190887451171875;2.72999999310741;274;100 mA
10.6983009729894;0.3004150390625;0.00187744140625;2.73999999308217;275;100 mA
10.7083009729641;0.300323486328125;0.00186676025390625;2.74999999305692;276;100 mA
10.7183009729389;0.300537109375;0.00191162109375;2.75999999303167;277;100 mA
10.7283009729136;0.3006591796875;0.0018243408203125;2.76999999300642;278;100 mA
10.7383009728884;0.30047607421875;0.00192230224609375;2.77999999298117;279;100 mA
10.7483009728631;0.30047607421875;0.00179534912109375;2.78999999295593;280;100 mA
10.7583009728379;0.30047607421875;0.0019305419921875;2.79999999293068;281;100 mA
10.7683009728127;0.300537109375;0.00180419921875;2.80999999290543;282;100 mA
10.7783009727874;0.3004150390625;0.0019024658203125;2.81999999288018;283;100 mA
10.7883009727622;0.300445556640625;0.00180694580078125;2.82999999285494;284;100 mA
10.7983009727369;0.30059814453125;0.0018902587890625;2.83999999282969;285;100 mA
10.8083009727117;0.300628662109375;0.00184326171875;2.84999999280444;286;100 mA
10.8183009726864;0.300628662109375;0.0018798828125;2.85999999277919;287;100 mA
10.8283009726612;0.300506591796875;0.00188720703125;2.86999999275395;288;100 mA
10.8383009726359;0.300445556640625;0.0018212890625;2.8799999927287;289;100 mA
10.8483009726107;0.300506591796875;0.001920166015625;2.88999999270345;290;100 mA
10.8583009725854;0.300628662109375;0.001822509765625;2.8999999926782;291;100 mA
10.8683009725602;0.300628662109375;0.00195404052734375;2.90999999265296;292;100 mA
10.8783009725349;0.30047607421875;0.0018157958984375;2.91999999262771;293;100 mA
10.8883009725097;0.300567626953125;0.00195465087890625;2.92999999260246;294;100 mA
10.8983009724844;0.300628662109375;0.00185760498046875;2.93999999257721;295;100 mA
10.9083009724592;0.30047607421875;0.00195343017578125;2.94999999255197;296;100 mA
10.9183009724339;0.300445556640625;0.00190155029296875;2.95999999252672;297;100 mA
10.9283009724087;0.3004150390625;0.00194183349609375;2.96999999250147;298;100 mA
10.9383009723834;0.300567626953125;0.00191253662109375;2.97999999247622;299;100 mA
10.9483009723582;0.300628662109375;0.00189208984375;2.98999999245098;300;100 mA
10.9583009723329;0.300506591796875;0.0019232177734375;2.99999999242573;301;100 mA
10.9683009723077;0.30035400390625;0.001864013671875;3.00999999240048;302;100 mA
10.9783009722825;0.300384521484375;0.0019244384765625;3.01999999237523;303;100 mA
10.9883009722572;0.30047607421875;0.00179901123046875;3.02999999234999;304;100 mA
10.998300972232;0.300506591796875;0.00193878173828125;3.03999999232474;305;100 mA
11.0083009722067;0.300506591796875;0.00178314208984375;3.04999999229949;306;100 mA
11.0183009721815;0.300537109375;0.00192169189453125;3.05999999227424;307;100 mA
11.0283009721562;0.30059814453125;0.001790771484375;3.069999992249;308;100 mA
11.038300972131;0.30047607421875;0.0018817138671875;3.07999999222375;309;100 mA
11.0483009721057;0.300506591796875;0.00182159423828125;3.0899999921985;310;100 mA
11.0583009720805;0.300445556640625;0.001846923828125;3.09999999217325;311;100 mA
11.0683009720552;0.300506591796875;0.00189971923828125;3.109999992148;312;100 mA
11.07830097203;0.30072021484375;0.00179718017578125;3.11999999212276;313;100 mA
11.0883009720047;0.30059814453125;0.001905517578125;3.12999999209751;314;100 mA
11.0983009719795;0.300506591796875;0.0018206787109375;3.13999999207226;315;100 mA
11.1083009719542;0.300567626953125;0.001922607421875;3.14999999204701;316;100 mA
11.118300971929;0.30047607421875;0.0018133544921875;3.15999999202177;317;100 mA
11.1283009719037;0.30047607421875;0.00191802978515625;3.16999999199652;318;100 mA
11.1383009718785;0.3004150390625;0.00184906005859375;3.17999999197127;319;100 mA
11.1483009718532;0.30059814453125;0.00192962646484375;3.18999999194602;320;100 mA
11.158300971828;0.300537109375;0.00185577392578125;3.19999999192078;321;100 mA
11.1683009718028;0.300506591796875;0.00191162109375;3.20999999189553;322;100 mA
11.1783009717775;0.300445556640625;0.00186492919921875;3.21999999187028;323;100 mA
11.1883009717523;0.30029296875;0.00186981201171875;3.22999999184503;324;100 mA
11.198300971727;0.300506591796875;0.00190643310546875;3.23999999181979;325;100 mA
11.2083009717018;0.3006591796875;0.00183349609375;3.24999999179454;326;100 mA
11.2183009716765;0.300445556640625;0.001937255859375;3.25999999176929;327;100 mA
11.2283009716513;0.30047607421875;0.00178466796875;3.26999999174404;328;100 mA
11.238300971626;0.300445556640625;0.00194366455078125;3.2799999917188;329;100 mA
11.2483009716008;0.300506591796875;0.0018017578125;3.28999999169355;330;100 mA
11.2583009715755;0.300445556640625;0.001917724609375;3.2999999916683;331;100 mA
11.2683009715503;0.30047607421875;0.001824951171875;3.30999999164305;332;100 mA
11.278300971525;0.30047607421875;0.00188690185546875;3.31999999161781;333;100 mA
11.2883009714998;0.300628662109375;0.00184722900390625;3.32999999159256;334;100 mA
11.2983009714745;0.30059814453125;0.001861572265625;3.33999999156731;335;100 mA
11.3083009714493;0.300537109375;0.00188323974609375;3.34999999154206;336;100 mA
11.318300971424;0.3004150390625;0.0018218994140625;3.35999999151682;337;100 mA
11.3283009713988;0.30047607421875;0.00188385009765625;3.36999999149157;338;100 mA
11.3383009713735;0.300567626953125;0.0018011474609375;3.37999999146632;339;100 mA
11.3483009713483;0.30059814453125;0.00189910888671875;3.38999999144107;340;100 mA
11.358300971323;0.300567626953125;0.001768798828125;3.39999999141583;341;100 mA
11.3683009712978;0.300537109375;0.001900634765625;3.40999999139058;342;100 mA
11.3783009712726;0.300567626953125;0.00177764892578125;3.41999999136533;343;100 mA
11.3883009712473;0.30047607421875;0.001883544921875;3.42999999134008;344;100 mA
11.3983009712221;0.30047607421875;0.00181060791015625;3.43999999131483;345;100 mA
11.4083009711968;0.300384521484375;0.001865234375;3.44999999128959;346;100 mA
11.4183009711716;0.300537109375;0.00185943603515625;3.45999999126434;347;100 mA
11.4283009711463;0.300628662109375;0.00183807373046875;3.46999999123909;348;100 mA
11.4383009711211;0.300567626953125;0.001898193359375;3.47999999121384;349;100 mA
11.4483009710958;0.300506591796875;0.0018206787109375;3.4899999911886;350;100 mA
11.4583009710706;0.300384521484375;0.001927490234375;3.49999999116335;351;100 mA
11.4683009710453;0.3004150390625;0.001806640625;3.5099999911381;352;100 mA
11.4783009710201;0.300445556640625;0.00192474365234375;3.51999999111285;353;100 mA
11.4883009709948;0.30059814453125;0.00178009033203125;3.52999999108761;354;100 mA
11.4983009709696;0.30047607421875;0.00190399169921875;3.53999999106236;355;100 mA
11.5083009709443;0.30059814453125;0.00178863525390625;3.54999999103711;356;100 mA
11.5183009709191;0.300567626953125;0.0018798828125;3.55999999101186;357;100 mA
11.5283009708938;0.300567626953125;0.00180999755859375;3.56999999098662;358;100 mA
11.5383009708686;0.3004150390625;0.00183349609375;3.57999999096137;359;100 mA
11.5483009708433;0.30047607421875;0.00186370849609375;3.58999999093612;360;100 mA
11.5583009708181;0.30072021484375;0.00178375244140625;3.59999999091087;361;100 mA
11.5683009707928;0.300628662109375;0.00188568115234375;3.60999999088563;362;100 mA
11.5783009707676;0.3006591796875;0.001790771484375;3.61999999086038;363;100 mA
11.5883009707424;0.300567626953125;0.00190216064453125;3.62999999083513;364;100 mA
11.5983009707171;0.300537109375;0.00178314208984375;3.63999999080988;365;100 mA
11.6083009706919;0.300537109375;0.00190948486328125;3.64999999078464;366;100 mA
11.6183009706666;0.3004150390625;0.00182098388671875;3.65999999075939;367;100 mA
11.6283009706414;0.300506591796875;0.0019012451171875;3.66999999073414;368;100 mA
11.6383009706161;0.300628662109375;0.0018341064453125;3.67999999070889;369;100 mA
11.6483009705909;0.300567626953125;0.001881103515625;3.68999999068365;370;100 mA
11.6583009705656;0.300537109375;0.00184478759765625;3.6999999906584;371;100 mA
11.6683009705404;0.300384521484375;0.001861572265625;3.70999999063315;372;100 mA
11.6783009705151;0.3004150390625;0.0018817138671875;3.7199999906079;373;100 mA
11.6883009704899;0.300537109375;0.0018280029296875;3.72999999058266;374;100 mA
11.6983009704646;0.300537109375;0.00190093994140625;3.73999999055741;375;100 mA
11.7083009704394;0.30047607421875;0.00177032470703125;3.74999999053216;376;100 mA
11.7183009704141;0.30047607421875;0.0019329833984375;3.75999999050691;377;100 mA
11.7283009703889;0.30047607421875;0.00178680419921875;3.76999999048167;378;100 mA
11.7383009703636;0.300384521484375;0.001934814453125;3.77999999045642;379;100 mA
11.7483009703384;0.300445556640625;0.0018231201171875;3.78999999043117;380;100 mA
11.7583009703131;0.300537109375;0.0018927001953125;3.79999999040592;381;100 mA
11.7683009702879;0.30059814453125;0.00185638427734375;3.80999999038067;382;100 mA
11.7783009702626;0.30072021484375;0.0018524169921875;3.81999999035543;383;100 mA
11.7883009702374;0.30059814453125;0.00190185546875;3.82999999033018;384;100 mA
11.7983009702122;0.300445556640625;0.0018353271484375;3.83999999030493;385;100 mA
11.8083009701869;0.300384521484375;0.00193206787109375;3.84999999027968;386;100 mA
11.8183009701617;0.300537109375;0.00185791015625;3.85999999025444;387;100 mA
11.8283009701364;0.300628662109375;0.001954345703125;3.86999999022919;388;100 mA
11.8383009701112;0.300567626953125;0.001839599609375;3.87999999020394;389;100 mA
11.8483009700859;0.300567626953125;0.00196014404296875;3.88999999017869;390;100 mA
11.8583009700607;0.300628662109375;0.00185882568359375;3.89999999015345;391;100 mA
11.8683009700354;0.300506591796875;0.00197265625;3.9099999901282;392;100 mA
11.8783009700102;0.30047607421875;0.0018695068359375;3.91999999010295;393;100 mA
11.8883009699849;0.30035400390625;0.00193450927734375;3.9299999900777;394;100 mA
11.8983009699597;0.300506591796875;0.00190155029296875;3.93999999005246;395;100 mA
11.9083009699344;0.3006591796875;0.001883544921875;3.94999999002721;396;100 mA
11.9183009699092;0.300628662109375;0.001943359375;3.95999999000196;397;100 mA
11.9283009698839;0.3004150390625;0.00186431884765625;3.96999998997671;398;100 mA
11.9383009698587;0.300445556640625;0.00197052001953125;3.97999998995147;399;100 mA
11.9483009698334;0.30047607421875;0.0018365478515625;3.98999998992622;400;100 mA
11.9583009698082;0.300506591796875;0.00196929931640625;3.99999998990097;401;100 mA
11.9683009697829;0.30059814453125;0.001851806640625;4.00999998987572;402;100 mA
11.9783009697577;0.300506591796875;0.001944580078125;4.01999998985048;403;100 mA
11.9883009697324;0.300537109375;0.0018414306640625;4.02999998982523;404;100 mA
11.9983009697072;0.300628662109375;0.0019073486328125;4.03999998979998;405;100 mA
12.008300969682;0.30059814453125;0.00185516357421875;4.04999998977473;406;100 mA
12.0183009696567;0.3004150390625;0.00188262939453125;4.05999998974949;407;100 mA
12.0283009696315;0.3004150390625;0.00189300537109375;4.06999998972424;408;100 mA
12.0383009696062;0.300628662109375;0.0018231201171875;4.07999998969899;409;100 mA
12.048300969581;0.300628662109375;0.0019097900390625;4.08999998967374;410;100 mA
12.0583009695557;0.30059814453125;0.001810302734375;4.0999999896485;411;100 mA
12.0683009695305;0.300537109375;0.00193603515625;4.10999998962325;412;100 mA
12.0783009695052;0.300506591796875;0.00179290771484375;4.119999989598;413;100 mA
12.08830096948;0.300567626953125;0.00192535400390625;4.12999998957275;414;100 mA
12.0983009694547;0.30047607421875;0.00183135986328125;4.1399999895475;415;100 mA
12.1083009694295;0.30047607421875;0.00191619873046875;4.14999998952226;416;100 mA
12.1183009694042;0.300537109375;0.00186676025390625;4.15999998949701;417;100 mA
12.128300969379;0.300537109375;0.00189971923828125;4.16999998947176;418;100 mA
12.1383009693537;0.30059814453125;0.00188629150390625;4.17999998944651;419;100 mA
12.1483009693285;0.300384521484375;0.00188201904296875;4.18999998942127;420;100 mA
12.1583009693032;0.300323486328125;0.00191925048828125;4.19999998939602;421;100 mA
12.168300969278;0.30047607421875;0.00186370849609375;4.20999998937077;422;100 mA
12.1783009692527;0.300445556640625;0.00193389892578125;4.21999998934552;423;100 mA
12.1883009692275;0.300506591796875;0.00182220458984375;4.22999998932028;424;100 mA
12.1983009692023;0.3004150390625;0.0019683837890625;4.23999998929503;425;100 mA
12.208300969177;0.300445556640625;0.0018328857421875;4.24999998926978;426;100 mA
12.2183009691518;0.3004150390625;0.00197601318359375;4.25999998924453;427;100 mA
12.2283009691265;0.3004150390625;0.0018609619140625;4.26999998921929;428;100 mA
12.2383009691013;0.30047607421875;0.00194305419921875;4.27999998919404;429;100 mA
12.248300969076;0.300506591796875;0.00190032958984375;4.28999998916879;430;100 mA
12.2583009690508;0.300689697265625;0.00190521240234375;4.29999998914354;431;100 mA
12.2683009690255;0.300628662109375;0.00193756103515625;4.3099999891183;432;100 mA
12.2783009690003;0.300537109375;0.00185577392578125;4.31999998909305;433;100 mA
12.288300968975;0.300445556640625;0.00193023681640625;4.3299999890678;434;100 mA
12.2983009689498;0.30047607421875;0.00183929443359375;4.33999998904255;435;100 mA
12.3083009689245;0.300689697265625;0.0019451904296875;4.34999998901731;436;100 mA
12.3183009688993;0.300628662109375;0.001846923828125;4.35999998899206;437;100 mA
12.328300968874;0.300506591796875;0.00195098876953125;4.36999998896681;438;100 mA
12.3383009688488;0.300567626953125;0.00187103271484375;4.37999998894156;439;100 mA
12.3483009688235;0.300567626953125;0.0019598388671875;4.38999998891632;440;100 mA
12.3583009687983;0.300506591796875;0.00188995361328125;4.39999998889107;441;100 mA
12.368300968773;0.30035400390625;0.00195037841796875;4.40999998886582;442;100 mA
12.3783009687478;0.300445556640625;0.0019085693359375;4.41999998884057;443;100 mA
12.3883009687225;0.300567626953125;0.00189910888671875;4.42999998881533;444;100 mA
12.3983009686973;0.300628662109375;0.00194366455078125;4.43999998879008;445;100 mA
12.4083009686721;0.300537109375;0.0018634033203125;4.44999998876483;446;100 mA
12.4183009686468;0.3004150390625;0.0019793701171875;4.45999998873958;447;100 mA
12.4283009686216;0.300384521484375;0.0018231201171875;4.46999998871433;448;100 mA
12.4383009685963;0.300506591796875;0.0019659423828125;4.47999998868909;449;100 mA
12.4483009685711;0.300567626953125;0.0018359375;4.48999998866384;450;100 mA
12.4583009685458;0.3004150390625;0.0019305419921875;4.49999998863859;451;100 mA
12.4683009685206;0.300537109375;0.001846923828125;4.50999998861334;452;100 mA
12.4783009684953;0.3006591796875;0.0019110107421875;4.5199999885881;453;100 mA
12.4883009684701;0.30059814453125;0.0018798828125;4.52999998856285;454;100 mA
12.4983009684448;0.300445556640625;0.00191497802734375;4.5399999885376;455;100 mA
12.5083009684196;0.300384521484375;0.0019342041015625;4.54999998851235;456;100 mA
12.5183009683943;0.300445556640625;0.00189178466796875;4.55999998848711;457;100 mA
12.5283009683691;0.30059814453125;0.00196319580078125;4.56999998846186;458;100 mA
12.5383009683438;0.300628662109375;0.0018896484375;4.57999998843661;459;100 mA
12.5483009683186;0.300628662109375;0.00199249267578125;4.58999998841136;460;100 mA
12.5583009682933;0.300506591796875;0.00187255859375;4.59999998838612;461;100 mA
12.5683009682681;0.300537109375;0.001995849609375;4.60999998836087;462;100 mA
12.5783009682428;0.30047607421875;0.001883544921875;4.61999998833562;463;100 mA
12.5883009682176;0.30047607421875;0.001966552734375;4.62999998831037;464;100 mA
12.5983009681923;0.3004150390625;0.0019000244140625;4.63999998828513;465;100 mA
12.6083009681671;0.300537109375;0.00194580078125;4.64999998825988;466;100 mA
12.6183009681419;0.300628662109375;0.00191802978515625;4.65999998823463;467;100 mA
12.6283009681166;0.30047607421875;0.00189910888671875;4.66999998820938;468;100 mA
12.6383009680914;0.300384521484375;0.00196136474609375;4.67999998818414;469;100 mA
12.6483009680661;0.300445556640625;0.0018902587890625;4.68999998815889;470;100 mA
12.6583009680409;0.300506591796875;0.001973876953125;4.69999998813364;471;100 mA
12.6683009680156;0.30047607421875;0.00185760498046875;4.70999998810839;472;100 mA
12.6783009679904;0.300445556640625;0.0019842529296875;4.71999998808315;473;100 mA
12.6883009679651;0.300506591796875;0.00185791015625;4.7299999880579;474;100 mA
12.6983009679399;0.300537109375;0.0019781494140625;4.73999998803265;475;100 mA
12.7083009679146;0.300445556640625;0.00186431884765625;4.7499999880074;476;100 mA
12.7183009678894;0.3004150390625;0.00195556640625;4.75999998798216;477;100 mA
12.7283009678641;0.30047607421875;0.001895751953125;4.76999998795691;478;100 mA
12.7383009678389;0.300628662109375;0.00192962646484375;4.77999998793166;479;100 mA
12.7483009678136;0.300628662109375;0.0019500732421875;4.78999998790641;480;100 mA
12.7583009677884;0.30059814453125;0.00188232421875;4.79999998788116;481;100 mA
12.7683009677631;0.30047607421875;0.00197509765625;4.80999998785592;482;100 mA
12.7783009677379;0.300445556640625;0.00186431884765625;4.81999998783067;483;100 mA
12.7883009677126;0.300537109375;0.00199005126953125;4.82999998780542;484;100 mA
12.7983009676874;0.30059814453125;0.00187042236328125;4.83999998778017;485;100 mA
12.8083009676621;0.300567626953125;0.00196624755859375;4.84999998775493;486;100 mA
12.8183009676369;0.300567626953125;0.00189422607421875;4.85999998772968;487;100 mA
12.8283009676117;0.3006591796875;0.00196014404296875;4.86999998770443;488;100 mA
12.8383009675864;0.300567626953125;0.00190704345703125;4.87999998767918;489;100 mA
12.8483009675612;0.300384521484375;0.00194183349609375;4.88999998765394;490;100 mA
12.8583009675359;0.30035400390625;0.0018975830078125;4.89999998762869;491;100 mA
12.8683009675107;0.300506591796875;0.00190460205078125;4.90999998760344;492;100 mA
12.8783009674854;0.3006591796875;0.0019329833984375;4.91999998757819;493;100 mA
12.8883009674602;0.300567626953125;0.001876220703125;4.92999998755295;494;100 mA
12.8983009674349;0.300506591796875;0.00197418212890625;4.9399999875277;495;100 mA
12.9083009674097;0.3004150390625;0.00185272216796875;4.94999998750245;496;100 mA
12.9183009673844;0.30047607421875;0.0019921875;4.9599999874772;497;100 mA
12.9283009673592;0.300506591796875;0.00183624267578125;4.96999998745196;498;100 mA
12.9383009673339;0.300445556640625;0.001961669921875;4.97999998742671;499;100 mA
12.9483009673087;0.3004150390625;0.001845703125;4.98999998740146;500;100 mA
12.9583009672834;0.3006591796875;0.0019122314453125;4.99999998737621;501;100 mA
12.9683009672582;0.3006591796875;0.00187255859375;5.00999998735097;502;100 mA
12.9783009672329;0.300537109375;0.00185882568359375;5.01999998732572;503;100 mA
12.9883009672077;0.300445556640625;0.0018853759765625;5.02999998730047;504;100 mA
12.9983009671824;0.300506591796875;0.00181182861328125;5.03999998727522;505;100 mA
13.0083009671572;0.300506591796875;0.00190582275390625;5.04999998724998;506;100 mA
13.0183009671319;0.3006591796875;0.0018072509765625;5.05999998722473;507;100 mA
13.0283009671067;0.300628662109375;0.001912841796875;5.06999998719948;508;100 mA
13.0383009670815;0.300567626953125;0.0017987060546875;5.07999998717423;509;100 mA
13.0483009670562;0.300537109375;0.0019183349609375;5.08999998714899;510;100 mA
13.058300967031;0.300537109375;0.0018231201171875;5.09999998712374;511;100 mA
13.0683009670057;0.30047607421875;0.00192138671875;5.10999998709849;512;100 mA
13.0783009669805;0.30047607421875;0.0018365478515625;5.11999998707324;513;100 mA
13.0883009669552;0.300537109375;0.0018975830078125;5.129999987048;514;100 mA
13.09830096693;0.300628662109375;0.00187774658203125;5.13999998702275;515;100 mA
13.1083009669047;0.300506591796875;0.00186065673828125;5.1499999869975;516;100 mA
13.1183009668795;0.30047607421875;0.00191070556640625;5.15999998697225;517;100 mA
13.1283009668542;0.30035400390625;0.0018218994140625;5.169999986947;518;100 mA
13.138300966829;0.30047607421875;0.00193084716796875;5.17999998692176;519;100 mA
13.1483009668037;0.300537109375;0.0018133544921875;5.18999998689651;520;100 mA
13.1583009667785;0.300445556640625;0.001944580078125;5.19999998687126;521;100 mA
13.1683009667532;0.30047607421875;0.00181640625;5.20999998684601;522;100 mA
13.178300966728;0.300567626953125;0.00192352294921875;5.21999998682077;523;100 mA
13.1883009667027;0.30059814453125;0.00183197021484375;5.22999998679552;524;100 mA
13.1983009666775;0.300445556640625;0.0019091796875;5.23999998677027;525;100 mA
13.2083009666522;0.300445556640625;0.0018389892578125;5.24999998674502;526;100 mA
13.218300966627;0.300567626953125;0.00186553955078125;5.25999998671978;527;100 mA
13.2283009666018;0.300628662109375;0.00187744140625;5.26999998669453;528;100 mA
13.2383009665765;0.30072021484375;0.00181671142578125;5.27999998666928;529;100 mA
13.2483009665513;0.300506591796875;0.00189605712890625;5.28999998664403;530;100 mA
13.258300966526;0.300445556640625;0.00179290771484375;5.29999998661879;531;100 mA
13.2683009665008;0.30059814453125;0.001907958984375;5.30999998659354;532;100 mA
13.2783009664755;0.300567626953125;0.001756591796875;5.31999998656829;533;100 mA
13.2883009664503;0.300537109375;0.00188720703125;5.32999998654304;534;100 mA
13.298300966425;0.3004150390625;0.0017901611328125;5.3399999865178;535;100 mA
13.3083009663998;0.30059814453125;0.00187408447265625;5.34999998649255;536;100 mA
13.3183009663745;0.30059814453125;0.0018133544921875;5.3599999864673;537;100 mA
13.3283009663493;0.3004150390625;0.00185333251953125;5.36999998644205;538;100 mA
13.338300966324;0.3004150390625;0.00185272216796875;5.37999998641681;539;100 mA
13.3483009662988;0.30035400390625;0.00184356689453125;5.38999998639156;540;100 mA
13.3583009662735;0.300506591796875;0.0018743896484375;5.39999998636631;541;100 mA
13.3683009662483;0.300628662109375;0.00183013916015625;5.40999998634106;542;100 mA
13.378300966223;0.300445556640625;0.001905517578125;5.41999998631582;543;100 mA
13.3883009661978;0.300506591796875;0.001788330078125;5.42999998629057;544;100 mA
13.3983009661725;0.300445556640625;0.0019268798828125;5.43999998626532;545;100 mA
13.4083009661473;0.300506591796875;0.00177001953125;5.44999998624007;546;100 mA
13.418300966122;0.300384521484375;0.0018963623046875;5.45999998621483;547;100 mA
13.4283009660968;0.30047607421875;0.00177337646484375;5.46999998618958;548;100 mA
13.4383009660716;0.300537109375;0.00187225341796875;5.47999998616433;549;100 mA
13.4483009660463;0.300628662109375;0.001826171875;5.48999998613908;550;100 mA
13.4583009660211;0.300689697265625;0.00182342529296875;5.49999998611383;551;100 mA
13.4683009659958;0.300506591796875;0.0018585205078125;5.50999998608859;552;100 mA
13.4783009659706;0.300445556640625;0.00176300048828125;5.51999998606334;553;100 mA
13.4883009659453;0.30047607421875;0.0018511962890625;5.52999998603809;554;100 mA
13.4983009659201;0.30059814453125;0.0017724609375;5.53999998601284;555;100 mA
13.5083009658948;0.300628662109375;0.00187469482421875;5.5499999859876;556;100 mA
13.5183009658696;0.30059814453125;0.00175140380859375;5.55999998596235;557;100 mA
13.5283009658443;0.300537109375;0.00185882568359375;5.5699999859371;558;100 mA
13.5383009658191;0.300628662109375;0.00179443359375;5.57999998591185;559;100 mA
13.5483009657938;0.30047607421875;0.0018743896484375;5.58999998588661;560;100 mA
13.5583009657686;0.30047607421875;0.001796875;5.59999998586136;561;100 mA
13.5683009657433;0.300445556640625;0.00185821533203125;5.60999998583611;562;100 mA
13.5783009657181;0.300567626953125;0.00181732177734375;5.61999998581086;563;100 mA
13.5883009656928;0.300628662109375;0.00183380126953125;5.62999998578562;564;100 mA
13.5983009656676;0.300506591796875;0.00188995361328125;5.63999998576037;565;100 mA
13.6083009656423;0.300445556640625;0.00181396484375;5.64999998573512;566;100 mA
13.6183009656171;0.30047607421875;0.00191741943359375;5.65999998570987;567;100 mA
13.6283009655918;0.3004150390625;0.00179229736328125;5.66999998568463;568;100 mA
13.6383009655666;0.30047607421875;0.0019354248046875;5.67999998565938;569;100 mA
13.6483009655414;0.300537109375;0.0018017578125;5.68999998563413;570;100 mA
13.6583009655161;0.300506591796875;0.00191986083984375;5.69999998560888;571;100 mA
13.6683009654909;0.300567626953125;0.0018255615234375;5.70999998558364;572;100 mA
13.6783009654656;0.300506591796875;0.0018939208984375;5.71999998555839;573;100 mA
13.6883009654404;0.30047607421875;0.00185302734375;5.72999998553314;574;100 mA
13.6983009654151;0.300384521484375;0.00187591552734375;5.73999998550789;575;100 mA
13.7083009653899;0.300506591796875;0.00188690185546875;5.74999998548265;576;100 mA
13.7183009653646;0.300628662109375;0.0018408203125;5.7599999854574;577;100 mA
13.7283009653394;0.30059814453125;0.00189208984375;5.76999998543215;578;100 mA
13.7383009653141;0.300537109375;0.0018115234375;5.7799999854069;579;100 mA
13.7483009652889;0.300537109375;0.00192840576171875;5.78999998538166;580;100 mA
13.7583009652636;0.300537109375;0.00178741455078125;5.79999998535641;581;100 mA
13.7683009652384;0.300537109375;0.00192352294921875;5.80999998533116;582;100 mA
13.7783009652131;0.3004150390625;0.0018121337890625;5.81999998530591;583;100 mA
13.7883009651879;0.30059814453125;0.00188995361328125;5.82999998528066;584;100 mA
13.7983009651626;0.300567626953125;0.00182220458984375;5.83999998525542;585;100 mA
13.8083009651374;0.300567626953125;0.00185455322265625;5.84999998523017;586;100 mA
13.8183009651121;0.300506591796875;0.00183441162109375;5.85999998520492;587;100 mA
13.8283009650869;0.300262451171875;0.00181304931640625;5.86999998517967;588;100 mA
13.8383009650616;0.3004150390625;0.00186279296875;5.87999998515443;589;100 mA
13.8483009650364;0.300567626953125;0.0018109130859375;5.88999998512918;590;100 mA
13.8583009650112;0.300506591796875;0.00188262939453125;5.89999998510393;591;100 mA
13.8683009649859;0.300537109375;0.00177001953125;5.90999998507868;592;100 mA
13.8783009649607;0.3004150390625;0.0018963623046875;5.91999998505344;593;100 mA
13.8883009649354;0.30047607421875;0.00176422119140625;5.92999998502819;594;100 mA
13.8983009649102;0.300445556640625;0.00189361572265625;5.93999998500294;595;100 mA
13.9083009648849;0.30047607421875;0.0017828369140625;5.94999998497769;596;100 mA
13.9183009648597;0.300537109375;0.001884765625;5.95999998495245;597;100 mA
13.9283009648344;0.300567626953125;0.00183135986328125;5.9699999849272;598;100 mA
13.9383009648092;0.300689697265625;0.00186798095703125;5.97999998490195;599;100 mA
13.9483009647839;0.300567626953125;0.001895751953125;5.9899999848767;600;100 mA
13.9583009647587;0.300537109375;0.00183349609375;5.99999998485146;601;100 mA
13.9683009647334;0.3004150390625;0.00192718505859375;6.00999998482621;602;100 mA
13.9783009647082;0.300506591796875;0.00182159423828125;6.01999998480096;603;100 mA
13.9883009646829;0.3006591796875;0.00194915771484375;6.02999998477571;604;100 mA
13.9983009646577;0.30059814453125;0.00182098388671875;6.03999998475047;605;100 mA
14.0083009646324;0.30047607421875;0.00193756103515625;6.04999998472522;606;100 mA
14.0183009646072;0.300628662109375;0.00185272216796875;6.05999998469997;607;100 mA
14.0283009645819;0.30059814453125;0.00194610595703125;6.06999998467472;608;100 mA
14.0383009645567;0.300445556640625;0.00188385009765625;6.07999998464948;609;100 mA
14.0483009645314;0.300384521484375;0.00194000244140625;6.08999998462423;610;100 mA
14.0583009645062;0.300445556640625;0.0019097900390625;6.09999998459898;611;100 mA
14.068300964481;0.300537109375;0.00193115234375;6.10999998457373;612;100 mA
14.0783009644557;0.300628662109375;0.0019390869140625;6.11999998454849;613;100 mA
14.0883009644305;0.300506591796875;0.00190185546875;6.12999998452324;614;100 mA
14.0983009644052;0.3004150390625;0.0019769287109375;6.13999998449799;615;100 mA
14.10830096438;0.300445556640625;0.00184478759765625;6.14999998447274;616;100 mA
14.1183009643547;0.300506591796875;0.00200531005859375;6.1599999844475;617;100 mA
14.1283009643295;0.30059814453125;0.00185028076171875;6.16999998442225;618;100 mA
14.1383009643042;0.300384521484375;0.00197967529296875;6.179999984397;619;100 mA
14.148300964279;0.300567626953125;0.00186767578125;6.18999998437175;620;100 mA
14.1583009642537;0.30059814453125;0.001944580078125;6.1999999843465;621;100 mA
14.1683009642285;0.30059814453125;0.00189544677734375;6.20999998432126;622;100 mA
14.1783009642032;0.3004150390625;0.00188568115234375;6.21999998429601;623;100 mA
14.188300964178;0.300323486328125;0.001920166015625;6.22999998427076;624;100 mA
14.1983009641527;0.30059814453125;0.0018548583984375;6.23999998424551;625;100 mA
14.2083009641275;0.300628662109375;0.0019171142578125;6.24999998422027;626;100 mA
14.2183009641022;0.300628662109375;0.00183807373046875;6.25999998419502;627;100 mA
14.228300964077;0.300567626953125;0.0019268798828125;6.26999998416977;628;100 mA
14.2383009640517;0.300537109375;0.00181915283203125;6.27999998414452;629;100 mA
14.2483009640265;0.30047607421875;0.0019427490234375;6.28999998411928;630;100 mA
14.2583009640013;0.300445556640625;0.00183563232421875;6.29999998409403;631;100 mA
14.268300963976;0.300445556640625;0.00195465087890625;6.30999998406878;632;100 mA
14.2783009639508;0.30047607421875;0.001856689453125;6.31999998404353;633;100 mA
14.2883009639255;0.300506591796875;0.0019146728515625;6.32999998401829;634;100 mA
14.2983009639003;0.300628662109375;0.00188079833984375;6.33999998399304;635;100 mA
14.308300963875;0.300445556640625;0.00185150146484375;6.34999998396779;636;100 mA
14.3183009638498;0.300384521484375;0.0019024658203125;6.35999998394254;637;100 mA
14.3283009638245;0.300445556640625;0.00182281494140625;6.3699999839173;638;100 mA
14.3383009637993;0.3004150390625;0.00192962646484375;6.37999998389205;639;100 mA
14.348300963774;0.300537109375;0.00180877685546875;6.3899999838668;640;100 mA
14.3583009637488;0.300445556640625;0.00194000244140625;6.39999998384155;641;100 mA
14.3683009637235;0.300445556640625;0.001827392578125;6.40999998381631;642;100 mA
14.3783009636983;0.300445556640625;0.00193084716796875;6.41999998379106;643;100 mA
14.388300963673;0.300537109375;0.00183990478515625;6.42999998376581;644;100 mA
14.3983009636478;0.3004150390625;0.0019281005859375;6.43999998374056;645;100 mA
14.4083009636225;0.30047607421875;0.0018609619140625;6.44999998371532;646;100 mA
14.4183009635973;0.300628662109375;0.00189453125;6.45999998369007;647;100 mA
14.428300963572;0.30059814453125;0.00190582275390625;6.46999998366482;648;100 mA
14.4383009635468;0.30059814453125;0.0018511962890625;6.47999998363957;649;100 mA
14.4483009635215;0.300445556640625;0.00193450927734375;6.48999998361433;650;100 mA
14.4583009634963;0.30047607421875;0.0018341064453125;6.49999998358908;651;100 mA
14.4683009634711;0.30059814453125;0.001959228515625;6.50999998356383;652;100 mA
14.4783009634458;0.300628662109375;0.0018231201171875;6.51999998353858;653;100 mA
14.4883009634206;0.30047607421875;0.00196685791015625;6.52999998351333;654;100 mA
14.4983009633953;0.300567626953125;0.00186553955078125;6.53999998348809;655;100 mA
14.5083009633701;0.30059814453125;0.00194671630859375;6.54999998346284;656;100 mA
14.5183009633448;0.300567626953125;0.0018896484375;6.55999998343759;657;100 mA
14.5283009633196;0.300445556640625;0.0019085693359375;6.56999998341234;658;100 mA
14.5383009632943;0.300323486328125;0.00191314697265625;6.5799999833871;659;100 mA
14.5483009632691;0.300445556640625;0.0018975830078125;6.58999998336185;660;100 mA
14.5583009632438;0.300567626953125;0.0019268798828125;6.5999999833366;661;100 mA
14.5683009632186;0.300628662109375;0.0018634033203125;6.60999998331135;662;100 mA
14.5783009631933;0.300445556640625;0.0019219970703125;6.61999998328611;663;100 mA
14.5883009631681;0.300384521484375;0.00182525634765625;6.62999998326086;664;100 mA
14.5983009631428;0.300506591796875;0.00196258544921875;6.63999998323561;665;100 mA
14.6083009631176;0.300537109375;0.00181976318359375;6.64999998321036;666;100 mA
14.6183009630923;0.3004150390625;0.0019512939453125;6.65999998318512;667;100 mA
14.6283009630671;0.300506591796875;0.0018231201171875;6.66999998315987;668;100 mA
14.6383009630418;0.30059814453125;0.001904296875;6.67999998313462;669;100 mA
14.6483009630166;0.30059814453125;0.0018603515625;6.68999998310937;670;100 mA
14.6583009629913;0.300567626953125;0.00186553955078125;6.69999998308413;671;100 mA
14.6683009629661;0.3004150390625;0.001907958984375;6.70999998305888;672;100 mA
14.6783009629409;0.300384521484375;0.001826171875;6.71999998303363;673;100 mA
14.6883009629156;0.300506591796875;0.00191741943359375;6.72999998300838;674;100 mA
14.6983009628904;0.3006591796875;0.00182769775390625;6.73999998298314;675;100 mA
14.7083009628651;0.30059814453125;0.00192413330078125;6.74999998295789;676;100 mA
14.7183009628399;0.300506591796875;0.0018121337890625;6.75999998293264;677;100 mA
14.7283009628146;0.300567626953125;0.0019140625;6.76999998290739;678;100 mA
14.7383009627894;0.300537109375;0.0018359375;6.77999998288215;679;100 mA
14.7483009627641;0.300506591796875;0.00192718505859375;6.7899999828569;680;100 mA
14.7583009627389;0.30047607421875;0.001846923828125;6.79999998283165;681;100 mA
14.7683009627136;0.30047607421875;0.0019158935546875;6.8099999828064;682;100 mA
14.7783009626884;0.300628662109375;0.001865234375;6.81999998278116;683;100 mA
14.7883009626631;0.300537109375;0.0018731689453125;6.82999998275591;684;100 mA
14.7983009626379;0.300445556640625;0.00190460205078125;6.83999998273066;685;100 mA
14.8083009626126;0.30035400390625;0.001822509765625;6.84999998270541;686;100 mA
14.8183009625874;0.300445556640625;0.00192047119140625;6.85999998268016;687;100 mA
14.8283009625621;0.30047607421875;0.001783447265625;6.86999998265492;688;100 mA
14.8383009625369;0.3004150390625;0.00193572998046875;6.87999998262967;689;100 mA
14.8483009625116;0.300537109375;0.00180206298828125;6.88999998260442;690;100 mA
14.8583009624864;0.30059814453125;0.00190216064453125;6.89999998257917;691;100 mA
14.8683009624611;0.300506591796875;0.00181610107421875;6.90999998255393;692;100 mA
14.8783009624359;0.30047607421875;0.001873779296875;6.91999998252868;693;100 mA
14.8883009624107;0.3004150390625;0.00184722900390625;6.92999998250343;694;100 mA
14.8983009623854;0.3004150390625;0.00187042236328125;6.93999998247818;695;100 mA
14.9083009623602;0.300567626953125;0.001878662109375;6.94999998245294;696;100 mA
14.9183009623349;0.30072021484375;0.0018212890625;6.95999998242769;697;100 mA
14.9283009623097;0.300567626953125;0.0018768310546875;6.96999998240244;698;100 mA
14.9383009622844;0.300537109375;0.00180084228515625;6.97999998237719;699;100 mA
14.9483009622592;0.300537109375;0.00191162109375;6.98999998235195;700;100 mA
