Time (s);WE(1).Potential (V);WE(1).Current (A);Corrected time (s);Index;Current range;Overload
22.9387269420853;-0.80108642578125;-0.398223876953125;0;1;100 mA;Current overload
22.94872694206;-0.79925537109375;-0.27557373046875;0.00999999997475243;2;100 mA;
22.9587269420348;-0.79925537109375;-0.2198486328125;0.0199999999495049;3;100 mA;
22.9687269420095;-0.79925537109375;-0.19036865234375;0.0299999999242573;4;100 mA;
22.9787269419843;-0.79925537109375;-0.16741943359375;0.0399999998990097;5;100 mA;
22.988726941959;-0.79864501953125;-0.154083251953125;0.0499999998737621;6;100 mA;
22.9987269419338;-0.799560546875;-0.14141845703125;0.0599999998485146;7;100 mA;
23.0087269419085;-0.7989501953125;-0.133941650390625;0.069999999823267;8;100 mA;
23.0187269418833;-0.7989501953125;-0.12615966796875;0.0799999997980194;9;100 mA;
23.0287269418581;-0.7989501953125;-0.121307373046875;0.0899999997727718;10;100 mA;
23.0387269418328;-0.79925537109375;-0.115997314453125;0.0999999997475243;11;100 mA;
23.0487269418076;-0.7989501953125;-0.112457275390625;0.109999999722277;12;100 mA;
23.0587269417823;-0.79986572265625;-0.109344482421875;0.119999999697029;13;100 mA;
23.0687269417571;-0.799560546875;-0.10650634765625;0.129999999671782;14;100 mA;
23.0787269417318;-0.79864501953125;-0.104461669921875;0.139999999646534;15;100 mA;
23.0887269417066;-0.7989501953125;-0.101715087890625;0.149999999621286;16;100 mA;
23.0987269416813;-0.7989501953125;-0.100433349609375;0.159999999596039;17;100 mA;
23.1087269416561;-0.7989501953125;-0.09796142578125;0.169999999570791;18;100 mA;
23.1187269416308;-0.7989501953125;-0.0977783203125;0.179999999545544;19;100 mA;
23.1287269416056;-0.79925537109375;-0.09552001953125;0.189999999520296;20;100 mA;
23.1387269415803;-0.799560546875;-0.0955810546875;0.199999999495049;21;100 mA;
23.1487269415551;-0.79925537109375;-0.09356689453125;0.209999999469801;22;100 mA;
23.1587269415298;-0.79925537109375;-0.093597412109375;0.219999999444553;23;100 mA;
23.1687269415046;-0.799560546875;-0.092376708984375;0.229999999419306;24;100 mA;
23.1787269414793;-0.7989501953125;-0.091949462890625;0.239999999394058;25;100 mA;
23.1887269414541;-0.7989501953125;-0.091339111328125;0.249999999368811;26;100 mA;
23.1987269414288;-0.79925537109375;-0.0904541015625;0.259999999343563;27;100 mA;
23.2087269414036;-0.799560546875;-0.090423583984375;0.269999999318316;28;100 mA;
23.2187269413783;-0.79986572265625;-0.0894775390625;0.279999999293068;29;100 mA;
23.2287269413531;-0.799560546875;-0.090179443359375;0.28999999926782;30;100 mA;
23.2387269413279;-0.79925537109375;-0.088958740234375;0.299999999242573;31;100 mA;
23.2487269413026;-0.7989501953125;-0.090057373046875;0.309999999217325;32;100 mA;
23.2587269412774;-0.79864501953125;-0.088775634765625;0.319999999192078;33;100 mA;
23.2687269412521;-0.7989501953125;-0.089813232421875;0.32999999916683;34;100 mA;
23.2787269412269;-0.79925537109375;-0.088958740234375;0.339999999141583;35;100 mA;
23.2887269412016;-0.799560546875;-0.08966064453125;0.349999999116335;36;100 mA;
23.2987269411764;-0.7989501953125;-0.0888671875;0.359999999091087;37;100 mA;
23.3087269411511;-0.7989501953125;-0.088836669921875;0.36999999906584;38;100 mA;
23.3187269411259;-0.79925537109375;-0.0888671875;0.379999999040592;39;100 mA;
23.3287269411006;-0.799560546875;-0.08807373046875;0.389999999015345;40;100 mA;
23.3387269410754;-0.79864501953125;-0.08868408203125;0.399999998990097;41;100 mA;
23.3487269410501;-0.79925537109375;-0.087493896484375;0.40999999896485;42;100 mA;
23.3587269410249;-0.7989501953125;-0.088775634765625;0.419999998939602;43;100 mA;
23.3687269409996;-0.7989501953125;-0.08758544921875;0.429999998914354;44;100 mA;
23.3787269409744;-0.7989501953125;-0.0887451171875;0.439999998889107;45;100 mA;
23.3887269409491;-0.7989501953125;-0.087158203125;0.449999998863859;46;100 mA;
23.3987269409239;-0.79925537109375;-0.087493896484375;0.459999998838612;47;100 mA;
23.4087269408986;-0.7989501953125;-0.08660888671875;0.469999998813364;48;100 mA;
23.4187269408734;-0.79925537109375;-0.086944580078125;0.479999998788116;49;100 mA;
23.4287269408482;-0.799560546875;-0.087249755859375;0.489999998762869;50;100 mA;
23.4387269408229;-0.79925537109375;-0.087249755859375;0.499999998737621;51;100 mA;
23.4487269407977;-0.799560546875;-0.08819580078125;0.509999998712374;52;100 mA;
23.4587269407724;-0.799560546875;-0.087432861328125;0.519999998687126;53;100 mA;
23.4687269407472;-0.79925537109375;-0.088714599609375;0.529999998661879;54;100 mA;
23.4787269407219;-0.7989501953125;-0.087310791015625;0.539999998636631;55;100 mA;
23.4887269406967;-0.79864501953125;-0.088226318359375;0.549999998611383;56;100 mA;
23.4987269406714;-0.79833984375;-0.086883544921875;0.559999998586136;57;100 mA;
23.5087269406462;-0.7989501953125;-0.087249755859375;0.569999998560888;58;100 mA;
23.5187269406209;-0.8001708984375;-0.08624267578125;0.579999998535641;59;100 mA;
23.5287269405957;-0.79864501953125;-0.0860595703125;0.589999998510393;60;100 mA;
23.5387269405704;-0.7989501953125;-0.08538818359375;0.599999998485146;61;100 mA;
23.5487269405452;-0.79925537109375;-0.084991455078125;0.609999998459898;62;100 mA;
23.5587269405199;-0.79925537109375;-0.0849609375;0.61999999843465;63;100 mA;
23.5687269404947;-0.7989501953125;-0.08453369140625;0.629999998409403;64;100 mA;
23.5787269404694;-0.7989501953125;-0.085357666015625;0.639999998384155;65;100 mA;
23.5887269404442;-0.7989501953125;-0.0848388671875;0.649999998358908;66;100 mA;
23.5987269404189;-0.799560546875;-0.086151123046875;0.65999999833366;67;100 mA;
23.6087269403937;-0.7989501953125;-0.08538818359375;0.669999998308413;68;100 mA;
23.6187269403684;-0.79864501953125;-0.08642578125;0.679999998283165;69;100 mA;
23.6287269403432;-0.79925537109375;-0.085418701171875;0.689999998257917;70;100 mA;
23.638726940318;-0.7989501953125;-0.08612060546875;0.69999999823267;71;100 mA;
23.6487269402927;-0.799560546875;-0.08526611328125;0.709999998207422;72;100 mA;
23.6587269402675;-0.799560546875;-0.08563232421875;0.719999998182175;73;100 mA;
23.6687269402422;-0.79864501953125;-0.085479736328125;0.729999998156927;74;100 mA;
23.678726940217;-0.799560546875;-0.085357666015625;0.73999999813168;75;100 mA;
23.6887269401917;-0.79925537109375;-0.085662841796875;0.749999998106432;76;100 mA;
23.6987269401665;-0.79925537109375;-0.084564208984375;0.759999998081184;77;100 mA;
23.7087269401412;-0.799560546875;-0.0849609375;0.769999998055937;78;100 mA;
23.718726940116;-0.79925537109375;-0.083740234375;0.779999998030689;79;100 mA;
23.7287269400907;-0.7989501953125;-0.0845947265625;0.789999998005442;80;100 mA;
23.7387269400655;-0.79925537109375;-0.083709716796875;0.799999997980194;81;100 mA;
23.7487269400402;-0.79925537109375;-0.08447265625;0.809999997954947;82;100 mA;
23.758726940015;-0.79864501953125;-0.0836181640625;0.819999997929699;83;100 mA;
23.7687269399897;-0.79864501953125;-0.08416748046875;0.829999997904451;84;100 mA;
23.7787269399645;-0.7989501953125;-0.08349609375;0.839999997879204;85;100 mA;
23.7887269399392;-0.799560546875;-0.083587646484375;0.849999997853956;86;100 mA;
23.798726939914;-0.7989501953125;-0.083892822265625;0.859999997828709;87;100 mA;
23.8087269398887;-0.7989501953125;-0.083709716796875;0.869999997803461;88;100 mA;
23.8187269398635;-0.79864501953125;-0.084930419921875;0.879999997778214;89;100 mA;
23.8287269398382;-0.79986572265625;-0.084442138671875;0.889999997752966;90;100 mA;
23.838726939813;-0.79925537109375;-0.085601806640625;0.899999997727718;91;100 mA;
23.8487269397878;-0.7989501953125;-0.084808349609375;0.909999997702471;92;100 mA;
23.8587269397625;-0.7989501953125;-0.085845947265625;0.919999997677223;93;100 mA;
23.8687269397373;-0.799560546875;-0.08477783203125;0.929999997651976;94;100 mA;
23.878726939712;-0.799560546875;-0.085601806640625;0.939999997626728;95;100 mA;
23.8887269396868;-0.79925537109375;-0.08514404296875;0.949999997601481;96;100 mA;
23.8987269396615;-0.7989501953125;-0.085540771484375;0.959999997576233;97;100 mA;
23.9087269396363;-0.79925537109375;-0.085479736328125;0.969999997550985;98;100 mA;
23.918726939611;-0.799560546875;-0.085540771484375;0.979999997525738;99;100 mA;
23.9287269395858;-0.79925537109375;-0.08563232421875;0.98999999750049;100;100 mA;
23.9387269395605;-0.799560546875;-0.0848388671875;0.999999997475243;101;100 mA;
23.9487269395353;-0.7989501953125;-0.0860595703125;1.00999999745;102;100 mA;
23.95872693951;-0.79925537109375;-0.08502197265625;1.01999999742475;103;100 mA;
23.9687269394848;-0.79925537109375;-0.086334228515625;1.0299999973995;104;100 mA;
23.9787269394595;-0.79833984375;-0.085540771484375;1.03999999737425;105;100 mA;
23.9887269394343;-0.79925537109375;-0.086334228515625;1.049999997349;106;100 mA;
23.998726939409;-0.79864501953125;-0.085540771484375;1.05999999732376;107;100 mA;
24.0087269393838;-0.799560546875;-0.085906982421875;1.06999999729851;108;100 mA;
24.0187269393585;-0.79925537109375;-0.08551025390625;1.07999999727326;109;100 mA;
24.0287269393333;-0.79925537109375;-0.085357666015625;1.08999999724801;110;100 mA;
24.038726939308;-0.7989501953125;-0.085479736328125;1.09999999722277;111;100 mA;
24.0487269392828;-0.7989501953125;-0.084686279296875;1.10999999719752;112;100 mA;
24.0587269392576;-0.799560546875;-0.08526611328125;1.11999999717227;113;100 mA;
24.0687269392323;-0.79925537109375;-0.084197998046875;1.12999999714702;114;100 mA;
24.0787269392071;-0.79925537109375;-0.08447265625;1.13999999712178;115;100 mA;
24.0887269391818;-0.799560546875;-0.082916259765625;1.14999999709653;116;100 mA;
24.0987269391566;-0.799560546875;-0.0833740234375;1.15999999707128;117;100 mA;
24.1087269391313;-0.79864501953125;-0.0821533203125;1.16999999704603;118;100 mA;
24.1187269391061;-0.79925537109375;-0.08270263671875;1.17999999702079;119;100 mA;
24.1287269390808;-0.7989501953125;-0.08245849609375;1.18999999699554;120;100 mA;
24.1387269390556;-0.79864501953125;-0.083160400390625;1.19999999697029;121;100 mA;
24.1487269390303;-0.7989501953125;-0.083404541015625;1.20999999694504;122;100 mA;
24.1587269390051;-0.79925537109375;-0.0833740234375;1.2199999969198;123;100 mA;
24.1687269389798;-0.79925537109375;-0.084197998046875;1.22999999689455;124;100 mA;
24.1787269389546;-0.7989501953125;-0.083709716796875;1.2399999968693;125;100 mA;
24.1887269389293;-0.79925537109375;-0.084747314453125;1.24999999684405;126;100 mA;
24.1987269389041;-0.79925537109375;-0.083984375;1.25999999681881;127;100 mA;
24.2087269388788;-0.7989501953125;-0.085205078125;1.26999999679356;128;100 mA;
24.2187269388536;-0.79864501953125;-0.084259033203125;1.27999999676831;129;100 mA;
24.2287269388283;-0.79925537109375;-0.0850830078125;1.28999999674306;130;100 mA;
24.2387269388031;-0.799560546875;-0.08447265625;1.29999999671782;131;100 mA;
24.2487269387778;-0.7989501953125;-0.084808349609375;1.30999999669257;132;100 mA;
24.2587269387526;-0.79864501953125;-0.0848388671875;1.31999999666732;133;100 mA;
24.2687269387274;-0.799560546875;-0.085174560546875;1.32999999664207;134;100 mA;
24.2787269387021;-0.79864501953125;-0.08587646484375;1.33999999661683;135;100 mA;
24.2887269386769;-0.79864501953125;-0.085662841796875;1.34999999659158;136;100 mA;
24.2987269386516;-0.7989501953125;-0.086395263671875;1.35999999656633;137;100 mA;
24.3087269386264;-0.7989501953125;-0.086029052734375;1.36999999654108;138;100 mA;
24.3187269386011;-0.7989501953125;-0.08740234375;1.37999999651583;139;100 mA;
24.3287269385759;-0.799560546875;-0.086669921875;1.38999999649059;140;100 mA;
24.3387269385506;-0.799560546875;-0.087738037109375;1.39999999646534;141;100 mA;
24.3487269385254;-0.7989501953125;-0.08673095703125;1.40999999644009;142;100 mA;
24.3587269385001;-0.79925537109375;-0.087493896484375;1.41999999641484;143;100 mA;
24.3687269384749;-0.799560546875;-0.0870361328125;1.4299999963896;144;100 mA;
24.3787269384496;-0.79925537109375;-0.087432861328125;1.43999999636435;145;100 mA;
24.3887269384244;-0.79925537109375;-0.08758544921875;1.4499999963391;146;100 mA;
24.3987269383991;-0.79925537109375;-0.08758544921875;1.45999999631385;147;100 mA;
24.4087269383739;-0.79925537109375;-0.0882568359375;1.46999999628861;148;100 mA;
24.4187269383486;-0.799560546875;-0.087677001953125;1.47999999626336;149;100 mA;
24.4287269383234;-0.79925537109375;-0.0887451171875;1.48999999623811;150;100 mA;
24.4387269382981;-0.7989501953125;-0.087493896484375;1.49999999621286;151;100 mA;
24.4487269382729;-0.7989501953125;-0.088470458984375;1.50999999618762;152;100 mA;
24.4587269382477;-0.79925537109375;-0.087310791015625;1.51999999616237;153;100 mA;
24.4687269382224;-0.7989501953125;-0.08831787109375;1.52999999613712;154;100 mA;
24.4787269381972;-0.7989501953125;-0.08782958984375;1.53999999611187;155;100 mA;
24.4887269381719;-0.7989501953125;-0.088470458984375;1.54999999608663;156;100 mA;
24.4987269381467;-0.7989501953125;-0.088592529296875;1.55999999606138;157;100 mA;
24.5087269381214;-0.79925537109375;-0.088714599609375;1.56999999603613;158;100 mA;
24.5187269380962;-0.79925537109375;-0.08941650390625;1.57999999601088;159;100 mA;
24.5287269380709;-0.7989501953125;-0.08892822265625;1.58999999598564;160;100 mA;
24.5387269380457;-0.79986572265625;-0.089569091796875;1.59999999596039;161;100 mA;
24.5487269380204;-0.7989501953125;-0.08843994140625;1.60999999593514;162;100 mA;
24.5587269379952;-0.799560546875;-0.08905029296875;1.61999999590989;163;100 mA;
24.5687269379699;-0.7989501953125;-0.088165283203125;1.62999999588465;164;100 mA;
24.5787269379447;-0.7989501953125;-0.088470458984375;1.6399999958594;165;100 mA;
24.5887269379194;-0.79925537109375;-0.087432861328125;1.64999999583415;166;100 mA;
24.5987269378942;-0.799560546875;-0.087554931640625;1.6599999958089;167;100 mA;
24.6087269378689;-0.799560546875;-0.086578369140625;1.66999999578366;168;100 mA;
24.6187269378437;-0.79925537109375;-0.086273193359375;1.67999999575841;169;100 mA;
24.6287269378184;-0.7989501953125;-0.085845947265625;1.68999999573316;170;100 mA;
24.6387269377932;-0.79925537109375;-0.08514404296875;1.69999999570791;171;100 mA;
24.6487269377679;-0.799560546875;-0.085357666015625;1.70999999568267;172;100 mA;
24.6587269377427;-0.79925537109375;-0.084625244140625;1.71999999565742;173;100 mA;
24.6687269377175;-0.7989501953125;-0.085693359375;1.72999999563217;174;100 mA;
24.6787269376922;-0.79925537109375;-0.084747314453125;1.73999999560692;175;100 mA;
24.688726937667;-0.799560546875;-0.085662841796875;1.74999999558167;176;100 mA;
24.6987269376417;-0.79925537109375;-0.084686279296875;1.75999999555643;177;100 mA;
24.7087269376165;-0.7989501953125;-0.085357666015625;1.76999999553118;178;100 mA;
24.7187269375912;-0.7989501953125;-0.084808349609375;1.77999999550593;179;100 mA;
24.728726937566;-0.799560546875;-0.085235595703125;1.78999999548068;180;100 mA;
24.7387269375407;-0.79925537109375;-0.084808349609375;1.79999999545544;181;100 mA;
24.7487269375155;-0.7989501953125;-0.084808349609375;1.80999999543019;182;100 mA;
24.7587269374902;-0.79925537109375;-0.085052490234375;1.81999999540494;183;100 mA;
24.768726937465;-0.7989501953125;-0.084808349609375;1.82999999537969;184;100 mA;
24.7787269374397;-0.79925537109375;-0.085693359375;1.83999999535445;185;100 mA;
24.7887269374145;-0.7989501953125;-0.08477783203125;1.8499999953292;186;100 mA;
24.7987269373892;-0.7989501953125;-0.085723876953125;1.85999999530395;187;100 mA;
24.808726937364;-0.79925537109375;-0.084808349609375;1.8699999952787;188;100 mA;
24.8187269373387;-0.7989501953125;-0.08563232421875;1.87999999525346;189;100 mA;
24.8287269373135;-0.799560546875;-0.084320068359375;1.88999999522821;190;100 mA;
24.8387269372882;-0.79925537109375;-0.084747314453125;1.89999999520296;191;100 mA;
24.848726937263;-0.79864501953125;-0.083953857421875;1.90999999517771;192;100 mA;
24.8587269372377;-0.7989501953125;-0.084197998046875;1.91999999515247;193;100 mA;
24.8687269372125;-0.79864501953125;-0.083984375;1.92999999512722;194;100 mA;
24.8787269371873;-0.8001708984375;-0.0838623046875;1.93999999510197;195;100 mA;
24.888726937162;-0.79925537109375;-0.08447265625;1.94999999507672;196;100 mA;
24.8987269371368;-0.799560546875;-0.083648681640625;1.95999999505148;197;100 mA;
24.9087269371115;-0.7989501953125;-0.08453369140625;1.96999999502623;198;100 mA;
24.9187269370863;-0.7989501953125;-0.08343505859375;1.97999999500098;199;100 mA;
24.928726937061;-0.7989501953125;-0.084503173828125;1.98999999497573;200;100 mA;
24.9387269370358;-0.7989501953125;-0.08343505859375;1.99999999495049;201;100 mA;
24.9487269370105;-0.7989501953125;-0.0843505859375;2.00999999492524;202;100 mA;
24.9587269369853;-0.7989501953125;-0.083526611328125;2.01999999489999;203;100 mA;
24.96872693696;-0.7989501953125;-0.084228515625;2.02999999487474;204;100 mA;
24.9787269369348;-0.7989501953125;-0.0838623046875;2.0399999948495;205;100 mA;
24.9887269369095;-0.79925537109375;-0.083831787109375;2.04999999482425;206;100 mA;
24.9987269368843;-0.7989501953125;-0.08392333984375;2.059999994799;207;100 mA;
25.008726936859;-0.799560546875;-0.083343505859375;2.06999999477375;208;100 mA;
25.0187269368338;-0.7989501953125;-0.083984375;2.0799999947485;209;100 mA;
25.0287269368085;-0.79864501953125;-0.08306884765625;2.08999999472326;210;100 mA;
25.0387269367833;-0.79925537109375;-0.083984375;2.09999999469801;211;100 mA;
25.048726936758;-0.79925537109375;-0.08331298828125;2.10999999467276;212;100 mA;
25.0587269367328;-0.79925537109375;-0.08453369140625;2.11999999464751;213;100 mA;
25.0687269367075;-0.79925537109375;-0.083770751953125;2.12999999462227;214;100 mA;
25.0787269366823;-0.7989501953125;-0.0845947265625;2.13999999459702;215;100 mA;
25.0887269366571;-0.79925537109375;-0.0838623046875;2.14999999457177;216;100 mA;
25.0987269366318;-0.7989501953125;-0.084503173828125;2.15999999454652;217;100 mA;
25.1087269366066;-0.79986572265625;-0.084228515625;2.16999999452128;218;100 mA;
25.1187269365813;-0.79986572265625;-0.08392333984375;2.17999999449603;219;100 mA;
25.1287269365561;-0.79925537109375;-0.084259033203125;2.18999999447078;220;100 mA;
25.1387269365308;-0.79925537109375;-0.083740234375;2.19999999444553;221;100 mA;
25.1487269365056;-0.799560546875;-0.084686279296875;2.20999999442029;222;100 mA;
25.1587269364803;-0.7989501953125;-0.083984375;2.21999999439504;223;100 mA;
25.1687269364551;-0.799560546875;-0.085418701171875;2.22999999436979;224;100 mA;
25.1787269364298;-0.799560546875;-0.084625244140625;2.23999999434454;225;100 mA;
25.1887269364046;-0.7989501953125;-0.08538818359375;2.2499999943193;226;100 mA;
25.1987269363793;-0.79925537109375;-0.08441162109375;2.25999999429405;227;100 mA;
25.2087269363541;-0.79925537109375;-0.084686279296875;2.2699999942688;228;100 mA;
25.2187269363288;-0.7989501953125;-0.08416748046875;2.27999999424355;229;100 mA;
25.2287269363036;-0.79925537109375;-0.08404541015625;2.28999999421831;230;100 mA;
25.2387269362783;-0.799560546875;-0.084075927734375;2.29999999419306;231;100 mA;
25.2487269362531;-0.79803466796875;-0.08331298828125;2.30999999416781;232;100 mA;
25.2587269362278;-0.79925537109375;-0.08380126953125;2.31999999414256;233;100 mA;
25.2687269362026;-0.79925537109375;-0.082916259765625;2.32999999411732;234;100 mA;
25.2787269361773;-0.79925537109375;-0.084075927734375;2.33999999409207;235;100 mA;
25.2887269361521;-0.799560546875;-0.083465576171875;2.34999999406682;236;100 mA;
25.2987269361269;-0.799560546875;-0.084503173828125;2.35999999404157;237;100 mA;
25.3087269361016;-0.79986572265625;-0.083709716796875;2.36999999401633;238;100 mA;
25.3187269360764;-0.79925537109375;-0.084442138671875;2.37999999399108;239;100 mA;
25.3287269360511;-0.799560546875;-0.083892822265625;2.38999999396583;240;100 mA;
25.3387269360259;-0.799560546875;-0.08416748046875;2.39999999394058;241;100 mA;
25.3487269360006;-0.7989501953125;-0.08416748046875;2.40999999391533;242;100 mA;
25.3587269359754;-0.799560546875;-0.08392333984375;2.41999999389009;243;100 mA;
25.3687269359501;-0.79986572265625;-0.084381103515625;2.42999999386484;244;100 mA;
25.3787269359249;-0.79925537109375;-0.083770751953125;2.43999999383959;245;100 mA;
25.3887269358996;-0.7989501953125;-0.084869384765625;2.44999999381434;246;100 mA;
25.3987269358744;-0.799560546875;-0.084228515625;2.4599999937891;247;100 mA;
25.4087269358491;-0.799560546875;-0.08538818359375;2.46999999376385;248;100 mA;
25.4187269358239;-0.79925537109375;-0.084381103515625;2.4799999937386;249;100 mA;
25.4287269357986;-0.8001708984375;-0.08526611328125;2.48999999371335;250;100 mA;
25.4387269357734;-0.7989501953125;-0.084686279296875;2.49999999368811;251;100 mA;
25.4487269357481;-0.7989501953125;-0.0855712890625;2.50999999366286;252;100 mA;
25.4587269357229;-0.79925537109375;-0.08538818359375;2.51999999363761;253;100 mA;
25.4687269356976;-0.7989501953125;-0.0853271484375;2.52999999361236;254;100 mA;
25.4787269356724;-0.7989501953125;-0.085662841796875;2.53999999358712;255;100 mA;
25.4887269356472;-0.79864501953125;-0.08526611328125;2.54999999356187;256;100 mA;
25.4987269356219;-0.79925537109375;-0.085968017578125;2.55999999353662;257;100 mA;
25.5087269355967;-0.7989501953125;-0.08502197265625;2.56999999351137;258;100 mA;
25.5187269355714;-0.7989501953125;-0.08624267578125;2.57999999348613;259;100 mA;
25.5287269355462;-0.7989501953125;-0.08544921875;2.58999999346088;260;100 mA;
25.5387269355209;-0.79925537109375;-0.086669921875;2.59999999343563;261;100 mA;
25.5487269354957;-0.7989501953125;-0.0858154296875;2.60999999341038;262;100 mA;
25.5587269354704;-0.79986572265625;-0.086822509765625;2.61999999338514;263;100 mA;
25.5687269354452;-0.79925537109375;-0.08599853515625;2.62999999335989;264;100 mA;
25.5787269354199;-0.799560546875;-0.08624267578125;2.63999999333464;265;100 mA;
25.5887269353947;-0.79925537109375;-0.08624267578125;2.64999999330939;266;100 mA;
25.5987269353694;-0.7989501953125;-0.085968017578125;2.65999999328415;267;100 mA;
25.6087269353442;-0.79925537109375;-0.08648681640625;2.6699999932589;268;100 mA;
25.6187269353189;-0.7989501953125;-0.085723876953125;2.67999999323365;269;100 mA;
25.6287269352937;-0.79925537109375;-0.08697509765625;2.6899999932084;270;100 mA;
25.6387269352684;-0.79925537109375;-0.085906982421875;2.69999999318316;271;100 mA;
25.6487269352432;-0.79925537109375;-0.087066650390625;2.70999999315791;272;100 mA;
25.6587269352179;-0.79925537109375;-0.086029052734375;2.71999999313266;273;100 mA;
25.6687269351927;-0.7989501953125;-0.0867919921875;2.72999999310741;274;100 mA;
25.6787269351674;-0.7989501953125;-0.08612060546875;2.73999999308217;275;100 mA;
25.6887269351422;-0.7989501953125;-0.086456298828125;2.74999999305692;276;100 mA;
25.698726935117;-0.799560546875;-0.085845947265625;2.75999999303167;277;100 mA;
25.7087269350917;-0.79925537109375;-0.08587646484375;2.76999999300642;278;100 mA;
25.7187269350665;-0.79925537109375;-0.08599853515625;2.77999999298117;279;100 mA;
25.7287269350412;-0.79925537109375;-0.0853271484375;2.78999999295593;280;100 mA;
25.738726935016;-0.7989501953125;-0.085723876953125;2.79999999293068;281;100 mA;
25.7487269349907;-0.7989501953125;-0.0845947265625;2.80999999290543;282;100 mA;
25.7587269349655;-0.79864501953125;-0.08544921875;2.81999999288018;283;100 mA;
25.7687269349402;-0.79864501953125;-0.084716796875;2.82999999285494;284;100 mA;
25.778726934915;-0.79925537109375;-0.08551025390625;2.83999999282969;285;100 mA;
25.7887269348897;-0.79986572265625;-0.08416748046875;2.84999999280444;286;100 mA;
25.7987269348645;-0.7989501953125;-0.084564208984375;2.85999999277919;287;100 mA;
25.8087269348392;-0.79864501953125;-0.08380126953125;2.86999999275395;288;100 mA;
25.818726934814;-0.799560546875;-0.084014892578125;2.8799999927287;289;100 mA;
25.8287269347887;-0.7989501953125;-0.083465576171875;2.88999999270345;290;100 mA;
25.8387269347635;-0.79925537109375;-0.083251953125;2.8999999926782;291;100 mA;
25.8487269347382;-0.79925537109375;-0.084014892578125;2.90999999265296;292;100 mA;
25.858726934713;-0.7989501953125;-0.083465576171875;2.91999999262771;293;100 mA;
25.8687269346877;-0.7989501953125;-0.08453369140625;2.92999999260246;294;100 mA;
25.8787269346625;-0.7989501953125;-0.083465576171875;2.93999999257721;295;100 mA;
25.8887269346372;-0.79925537109375;-0.08428955078125;2.94999999255197;296;100 mA;
25.898726934612;-0.79925537109375;-0.083465576171875;2.95999999252672;297;100 mA;
25.9087269345868;-0.79986572265625;-0.08465576171875;2.96999999250147;298;100 mA;
25.9187269345615;-0.7989501953125;-0.083984375;2.97999999247622;299;100 mA;
25.9287269345363;-0.7989501953125;-0.084320068359375;2.98999999245098;300;100 mA;
25.938726934511;-0.79925537109375;-0.08367919921875;2.99999999242573;301;100 mA;
25.9487269344858;-0.79925537109375;-0.083587646484375;3.00999999240048;302;100 mA;
25.9587269344605;-0.79925537109375;-0.08367919921875;3.01999999237523;303;100 mA;
25.9687269344353;-0.79925537109375;-0.082977294921875;3.02999999234999;304;100 mA;
25.97872693441;-0.799560546875;-0.083587646484375;3.03999999232474;305;100 mA;
25.9887269343848;-0.79864501953125;-0.082672119140625;3.04999999229949;306;100 mA;
25.9987269343595;-0.79925537109375;-0.08404541015625;3.05999999227424;307;100 mA;
26.0087269343343;-0.7989501953125;-0.08349609375;3.069999992249;308;100 mA;
26.018726934309;-0.799560546875;-0.084930419921875;3.07999999222375;309;100 mA;
26.0287269342838;-0.79986572265625;-0.08428955078125;3.0899999921985;310;100 mA;
26.0387269342585;-0.7989501953125;-0.085296630859375;3.09999999217325;311;100 mA;
26.0487269342333;-0.799560546875;-0.085113525390625;3.109999992148;312;100 mA;
26.058726934208;-0.79864501953125;-0.085357666015625;3.11999999212276;313;100 mA;
26.0687269341828;-0.7989501953125;-0.08544921875;3.12999999209751;314;100 mA;
26.0787269341575;-0.7989501953125;-0.085479736328125;3.13999999207226;315;100 mA;
26.0887269341323;-0.79925537109375;-0.08587646484375;3.14999999204701;316;100 mA;
26.098726934107;-0.79925537109375;-0.08514404296875;3.15999999202177;317;100 mA;
26.1087269340818;-0.799560546875;-0.086151123046875;3.16999999199652;318;100 mA;
26.1187269340566;-0.799560546875;-0.085296630859375;3.17999999197127;319;100 mA;
26.1287269340313;-0.799560546875;-0.086669921875;3.18999999194602;320;100 mA;
26.1387269340061;-0.79864501953125;-0.085662841796875;3.19999999192078;321;100 mA;
26.1487269339808;-0.799560546875;-0.086639404296875;3.20999999189553;322;100 mA;
26.1587269339556;-0.799560546875;-0.086029052734375;3.21999999187028;323;100 mA;
26.1687269339303;-0.799560546875;-0.086639404296875;3.22999999184503;324;100 mA;
26.1787269339051;-0.7989501953125;-0.086273193359375;3.23999999181979;325;100 mA;
26.1887269338798;-0.79925537109375;-0.0860595703125;3.24999999179454;326;100 mA;
26.1987269338546;-0.7989501953125;-0.08624267578125;3.25999999176929;327;100 mA;
26.2087269338293;-0.7989501953125;-0.085845947265625;3.26999999174404;328;100 mA;
26.2187269338041;-0.79925537109375;-0.08673095703125;3.2799999917188;329;100 mA;
26.2287269337788;-0.79864501953125;-0.0858154296875;3.28999999169355;330;100 mA;
26.2387269337536;-0.79925537109375;-0.087066650390625;3.2999999916683;331;100 mA;
26.2487269337283;-0.799560546875;-0.0863037109375;3.30999999164305;332;100 mA;
26.2587269337031;-0.7989501953125;-0.087646484375;3.31999999161781;333;100 mA;
26.2687269336778;-0.7989501953125;-0.087066650390625;3.32999999159256;334;100 mA;
26.2787269336526;-0.79925537109375;-0.088043212890625;3.33999999156731;335;100 mA;
26.2887269336273;-0.799560546875;-0.0877685546875;3.34999999154206;336;100 mA;
26.2987269336021;-0.79925537109375;-0.08819580078125;3.35999999151682;337;100 mA;
26.3087269335768;-0.79925537109375;-0.088348388671875;3.36999999149157;338;100 mA;
26.3187269335516;-0.79925537109375;-0.0880126953125;3.37999999146632;339;100 mA;
26.3287269335264;-0.79925537109375;-0.088653564453125;3.38999999144107;340;100 mA;
26.3387269335011;-0.79925537109375;-0.08782958984375;3.39999999141583;341;100 mA;
26.3487269334759;-0.79925537109375;-0.088348388671875;3.40999999139058;342;100 mA;
26.3587269334506;-0.79925537109375;-0.08685302734375;3.41999999136533;343;100 mA;
26.3687269334254;-0.7989501953125;-0.08734130859375;3.42999999134008;344;100 mA;
26.3787269334001;-0.799560546875;-0.08599853515625;3.43999999131483;345;100 mA;
26.3887269333749;-0.799560546875;-0.086578369140625;3.44999999128959;346;100 mA;
26.3987269333496;-0.79864501953125;-0.08551025390625;3.45999999126434;347;100 mA;
26.4087269333244;-0.7989501953125;-0.085723876953125;3.46999999123909;348;100 mA;
26.4187269332991;-0.799560546875;-0.08514404296875;3.47999999121384;349;100 mA;
26.4287269332739;-0.7989501953125;-0.084991455078125;3.4899999911886;350;100 mA;
26.4387269332486;-0.79986572265625;-0.085174560546875;3.49999999116335;351;100 mA;
26.4487269332234;-0.7989501953125;-0.0848388671875;3.5099999911381;352;100 mA;
26.4587269331981;-0.79864501953125;-0.0855712890625;3.51999999111285;353;100 mA;
26.4687269331729;-0.7989501953125;-0.085052490234375;3.52999999108761;354;100 mA;
26.4787269331476;-0.7989501953125;-0.0860595703125;3.53999999106236;355;100 mA;
26.4887269331224;-0.79925537109375;-0.084930419921875;3.54999999103711;356;100 mA;
26.4987269330971;-0.7989501953125;-0.086029052734375;3.55999999101186;357;100 mA;
26.5087269330719;-0.799560546875;-0.085174560546875;3.56999999098662;358;100 mA;
26.5187269330467;-0.79925537109375;-0.08612060546875;3.57999999096137;359;100 mA;
26.5287269330214;-0.79864501953125;-0.085662841796875;3.58999999093612;360;100 mA;
26.5387269329962;-0.799560546875;-0.08612060546875;3.59999999091087;361;100 mA;
26.5487269329709;-0.79925537109375;-0.086090087890625;3.60999999088563;362;100 mA;
26.5587269329457;-0.79925537109375;-0.08599853515625;3.61999999086038;363;100 mA;
26.5687269329204;-0.79864501953125;-0.0863037109375;3.62999999083513;364;100 mA;
26.5787269328952;-0.799560546875;-0.085601806640625;3.63999999080988;365;100 mA;
26.5887269328699;-0.7989501953125;-0.086151123046875;3.64999999078464;366;100 mA;
26.5987269328447;-0.79925537109375;-0.085052490234375;3.65999999075939;367;100 mA;
26.6087269328194;-0.7989501953125;-0.08612060546875;3.66999999073414;368;100 mA;
26.6187269327942;-0.79925537109375;-0.084991455078125;3.67999999070889;369;100 mA;
26.6287269327689;-0.799560546875;-0.086029052734375;3.68999999068365;370;100 mA;
26.6387269327437;-0.79925537109375;-0.085113525390625;3.6999999906584;371;100 mA;
26.6487269327184;-0.79925537109375;-0.0853271484375;3.70999999063315;372;100 mA;
26.6587269326932;-0.799560546875;-0.084930419921875;3.7199999906079;373;100 mA;
26.6687269326679;-0.79925537109375;-0.084930419921875;3.72999999058266;374;100 mA;
26.6787269326427;-0.79925537109375;-0.084930419921875;3.73999999055741;375;100 mA;
26.6887269326174;-0.79925537109375;-0.0845947265625;3.74999999053216;376;100 mA;
26.6987269325922;-0.7989501953125;-0.085296630859375;3.75999999050691;377;100 mA;
26.7087269325669;-0.79925537109375;-0.0843505859375;3.76999999048167;378;100 mA;
26.7187269325417;-0.799560546875;-0.085205078125;3.77999999045642;379;100 mA;
26.7287269325165;-0.7989501953125;-0.084197998046875;3.78999999043117;380;100 mA;
26.7387269324912;-0.79864501953125;-0.08526611328125;3.79999999040592;381;100 mA;
26.748726932466;-0.79925537109375;-0.084808349609375;3.80999999038067;382;100 mA;
26.7587269324407;-0.799560546875;-0.08563232421875;3.81999999035543;383;100 mA;
26.7687269324155;-0.79925537109375;-0.085357666015625;3.82999999033018;384;100 mA;
26.7787269323902;-0.799560546875;-0.085906982421875;3.83999999030493;385;100 mA;
26.788726932365;-0.7989501953125;-0.085693359375;3.84999999027968;386;100 mA;
26.7987269323397;-0.799560546875;-0.085205078125;3.85999999025444;387;100 mA;
26.8087269323145;-0.79986572265625;-0.085784912109375;3.86999999022919;388;100 mA;
26.8187269322892;-0.7989501953125;-0.084869384765625;3.87999999020394;389;100 mA;
26.828726932264;-0.799560546875;-0.085968017578125;3.88999999017869;390;100 mA;
26.8387269322387;-0.799560546875;-0.0848388671875;3.89999999015345;391;100 mA;
26.8487269322135;-0.79925537109375;-0.0858154296875;3.9099999901282;392;100 mA;
26.8587269321882;-0.79833984375;-0.08465576171875;3.91999999010295;393;100 mA;
26.868726932163;-0.7989501953125;-0.08538818359375;3.9299999900777;394;100 mA;
26.8787269321377;-0.799560546875;-0.0845947265625;3.93999999005246;395;100 mA;
26.8887269321125;-0.799560546875;-0.085174560546875;3.94999999002721;396;100 mA;
26.8987269320872;-0.799560546875;-0.085296630859375;3.95999999000196;397;100 mA;
26.908726932062;-0.7989501953125;-0.085540771484375;3.96999998997671;398;100 mA;
26.9187269320367;-0.79925537109375;-0.085662841796875;3.97999998995147;399;100 mA;
26.9287269320115;-0.79925537109375;-0.085357666015625;3.98999998992622;400;100 mA;
26.9387269319863;-0.799560546875;-0.0860595703125;3.99999998990097;401;100 mA;
26.948726931961;-0.79925537109375;-0.085205078125;4.00999998987572;402;100 mA;
26.9587269319358;-0.799560546875;-0.0860595703125;4.01999998985048;403;100 mA;
26.9687269319105;-0.79925537109375;-0.0849609375;4.02999998982523;404;100 mA;
26.9787269318853;-0.799560546875;-0.085906982421875;4.03999998979998;405;100 mA;
26.98872693186;-0.79925537109375;-0.08465576171875;4.04999998977473;406;100 mA;
26.9987269318348;-0.799560546875;-0.08526611328125;4.05999998974949;407;100 mA;
27.0087269318095;-0.799560546875;-0.08465576171875;4.06999998972424;408;100 mA;
27.0187269317843;-0.79864501953125;-0.084869384765625;4.07999998969899;409;100 mA;
27.028726931759;-0.799560546875;-0.085052490234375;4.08999998967374;410;100 mA;
27.0387269317338;-0.79986572265625;-0.084503173828125;4.0999999896485;411;100 mA;
27.0487269317085;-0.79925537109375;-0.0845947265625;4.10999998962325;412;100 mA;
27.0587269316833;-0.79925537109375;-0.08349609375;4.119999989598;413;100 mA;
27.068726931658;-0.7989501953125;-0.084197998046875;4.12999998957275;414;100 mA;
27.0787269316328;-0.799560546875;-0.083221435546875;4.1399999895475;415;100 mA;
27.0887269316075;-0.79986572265625;-0.084075927734375;4.14999998952226;416;100 mA;
27.0987269315823;-0.7989501953125;-0.083160400390625;4.15999998949701;417;100 mA;
27.108726931557;-0.799560546875;-0.0843505859375;4.16999998947176;418;100 mA;
27.1187269315318;-0.79833984375;-0.0838623046875;4.17999998944651;419;100 mA;
27.1287269315065;-0.7989501953125;-0.084686279296875;4.18999998942127;420;100 mA;
27.1387269314813;-0.7989501953125;-0.084503173828125;4.19999998939602;421;100 mA;
27.1487269314561;-0.79925537109375;-0.084716796875;4.20999998937077;422;100 mA;
27.1587269314308;-0.79925537109375;-0.08538818359375;4.21999998934552;423;100 mA;
27.1687269314056;-0.79925537109375;-0.085235595703125;4.22999998932028;424;100 mA;
27.1787269313803;-0.7989501953125;-0.086090087890625;4.23999998929503;425;100 mA;
27.1887269313551;-0.79925537109375;-0.08526611328125;4.24999998926978;426;100 mA;
27.1987269313298;-0.799560546875;-0.086639404296875;4.25999998924453;427;100 mA;
27.2087269313046;-0.7989501953125;-0.08544921875;4.26999998921929;428;100 mA;
27.2187269312793;-0.799560546875;-0.08624267578125;4.27999998919404;429;100 mA;
27.2287269312541;-0.79925537109375;-0.085540771484375;4.28999998916879;430;100 mA;
27.2387269312288;-0.79803466796875;-0.08660888671875;4.29999998914354;431;100 mA;
27.2487269312036;-0.799560546875;-0.0863037109375;4.3099999891183;432;100 mA;
27.2587269311783;-0.79925537109375;-0.086944580078125;4.31999998909305;433;100 mA;
27.2687269311531;-0.79925537109375;-0.087158203125;4.3299999890678;434;100 mA;
27.2787269311278;-0.799560546875;-0.0870361328125;4.33999998904255;435;100 mA;
27.2887269311026;-0.79925537109375;-0.087249755859375;4.34999998901731;436;100 mA;
27.2987269310773;-0.79925537109375;-0.086456298828125;4.35999998899206;437;100 mA;
27.3087269310521;-0.79925537109375;-0.08740234375;4.36999998896681;438;100 mA;
27.3187269310268;-0.7989501953125;-0.08642578125;4.37999998894156;439;100 mA;
27.3287269310016;-0.79925537109375;-0.087860107421875;4.38999998891632;440;100 mA;
27.3387269309763;-0.79986572265625;-0.08709716796875;4.39999998889107;441;100 mA;
27.3487269309511;-0.7989501953125;-0.08831787109375;4.40999998886582;442;100 mA;
27.3587269309259;-0.79986572265625;-0.087982177734375;4.41999998884057;443;100 mA;
27.3687269309006;-0.79833984375;-0.088623046875;4.42999998881533;444;100 mA;
27.3787269308754;-0.79986572265625;-0.08843994140625;4.43999998879008;445;100 mA;
27.3887269308501;-0.7989501953125;-0.08819580078125;4.44999998876483;446;100 mA;
27.3987269308249;-0.79864501953125;-0.088470458984375;4.45999998873958;447;100 mA;
27.4087269307996;-0.79925537109375;-0.0880126953125;4.46999998871433;448;100 mA;
27.4187269307744;-0.79925537109375;-0.088653564453125;4.47999998868909;449;100 mA;
27.4287269307491;-0.79925537109375;-0.08770751953125;4.48999998866384;450;100 mA;
27.4387269307239;-0.79925537109375;-0.088653564453125;4.49999998863859;451;100 mA;
27.4487269306986;-0.799560546875;-0.0875244140625;4.50999998861334;452;100 mA;
27.4587269306734;-0.79864501953125;-0.087982177734375;4.5199999885881;453;100 mA;
27.4687269306481;-0.7989501953125;-0.086700439453125;4.52999998856285;454;100 mA;
27.4787269306229;-0.79925537109375;-0.08673095703125;4.5399999885376;455;100 mA;
27.4887269305976;-0.79925537109375;-0.085693359375;4.54999998851235;456;100 mA;
27.4987269305724;-0.7989501953125;-0.085693359375;4.55999998848711;457;100 mA;
27.5087269305471;-0.79925537109375;-0.085784912109375;4.56999998846186;458;100 mA;
27.5187269305219;-0.799560546875;-0.0853271484375;4.57999998843661;459;100 mA;
27.5287269304966;-0.799560546875;-0.085601806640625;4.58999998841136;460;100 mA;
27.5387269304714;-0.79833984375;-0.084869384765625;4.59999998838612;461;100 mA;
27.5487269304462;-0.7989501953125;-0.085693359375;4.60999998836087;462;100 mA;
27.5587269304209;-0.7989501953125;-0.084503173828125;4.61999998833562;463;100 mA;
27.5687269303957;-0.7989501953125;-0.085113525390625;4.62999998831037;464;100 mA;
27.5787269303704;-0.79864501953125;-0.083953857421875;4.63999998828513;465;100 mA;
27.5887269303452;-0.7989501953125;-0.084503173828125;4.64999998825988;466;100 mA;
27.5987269303199;-0.79925537109375;-0.0836181640625;4.65999998823463;467;100 mA;
27.6087269302947;-0.7989501953125;-0.083740234375;4.66999998820938;468;100 mA;
27.6187269302694;-0.799560546875;-0.08319091796875;4.67999998818414;469;100 mA;
27.6287269302442;-0.7989501953125;-0.083038330078125;4.68999998815889;470;100 mA;
27.6387269302189;-0.7989501953125;-0.083038330078125;4.69999998813364;471;100 mA;
27.6487269301937;-0.79833984375;-0.08251953125;4.70999998810839;472;100 mA;
27.6587269301684;-0.7989501953125;-0.0830078125;4.71999998808315;473;100 mA;
27.6687269301432;-0.79925537109375;-0.081878662109375;4.7299999880579;474;100 mA;
27.6787269301179;-0.799560546875;-0.082977294921875;4.73999998803265;475;100 mA;
27.6887269300927;-0.79986572265625;-0.08184814453125;4.7499999880074;476;100 mA;
27.6987269300674;-0.7989501953125;-0.0826416015625;4.75999998798216;477;100 mA;
27.7087269300422;-0.79925537109375;-0.08197021484375;4.76999998795691;478;100 mA;
27.7187269300169;-0.7989501953125;-0.08282470703125;4.77999998793166;479;100 mA;
27.7287269299917;-0.79925537109375;-0.082244873046875;4.78999998790641;480;100 mA;
27.7387269299664;-0.79925537109375;-0.0821533203125;4.79999998788116;481;100 mA;
27.7487269299412;-0.799560546875;-0.08221435546875;4.80999998785592;482;100 mA;
27.758726929916;-0.79864501953125;-0.0819091796875;4.81999998783067;483;100 mA;
27.7687269298907;-0.799560546875;-0.08258056640625;4.82999998780542;484;100 mA;
27.7787269298655;-0.79925537109375;-0.081634521484375;4.83999998778017;485;100 mA;
27.7887269298402;-0.79925537109375;-0.08251953125;4.84999998775493;486;100 mA;
27.798726929815;-0.7989501953125;-0.081695556640625;4.85999998772968;487;100 mA;
27.8087269297897;-0.79925537109375;-0.08258056640625;4.86999998770443;488;100 mA;
27.8187269297645;-0.79986572265625;-0.081512451171875;4.87999998767918;489;100 mA;
27.8287269297392;-0.799560546875;-0.08209228515625;4.88999998765394;490;100 mA;
27.838726929714;-0.7989501953125;-0.08123779296875;4.89999998762869;491;100 mA;
27.8487269296887;-0.7989501953125;-0.08135986328125;4.90999998760344;492;100 mA;
27.8587269296635;-0.7989501953125;-0.081390380859375;4.91999998757819;493;100 mA;
27.8687269296382;-0.79925537109375;-0.08148193359375;4.92999998755295;494;100 mA;
27.878726929613;-0.79833984375;-0.081939697265625;4.9399999875277;495;100 mA;
27.8887269295877;-0.79925537109375;-0.08154296875;4.94999998750245;496;100 mA;
27.8987269295625;-0.79925537109375;-0.082183837890625;4.9599999874772;497;100 mA;
27.9087269295372;-0.79925537109375;-0.081268310546875;4.96999998745196;498;100 mA;
27.918726929512;-0.79864501953125;-0.082305908203125;4.97999998742671;499;100 mA;
27.9287269294867;-0.79925537109375;-0.081756591796875;4.98999998740146;500;100 mA;
27.9387269294615;-0.79925537109375;-0.083099365234375;4.99999998737621;501;100 mA;
27.9487269294362;-0.799560546875;-0.082763671875;5.00999998735097;502;100 mA;
27.958726929411;-0.79925537109375;-0.08349609375;5.01999998732572;503;100 mA;
27.9687269293858;-0.7989501953125;-0.0833740234375;5.02999998730047;504;100 mA;
27.9787269293605;-0.79864501953125;-0.0838623046875;5.03999998727522;505;100 mA;
27.9887269293353;-0.799560546875;-0.083984375;5.04999998724998;506;100 mA;
27.99872692931;-0.799560546875;-0.0838623046875;5.05999998722473;507;100 mA;
28.0087269292848;-0.799560546875;-0.084564208984375;5.06999998719948;508;100 mA;
28.0187269292595;-0.7989501953125;-0.08392333984375;5.07999998717423;509;100 mA;
28.0287269292343;-0.79925537109375;-0.0849609375;5.08999998714899;510;100 mA;
28.038726929209;-0.7989501953125;-0.0838623046875;5.09999998712374;511;100 mA;
28.0487269291838;-0.79925537109375;-0.084991455078125;5.10999998709849;512;100 mA;
28.0587269291585;-0.79925537109375;-0.084228515625;5.11999998707324;513;100 mA;
28.0687269291333;-0.799560546875;-0.084808349609375;5.129999987048;514;100 mA;
28.078726929108;-0.799560546875;-0.084228515625;5.13999998702275;515;100 mA;
28.0887269290828;-0.799560546875;-0.08447265625;5.1499999869975;516;100 mA;
28.0987269290575;-0.79925537109375;-0.084320068359375;5.15999998697225;517;100 mA;
28.1087269290323;-0.7989501953125;-0.0843505859375;5.169999986947;518;100 mA;
28.118726929007;-0.79925537109375;-0.084716796875;5.17999998692176;519;100 mA;
28.1287269289818;-0.79925537109375;-0.084259033203125;5.18999998689651;520;100 mA;
28.1387269289565;-0.79925537109375;-0.08514404296875;5.19999998687126;521;100 mA;
28.1487269289313;-0.7989501953125;-0.084625244140625;5.20999998684601;522;100 mA;
28.158726928906;-0.7989501953125;-0.085845947265625;5.21999998682077;523;100 mA;
28.1687269288808;-0.79925537109375;-0.0850830078125;5.22999998679552;524;100 mA;
28.1787269288556;-0.79925537109375;-0.086334228515625;5.23999998677027;525;100 mA;
28.1887269288303;-0.7989501953125;-0.085235595703125;5.24999998674502;526;100 mA;
28.1987269288051;-0.79925537109375;-0.085296630859375;5.25999998671978;527;100 mA;
28.2087269287798;-0.799560546875;-0.084747314453125;5.26999998669453;528;100 mA;
28.2187269287546;-0.799560546875;-0.08477783203125;5.27999998666928;529;100 mA;
28.2287269287293;-0.7989501953125;-0.08477783203125;5.28999998664403;530;100 mA;
28.2387269287041;-0.79986572265625;-0.084228515625;5.29999998661879;531;100 mA;
28.2487269286788;-0.799560546875;-0.084503173828125;5.30999998659354;532;100 mA;
28.2587269286536;-0.799560546875;-0.083587646484375;5.31999998656829;533;100 mA;
28.2687269286283;-0.7989501953125;-0.084259033203125;5.32999998654304;534;100 mA;
28.2787269286031;-0.799560546875;-0.08343505859375;5.3399999865178;535;100 mA;
28.2887269285778;-0.799560546875;-0.084564208984375;5.34999998649255;536;100 mA;
28.2987269285526;-0.7989501953125;-0.08380126953125;5.3599999864673;537;100 mA;
28.3087269285273;-0.79864501953125;-0.08477783203125;5.36999998644205;538;100 mA;
28.3187269285021;-0.79925537109375;-0.084228515625;5.37999998641681;539;100 mA;
28.3287269284768;-0.7989501953125;-0.084808349609375;5.38999998639156;540;100 mA;
28.3387269284516;-0.799560546875;-0.08441162109375;5.39999998636631;541;100 mA;
28.3487269284263;-0.799560546875;-0.0845947265625;5.40999998634106;542;100 mA;
28.3587269284011;-0.79925537109375;-0.085052490234375;5.41999998631582;543;100 mA;
28.3687269283758;-0.79925537109375;-0.084625244140625;5.42999998629057;544;100 mA;
28.3787269283506;-0.7989501953125;-0.08551025390625;5.43999998626532;545;100 mA;
28.3887269283254;-0.79864501953125;-0.0845947265625;5.44999998624007;546;100 mA;
28.3987269283001;-0.799560546875;-0.085662841796875;5.45999998621483;547;100 mA;
28.4087269282749;-0.79925537109375;-0.0845947265625;5.46999998618958;548;100 mA;
28.4187269282496;-0.79925537109375;-0.08538818359375;5.47999998616433;549;100 mA;
28.4287269282244;-0.79925537109375;-0.084320068359375;5.48999998613908;550;100 mA;
28.4387269281991;-0.79925537109375;-0.0849609375;5.49999998611383;551;100 mA;
28.4487269281739;-0.7989501953125;-0.084442138671875;5.50999998608859;552;100 mA;
28.4587269281486;-0.799560546875;-0.0849609375;5.51999998606334;553;100 mA;
28.4687269281234;-0.79925537109375;-0.08489990234375;5.52999998603809;554;100 mA;
28.4787269280981;-0.799560546875;-0.08489990234375;5.53999998601284;555;100 mA;
28.4887269280729;-0.799560546875;-0.085296630859375;5.5499999859876;556;100 mA;
28.4987269280476;-0.79986572265625;-0.084625244140625;5.55999998596235;557;100 mA;
28.5087269280224;-0.79925537109375;-0.085906982421875;5.5699999859371;558;100 mA;
28.5187269279971;-0.79864501953125;-0.084747314453125;5.57999998591185;559;100 mA;
28.5287269279719;-0.799560546875;-0.085784912109375;5.58999998588661;560;100 mA;
28.5387269279466;-0.79925537109375;-0.084747314453125;5.59999998586136;561;100 mA;
28.5487269279214;-0.7989501953125;-0.085540771484375;5.60999998583611;562;100 mA;
28.5587269278961;-0.79925537109375;-0.084625244140625;5.61999998581086;563;100 mA;
28.5687269278709;-0.7989501953125;-0.08477783203125;5.62999998578562;564;100 mA;
28.5787269278457;-0.7989501953125;-0.08453369140625;5.63999998576037;565;100 mA;
28.5887269278204;-0.7989501953125;-0.08416748046875;5.64999998573512;566;100 mA;
28.5987269277952;-0.79925537109375;-0.084503173828125;5.65999998570987;567;100 mA;
28.6087269277699;-0.79864501953125;-0.0841064453125;5.66999998568463;568;100 mA;
28.6187269277447;-0.7989501953125;-0.085174560546875;5.67999998565938;569;100 mA;
28.6287269277194;-0.79864501953125;-0.084747314453125;5.68999998563413;570;100 mA;
28.6387269276942;-0.79925537109375;-0.085845947265625;5.69999998560888;571;100 mA;
28.6487269276689;-0.799560546875;-0.084991455078125;5.70999998558364;572;100 mA;
28.6587269276437;-0.7989501953125;-0.086029052734375;5.71999998555839;573;100 mA;
28.6687269276184;-0.79925537109375;-0.0853271484375;5.72999998553314;574;100 mA;
28.6787269275932;-0.7989501953125;-0.086151123046875;5.73999998550789;575;100 mA;
28.6887269275679;-0.7989501953125;-0.08575439453125;5.74999998548265;576;100 mA;
28.6987269275427;-0.799560546875;-0.0860595703125;5.7599999854574;577;100 mA;
28.7087269275174;-0.7989501953125;-0.086212158203125;5.76999998543215;578;100 mA;
28.7187269274922;-0.79925537109375;-0.08587646484375;5.7799999854069;579;100 mA;
28.7287269274669;-0.79925537109375;-0.08660888671875;5.78999998538166;580;100 mA;
28.7387269274417;-0.7989501953125;-0.08563232421875;5.79999998535641;581;100 mA;
28.7487269274164;-0.799560546875;-0.086212158203125;5.80999998533116;582;100 mA;
28.7587269273912;-0.7989501953125;-0.085174560546875;5.81999998530591;583;100 mA;
28.7687269273659;-0.79864501953125;-0.086090087890625;5.82999998528066;584;100 mA;
28.7787269273407;-0.79925537109375;-0.08526611328125;5.83999998525542;585;100 mA;
28.7887269273155;-0.79864501953125;-0.0859375;5.84999998523017;586;100 mA;
28.7987269272902;-0.79925537109375;-0.0853271484375;5.85999998520492;587;100 mA;
28.808726927265;-0.79925537109375;-0.08599853515625;5.86999998517967;588;100 mA;
28.8187269272397;-0.7989501953125;-0.08575439453125;5.87999998515443;589;100 mA;
28.8287269272145;-0.79864501953125;-0.08563232421875;5.88999998512918;590;100 mA;
28.8387269271892;-0.7989501953125;-0.085540771484375;5.89999998510393;591;100 mA;
28.848726927164;-0.7989501953125;-0.0849609375;5.90999998507868;592;100 mA;
28.8587269271387;-0.79925537109375;-0.085540771484375;5.91999998505344;593;100 mA;
28.8687269271135;-0.79925537109375;-0.084503173828125;5.92999998502819;594;100 mA;
28.8787269270882;-0.799560546875;-0.085296630859375;5.93999998500294;595;100 mA;
28.888726927063;-0.79925537109375;-0.084442138671875;5.94999998497769;596;100 mA;
28.8987269270377;-0.79925537109375;-0.08514404296875;5.95999998495245;597;100 mA;
28.9087269270125;-0.79864501953125;-0.084259033203125;5.9699999849272;598;100 mA;
28.9187269269872;-0.7989501953125;-0.084869384765625;5.97999998490195;599;100 mA;
28.928726926962;-0.79925537109375;-0.0843505859375;5.9899999848767;600;100 mA;
28.9387269269367;-0.79925537109375;-0.084930419921875;5.99999998485146;601;100 mA;
28.9487269269115;-0.7989501953125;-0.08477783203125;6.00999998482621;602;100 mA;
28.9587269268862;-0.7989501953125;-0.084442138671875;6.01999998480096;603;100 mA;
28.968726926861;-0.79925537109375;-0.0848388671875;6.02999998477571;604;100 mA;
28.9787269268357;-0.79925537109375;-0.084259033203125;6.03999998475047;605;100 mA;
28.9887269268105;-0.79864501953125;-0.085235595703125;6.04999998472522;606;100 mA;
28.9987269267853;-0.7989501953125;-0.084381103515625;6.05999998469997;607;100 mA;
29.00872692676;-0.79925537109375;-0.085205078125;6.06999998467472;608;100 mA;
29.0187269267348;-0.79925537109375;-0.084075927734375;6.07999998464948;609;100 mA;
29.0287269267095;-0.7989501953125;-0.084686279296875;6.08999998462423;610;100 mA;
29.0387269266843;-0.79925537109375;-0.0843505859375;6.09999998459898;611;100 mA;
29.048726926659;-0.79925537109375;-0.084747314453125;6.10999998457373;612;100 mA;
29.0587269266338;-0.79925537109375;-0.084320068359375;6.11999998454849;613;100 mA;
29.0687269266085;-0.79925537109375;-0.084075927734375;6.12999998452324;614;100 mA;
29.0787269265833;-0.79925537109375;-0.084136962890625;6.13999998449799;615;100 mA;
29.088726926558;-0.7989501953125;-0.083648681640625;6.14999998447274;616;100 mA;
29.0987269265328;-0.79925537109375;-0.084259033203125;6.1599999844475;617;100 mA;
29.1087269265075;-0.799560546875;-0.083221435546875;6.16999998442225;618;100 mA;
29.1187269264823;-0.79833984375;-0.084320068359375;6.179999984397;619;100 mA;
29.128726926457;-0.79833984375;-0.083251953125;6.18999998437175;620;100 mA;
29.1387269264318;-0.79986572265625;-0.083831787109375;6.1999999843465;621;100 mA;
29.1487269264065;-0.79925537109375;-0.08306884765625;6.20999998432126;622;100 mA;
29.1587269263813;-0.7989501953125;-0.08367919921875;6.21999998429601;623;100 mA;
29.168726926356;-0.7989501953125;-0.083160400390625;6.22999998427076;624;100 mA;
29.1787269263308;-0.799560546875;-0.08343505859375;6.23999998424551;625;100 mA;
29.1887269263055;-0.79925537109375;-0.083587646484375;6.24999998422027;626;100 mA;
29.1987269262803;-0.799560546875;-0.083251953125;6.25999998419502;627;100 mA;
29.2087269262551;-0.799560546875;-0.08349609375;6.26999998416977;628;100 mA;
29.2187269262298;-0.799560546875;-0.082977294921875;6.27999998414452;629;100 mA;
29.2287269262046;-0.7989501953125;-0.0836181640625;6.28999998411928;630;100 mA;
29.2387269261793;-0.7989501953125;-0.08270263671875;6.29999998409403;631;100 mA;
29.2487269261541;-0.79864501953125;-0.083465576171875;6.30999998406878;632;100 mA;
29.2587269261288;-0.799560546875;-0.0831298828125;6.31999998404353;633;100 mA;
29.2687269261036;-0.799560546875;-0.084228515625;6.32999998401829;634;100 mA;
29.2787269260783;-0.799560546875;-0.083648681640625;6.33999998399304;635;100 mA;
29.2887269260531;-0.7989501953125;-0.084228515625;6.34999998396779;636;100 mA;
29.2987269260278;-0.79925537109375;-0.083953857421875;6.35999998394254;637;100 mA;
29.3087269260026;-0.79925537109375;-0.08404541015625;6.3699999839173;638;100 mA;
29.3187269259773;-0.7989501953125;-0.084259033203125;6.37999998389205;639;100 mA;
29.3287269259521;-0.7989501953125;-0.0841064453125;6.3899999838668;640;100 mA;
29.3387269259268;-0.799560546875;-0.084869384765625;6.39999998384155;641;100 mA;
29.3487269259016;-0.79925537109375;-0.08428955078125;6.40999998381631;642;100 mA;
29.3587269258763;-0.79925537109375;-0.0855712890625;6.41999998379106;643;100 mA;
29.3687269258511;-0.7989501953125;-0.0849609375;6.42999998376581;644;100 mA;
29.3787269258258;-0.79925537109375;-0.0859375;6.43999998374056;645;100 mA;
29.3887269258006;-0.7989501953125;-0.085479736328125;6.44999998371532;646;100 mA;
29.3987269257753;-0.7989501953125;-0.0860595703125;6.45999998369007;647;100 mA;
29.4087269257501;-0.79925537109375;-0.085479736328125;6.46999998366482;648;100 mA;
29.4187269257249;-0.79925537109375;-0.08575439453125;6.47999998363957;649;100 mA;
29.4287269256996;-0.79925537109375;-0.085540771484375;6.48999998361433;650;100 mA;
29.4387269256744;-0.79925537109375;-0.08502197265625;6.49999998358908;651;100 mA;
29.4487269256491;-0.799560546875;-0.0850830078125;6.50999998356383;652;100 mA;
29.4587269256239;-0.799560546875;-0.08428955078125;6.51999998353858;653;100 mA;
29.4687269255986;-0.7989501953125;-0.0850830078125;6.52999998351333;654;100 mA;
29.4787269255734;-0.79925537109375;-0.083984375;6.53999998348809;655;100 mA;
29.4887269255481;-0.79925537109375;-0.0848388671875;6.54999998346284;656;100 mA;
29.4987269255229;-0.7989501953125;-0.083831787109375;6.55999998343759;657;100 mA;
29.5087269254976;-0.7989501953125;-0.0848388671875;6.56999998341234;658;100 mA;
29.5187269254724;-0.79925537109375;-0.08416748046875;6.5799999833871;659;100 mA;
29.5287269254471;-0.79925537109375;-0.084686279296875;6.58999998336185;660;100 mA;
29.5387269254219;-0.799560546875;-0.084259033203125;6.5999999833366;661;100 mA;
29.5487269253966;-0.7989501953125;-0.0841064453125;6.60999998331135;662;100 mA;
29.5587269253714;-0.79925537109375;-0.084259033203125;6.61999998328611;663;100 mA;
29.5687269253461;-0.7989501953125;-0.0838623046875;6.62999998326086;664;100 mA;
29.5787269253209;-0.799560546875;-0.084930419921875;6.63999998323561;665;100 mA;
29.5887269252956;-0.79925537109375;-0.084197998046875;6.64999998321036;666;100 mA;
29.5987269252704;-0.799560546875;-0.085296630859375;6.65999998318512;667;100 mA;
29.6087269252452;-0.799560546875;-0.08441162109375;6.66999998315987;668;100 mA;
29.6187269252199;-0.799560546875;-0.08489990234375;6.67999998313462;669;100 mA;
29.6287269251947;-0.7989501953125;-0.083831787109375;6.68999998310937;670;100 mA;
29.6387269251694;-0.7989501953125;-0.08404541015625;6.69999998308413;671;100 mA;
29.6487269251442;-0.79864501953125;-0.08367919921875;6.70999998305888;672;100 mA;
29.6587269251189;-0.7989501953125;-0.084014892578125;6.71999998303363;673;100 mA;
29.6687269250937;-0.799560546875;-0.08404541015625;6.72999998300838;674;100 mA;
29.6787269250684;-0.799560546875;-0.083740234375;6.73999998298314;675;100 mA;
29.6887269250432;-0.7989501953125;-0.084136962890625;6.74999998295789;676;100 mA;
29.6987269250179;-0.79925537109375;-0.0833740234375;6.75999998293264;677;100 mA;
29.7087269249927;-0.799560546875;-0.08416748046875;6.76999998290739;678;100 mA;
29.7187269249674;-0.79925537109375;-0.08306884765625;6.77999998288215;679;100 mA;
29.7287269249422;-0.79925537109375;-0.08404541015625;6.7899999828569;680;100 mA;
29.7387269249169;-0.7989501953125;-0.083099365234375;6.79999998283165;681;100 mA;
29.7487269248917;-0.7989501953125;-0.08428955078125;6.8099999828064;682;100 mA;
29.7587269248664;-0.79864501953125;-0.0838623046875;6.81999998278116;683;100 mA;
29.7687269248412;-0.7989501953125;-0.08428955078125;6.82999998275591;684;100 mA;
29.7787269248159;-0.79925537109375;-0.083953857421875;6.83999998273066;685;100 mA;
29.7887269247907;-0.79925537109375;-0.083953857421875;6.84999998270541;686;100 mA;
29.7987269247654;-0.79925537109375;-0.084014892578125;6.85999998268016;687;100 mA;
29.8087269247402;-0.7989501953125;-0.08343505859375;6.86999998265492;688;100 mA;
29.818726924715;-0.7989501953125;-0.083892822265625;6.87999998262967;689;100 mA;
29.8287269246897;-0.7989501953125;-0.082977294921875;6.88999998260442;690;100 mA;
29.8387269246645;-0.79925537109375;-0.084075927734375;6.89999998257917;691;100 mA;
29.8487269246392;-0.79925537109375;-0.083038330078125;6.90999998255393;692;100 mA;
29.858726924614;-0.79925537109375;-0.08380126953125;6.91999998252868;693;100 mA;
29.8687269245887;-0.7989501953125;-0.08294677734375;6.92999998250343;694;100 mA;
29.8787269245635;-0.7989501953125;-0.083343505859375;6.93999998247818;695;100 mA;
29.8887269245382;-0.7989501953125;-0.082977294921875;6.94999998245294;696;100 mA;
29.898726924513;-0.79925537109375;-0.08319091796875;6.95999998242769;697;100 mA;
29.9087269244877;-0.79925537109375;-0.083251953125;6.96999998240244;698;100 mA;
29.9187269244625;-0.79925537109375;-0.0828857421875;6.97999998237719;699;100 mA;
29.9287269244372;-0.7989501953125;-0.083404541015625;6.98999998235195;700;100 mA;
