Time (s);WE(1).Potential (V);WE(1).Current (A);Corrected time (s);Index;Current range;Overload
45.6139668848358;-0.902099609375;-0.409912109375;0;1;100 mA;Current overload
45.6239668848106;-0.90057373046875;-0.277740478515625;0.00999999997475243;2;100 mA;
45.6339668847853;-0.89935302734375;-0.22314453125;0.0199999999495049;3;100 mA;
45.6439668847601;-0.8990478515625;-0.191925048828125;0.0299999999242573;4;100 mA;
45.6539668847348;-0.899658203125;-0.1697998046875;0.0399999998990097;5;100 mA;
45.6639668847096;-0.9002685546875;-0.155853271484375;0.0499999998737621;6;100 mA;
45.6739668846843;-0.899658203125;-0.143035888671875;0.0599999998485146;7;100 mA;
45.6839668846591;-0.89935302734375;-0.1351318359375;0.069999999823267;8;100 mA;
45.6939668846338;-0.89996337890625;-0.127197265625;0.0799999997980194;9;100 mA;
45.7039668846086;-0.89996337890625;-0.122650146484375;0.0899999997727718;10;100 mA;
45.7139668845833;-0.89935302734375;-0.117156982421875;0.0999999997475243;11;100 mA;
45.7239668845581;-0.89935302734375;-0.1138916015625;0.109999999722277;12;100 mA;
45.7339668845328;-0.8990478515625;-0.109344482421875;0.119999999697029;13;100 mA;
45.7439668845076;-0.899658203125;-0.10723876953125;0.129999999671782;14;100 mA;
45.7539668844823;-0.89935302734375;-0.104644775390625;0.139999999646534;15;100 mA;
45.7639668844571;-0.89935302734375;-0.102691650390625;0.149999999621286;16;100 mA;
45.7739668844318;-0.8990478515625;-0.10052490234375;0.159999999596039;17;100 mA;
45.7839668844066;-0.89935302734375;-0.098541259765625;0.169999999570791;18;100 mA;
45.7939668843813;-0.8990478515625;-0.097320556640625;0.179999999545544;19;100 mA;
45.8039668843561;-0.8990478515625;-0.095428466796875;0.189999999520296;20;100 mA;
45.8139668843309;-0.89935302734375;-0.095489501953125;0.199999999495049;21;100 mA;
45.8239668843056;-0.8990478515625;-0.093902587890625;0.209999999469801;22;100 mA;
45.8339668842804;-0.89935302734375;-0.09423828125;0.219999999444553;23;100 mA;
45.8439668842551;-0.8990478515625;-0.092529296875;0.229999999419306;24;100 mA;
45.8539668842299;-0.8990478515625;-0.09283447265625;0.239999999394058;25;100 mA;
45.8639668842046;-0.89874267578125;-0.0914306640625;0.249999999368811;26;100 mA;
45.8739668841794;-0.8990478515625;-0.09149169921875;0.259999999343563;27;100 mA;
45.8839668841541;-0.899658203125;-0.090545654296875;0.269999999318316;28;100 mA;
45.8939668841289;-0.8990478515625;-0.090484619140625;0.279999999293068;29;100 mA;
45.9039668841036;-0.899658203125;-0.0906982421875;0.28999999926782;30;100 mA;
45.9139668840784;-0.899658203125;-0.089874267578125;0.299999999242573;31;100 mA;
45.9239668840531;-0.899658203125;-0.090728759765625;0.309999999217325;32;100 mA;
45.9339668840279;-0.89996337890625;-0.089599609375;0.319999999192078;33;100 mA;
45.9439668840026;-0.8990478515625;-0.09063720703125;0.32999999916683;34;100 mA;
45.9539668839774;-0.899658203125;-0.08953857421875;0.339999999141583;35;100 mA;
45.9639668839521;-0.89935302734375;-0.09051513671875;0.349999999116335;36;100 mA;
45.9739668839269;-0.89935302734375;-0.0894775390625;0.359999999091087;37;100 mA;
45.9839668839016;-0.899658203125;-0.090179443359375;0.36999999906584;38;100 mA;
45.9939668838764;-0.89935302734375;-0.089447021484375;0.379999999040592;39;100 mA;
46.0039668838511;-0.8990478515625;-0.08929443359375;0.389999999015345;40;100 mA;
46.0139668838259;-0.8990478515625;-0.08929443359375;0.399999998990097;41;100 mA;
46.0239668838007;-0.89935302734375;-0.08880615234375;0.40999999896485;42;100 mA;
46.0339668837754;-0.89996337890625;-0.089141845703125;0.419999998939602;43;100 mA;
46.0439668837502;-0.89935302734375;-0.0880126953125;0.429999998914354;44;100 mA;
46.0539668837249;-0.89935302734375;-0.088897705078125;0.439999998889107;45;100 mA;
46.0639668836997;-0.89935302734375;-0.0880126953125;0.449999998863859;46;100 mA;
46.0739668836744;-0.9002685546875;-0.08917236328125;0.459999998838612;47;100 mA;
46.0839668836492;-0.8990478515625;-0.088134765625;0.469999998813364;48;100 mA;
46.0939668836239;-0.89935302734375;-0.089141845703125;0.479999998788116;49;100 mA;
46.1039668835987;-0.899658203125;-0.08837890625;0.489999998762869;50;100 mA;
46.1139668835734;-0.89874267578125;-0.088958740234375;0.499999998737621;51;100 mA;
46.1239668835482;-0.89935302734375;-0.0888671875;0.509999998712374;52;100 mA;
46.1339668835229;-0.899658203125;-0.0889892578125;0.519999998687126;53;100 mA;
46.1439668834977;-0.89935302734375;-0.08929443359375;0.529999998661879;54;100 mA;
46.1539668834724;-0.8990478515625;-0.0887451171875;0.539999998636631;55;100 mA;
46.1639668834472;-0.8990478515625;-0.089813232421875;0.549999998611383;56;100 mA;
46.1739668834219;-0.899658203125;-0.0889892578125;0.559999998586136;57;100 mA;
46.1839668833967;-0.8990478515625;-0.09027099609375;0.569999998560888;58;100 mA;
46.1939668833714;-0.899658203125;-0.089019775390625;0.579999998535641;59;100 mA;
46.2039668833462;-0.8990478515625;-0.08990478515625;0.589999998510393;60;100 mA;
46.2139668833209;-0.899658203125;-0.088287353515625;0.599999998485146;61;100 mA;
46.2239668832957;-0.8990478515625;-0.08868408203125;0.609999998459898;62;100 mA;
46.2339668832705;-0.899658203125;-0.08758544921875;0.61999999843465;63;100 mA;
46.2439668832452;-0.899658203125;-0.087860107421875;0.629999998409403;64;100 mA;
46.25396688322;-0.89935302734375;-0.088134765625;0.639999998384155;65;100 mA;
46.2639668831947;-0.89935302734375;-0.088104248046875;0.649999998358908;66;100 mA;
46.2739668831695;-0.899658203125;-0.08905029296875;0.65999999833366;67;100 mA;
46.2839668831442;-0.899658203125;-0.088104248046875;0.669999998308413;68;100 mA;
46.293966883119;-0.899658203125;-0.089080810546875;0.679999998283165;69;100 mA;
46.3039668830937;-0.89874267578125;-0.08795166015625;0.689999998257917;70;100 mA;
46.3139668830685;-0.8990478515625;-0.0887451171875;0.69999999823267;71;100 mA;
46.3239668830432;-0.89935302734375;-0.087432861328125;0.709999998207422;72;100 mA;
46.333966883018;-0.89935302734375;-0.08831787109375;0.719999998182175;73;100 mA;
46.3439668829927;-0.899658203125;-0.087646484375;0.729999998156927;74;100 mA;
46.3539668829675;-0.89874267578125;-0.088165283203125;0.73999999813168;75;100 mA;
46.3639668829422;-0.89874267578125;-0.0880126953125;0.749999998106432;76;100 mA;
46.373966882917;-0.8990478515625;-0.08831787109375;0.759999998081184;77;100 mA;
46.3839668828917;-0.8990478515625;-0.088775634765625;0.769999998055937;78;100 mA;
46.3939668828665;-0.899658203125;-0.088653564453125;0.779999998030689;79;100 mA;
46.4039668828412;-0.8990478515625;-0.089935302734375;0.789999998005442;80;100 mA;
46.413966882816;-0.89935302734375;-0.08892822265625;0.799999997980194;81;100 mA;
46.4239668827908;-0.89935302734375;-0.089996337890625;0.809999997954947;82;100 mA;
46.4339668827655;-0.899658203125;-0.08905029296875;0.819999997929699;83;100 mA;
46.4439668827403;-0.89874267578125;-0.090301513671875;0.829999997904451;84;100 mA;
46.453966882715;-0.89874267578125;-0.08941650390625;0.839999997879204;85;100 mA;
46.4639668826898;-0.89935302734375;-0.089935302734375;0.849999997853956;86;100 mA;
46.4739668826645;-0.89935302734375;-0.089263916015625;0.859999997828709;87;100 mA;
46.4839668826393;-0.89996337890625;-0.089202880859375;0.869999997803461;88;100 mA;
46.493966882614;-0.899658203125;-0.08917236328125;0.879999997778214;89;100 mA;
46.5039668825888;-0.899658203125;-0.088836669921875;0.889999997752966;90;100 mA;
46.5139668825635;-0.899658203125;-0.089508056640625;0.899999997727718;91;100 mA;
46.5239668825383;-0.8990478515625;-0.08868408203125;0.909999997702471;92;100 mA;
46.533966882513;-0.89874267578125;-0.089752197265625;0.919999997677223;93;100 mA;
46.5439668824878;-0.89935302734375;-0.08880615234375;0.929999997651976;94;100 mA;
46.5539668824625;-0.8990478515625;-0.089752197265625;0.939999997626728;95;100 mA;
46.5639668824373;-0.89996337890625;-0.08831787109375;0.949999997601481;96;100 mA;
46.573966882412;-0.89935302734375;-0.088775634765625;0.959999997576233;97;100 mA;
46.5839668823868;-0.8990478515625;-0.087921142578125;0.969999997550985;98;100 mA;
46.5939668823615;-0.89935302734375;-0.08856201171875;0.979999997525738;99;100 mA;
46.6039668823363;-0.8990478515625;-0.088409423828125;0.98999999750049;100;100 mA;
46.613966882311;-0.8990478515625;-0.08831787109375;0.999999997475243;101;100 mA;
46.6239668822858;-0.8990478515625;-0.0885009765625;1.00999999745;102;100 mA;
46.6339668822606;-0.8990478515625;-0.08770751953125;1.01999999742475;103;100 mA;
46.6439668822353;-0.89935302734375;-0.088531494140625;1.0299999973995;104;100 mA;
46.6539668822101;-0.89935302734375;-0.087646484375;1.03999999737425;105;100 mA;
46.6639668821848;-0.89935302734375;-0.0888671875;1.049999997349;106;100 mA;
46.6739668821596;-0.8990478515625;-0.087310791015625;1.05999999732376;107;100 mA;
46.6839668821343;-0.899658203125;-0.087921142578125;1.06999999729851;108;100 mA;
46.6939668821091;-0.89935302734375;-0.086456298828125;1.07999999727326;109;100 mA;
46.7039668820838;-0.89996337890625;-0.0870361328125;1.08999999724801;110;100 mA;
46.7139668820586;-0.8990478515625;-0.08660888671875;1.09999999722277;111;100 mA;
46.7239668820333;-0.8990478515625;-0.0872802734375;1.10999999719752;112;100 mA;
46.7339668820081;-0.89935302734375;-0.08746337890625;1.11999999717227;113;100 mA;
46.7439668819828;-0.8990478515625;-0.08746337890625;1.12999999714702;114;100 mA;
46.7539668819576;-0.89935302734375;-0.088226318359375;1.13999999712178;115;100 mA;
46.7639668819323;-0.899658203125;-0.087799072265625;1.14999999709653;116;100 mA;
46.7739668819071;-0.89935302734375;-0.08905029296875;1.15999999707128;117;100 mA;
46.7839668818818;-0.89996337890625;-0.087860107421875;1.16999999704603;118;100 mA;
46.7939668818566;-0.89935302734375;-0.08905029296875;1.17999999702079;119;100 mA;
46.8039668818313;-0.8990478515625;-0.087982177734375;1.18999999699554;120;100 mA;
46.8139668818061;-0.899658203125;-0.088958740234375;1.19999999697029;121;100 mA;
46.8239668817808;-0.89996337890625;-0.08807373046875;1.20999999694504;122;100 mA;
46.8339668817556;-0.89996337890625;-0.088714599609375;1.2199999969198;123;100 mA;
46.8439668817304;-0.89935302734375;-0.088531494140625;1.22999999689455;124;100 mA;
46.8539668817051;-0.8990478515625;-0.08831787109375;1.2399999968693;125;100 mA;
46.8639668816799;-0.8990478515625;-0.088775634765625;1.24999999684405;126;100 mA;
46.8739668816546;-0.899658203125;-0.087982177734375;1.25999999681881;127;100 mA;
46.8839668816294;-0.899658203125;-0.088623046875;1.26999999679356;128;100 mA;
46.8939668816041;-0.899658203125;-0.087554931640625;1.27999999676831;129;100 mA;
46.9039668815789;-0.899658203125;-0.08843994140625;1.28999999674306;130;100 mA;
46.9139668815536;-0.899658203125;-0.086944580078125;1.29999999671782;131;100 mA;
46.9239668815284;-0.89935302734375;-0.087738037109375;1.30999999669257;132;100 mA;
46.9339668815031;-0.89935302734375;-0.086944580078125;1.31999999666732;133;100 mA;
46.9439668814779;-0.89935302734375;-0.087890625;1.32999999664207;134;100 mA;
46.9539668814526;-0.89935302734375;-0.087615966796875;1.33999999661683;135;100 mA;
46.9639668814274;-0.899658203125;-0.08782958984375;1.34999999659158;136;100 mA;
46.9739668814021;-0.89935302734375;-0.087921142578125;1.35999999656633;137;100 mA;
46.9839668813769;-0.899658203125;-0.087432861328125;1.36999999654108;138;100 mA;
46.9939668813516;-0.8990478515625;-0.087890625;1.37999999651583;139;100 mA;
47.0039668813264;-0.89996337890625;-0.086761474609375;1.38999999649059;140;100 mA;
47.0139668813011;-0.899658203125;-0.087890625;1.39999999646534;141;100 mA;
47.0239668812759;-0.89935302734375;-0.086517333984375;1.40999999644009;142;100 mA;
47.0339668812506;-0.89935302734375;-0.087554931640625;1.41999999641484;143;100 mA;
47.0439668812254;-0.89935302734375;-0.086395263671875;1.4299999963896;144;100 mA;
47.0539668812002;-0.899658203125;-0.0870361328125;1.43999999636435;145;100 mA;
47.0639668811749;-0.89935302734375;-0.0863037109375;1.4499999963391;146;100 mA;
47.0739668811497;-0.89935302734375;-0.0865478515625;1.45999999631385;147;100 mA;
47.0839668811244;-0.89935302734375;-0.08624267578125;1.46999999628861;148;100 mA;
47.0939668810992;-0.899658203125;-0.085906982421875;1.47999999626336;149;100 mA;
47.1039668810739;-0.8990478515625;-0.086181640625;1.48999999623811;150;100 mA;
47.1139668810487;-0.89935302734375;-0.08538818359375;1.49999999621286;151;100 mA;
47.1239668810234;-0.8990478515625;-0.086029052734375;1.50999999618762;152;100 mA;
47.1339668809982;-0.89935302734375;-0.0848388671875;1.51999999616237;153;100 mA;
47.1439668809729;-0.899658203125;-0.08587646484375;1.52999999613712;154;100 mA;
47.1539668809477;-0.8990478515625;-0.084686279296875;1.53999999611187;155;100 mA;
47.1639668809224;-0.8990478515625;-0.085723876953125;1.54999999608663;156;100 mA;
47.1739668808972;-0.89935302734375;-0.084320068359375;1.55999999606138;157;100 mA;
47.1839668808719;-0.89935302734375;-0.0849609375;1.56999999603613;158;100 mA;
47.1939668808467;-0.89935302734375;-0.084381103515625;1.57999999601088;159;100 mA;
47.2039668808214;-0.89935302734375;-0.084869384765625;1.58999999598564;160;100 mA;
47.2139668807962;-0.8990478515625;-0.085357666015625;1.59999999596039;161;100 mA;
47.2239668807709;-0.899658203125;-0.0848388671875;1.60999999593514;162;100 mA;
47.2339668807457;-0.8984375;-0.085693359375;1.61999999590989;163;100 mA;
47.2439668807204;-0.89935302734375;-0.084716796875;1.62999999588465;164;100 mA;
47.2539668806952;-0.89935302734375;-0.08575439453125;1.6399999958594;165;100 mA;
47.26396688067;-0.89935302734375;-0.084564208984375;1.64999999583415;166;100 mA;
47.2739668806447;-0.899658203125;-0.08538818359375;1.6599999958089;167;100 mA;
47.2839668806195;-0.899658203125;-0.08453369140625;1.66999999578366;168;100 mA;
47.2939668805942;-0.8990478515625;-0.0848388671875;1.67999999575841;169;100 mA;
47.303966880569;-0.89874267578125;-0.0841064453125;1.68999999573316;170;100 mA;
47.3139668805437;-0.89935302734375;-0.0843505859375;1.69999999570791;171;100 mA;
47.3239668805185;-0.8990478515625;-0.084136962890625;1.70999999568267;172;100 mA;
47.3339668804932;-0.89935302734375;-0.084014892578125;1.71999999565742;173;100 mA;
47.343966880468;-0.8990478515625;-0.084564208984375;1.72999999563217;174;100 mA;
47.3539668804427;-0.89935302734375;-0.08392333984375;1.73999999560692;175;100 mA;
47.3639668804175;-0.899658203125;-0.0848388671875;1.74999999558167;176;100 mA;
47.3739668803922;-0.89874267578125;-0.084014892578125;1.75999999555643;177;100 mA;
47.383966880367;-0.89935302734375;-0.0855712890625;1.76999999553118;178;100 mA;
47.3939668803417;-0.899658203125;-0.08465576171875;1.77999999550593;179;100 mA;
47.4039668803165;-0.89874267578125;-0.085784912109375;1.78999999548068;180;100 mA;
47.4139668802912;-0.899658203125;-0.084686279296875;1.79999999545544;181;100 mA;
47.423966880266;-0.899658203125;-0.08526611328125;1.80999999543019;182;100 mA;
47.4339668802407;-0.89935302734375;-0.08453369140625;1.81999999540494;183;100 mA;
47.4439668802155;-0.89935302734375;-0.084869384765625;1.82999999537969;184;100 mA;
47.4539668801903;-0.899658203125;-0.085205078125;1.83999999535445;185;100 mA;
47.463966880165;-0.89935302734375;-0.08477783203125;1.8499999953292;186;100 mA;
47.4739668801398;-0.899658203125;-0.08599853515625;1.85999999530395;187;100 mA;
47.4839668801145;-0.8990478515625;-0.0855712890625;1.8699999952787;188;100 mA;
47.4939668800893;-0.899658203125;-0.08709716796875;1.87999999525346;189;100 mA;
47.503966880064;-0.8990478515625;-0.086273193359375;1.88999999522821;190;100 mA;
47.5139668800388;-0.899658203125;-0.087493896484375;1.89999999520296;191;100 mA;
47.5239668800135;-0.89935302734375;-0.086456298828125;1.90999999517771;192;100 mA;
47.5339668799883;-0.8990478515625;-0.086883544921875;1.91999999515247;193;100 mA;
47.543966879963;-0.89996337890625;-0.086273193359375;1.92999999512722;194;100 mA;
47.5539668799378;-0.8990478515625;-0.086639404296875;1.93999999510197;195;100 mA;
47.5639668799125;-0.89996337890625;-0.086761474609375;1.94999999507672;196;100 mA;
47.5739668798873;-0.8990478515625;-0.086761474609375;1.95999999505148;197;100 mA;
47.583966879862;-0.899658203125;-0.087554931640625;1.96999999502623;198;100 mA;
47.5939668798368;-0.8990478515625;-0.087188720703125;1.97999999500098;199;100 mA;
47.6039668798115;-0.89935302734375;-0.0880126953125;1.98999999497573;200;100 mA;
47.6139668797863;-0.899658203125;-0.0872802734375;1.99999999495049;201;100 mA;
47.623966879761;-0.8990478515625;-0.08856201171875;2.00999999492524;202;100 mA;
47.6339668797358;-0.899658203125;-0.08758544921875;2.01999999489999;203;100 mA;
47.6439668797105;-0.89935302734375;-0.08837890625;2.02999999487474;204;100 mA;
47.6539668796853;-0.899658203125;-0.0877685546875;2.0399999948495;205;100 mA;
47.6639668796601;-0.899658203125;-0.08868408203125;2.04999999482425;206;100 mA;
47.6739668796348;-0.899658203125;-0.0882568359375;2.059999994799;207;100 mA;
47.6839668796096;-0.899658203125;-0.088348388671875;2.06999999477375;208;100 mA;
47.6939668795843;-0.899658203125;-0.08837890625;2.0799999947485;209;100 mA;
47.7039668795591;-0.89935302734375;-0.087982177734375;2.08999999472326;210;100 mA;
47.7139668795338;-0.8990478515625;-0.08843994140625;2.09999999469801;211;100 mA;
47.7239668795086;-0.89996337890625;-0.087310791015625;2.10999999467276;212;100 mA;
47.7339668794833;-0.89935302734375;-0.088287353515625;2.11999999464751;213;100 mA;
47.7439668794581;-0.8990478515625;-0.087158203125;2.12999999462227;214;100 mA;
47.7539668794328;-0.899658203125;-0.088287353515625;2.13999999459702;215;100 mA;
47.7639668794076;-0.89935302734375;-0.087158203125;2.14999999457177;216;100 mA;
47.7739668793823;-0.89996337890625;-0.087646484375;2.15999999454652;217;100 mA;
47.7839668793571;-0.89935302734375;-0.086700439453125;2.16999999452128;218;100 mA;
47.7939668793318;-0.899658203125;-0.08685302734375;2.17999999449603;219;100 mA;
47.8039668793066;-0.89935302734375;-0.086090087890625;2.18999999447078;220;100 mA;
47.8139668792813;-0.89874267578125;-0.085418701171875;2.19999999444553;221;100 mA;
47.8239668792561;-0.899658203125;-0.085693359375;2.20999999442029;222;100 mA;
47.8339668792308;-0.89935302734375;-0.084930419921875;2.21999999439504;223;100 mA;
47.8439668792056;-0.89996337890625;-0.0858154296875;2.22999999436979;224;100 mA;
47.8539668791803;-0.89935302734375;-0.08489990234375;2.23999999434454;225;100 mA;
47.8639668791551;-0.89935302734375;-0.086151123046875;2.2499999943193;226;100 mA;
47.8739668791299;-0.89935302734375;-0.085296630859375;2.25999999429405;227;100 mA;
47.8839668791046;-0.89935302734375;-0.0860595703125;2.2699999942688;228;100 mA;
47.8939668790794;-0.89935302734375;-0.0853271484375;2.27999999424355;229;100 mA;
47.9039668790541;-0.89996337890625;-0.0858154296875;2.28999999421831;230;100 mA;
47.9139668790289;-0.89935302734375;-0.08563232421875;2.29999999419306;231;100 mA;
47.9239668790036;-0.899658203125;-0.085662841796875;2.30999999416781;232;100 mA;
47.9339668789784;-0.899658203125;-0.085906982421875;2.31999999414256;233;100 mA;
47.9439668789531;-0.89935302734375;-0.085479736328125;2.32999999411732;234;100 mA;
47.9539668789279;-0.89935302734375;-0.08642578125;2.33999999409207;235;100 mA;
47.9639668789026;-0.8990478515625;-0.085601806640625;2.34999999406682;236;100 mA;
47.9739668788774;-0.8990478515625;-0.08648681640625;2.35999999404157;237;100 mA;
47.9839668788521;-0.899658203125;-0.08514404296875;2.36999999401633;238;100 mA;
47.9939668788269;-0.89935302734375;-0.086334228515625;2.37999999399108;239;100 mA;
48.0039668788016;-0.89935302734375;-0.085052490234375;2.38999999396583;240;100 mA;
48.0139668787764;-0.8990478515625;-0.08563232421875;2.39999999394058;241;100 mA;
48.0239668787511;-0.89874267578125;-0.084808349609375;2.40999999391533;242;100 mA;
48.0339668787259;-0.89874267578125;-0.0849609375;2.41999999389009;243;100 mA;
48.0439668787006;-0.899658203125;-0.084503173828125;2.42999999386484;244;100 mA;
48.0539668786754;-0.8990478515625;-0.08392333984375;2.43999999383959;245;100 mA;
48.0639668786501;-0.89935302734375;-0.084197998046875;2.44999999381434;246;100 mA;
48.0739668786249;-0.89996337890625;-0.0836181640625;2.4599999937891;247;100 mA;
48.0839668785997;-0.89935302734375;-0.084869384765625;2.46999999376385;248;100 mA;
48.0939668785744;-0.8990478515625;-0.083740234375;2.4799999937386;249;100 mA;
48.1039668785492;-0.8990478515625;-0.0849609375;2.48999999371335;250;100 mA;
48.1139668785239;-0.89935302734375;-0.083953857421875;2.49999999368811;251;100 mA;
48.1239668784987;-0.8990478515625;-0.084503173828125;2.50999999366286;252;100 mA;
48.1339668784734;-0.89996337890625;-0.083282470703125;2.51999999363761;253;100 mA;
48.1439668784482;-0.89935302734375;-0.083892822265625;2.52999999361236;254;100 mA;
48.1539668784229;-0.8990478515625;-0.08380126953125;2.53999999358712;255;100 mA;
48.1639668783977;-0.8990478515625;-0.084075927734375;2.54999999356187;256;100 mA;
48.1739668783724;-0.8990478515625;-0.084381103515625;2.55999999353662;257;100 mA;
48.1839668783472;-0.89935302734375;-0.084197998046875;2.56999999351137;258;100 mA;
48.1939668783219;-0.89935302734375;-0.084808349609375;2.57999999348613;259;100 mA;
48.2039668782967;-0.89935302734375;-0.083953857421875;2.58999999346088;260;100 mA;
48.2139668782714;-0.899658203125;-0.085113525390625;2.59999999343563;261;100 mA;
48.2239668782462;-0.89935302734375;-0.08416748046875;2.60999999341038;262;100 mA;
48.2339668782209;-0.89935302734375;-0.085418701171875;2.61999999338514;263;100 mA;
48.2439668781957;-0.8990478515625;-0.084503173828125;2.62999999335989;264;100 mA;
48.2539668781704;-0.8990478515625;-0.0853271484375;2.63999999333464;265;100 mA;
48.2639668781452;-0.899658203125;-0.084564208984375;2.64999999330939;266;100 mA;
48.2739668781199;-0.89935302734375;-0.084564208984375;2.65999999328415;267;100 mA;
48.2839668780947;-0.89996337890625;-0.08416748046875;2.6699999932589;268;100 mA;
48.2939668780695;-0.8990478515625;-0.084075927734375;2.67999999323365;269;100 mA;
48.3039668780442;-0.89935302734375;-0.084991455078125;2.6899999932084;270;100 mA;
48.313966878019;-0.899658203125;-0.08441162109375;2.69999999318316;271;100 mA;
48.3239668779937;-0.89935302734375;-0.085479736328125;2.70999999315791;272;100 mA;
48.3339668779685;-0.89935302734375;-0.084564208984375;2.71999999313266;273;100 mA;
48.3439668779432;-0.89935302734375;-0.085662841796875;2.72999999310741;274;100 mA;
48.353966877918;-0.8990478515625;-0.0845947265625;2.73999999308217;275;100 mA;
48.3639668778927;-0.899658203125;-0.08563232421875;2.74999999305692;276;100 mA;
48.3739668778675;-0.89935302734375;-0.084930419921875;2.75999999303167;277;100 mA;
48.3839668778422;-0.89935302734375;-0.085784912109375;2.76999999300642;278;100 mA;
48.393966877817;-0.899658203125;-0.0855712890625;2.77999999298117;279;100 mA;
48.4039668777917;-0.899658203125;-0.085845947265625;2.78999999295593;280;100 mA;
48.4139668777665;-0.89935302734375;-0.08612060546875;2.79999999293068;281;100 mA;
48.4239668777412;-0.899658203125;-0.085845947265625;2.80999999290543;282;100 mA;
48.433966877716;-0.899658203125;-0.0865478515625;2.81999999288018;283;100 mA;
48.4439668776907;-0.8990478515625;-0.0858154296875;2.82999999285494;284;100 mA;
48.4539668776655;-0.8990478515625;-0.086334228515625;2.83999999282969;285;100 mA;
48.4639668776402;-0.89935302734375;-0.084930419921875;2.84999999280444;286;100 mA;
48.473966877615;-0.899658203125;-0.085723876953125;2.85999999277919;287;100 mA;
48.4839668775898;-0.899658203125;-0.08441162109375;2.86999999275395;288;100 mA;
48.4939668775645;-0.89935302734375;-0.084747314453125;2.8799999927287;289;100 mA;
48.5039668775393;-0.89935302734375;-0.084014892578125;2.88999999270345;290;100 mA;
48.513966877514;-0.8990478515625;-0.08428955078125;2.8999999926782;291;100 mA;
48.5239668774888;-0.8990478515625;-0.08404541015625;2.90999999265296;292;100 mA;
48.5339668774635;-0.89935302734375;-0.084075927734375;2.91999999262771;293;100 mA;
48.5439668774383;-0.899658203125;-0.084503173828125;2.92999999260246;294;100 mA;
48.553966877413;-0.899658203125;-0.08416748046875;2.93999999257721;295;100 mA;
48.5639668773878;-0.89935302734375;-0.08551025390625;2.94999999255197;296;100 mA;
48.5739668773625;-0.89935302734375;-0.084930419921875;2.95999999252672;297;100 mA;
48.5839668773373;-0.8990478515625;-0.08624267578125;2.96999999250147;298;100 mA;
48.593966877312;-0.89874267578125;-0.085235595703125;2.97999999247622;299;100 mA;
48.6039668772868;-0.8990478515625;-0.085906982421875;2.98999999245098;300;100 mA;
48.6139668772615;-0.89935302734375;-0.084869384765625;2.99999999242573;301;100 mA;
48.6239668772363;-0.89935302734375;-0.08538818359375;3.00999999240048;302;100 mA;
48.633966877211;-0.89935302734375;-0.0848388671875;3.01999999237523;303;100 mA;
48.6439668771858;-0.89996337890625;-0.08502197265625;3.02999999234999;304;100 mA;
48.6539668771605;-0.89935302734375;-0.085418701171875;3.03999999232474;305;100 mA;
48.6639668771353;-0.899658203125;-0.08514404296875;3.04999999229949;306;100 mA;
48.67396687711;-0.899658203125;-0.0859375;3.05999999227424;307;100 mA;
48.6839668770848;-0.899658203125;-0.08551025390625;3.069999992249;308;100 mA;
48.6939668770596;-0.899658203125;-0.086669921875;3.07999999222375;309;100 mA;
48.7039668770343;-0.8990478515625;-0.0855712890625;3.0899999921985;310;100 mA;
48.7139668770091;-0.899658203125;-0.086639404296875;3.09999999217325;311;100 mA;
48.7239668769838;-0.899658203125;-0.085845947265625;3.109999992148;312;100 mA;
48.7339668769586;-0.89935302734375;-0.08697509765625;3.11999999212276;313;100 mA;
48.7439668769333;-0.8990478515625;-0.0867919921875;3.12999999209751;314;100 mA;
48.7539668769081;-0.8990478515625;-0.087432861328125;3.13999999207226;315;100 mA;
48.7639668768828;-0.89935302734375;-0.0872802734375;3.14999999204701;316;100 mA;
48.7739668768576;-0.89935302734375;-0.086822509765625;3.15999999202177;317;100 mA;
48.7839668768323;-0.8990478515625;-0.0869140625;3.16999999199652;318;100 mA;
48.7939668768071;-0.899658203125;-0.08612060546875;3.17999999197127;319;100 mA;
48.8039668767818;-0.89935302734375;-0.086761474609375;3.18999999194602;320;100 mA;
48.8139668767566;-0.89935302734375;-0.08563232421875;3.19999999192078;321;100 mA;
48.8239668767313;-0.89874267578125;-0.086517333984375;3.20999999189553;322;100 mA;
48.8339668767061;-0.89874267578125;-0.0853271484375;3.21999999187028;323;100 mA;
48.8439668766808;-0.89935302734375;-0.08648681640625;3.22999999184503;324;100 mA;
48.8539668766556;-0.89996337890625;-0.085540771484375;3.23999999181979;325;100 mA;
48.8639668766303;-0.899658203125;-0.0863037109375;3.24999999179454;326;100 mA;
48.8739668766051;-0.89935302734375;-0.0853271484375;3.25999999176929;327;100 mA;
48.8839668765798;-0.8990478515625;-0.08538818359375;3.26999999174404;328;100 mA;
48.8939668765546;-0.8990478515625;-0.085357666015625;3.2799999917188;329;100 mA;
48.9039668765294;-0.899658203125;-0.08465576171875;3.28999999169355;330;100 mA;
48.9139668765041;-0.899658203125;-0.08551025390625;3.2999999916683;331;100 mA;
48.9239668764789;-0.89935302734375;-0.0848388671875;3.30999999164305;332;100 mA;
48.9339668764536;-0.899658203125;-0.08599853515625;3.31999999161781;333;100 mA;
48.9439668764284;-0.899658203125;-0.0850830078125;3.32999999159256;334;100 mA;
48.9539668764031;-0.8990478515625;-0.08636474609375;3.33999999156731;335;100 mA;
48.9639668763779;-0.89935302734375;-0.08538818359375;3.34999999154206;336;100 mA;
48.9739668763526;-0.89874267578125;-0.086395263671875;3.35999999151682;337;100 mA;
48.9839668763274;-0.899658203125;-0.086029052734375;3.36999999149157;338;100 mA;
48.9939668763021;-0.89996337890625;-0.086669921875;3.37999999146632;339;100 mA;
49.0039668762769;-0.89935302734375;-0.08685302734375;3.38999999144107;340;100 mA;
49.0139668762516;-0.8990478515625;-0.0869140625;3.39999999141583;341;100 mA;
49.0239668762264;-0.89935302734375;-0.087310791015625;3.40999999139058;342;100 mA;
49.0339668762011;-0.89935302734375;-0.086761474609375;3.41999999136533;343;100 mA;
49.0439668761759;-0.89935302734375;-0.0880126953125;3.42999999134008;344;100 mA;
49.0539668761506;-0.899658203125;-0.087158203125;3.43999999131483;345;100 mA;
49.0639668761254;-0.8984375;-0.088287353515625;3.44999999128959;346;100 mA;
49.0739668761001;-0.899658203125;-0.087127685546875;3.45999999126434;347;100 mA;
49.0839668760749;-0.8990478515625;-0.0880126953125;3.46999999123909;348;100 mA;
49.0939668760496;-0.8990478515625;-0.087066650390625;3.47999999121384;349;100 mA;
49.1039668760244;-0.89874267578125;-0.087615966796875;3.4899999911886;350;100 mA;
49.1139668759992;-0.899658203125;-0.087646484375;3.49999999116335;351;100 mA;
49.1239668759739;-0.89935302734375;-0.08770751953125;3.5099999911381;352;100 mA;
49.1339668759487;-0.8990478515625;-0.08782958984375;3.51999999111285;353;100 mA;
49.1439668759234;-0.89935302734375;-0.087371826171875;3.52999999108761;354;100 mA;
49.1539668758982;-0.89935302734375;-0.08807373046875;3.53999999106236;355;100 mA;
49.1639668758729;-0.89935302734375;-0.087371826171875;3.54999999103711;356;100 mA;
49.1739668758477;-0.89996337890625;-0.088165283203125;3.55999999101186;357;100 mA;
49.1839668758224;-0.89935302734375;-0.08734130859375;3.56999999098662;358;100 mA;
49.1939668757972;-0.8990478515625;-0.088348388671875;3.57999999096137;359;100 mA;
49.2039668757719;-0.89935302734375;-0.08746337890625;3.58999999093612;360;100 mA;
49.2139668757467;-0.9002685546875;-0.088287353515625;3.59999999091087;361;100 mA;
49.2239668757214;-0.899658203125;-0.087860107421875;3.60999999088563;362;100 mA;
49.2339668756962;-0.8990478515625;-0.08831787109375;3.61999999086038;363;100 mA;
49.2439668756709;-0.89935302734375;-0.08831787109375;3.62999999083513;364;100 mA;
49.2539668756457;-0.8990478515625;-0.08819580078125;3.63999999080988;365;100 mA;
49.2639668756204;-0.89935302734375;-0.088958740234375;3.64999999078464;366;100 mA;
49.2739668755952;-0.89935302734375;-0.088623046875;3.65999999075939;367;100 mA;
49.2839668755699;-0.89935302734375;-0.089599609375;3.66999999073414;368;100 mA;
49.2939668755447;-0.8990478515625;-0.0887451171875;3.67999999070889;369;100 mA;
49.3039668755194;-0.899658203125;-0.089630126953125;3.68999999068365;370;100 mA;
49.3139668754942;-0.899658203125;-0.088531494140625;3.6999999906584;371;100 mA;
49.323966875469;-0.89874267578125;-0.089447021484375;3.70999999063315;372;100 mA;
49.3339668754437;-0.899658203125;-0.088470458984375;3.7199999906079;373;100 mA;
49.3439668754185;-0.89935302734375;-0.088836669921875;3.72999999058266;374;100 mA;
49.3539668753932;-0.89996337890625;-0.088134765625;3.73999999055741;375;100 mA;
49.363966875368;-0.899658203125;-0.0880126953125;3.74999999053216;376;100 mA;
49.3739668753427;-0.89935302734375;-0.087799072265625;3.75999999050691;377;100 mA;
49.3839668753175;-0.89935302734375;-0.08673095703125;3.76999999048167;378;100 mA;
49.3939668752922;-0.89935302734375;-0.08709716796875;3.77999999045642;379;100 mA;
49.403966875267;-0.8990478515625;-0.086029052734375;3.78999999043117;380;100 mA;
49.4139668752417;-0.899658203125;-0.08721923828125;3.79999999040592;381;100 mA;
49.4239668752165;-0.89935302734375;-0.086456298828125;3.80999999038067;382;100 mA;
49.4339668751912;-0.89874267578125;-0.08758544921875;3.81999999035543;383;100 mA;
49.443966875166;-0.89935302734375;-0.086700439453125;3.82999999033018;384;100 mA;
49.4539668751407;-0.89935302734375;-0.087066650390625;3.83999999030493;385;100 mA;
49.4639668751155;-0.89935302734375;-0.08642578125;3.84999999027968;386;100 mA;
49.4739668750902;-0.899658203125;-0.086578369140625;3.85999999025444;387;100 mA;
49.483966875065;-0.89935302734375;-0.086090087890625;3.86999999022919;388;100 mA;
49.4939668750397;-0.899658203125;-0.085906982421875;3.87999999020394;389;100 mA;
49.5039668750145;-0.89935302734375;-0.08599853515625;3.88999999017869;390;100 mA;
49.5139668749893;-0.8990478515625;-0.085418701171875;3.89999999015345;391;100 mA;
49.523966874964;-0.899658203125;-0.0860595703125;3.9099999901282;392;100 mA;
49.5339668749388;-0.8990478515625;-0.085174560546875;3.91999999010295;393;100 mA;
49.5439668749135;-0.8990478515625;-0.08624267578125;3.9299999900777;394;100 mA;
49.5539668748883;-0.89874267578125;-0.0853271484375;3.93999999005246;395;100 mA;
49.563966874863;-0.89874267578125;-0.08642578125;3.94999999002721;396;100 mA;
49.5739668748378;-0.89935302734375;-0.085693359375;3.95999999000196;397;100 mA;
49.5839668748125;-0.899658203125;-0.086334228515625;3.96999998997671;398;100 mA;
49.5939668747873;-0.89935302734375;-0.0859375;3.97999998995147;399;100 mA;
49.603966874762;-0.899658203125;-0.085845947265625;3.98999998992622;400;100 mA;
49.6139668747368;-0.899658203125;-0.085906982421875;3.99999998990097;401;100 mA;
49.6239668747115;-0.899658203125;-0.08526611328125;4.00999998987572;402;100 mA;
49.6339668746863;-0.899658203125;-0.085693359375;4.01999998985048;403;100 mA;
49.643966874661;-0.899658203125;-0.085296630859375;4.02999998982523;404;100 mA;
49.6539668746358;-0.899658203125;-0.086517333984375;4.03999998979998;405;100 mA;
49.6639668746105;-0.899658203125;-0.085662841796875;4.04999998977473;406;100 mA;
49.6739668745853;-0.8990478515625;-0.0867919921875;4.05999998974949;407;100 mA;
49.68396687456;-0.8990478515625;-0.085784912109375;4.06999998972424;408;100 mA;
49.6939668745348;-0.8990478515625;-0.08660888671875;4.07999998969899;409;100 mA;
49.7039668745095;-0.899658203125;-0.085968017578125;4.08999998967374;410;100 mA;
49.7139668744843;-0.899658203125;-0.086273193359375;4.0999999896485;411;100 mA;
49.7239668744591;-0.89874267578125;-0.086181640625;4.10999998962325;412;100 mA;
49.7339668744338;-0.899658203125;-0.08612060546875;4.119999989598;413;100 mA;
49.7439668744086;-0.89996337890625;-0.08642578125;4.12999998957275;414;100 mA;
49.7539668743833;-0.89996337890625;-0.085906982421875;4.1399999895475;415;100 mA;
49.7639668743581;-0.89935302734375;-0.087158203125;4.14999998952226;416;100 mA;
49.7739668743328;-0.899658203125;-0.08660888671875;4.15999998949701;417;100 mA;
49.7839668743076;-0.899658203125;-0.087799072265625;4.16999998947176;418;100 mA;
49.7939668742823;-0.899658203125;-0.086883544921875;4.17999998944651;419;100 mA;
49.8039668742571;-0.89935302734375;-0.088165283203125;4.18999998942127;420;100 mA;
49.8139668742318;-0.89935302734375;-0.08758544921875;4.19999998939602;421;100 mA;
49.8239668742066;-0.89874267578125;-0.088409423828125;4.20999998937077;422;100 mA;
49.8339668741813;-0.89874267578125;-0.087982177734375;4.21999998934552;423;100 mA;
49.8439668741561;-0.89935302734375;-0.088165283203125;4.22999998932028;424;100 mA;
49.8539668741308;-0.89996337890625;-0.08843994140625;4.23999998929503;425;100 mA;
49.8639668741056;-0.899658203125;-0.088226318359375;4.24999998926978;426;100 mA;
49.8739668740803;-0.89935302734375;-0.08892822265625;4.25999998924453;427;100 mA;
49.8839668740551;-0.89935302734375;-0.088043212890625;4.26999998921929;428;100 mA;
49.8939668740298;-0.89996337890625;-0.089141845703125;4.27999998919404;429;100 mA;
49.9039668740046;-0.8990478515625;-0.087921142578125;4.28999998916879;430;100 mA;
49.9139668739793;-0.89935302734375;-0.088714599609375;4.29999998914354;431;100 mA;
49.9239668739541;-0.899658203125;-0.087677001953125;4.3099999891183;432;100 mA;
49.9339668739289;-0.899658203125;-0.08819580078125;4.31999998909305;433;100 mA;
49.9439668739036;-0.8990478515625;-0.087310791015625;4.3299999890678;434;100 mA;
49.9539668738784;-0.899658203125;-0.087310791015625;4.33999998904255;435;100 mA;
49.9639668738531;-0.89935302734375;-0.087371826171875;4.34999998901731;436;100 mA;
49.9739668738279;-0.8990478515625;-0.0872802734375;4.35999998899206;437;100 mA;
49.9839668738026;-0.8990478515625;-0.0877685546875;4.36999998896681;438;100 mA;
49.9939668737774;-0.8990478515625;-0.08721923828125;4.37999998894156;439;100 mA;
50.0039668737521;-0.899658203125;-0.088104248046875;4.38999998891632;440;100 mA;
50.0139668737269;-0.899658203125;-0.087188720703125;4.39999998889107;441;100 mA;
50.0239668737016;-0.89996337890625;-0.087860107421875;4.40999998886582;442;100 mA;
50.0339668736764;-0.8990478515625;-0.08709716796875;4.41999998884057;443;100 mA;
50.0439668736511;-0.89874267578125;-0.087890625;4.42999998881533;444;100 mA;
50.0539668736259;-0.8990478515625;-0.087188720703125;4.43999998879008;445;100 mA;
50.0639668736006;-0.899658203125;-0.08795166015625;4.44999998876483;446;100 mA;
50.0739668735754;-0.899658203125;-0.087310791015625;4.45999998873958;447;100 mA;
50.0839668735501;-0.89935302734375;-0.087127685546875;4.46999998871433;448;100 mA;
50.0939668735249;-0.89874267578125;-0.087127685546875;4.47999998868909;449;100 mA;
50.1039668734996;-0.899658203125;-0.086669921875;4.48999998866384;450;100 mA;
50.1139668734744;-0.89935302734375;-0.087005615234375;4.49999998863859;451;100 mA;
50.1239668734491;-0.89935302734375;-0.086090087890625;4.50999998861334;452;100 mA;
50.1339668734239;-0.899658203125;-0.0863037109375;4.5199999885881;453;100 mA;
50.1439668733987;-0.899658203125;-0.085235595703125;4.52999998856285;454;100 mA;
50.1539668733734;-0.899658203125;-0.08599853515625;4.5399999885376;455;100 mA;
50.1639668733482;-0.899658203125;-0.085205078125;4.54999998851235;456;100 mA;
50.1739668733229;-0.89935302734375;-0.085662841796875;4.55999998848711;457;100 mA;
50.1839668732977;-0.89935302734375;-0.084716796875;4.56999998846186;458;100 mA;
50.1939668732724;-0.8990478515625;-0.084716796875;4.57999998843661;459;100 mA;
50.2039668732472;-0.89874267578125;-0.08465576171875;4.58999998841136;460;100 mA;
50.2139668732219;-0.89935302734375;-0.084625244140625;4.59999998838612;461;100 mA;
50.2239668731967;-0.89935302734375;-0.08502197265625;4.60999998836087;462;100 mA;
50.2339668731714;-0.89935302734375;-0.08441162109375;4.61999998833562;463;100 mA;
50.2439668731462;-0.899658203125;-0.08502197265625;4.62999998831037;464;100 mA;
50.2539668731209;-0.89935302734375;-0.084075927734375;4.63999998828513;465;100 mA;
50.2639668730957;-0.8990478515625;-0.08489990234375;4.64999998825988;466;100 mA;
50.2739668730704;-0.8990478515625;-0.0838623046875;4.65999998823463;467;100 mA;
50.2839668730452;-0.899658203125;-0.084686279296875;4.66999998820938;468;100 mA;
50.2939668730199;-0.899658203125;-0.084259033203125;4.67999998818414;469;100 mA;
50.3039668729947;-0.899658203125;-0.084930419921875;4.68999998815889;470;100 mA;
50.3139668729694;-0.899658203125;-0.08465576171875;4.69999998813364;471;100 mA;
50.3239668729442;-0.89935302734375;-0.0849609375;4.70999998810839;472;100 mA;
50.3339668729189;-0.8990478515625;-0.085357666015625;4.71999998808315;473;100 mA;
50.3439668728937;-0.899658203125;-0.085357666015625;4.7299999880579;474;100 mA;
50.3539668728685;-0.89935302734375;-0.086151123046875;4.73999998803265;475;100 mA;
50.3639668728432;-0.899658203125;-0.085662841796875;4.7499999880074;476;100 mA;
50.373966872818;-0.899658203125;-0.0867919921875;4.75999998798216;477;100 mA;
50.3839668727927;-0.8990478515625;-0.086151123046875;4.76999998795691;478;100 mA;
50.3939668727675;-0.89935302734375;-0.08740234375;4.77999998793166;479;100 mA;
50.4039668727422;-0.89935302734375;-0.08685302734375;4.78999998790641;480;100 mA;
50.413966872717;-0.8990478515625;-0.087432861328125;4.79999998788116;481;100 mA;
50.4239668726917;-0.89935302734375;-0.0865478515625;4.80999998785592;482;100 mA;
50.4339668726665;-0.89935302734375;-0.086456298828125;4.81999998783067;483;100 mA;
50.4439668726412;-0.89935302734375;-0.0860595703125;4.82999998780542;484;100 mA;
50.453966872616;-0.89935302734375;-0.085601806640625;4.83999998778017;485;100 mA;
50.4639668725907;-0.899658203125;-0.086090087890625;4.84999998775493;486;100 mA;
50.4739668725655;-0.89935302734375;-0.085479736328125;4.85999998772968;487;100 mA;
50.4839668725402;-0.89874267578125;-0.08648681640625;4.86999998770443;488;100 mA;
50.493966872515;-0.89935302734375;-0.085662841796875;4.87999998767918;489;100 mA;
50.5039668724897;-0.89935302734375;-0.086578369140625;4.88999998765394;490;100 mA;
50.5139668724645;-0.899658203125;-0.085418701171875;4.89999998762869;491;100 mA;
50.5239668724392;-0.89935302734375;-0.086151123046875;4.90999998760344;492;100 mA;
50.533966872414;-0.8990478515625;-0.08538818359375;4.91999998757819;493;100 mA;
50.5439668723888;-0.89935302734375;-0.085723876953125;4.92999998755295;494;100 mA;
50.5539668723635;-0.89935302734375;-0.085296630859375;4.9399999875277;495;100 mA;
50.5639668723383;-0.89996337890625;-0.085693359375;4.94999998750245;496;100 mA;
50.573966872313;-0.89935302734375;-0.08612060546875;4.9599999874772;497;100 mA;
50.5839668722878;-0.899658203125;-0.08587646484375;4.96999998745196;498;100 mA;
50.5939668722625;-0.8990478515625;-0.086334228515625;4.97999998742671;499;100 mA;
50.6039668722373;-0.89935302734375;-0.08551025390625;4.98999998740146;500;100 mA;
50.613966872212;-0.899658203125;-0.086395263671875;4.99999998737621;501;100 mA;
50.6239668721868;-0.89935302734375;-0.085205078125;5.00999998735097;502;100 mA;
50.6339668721615;-0.89935302734375;-0.086090087890625;5.01999998732572;503;100 mA;
50.6439668721363;-0.899658203125;-0.085113525390625;5.02999998730047;504;100 mA;
50.653966872111;-0.89935302734375;-0.0860595703125;5.03999998727522;505;100 mA;
50.6639668720858;-0.89935302734375;-0.085662841796875;5.04999998724998;506;100 mA;
50.6739668720605;-0.8990478515625;-0.086029052734375;5.05999998722473;507;100 mA;
50.6839668720353;-0.8990478515625;-0.08612060546875;5.06999998719948;508;100 mA;
50.69396687201;-0.899658203125;-0.086273193359375;5.07999998717423;509;100 mA;
50.7039668719848;-0.89935302734375;-0.08673095703125;5.08999998714899;510;100 mA;
50.7139668719595;-0.89935302734375;-0.086212158203125;5.09999998712374;511;100 mA;
50.7239668719343;-0.89935302734375;-0.08685302734375;5.10999998709849;512;100 mA;
50.733966871909;-0.899658203125;-0.0860595703125;5.11999998707324;513;100 mA;
50.7439668718838;-0.899658203125;-0.087127685546875;5.129999987048;514;100 mA;
50.7539668718586;-0.89935302734375;-0.085845947265625;5.13999998702275;515;100 mA;
50.7639668718333;-0.8990478515625;-0.086639404296875;5.1499999869975;516;100 mA;
50.7739668718081;-0.89996337890625;-0.085693359375;5.15999998697225;517;100 mA;
50.7839668717828;-0.899658203125;-0.0860595703125;5.169999986947;518;100 mA;
50.7939668717576;-0.9002685546875;-0.085296630859375;5.17999998692176;519;100 mA;
50.8039668717323;-0.89935302734375;-0.08526611328125;5.18999998689651;520;100 mA;
50.8139668717071;-0.89935302734375;-0.08538818359375;5.19999998687126;521;100 mA;
50.8239668716818;-0.89935302734375;-0.08502197265625;5.20999998684601;522;100 mA;
50.8339668716566;-0.89935302734375;-0.085693359375;5.21999998682077;523;100 mA;
50.8439668716313;-0.8990478515625;-0.085357666015625;5.22999998679552;524;100 mA;
50.8539668716061;-0.89935302734375;-0.086273193359375;5.23999998677027;525;100 mA;
50.8639668715808;-0.89935302734375;-0.085296630859375;5.24999998674502;526;100 mA;
50.8739668715556;-0.899658203125;-0.086273193359375;5.25999998671978;527;100 mA;
50.8839668715303;-0.89935302734375;-0.085540771484375;5.26999998669453;528;100 mA;
50.8939668715051;-0.899658203125;-0.08660888671875;5.27999998666928;529;100 mA;
50.9039668714798;-0.899658203125;-0.086151123046875;5.28999998664403;530;100 mA;
50.9139668714546;-0.8984375;-0.0867919921875;5.29999998661879;531;100 mA;
50.9239668714293;-0.89935302734375;-0.0869140625;5.30999998659354;532;100 mA;
50.9339668714041;-0.89935302734375;-0.08697509765625;5.31999998656829;533;100 mA;
50.9439668713788;-0.8990478515625;-0.087646484375;5.32999998654304;534;100 mA;
50.9539668713536;-0.89996337890625;-0.087310791015625;5.3399999865178;535;100 mA;
50.9639668713284;-0.89996337890625;-0.08843994140625;5.34999998649255;536;100 mA;
50.9739668713031;-0.89935302734375;-0.08782958984375;5.3599999864673;537;100 mA;
50.9839668712779;-0.899658203125;-0.089080810546875;5.36999998644205;538;100 mA;
50.9939668712526;-0.89935302734375;-0.088409423828125;5.37999998641681;539;100 mA;
51.0039668712274;-0.89935302734375;-0.089630126953125;5.38999998639156;540;100 mA;
51.0139668712021;-0.89935302734375;-0.0887451171875;5.39999998636631;541;100 mA;
51.0239668711769;-0.8990478515625;-0.089324951171875;5.40999998634106;542;100 mA;
51.0339668711516;-0.89935302734375;-0.088531494140625;5.41999998631582;543;100 mA;
51.0439668711264;-0.89935302734375;-0.08837890625;5.42999998629057;544;100 mA;
51.0539668711011;-0.89935302734375;-0.08819580078125;5.43999998626532;545;100 mA;
51.0639668710759;-0.8990478515625;-0.0875244140625;5.44999998624007;546;100 mA;
51.0739668710506;-0.89935302734375;-0.088226318359375;5.45999998621483;547;100 mA;
51.0839668710254;-0.8990478515625;-0.08721923828125;5.46999998618958;548;100 mA;
51.0939668710001;-0.89935302734375;-0.0877685546875;5.47999998616433;549;100 mA;
51.1039668709749;-0.899658203125;-0.08648681640625;5.48999998613908;550;100 mA;
51.1139668709496;-0.899658203125;-0.087066650390625;5.49999998611383;551;100 mA;
51.1239668709244;-0.89935302734375;-0.085906982421875;5.50999998608859;552;100 mA;
51.1339668708991;-0.89935302734375;-0.086669921875;5.51999998606334;553;100 mA;
51.1439668708739;-0.89935302734375;-0.08587646484375;5.52999998603809;554;100 mA;
51.1539668708486;-0.89935302734375;-0.08624267578125;5.53999998601284;555;100 mA;
51.1639668708234;-0.89935302734375;-0.085968017578125;5.5499999859876;556;100 mA;
51.1739668707982;-0.89996337890625;-0.085784912109375;5.55999998596235;557;100 mA;
51.1839668707729;-0.8990478515625;-0.08624267578125;5.5699999859371;558;100 mA;
51.1939668707477;-0.89935302734375;-0.085540771484375;5.57999998591185;559;100 mA;
51.2039668707224;-0.89935302734375;-0.086273193359375;5.58999998588661;560;100 mA;
51.2139668706972;-0.89874267578125;-0.085418701171875;5.59999998586136;561;100 mA;
51.2239668706719;-0.89874267578125;-0.0863037109375;5.60999998583611;562;100 mA;
51.2339668706467;-0.89935302734375;-0.085296630859375;5.61999998581086;563;100 mA;
51.2439668706214;-0.8990478515625;-0.086273193359375;5.62999998578562;564;100 mA;
51.2539668705962;-0.89935302734375;-0.08551025390625;5.63999998576037;565;100 mA;
51.2639668705709;-0.8990478515625;-0.086090087890625;5.64999998573512;566;100 mA;
51.2739668705457;-0.8990478515625;-0.085968017578125;5.65999998570987;567;100 mA;
51.2839668705204;-0.89935302734375;-0.086395263671875;5.66999998568463;568;100 mA;
51.2939668704952;-0.89935302734375;-0.08673095703125;5.67999998565938;569;100 mA;
51.3039668704699;-0.899658203125;-0.086517333984375;5.68999998563413;570;100 mA;
51.3139668704447;-0.8990478515625;-0.08709716796875;5.69999998560888;571;100 mA;
51.3239668704194;-0.89935302734375;-0.08673095703125;5.70999998558364;572;100 mA;
51.3339668703942;-0.899658203125;-0.087615966796875;5.71999998555839;573;100 mA;
51.3439668703689;-0.89935302734375;-0.086669921875;5.72999998553314;574;100 mA;
51.3539668703437;-0.899658203125;-0.0875244140625;5.73999998550789;575;100 mA;
51.3639668703184;-0.89996337890625;-0.0865478515625;5.74999998548265;576;100 mA;
51.3739668702932;-0.89935302734375;-0.087127685546875;5.7599999854574;577;100 mA;
51.383966870268;-0.89996337890625;-0.086761474609375;5.76999998543215;578;100 mA;
51.3939668702427;-0.89935302734375;-0.08721923828125;5.7799999854069;579;100 mA;
51.4039668702175;-0.89935302734375;-0.08685302734375;5.78999998538166;580;100 mA;
51.4139668701922;-0.89935302734375;-0.086944580078125;5.79999998535641;581;100 mA;
51.423966870167;-0.899658203125;-0.087554931640625;5.80999998533116;582;100 mA;
51.4339668701417;-0.89996337890625;-0.087432861328125;5.81999998530591;583;100 mA;
51.4439668701165;-0.89935302734375;-0.088623046875;5.82999998528066;584;100 mA;
51.4539668700912;-0.89935302734375;-0.0880126953125;5.83999998525542;585;100 mA;
51.463966870066;-0.899658203125;-0.0894775390625;5.84999998523017;586;100 mA;
51.4739668700407;-0.8990478515625;-0.0887451171875;5.85999998520492;587;100 mA;
51.4839668700155;-0.89874267578125;-0.089935302734375;5.86999998517967;588;100 mA;
51.4939668699902;-0.8990478515625;-0.089447021484375;5.87999998515443;589;100 mA;
51.503966869965;-0.89935302734375;-0.090362548828125;5.88999998512918;590;100 mA;
51.5139668699397;-0.89935302734375;-0.090240478515625;5.89999998510393;591;100 mA;
51.5239668699145;-0.9002685546875;-0.090789794921875;5.90999998507868;592;100 mA;
51.5339668698892;-0.89935302734375;-0.09100341796875;5.91999998505344;593;100 mA;
51.543966869864;-0.899658203125;-0.090667724609375;5.92999998502819;594;100 mA;
51.5539668698387;-0.89935302734375;-0.0911865234375;5.93999998500294;595;100 mA;
51.5639668698135;-0.899658203125;-0.090179443359375;5.94999998497769;596;100 mA;
51.5739668697883;-0.8990478515625;-0.09130859375;5.95999998495245;597;100 mA;
51.583966869763;-0.89935302734375;-0.090179443359375;5.9699999849272;598;100 mA;
51.5939668697378;-0.8990478515625;-0.091522216796875;5.97999998490195;599;100 mA;
51.6039668697125;-0.9002685546875;-0.0908203125;5.9899999848767;600;100 mA;
51.6139668696873;-0.899658203125;-0.091766357421875;5.99999998485146;601;100 mA;
51.623966869662;-0.89935302734375;-0.090789794921875;6.00999998482621;602;100 mA;
51.6339668696368;-0.899658203125;-0.09112548828125;6.01999998480096;603;100 mA;
51.6439668696115;-0.89874267578125;-0.090728759765625;6.02999998477571;604;100 mA;
51.6539668695863;-0.89935302734375;-0.090484619140625;6.03999998475047;605;100 mA;
51.663966869561;-0.89935302734375;-0.090545654296875;6.04999998472522;606;100 mA;
51.6739668695358;-0.89935302734375;-0.089813232421875;6.05999998469997;607;100 mA;
51.6839668695105;-0.8990478515625;-0.0902099609375;6.06999998467472;608;100 mA;
51.6939668694853;-0.89935302734375;-0.088836669921875;6.07999998464948;609;100 mA;
51.70396686946;-0.899658203125;-0.08935546875;6.08999998462423;610;100 mA;
51.7139668694348;-0.8990478515625;-0.08782958984375;6.09999998459898;611;100 mA;
51.7239668694095;-0.8990478515625;-0.088104248046875;6.10999998457373;612;100 mA;
51.7339668693843;-0.8990478515625;-0.087066650390625;6.11999998454849;613;100 mA;
51.743966869359;-0.899658203125;-0.08734130859375;6.12999998452324;614;100 mA;
51.7539668693338;-0.899658203125;-0.08648681640625;6.13999998449799;615;100 mA;
51.7639668693085;-0.9002685546875;-0.086334228515625;6.14999998447274;616;100 mA;
51.7739668692833;-0.8990478515625;-0.086395263671875;6.1599999844475;617;100 mA;
51.7839668692581;-0.89935302734375;-0.086029052734375;6.16999998442225;618;100 mA;
51.7939668692328;-0.89935302734375;-0.08660888671875;6.179999984397;619;100 mA;
51.8039668692076;-0.8990478515625;-0.085968017578125;6.18999998437175;620;100 mA;
51.8139668691823;-0.8990478515625;-0.086883544921875;6.1999999843465;621;100 mA;
51.8239668691571;-0.8990478515625;-0.0859375;6.20999998432126;622;100 mA;
51.8339668691318;-0.8990478515625;-0.086883544921875;6.21999998429601;623;100 mA;
51.8439668691066;-0.8990478515625;-0.086029052734375;6.22999998427076;624;100 mA;
51.8539668690813;-0.89935302734375;-0.087005615234375;6.23999998424551;625;100 mA;
51.8639668690561;-0.89874267578125;-0.086578369140625;6.24999998422027;626;100 mA;
51.8739668690308;-0.899658203125;-0.08721923828125;6.25999998419502;627;100 mA;
51.8839668690056;-0.8990478515625;-0.0870361328125;6.26999998416977;628;100 mA;
51.8939668689803;-0.89935302734375;-0.087249755859375;6.27999998414452;629;100 mA;
51.9039668689551;-0.8990478515625;-0.08770751953125;6.28999998411928;630;100 mA;
51.9139668689298;-0.89935302734375;-0.087188720703125;6.29999998409403;631;100 mA;
51.9239668689046;-0.89935302734375;-0.087921142578125;6.30999998406878;632;100 mA;
51.9339668688793;-0.899658203125;-0.086669921875;6.31999998404353;633;100 mA;
51.9439668688541;-0.89935302734375;-0.087493896484375;6.32999998401829;634;100 mA;
51.9539668688288;-0.899658203125;-0.0865478515625;6.33999998399304;635;100 mA;
51.9639668688036;-0.899658203125;-0.08746337890625;6.34999998396779;636;100 mA;
51.9739668687783;-0.9002685546875;-0.086517333984375;6.35999998394254;637;100 mA;
51.9839668687531;-0.89935302734375;-0.087371826171875;6.3699999839173;638;100 mA;
51.9939668687279;-0.89935302734375;-0.086669921875;6.37999998389205;639;100 mA;
52.0039668687026;-0.8990478515625;-0.0867919921875;6.3899999838668;640;100 mA;
52.0139668686774;-0.9002685546875;-0.086517333984375;6.39999998384155;641;100 mA;
52.0239668686521;-0.899658203125;-0.0859375;6.40999998381631;642;100 mA;
52.0339668686269;-0.899658203125;-0.08624267578125;6.41999998379106;643;100 mA;
52.0439668686016;-0.89996337890625;-0.085205078125;6.42999998376581;644;100 mA;
52.0539668685764;-0.89996337890625;-0.085662841796875;6.43999998374056;645;100 mA;
52.0639668685511;-0.89935302734375;-0.0845947265625;6.44999998371532;646;100 mA;
52.0739668685259;-0.8990478515625;-0.085540771484375;6.45999998369007;647;100 mA;
52.0839668685006;-0.89874267578125;-0.084747314453125;6.46999998366482;648;100 mA;
52.0939668684754;-0.899658203125;-0.0850830078125;6.47999998363957;649;100 mA;
52.1039668684501;-0.89935302734375;-0.084320068359375;6.48999998361433;650;100 mA;
52.1139668684249;-0.899658203125;-0.084381103515625;6.49999998358908;651;100 mA;
52.1239668683996;-0.89935302734375;-0.0841064453125;6.50999998356383;652;100 mA;
52.1339668683744;-0.899658203125;-0.084075927734375;6.51999998353858;653;100 mA;
52.1439668683491;-0.89996337890625;-0.084442138671875;6.52999998351333;654;100 mA;
52.1539668683239;-0.899658203125;-0.083953857421875;6.53999998348809;655;100 mA;
52.1639668682986;-0.89935302734375;-0.084716796875;6.54999998346284;656;100 mA;
52.1739668682734;-0.89935302734375;-0.0838623046875;6.55999998343759;657;100 mA;
52.1839668682481;-0.8990478515625;-0.084808349609375;6.56999998341234;658;100 mA;
52.1939668682229;-0.899658203125;-0.0843505859375;6.5799999833871;659;100 mA;
52.2039668681977;-0.89935302734375;-0.08563232421875;6.58999998336185;660;100 mA;
52.2139668681724;-0.899658203125;-0.085174560546875;6.5999999833366;661;100 mA;
52.2239668681472;-0.8990478515625;-0.085845947265625;6.60999998331135;662;100 mA;
52.2339668681219;-0.8990478515625;-0.085479736328125;6.61999998328611;663;100 mA;
52.2439668680967;-0.89935302734375;-0.085968017578125;6.62999998326086;664;100 mA;
52.2539668680714;-0.89935302734375;-0.086273193359375;6.63999998323561;665;100 mA;
52.2639668680462;-0.899658203125;-0.08636474609375;6.64999998321036;666;100 mA;
52.2739668680209;-0.8990478515625;-0.087127685546875;6.65999998318512;667;100 mA;
52.2839668679957;-0.89935302734375;-0.0870361328125;6.66999998315987;668;100 mA;
52.2939668679704;-0.89935302734375;-0.088409423828125;6.67999998313462;669;100 mA;
52.3039668679452;-0.89935302734375;-0.08740234375;6.68999998310937;670;100 mA;
52.3139668679199;-0.89874267578125;-0.08837890625;6.69999998308413;671;100 mA;
52.3239668678947;-0.89935302734375;-0.08740234375;6.70999998305888;672;100 mA;
52.3339668678694;-0.89935302734375;-0.0880126953125;6.71999998303363;673;100 mA;
52.3439668678442;-0.89935302734375;-0.08734130859375;6.72999998300838;674;100 mA;
52.3539668678189;-0.899658203125;-0.087554931640625;6.73999998298314;675;100 mA;
52.3639668677937;-0.8990478515625;-0.087371826171875;6.74999998295789;676;100 mA;
52.3739668677684;-0.89935302734375;-0.087249755859375;6.75999998293264;677;100 mA;
52.3839668677432;-0.8990478515625;-0.0875244140625;6.76999998290739;678;100 mA;
52.3939668677179;-0.89935302734375;-0.08709716796875;6.77999998288215;679;100 mA;
52.4039668676927;-0.89935302734375;-0.08746337890625;6.7899999828569;680;100 mA;
52.4139668676675;-0.899658203125;-0.0869140625;6.79999998283165;681;100 mA;
52.4239668676422;-0.89935302734375;-0.087982177734375;6.8099999828064;682;100 mA;
52.433966867617;-0.89935302734375;-0.0867919921875;6.81999998278116;683;100 mA;
52.4439668675917;-0.8990478515625;-0.087066650390625;6.82999998275591;684;100 mA;
52.4539668675665;-0.8990478515625;-0.086029052734375;6.83999998273066;685;100 mA;
52.4639668675412;-0.899658203125;-0.086181640625;6.84999998270541;686;100 mA;
52.473966867516;-0.89996337890625;-0.085418701171875;6.85999998268016;687;100 mA;
52.4839668674907;-0.899658203125;-0.085418701171875;6.86999998265492;688;100 mA;
52.4939668674655;-0.899658203125;-0.085540771484375;6.87999998262967;689;100 mA;
52.5039668674402;-0.89935302734375;-0.085296630859375;6.88999998260442;690;100 mA;
52.513966867415;-0.899658203125;-0.08587646484375;6.89999998257917;691;100 mA;
52.5239668673897;-0.899658203125;-0.08514404296875;6.90999998255393;692;100 mA;
52.5339668673645;-0.89996337890625;-0.08587646484375;6.91999998252868;693;100 mA;
52.5439668673392;-0.89935302734375;-0.08502197265625;6.92999998250343;694;100 mA;
52.553966867314;-0.89874267578125;-0.085845947265625;6.93999998247818;695;100 mA;
52.5639668672887;-0.899658203125;-0.08465576171875;6.94999998245294;696;100 mA;
52.5739668672635;-0.899658203125;-0.08514404296875;6.95999998242769;697;100 mA;
52.5839668672382;-0.89935302734375;-0.084503173828125;6.96999998240244;698;100 mA;
52.593966867213;-0.89935302734375;-0.084991455078125;6.97999998237719;699;100 mA;
52.6039668671878;-0.89935302734375;-0.08502197265625;6.98999998235195;700;100 mA;
