Time (s);WE(1).Potential (V);WE(1).Current (A);Corrected time (s);Index;Current range;Overload
68.5544708269166;-1.00311279296875;-0.4149169921875;0;1;100 mA;Current overload
68.5644708268914;-0.999755859375;-0.276702880859375;0.00999999997475243;2;100 mA;
68.5744708268661;-0.99945068359375;-0.2255859375;0.0199999999495049;3;100 mA;
68.5844708268409;-0.999755859375;-0.191009521484375;0.0299999999242573;4;100 mA;
68.5944708268156;-0.99945068359375;-0.171234130859375;0.0399999998990097;5;100 mA;
68.6044708267904;-0.999755859375;-0.154632568359375;0.0499999998737621;6;100 mA;
68.6144708267651;-0.9991455078125;-0.144561767578125;0.0599999998485146;7;100 mA;
68.6244708267399;-0.99945068359375;-0.1343994140625;0.069999999823267;8;100 mA;
68.6344708267146;-0.99945068359375;-0.12774658203125;0.0799999997980194;9;100 mA;
68.6444708266894;-1.00006103515625;-0.121551513671875;0.0899999997727718;10;100 mA;
68.6544708266641;-0.99945068359375;-0.116943359375;0.0999999997475243;11;100 mA;
68.6644708266389;-0.99945068359375;-0.113372802734375;0.109999999722277;12;100 mA;
68.6744708266136;-0.99884033203125;-0.10894775390625;0.119999999697029;13;100 mA;
68.6844708265884;-0.99945068359375;-0.10662841796875;0.129999999671782;14;100 mA;
68.6944708265631;-0.9991455078125;-0.10302734375;0.139999999646534;15;100 mA;
68.7044708265379;-0.999755859375;-0.1019287109375;0.149999999621286;16;100 mA;
68.7144708265126;-0.9991455078125;-0.099273681640625;0.159999999596039;17;100 mA;
68.7244708264874;-1.00006103515625;-0.098846435546875;0.169999999570791;18;100 mA;
68.7344708264621;-0.999755859375;-0.096405029296875;0.179999999545544;19;100 mA;
68.7444708264369;-0.99945068359375;-0.0960693359375;0.189999999520296;20;100 mA;
68.7544708264116;-0.99945068359375;-0.09442138671875;0.199999999495049;21;100 mA;
68.7644708263864;-0.99945068359375;-0.09393310546875;0.209999999469801;22;100 mA;
68.7744708263612;-1.00006103515625;-0.092926025390625;0.219999999444553;23;100 mA;
68.7844708263359;-1.0003662109375;-0.09173583984375;0.229999999419306;24;100 mA;
68.7944708263107;-0.9991455078125;-0.091552734375;0.239999999394058;25;100 mA;
68.8044708262854;-0.99945068359375;-0.090789794921875;0.249999999368811;26;100 mA;
68.8144708262602;-0.999755859375;-0.091156005859375;0.259999999343563;27;100 mA;
68.8244708262349;-0.9991455078125;-0.089874267578125;0.269999999318316;28;100 mA;
68.8344708262097;-0.9991455078125;-0.09075927734375;0.279999999293068;29;100 mA;
68.8444708261844;-0.999755859375;-0.089324951171875;0.28999999926782;30;100 mA;
68.8544708261592;-0.9991455078125;-0.09014892578125;0.299999999242573;31;100 mA;
68.8644708261339;-0.99945068359375;-0.088897705078125;0.309999999217325;32;100 mA;
68.8744708261087;-0.99945068359375;-0.08917236328125;0.319999999192078;33;100 mA;
68.8844708260834;-0.99853515625;-0.088226318359375;0.32999999916683;34;100 mA;
68.8944708260582;-0.999755859375;-0.08795166015625;0.339999999141583;35;100 mA;
68.9044708260329;-0.99945068359375;-0.087860107421875;0.349999999116335;36;100 mA;
68.9144708260077;-0.999755859375;-0.087432861328125;0.359999999091087;37;100 mA;
68.9244708259824;-0.99945068359375;-0.088104248046875;0.36999999906584;38;100 mA;
68.9344708259572;-0.99945068359375;-0.087127685546875;0.379999999040592;39;100 mA;
68.9444708259319;-0.999755859375;-0.0880126953125;0.389999999015345;40;100 mA;
68.9544708259067;-0.9991455078125;-0.086700439453125;0.399999998990097;41;100 mA;
68.9644708258814;-0.99945068359375;-0.0880126953125;0.40999999896485;42;100 mA;
68.9744708258562;-0.99945068359375;-0.08685302734375;0.419999998939602;43;100 mA;
68.984470825831;-0.9991455078125;-0.087677001953125;0.429999998914354;44;100 mA;
68.9944708258057;-1.00006103515625;-0.0869140625;0.439999998889107;45;100 mA;
69.0044708257805;-1.00006103515625;-0.0872802734375;0.449999998863859;46;100 mA;
69.0144708257552;-1.00006103515625;-0.0867919921875;0.459999998838612;47;100 mA;
69.02447082573;-0.99945068359375;-0.086273193359375;0.469999998813364;48;100 mA;
69.0344708257047;-0.99945068359375;-0.086578369140625;0.479999998788116;49;100 mA;
69.0444708256795;-0.9991455078125;-0.086151123046875;0.489999998762869;50;100 mA;
69.0544708256542;-0.999755859375;-0.08709716796875;0.499999998737621;51;100 mA;
69.064470825629;-0.999755859375;-0.08587646484375;0.509999998712374;52;100 mA;
69.0744708256037;-0.99945068359375;-0.087005615234375;0.519999998687126;53;100 mA;
69.0844708255785;-0.99884033203125;-0.085845947265625;0.529999998661879;54;100 mA;
69.0944708255532;-0.9991455078125;-0.0869140625;0.539999998636631;55;100 mA;
69.104470825528;-0.999755859375;-0.085693359375;0.549999998611383;56;100 mA;
69.1144708255027;-0.99945068359375;-0.0863037109375;0.559999998586136;57;100 mA;
69.1244708254775;-0.99945068359375;-0.08587646484375;0.569999998560888;58;100 mA;
69.1344708254522;-0.9991455078125;-0.085693359375;0.579999998535641;59;100 mA;
69.144470825427;-0.99945068359375;-0.085906982421875;0.589999998510393;60;100 mA;
69.1544708254017;-0.99884033203125;-0.08551025390625;0.599999998485146;61;100 mA;
69.1644708253765;-0.9991455078125;-0.08599853515625;0.609999998459898;62;100 mA;
69.1744708253512;-0.99945068359375;-0.08502197265625;0.61999999843465;63;100 mA;
69.184470825326;-0.99945068359375;-0.08612060546875;0.629999998409403;64;100 mA;
69.1944708253008;-0.99945068359375;-0.084930419921875;0.639999998384155;65;100 mA;
69.2044708252755;-0.99945068359375;-0.08575439453125;0.649999998358908;66;100 mA;
69.2144708252503;-0.99945068359375;-0.08453369140625;0.65999999833366;67;100 mA;
69.224470825225;-1.00006103515625;-0.085296630859375;0.669999998308413;68;100 mA;
69.2344708251998;-0.99945068359375;-0.084716796875;0.679999998283165;69;100 mA;
69.2444708251745;-0.99945068359375;-0.084991455078125;0.689999998257917;70;100 mA;
69.2544708251493;-0.999755859375;-0.085113525390625;0.69999999823267;71;100 mA;
69.264470825124;-0.9991455078125;-0.085540771484375;0.709999998207422;72;100 mA;
69.2744708250988;-0.99945068359375;-0.086212158203125;0.719999998182175;73;100 mA;
69.2844708250735;-0.999755859375;-0.085235595703125;0.729999998156927;74;100 mA;
69.2944708250483;-0.9991455078125;-0.086151123046875;0.73999999813168;75;100 mA;
69.304470825023;-0.9991455078125;-0.08489990234375;0.749999998106432;76;100 mA;
69.3144708249978;-1.00006103515625;-0.08624267578125;0.759999998081184;77;100 mA;
69.3244708249725;-1.00006103515625;-0.08502197265625;0.769999998055937;78;100 mA;
69.3344708249473;-0.999755859375;-0.086029052734375;0.779999998030689;79;100 mA;
69.344470824922;-0.9991455078125;-0.0853271484375;0.789999998005442;80;100 mA;
69.3544708248968;-0.99945068359375;-0.0863037109375;0.799999997980194;81;100 mA;
69.3644708248715;-0.9991455078125;-0.085968017578125;0.809999997954947;82;100 mA;
69.3744708248463;-0.9991455078125;-0.08544921875;0.819999997929699;83;100 mA;
69.3844708248211;-0.99945068359375;-0.0853271484375;0.829999997904451;84;100 mA;
69.3944708247958;-0.99884033203125;-0.0848388671875;0.839999997879204;85;100 mA;
69.4044708247706;-0.9991455078125;-0.08544921875;0.849999997853956;86;100 mA;
69.4144708247453;-0.999755859375;-0.084503173828125;0.859999997828709;87;100 mA;
69.4244708247201;-0.9991455078125;-0.085357666015625;0.869999997803461;88;100 mA;
69.4344708246948;-0.99945068359375;-0.08416748046875;0.879999997778214;89;100 mA;
69.4444708246696;-0.99945068359375;-0.08514404296875;0.889999997752966;90;100 mA;
69.4544708246443;-1.00006103515625;-0.083740234375;0.899999997727718;91;100 mA;
69.4644708246191;-0.999755859375;-0.084686279296875;0.909999997702471;92;100 mA;
69.4744708245938;-0.999755859375;-0.084014892578125;0.919999997677223;93;100 mA;
69.4844708245686;-0.9991455078125;-0.0848388671875;0.929999997651976;94;100 mA;
69.4944708245433;-0.999755859375;-0.084808349609375;0.939999997626728;95;100 mA;
69.5044708245181;-0.99945068359375;-0.085205078125;0.949999997601481;96;100 mA;
69.5144708244928;-0.999755859375;-0.08575439453125;0.959999997576233;97;100 mA;
69.5244708244676;-0.99945068359375;-0.085479736328125;0.969999997550985;98;100 mA;
69.5344708244423;-0.999755859375;-0.0865478515625;0.979999997525738;99;100 mA;
69.5444708244171;-0.99945068359375;-0.08563232421875;0.98999999750049;100;100 mA;
69.5544708243918;-0.9991455078125;-0.08685302734375;0.999999997475243;101;100 mA;
69.5644708243666;-0.9991455078125;-0.08575439453125;1.00999999745;102;100 mA;
69.5744708243413;-0.99945068359375;-0.08697509765625;1.01999999742475;103;100 mA;
69.5844708243161;-0.999755859375;-0.0860595703125;1.0299999973995;104;100 mA;
69.5944708242909;-1.00006103515625;-0.086517333984375;1.03999999737425;105;100 mA;
69.6044708242656;-0.99945068359375;-0.086181640625;1.049999997349;106;100 mA;
69.6144708242404;-0.9991455078125;-0.086151123046875;1.05999999732376;107;100 mA;
69.6244708242151;-0.99945068359375;-0.086517333984375;1.06999999729851;108;100 mA;
69.6344708241899;-0.99945068359375;-0.08599853515625;1.07999999727326;109;100 mA;
69.6444708241646;-0.999755859375;-0.08709716796875;1.08999999724801;110;100 mA;
69.6544708241394;-0.999755859375;-0.086395263671875;1.09999999722277;111;100 mA;
69.6644708241141;-0.99945068359375;-0.087371826171875;1.10999999719752;112;100 mA;
69.6744708240889;-0.99884033203125;-0.086090087890625;1.11999999717227;113;100 mA;
69.6844708240636;-0.999755859375;-0.08685302734375;1.12999999714702;114;100 mA;
69.6944708240384;-0.99945068359375;-0.085540771484375;1.13999999712178;115;100 mA;
69.7044708240131;-0.99945068359375;-0.086029052734375;1.14999999709653;116;100 mA;
69.7144708239879;-0.999755859375;-0.085235595703125;1.15999999707128;117;100 mA;
69.7244708239626;-0.99945068359375;-0.085418701171875;1.16999999704603;118;100 mA;
69.7344708239374;-0.99945068359375;-0.0850830078125;1.17999999702079;119;100 mA;
69.7444708239121;-0.999755859375;-0.084747314453125;1.18999999699554;120;100 mA;
69.7544708238869;-0.99945068359375;-0.084991455078125;1.19999999697029;121;100 mA;
69.7644708238616;-0.99945068359375;-0.084228515625;1.20999999694504;122;100 mA;
69.7744708238364;-0.99884033203125;-0.08502197265625;1.2199999969198;123;100 mA;
69.7844708238111;-0.99945068359375;-0.084014892578125;1.22999999689455;124;100 mA;
69.7944708237859;-0.99945068359375;-0.08526611328125;1.2399999968693;125;100 mA;
69.8044708237607;-1.00006103515625;-0.084075927734375;1.24999999684405;126;100 mA;
69.8144708237354;-0.99945068359375;-0.084991455078125;1.25999999681881;127;100 mA;
69.8244708237102;-0.9991455078125;-0.083984375;1.26999999679356;128;100 mA;
69.8344708236849;-0.999755859375;-0.084136962890625;1.27999999676831;129;100 mA;
69.8444708236597;-1.0003662109375;-0.0838623046875;1.28999999674306;130;100 mA;
69.8544708236344;-0.99945068359375;-0.084014892578125;1.29999999671782;131;100 mA;
69.8644708236092;-0.99945068359375;-0.084228515625;1.30999999669257;132;100 mA;
69.8744708235839;-0.9991455078125;-0.08416748046875;1.31999999666732;133;100 mA;
69.8844708235587;-0.99945068359375;-0.08489990234375;1.32999999664207;134;100 mA;
69.8944708235334;-0.9991455078125;-0.084228515625;1.33999999661683;135;100 mA;
69.9044708235082;-0.99945068359375;-0.0850830078125;1.34999999659158;136;100 mA;
69.9144708234829;-1.00006103515625;-0.083953857421875;1.35999999656633;137;100 mA;
69.9244708234577;-0.999755859375;-0.084991455078125;1.36999999654108;138;100 mA;
69.9344708234324;-0.999755859375;-0.084197998046875;1.37999999651583;139;100 mA;
69.9444708234072;-0.999755859375;-0.085052490234375;1.38999999649059;140;100 mA;
69.9544708233819;-0.9991455078125;-0.084503173828125;1.39999999646534;141;100 mA;
69.9644708233567;-1.00006103515625;-0.084869384765625;1.40999999644009;142;100 mA;
69.9744708233314;-0.9991455078125;-0.08477783203125;1.41999999641484;143;100 mA;
69.9844708233062;-0.99945068359375;-0.084442138671875;1.4299999963896;144;100 mA;
69.9944708232809;-0.999755859375;-0.0850830078125;1.43999999636435;145;100 mA;
70.0044708232557;-1.00006103515625;-0.08465576171875;1.4499999963391;146;100 mA;
70.0144708232305;-0.9991455078125;-0.08599853515625;1.45999999631385;147;100 mA;
70.0244708232052;-0.9991455078125;-0.085418701171875;1.46999999628861;148;100 mA;
70.03447082318;-0.99945068359375;-0.0867919921875;1.47999999626336;149;100 mA;
70.0444708231547;-0.999755859375;-0.085845947265625;1.48999999623811;150;100 mA;
70.0544708231295;-0.999755859375;-0.086273193359375;1.49999999621286;151;100 mA;
70.0644708231042;-0.999755859375;-0.085296630859375;1.50999999618762;152;100 mA;
70.074470823079;-0.99884033203125;-0.085662841796875;1.51999999616237;153;100 mA;
70.0844708230537;-0.999755859375;-0.085113525390625;1.52999999613712;154;100 mA;
70.0944708230285;-0.99945068359375;-0.0849609375;1.53999999611187;155;100 mA;
70.1044708230032;-0.9991455078125;-0.08514404296875;1.54999999608663;156;100 mA;
70.114470822978;-0.9991455078125;-0.08453369140625;1.55999999606138;157;100 mA;
70.1244708229527;-0.99945068359375;-0.085174560546875;1.56999999603613;158;100 mA;
70.1344708229275;-0.999755859375;-0.084136962890625;1.57999999601088;159;100 mA;
70.1444708229022;-0.99945068359375;-0.085052490234375;1.58999999598564;160;100 mA;
70.154470822877;-0.99945068359375;-0.0841064453125;1.59999999596039;161;100 mA;
70.1644708228517;-0.9991455078125;-0.08502197265625;1.60999999593514;162;100 mA;
70.1744708228265;-0.999755859375;-0.0838623046875;1.61999999590989;163;100 mA;
70.1844708228012;-0.99945068359375;-0.084625244140625;1.62999999588465;164;100 mA;
70.194470822776;-0.99945068359375;-0.084442138671875;1.6399999958594;165;100 mA;
70.2044708227507;-0.99884033203125;-0.08526611328125;1.64999999583415;166;100 mA;
70.2144708227255;-1.00006103515625;-0.085601806640625;1.6599999958089;167;100 mA;
70.2244708227003;-0.999755859375;-0.0855712890625;1.66999999578366;168;100 mA;
70.234470822675;-0.999755859375;-0.08599853515625;1.67999999575841;169;100 mA;
70.2444708226498;-1.00006103515625;-0.085296630859375;1.68999999573316;170;100 mA;
70.2544708226245;-0.999755859375;-0.086151123046875;1.69999999570791;171;100 mA;
70.2644708225993;-1.00006103515625;-0.08489990234375;1.70999999568267;172;100 mA;
70.274470822574;-1.00006103515625;-0.085693359375;1.71999999565742;173;100 mA;
70.2844708225488;-0.9991455078125;-0.084503173828125;1.72999999563217;174;100 mA;
70.2944708225235;-0.99945068359375;-0.0855712890625;1.73999999560692;175;100 mA;
70.3044708224983;-0.999755859375;-0.084716796875;1.74999999558167;176;100 mA;
70.314470822473;-0.99945068359375;-0.085418701171875;1.75999999555643;177;100 mA;
70.3244708224478;-0.99945068359375;-0.085235595703125;1.76999999553118;178;100 mA;
70.3344708224225;-0.99945068359375;-0.085540771484375;1.77999999550593;179;100 mA;
70.3444708223973;-0.99884033203125;-0.086090087890625;1.78999999548068;180;100 mA;
70.354470822372;-0.999755859375;-0.08575439453125;1.79999999545544;181;100 mA;
70.3644708223468;-0.999755859375;-0.0872802734375;1.80999999543019;182;100 mA;
70.3744708223215;-0.99945068359375;-0.086639404296875;1.81999999540494;183;100 mA;
70.3844708222963;-0.99945068359375;-0.0877685546875;1.82999999537969;184;100 mA;
70.394470822271;-0.9991455078125;-0.086273193359375;1.83999999535445;185;100 mA;
70.4044708222458;-0.999755859375;-0.086944580078125;1.8499999953292;186;100 mA;
70.4144708222206;-0.99945068359375;-0.085723876953125;1.85999999530395;187;100 mA;
70.4244708221953;-0.99945068359375;-0.086639404296875;1.8699999952787;188;100 mA;
70.4344708221701;-0.9991455078125;-0.08612060546875;1.87999999525346;189;100 mA;
70.4444708221448;-0.99945068359375;-0.08642578125;1.88999999522821;190;100 mA;
70.4544708221196;-0.999755859375;-0.08636474609375;1.89999999520296;191;100 mA;
70.4644708220943;-0.9991455078125;-0.08599853515625;1.90999999517771;192;100 mA;
70.4744708220691;-0.99945068359375;-0.08648681640625;1.91999999515247;193;100 mA;
70.4844708220438;-0.99945068359375;-0.085296630859375;1.92999999512722;194;100 mA;
70.4944708220186;-0.99945068359375;-0.086151123046875;1.93999999510197;195;100 mA;
70.5044708219933;-0.99945068359375;-0.08477783203125;1.94999999507672;196;100 mA;
70.5144708219681;-0.999755859375;-0.085784912109375;1.95999999505148;197;100 mA;
70.5244708219428;-0.999755859375;-0.08447265625;1.96999999502623;198;100 mA;
70.5344708219176;-0.99945068359375;-0.0853271484375;1.97999999500098;199;100 mA;
70.5444708218923;-0.99853515625;-0.084442138671875;1.98999999497573;200;100 mA;
70.5544708218671;-0.999755859375;-0.084716796875;1.99999999495049;201;100 mA;
70.5644708218418;-0.99945068359375;-0.084381103515625;2.00999999492524;202;100 mA;
70.5744708218166;-0.999755859375;-0.08441162109375;2.01999999489999;203;100 mA;
70.5844708217913;-0.9991455078125;-0.0848388671875;2.02999999487474;204;100 mA;
70.5944708217661;-0.999755859375;-0.08441162109375;2.0399999948495;205;100 mA;
70.6044708217408;-0.99945068359375;-0.0853271484375;2.04999999482425;206;100 mA;
70.6144708217156;-0.9991455078125;-0.08428955078125;2.059999994799;207;100 mA;
70.6244708216904;-0.99945068359375;-0.0853271484375;2.06999999477375;208;100 mA;
70.6344708216651;-0.9991455078125;-0.084442138671875;2.0799999947485;209;100 mA;
70.6444708216399;-1.00006103515625;-0.085601806640625;2.08999999472326;210;100 mA;
70.6544708216146;-0.999755859375;-0.08447265625;2.09999999469801;211;100 mA;
70.6644708215894;-0.9991455078125;-0.08514404296875;2.10999999467276;212;100 mA;
70.6744708215641;-0.9991455078125;-0.084503173828125;2.11999999464751;213;100 mA;
70.6844708215389;-0.99945068359375;-0.0848388671875;2.12999999462227;214;100 mA;
70.6944708215136;-0.999755859375;-0.084716796875;2.13999999459702;215;100 mA;
70.7044708214884;-0.9991455078125;-0.084320068359375;2.14999999457177;216;100 mA;
70.7144708214631;-0.99945068359375;-0.084747314453125;2.15999999454652;217;100 mA;
70.7244708214379;-0.999755859375;-0.0841064453125;2.16999999452128;218;100 mA;
70.7344708214126;-0.9991455078125;-0.085296630859375;2.17999999449603;219;100 mA;
70.7444708213874;-0.9991455078125;-0.08447265625;2.18999999447078;220;100 mA;
70.7544708213621;-0.99945068359375;-0.08587646484375;2.19999999444553;221;100 mA;
70.7644708213369;-0.999755859375;-0.08465576171875;2.20999999442029;222;100 mA;
70.7744708213116;-0.999755859375;-0.085662841796875;2.21999999439504;223;100 mA;
70.7844708212864;-0.9991455078125;-0.084625244140625;2.22999999436979;224;100 mA;
70.7944708212611;-0.99884033203125;-0.085235595703125;2.23999999434454;225;100 mA;
70.8044708212359;-0.99945068359375;-0.085205078125;2.2499999943193;226;100 mA;
70.8144708212106;-0.99945068359375;-0.085418701171875;2.25999999429405;227;100 mA;
70.8244708211854;-0.99945068359375;-0.08587646484375;2.2699999942688;228;100 mA;
70.8344708211602;-0.99853515625;-0.0853271484375;2.27999999424355;229;100 mA;
70.8444708211349;-0.9991455078125;-0.08624267578125;2.28999999421831;230;100 mA;
70.8544708211097;-0.99884033203125;-0.085418701171875;2.29999999419306;231;100 mA;
70.8644708210844;-0.9991455078125;-0.086578369140625;2.30999999416781;232;100 mA;
70.8744708210592;-0.99884033203125;-0.085479736328125;2.31999999414256;233;100 mA;
70.8844708210339;-0.99945068359375;-0.086517333984375;2.32999999411732;234;100 mA;
70.8944708210087;-0.99945068359375;-0.085296630859375;2.33999999409207;235;100 mA;
70.9044708209834;-1.00006103515625;-0.085845947265625;2.34999999406682;236;100 mA;
70.9144708209582;-0.9991455078125;-0.084991455078125;2.35999999404157;237;100 mA;
70.9244708209329;-0.9991455078125;-0.08526611328125;2.36999999401633;238;100 mA;
70.9344708209077;-0.99884033203125;-0.085296630859375;2.37999999399108;239;100 mA;
70.9444708208824;-0.99945068359375;-0.08538818359375;2.38999999396583;240;100 mA;
70.9544708208572;-0.99945068359375;-0.0860595703125;2.39999999394058;241;100 mA;
70.9644708208319;-1.00006103515625;-0.085418701171875;2.40999999391533;242;100 mA;
70.9744708208067;-1.00006103515625;-0.086883544921875;2.41999999389009;243;100 mA;
70.9844708207814;-0.999755859375;-0.085968017578125;2.42999999386484;244;100 mA;
70.9944708207562;-0.99945068359375;-0.087127685546875;2.43999999383959;245;100 mA;
71.0044708207309;-0.9991455078125;-0.086090087890625;2.44999999381434;246;100 mA;
71.0144708207057;-0.99945068359375;-0.086761474609375;2.4599999937891;247;100 mA;
71.0244708206804;-0.999755859375;-0.085845947265625;2.46999999376385;248;100 mA;
71.0344708206552;-0.999755859375;-0.08624267578125;2.4799999937386;249;100 mA;
71.04447082063;-0.9991455078125;-0.08575439453125;2.48999999371335;250;100 mA;
71.0544708206047;-0.99945068359375;-0.085723876953125;2.49999999368811;251;100 mA;
71.0644708205795;-0.9991455078125;-0.085693359375;2.50999999366286;252;100 mA;
71.0744708205542;-0.9991455078125;-0.085113525390625;2.51999999363761;253;100 mA;
71.084470820529;-0.9991455078125;-0.08551025390625;2.52999999361236;254;100 mA;
71.0944708205037;-0.99945068359375;-0.084564208984375;2.53999999358712;255;100 mA;
71.1044708204785;-0.999755859375;-0.085693359375;2.54999999356187;256;100 mA;
71.1144708204532;-0.99945068359375;-0.084503173828125;2.55999999353662;257;100 mA;
71.124470820428;-0.99945068359375;-0.085357666015625;2.56999999351137;258;100 mA;
71.1344708204027;-0.9991455078125;-0.084259033203125;2.57999999348613;259;100 mA;
71.1444708203775;-0.9991455078125;-0.08551025390625;2.58999999346088;260;100 mA;
71.1544708203522;-0.99945068359375;-0.08465576171875;2.59999999343563;261;100 mA;
71.164470820327;-0.999755859375;-0.085113525390625;2.60999999341038;262;100 mA;
71.1744708203017;-0.999755859375;-0.084869384765625;2.61999999338514;263;100 mA;
71.1844708202765;-0.999755859375;-0.084442138671875;2.62999999335989;264;100 mA;
71.1944708202512;-0.999755859375;-0.084625244140625;2.63999999333464;265;100 mA;
71.204470820226;-0.99945068359375;-0.08343505859375;2.64999999330939;266;100 mA;
71.2144708202007;-0.9991455078125;-0.084259033203125;2.65999999328415;267;100 mA;
71.2244708201755;-1.00006103515625;-0.083160400390625;2.6699999932589;268;100 mA;
71.2344708201502;-0.999755859375;-0.08465576171875;2.67999999323365;269;100 mA;
71.244470820125;-0.9991455078125;-0.0833740234375;2.6899999932084;270;100 mA;
71.2544708200998;-0.99853515625;-0.084808349609375;2.69999999318316;271;100 mA;
71.2644708200745;-0.9991455078125;-0.08416748046875;2.70999999315791;272;100 mA;
71.2744708200493;-0.99945068359375;-0.0849609375;2.71999999313266;273;100 mA;
71.284470820024;-0.99945068359375;-0.084625244140625;2.72999999310741;274;100 mA;
71.2944708199988;-0.9991455078125;-0.084442138671875;2.73999999308217;275;100 mA;
71.3044708199735;-0.999755859375;-0.08453369140625;2.74999999305692;276;100 mA;
71.3144708199483;-0.9991455078125;-0.08392333984375;2.75999999303167;277;100 mA;
71.324470819923;-0.99884033203125;-0.084564208984375;2.76999999300642;278;100 mA;
71.3344708198978;-0.9991455078125;-0.083404541015625;2.77999999298117;279;100 mA;
71.3444708198725;-0.99945068359375;-0.0843505859375;2.78999999295593;280;100 mA;
71.3544708198473;-0.99945068359375;-0.08306884765625;2.79999999293068;281;100 mA;
71.364470819822;-0.9991455078125;-0.084228515625;2.80999999290543;282;100 mA;
71.3744708197968;-0.9991455078125;-0.083465576171875;2.81999999288018;283;100 mA;
71.3844708197715;-0.9991455078125;-0.08428955078125;2.82999999285494;284;100 mA;
71.3944708197463;-0.9991455078125;-0.083587646484375;2.83999999282969;285;100 mA;
71.404470819721;-0.9991455078125;-0.083648681640625;2.84999999280444;286;100 mA;
71.4144708196958;-0.9991455078125;-0.083404541015625;2.85999999277919;287;100 mA;
71.4244708196705;-0.99945068359375;-0.0828857421875;2.86999999275395;288;100 mA;
71.4344708196453;-0.99945068359375;-0.083221435546875;2.8799999927287;289;100 mA;
71.4444708196201;-1.00006103515625;-0.082366943359375;2.88999999270345;290;100 mA;
71.4544708195948;-0.9991455078125;-0.0836181640625;2.8999999926782;291;100 mA;
71.4644708195696;-1.00006103515625;-0.082611083984375;2.90999999265296;292;100 mA;
71.4744708195443;-0.99945068359375;-0.083587646484375;2.91999999262771;293;100 mA;
71.4844708195191;-0.99945068359375;-0.082672119140625;2.92999999260246;294;100 mA;
71.4944708194938;-0.999755859375;-0.0838623046875;2.93999999257721;295;100 mA;
71.5044708194686;-0.999755859375;-0.082977294921875;2.94999999255197;296;100 mA;
71.5144708194433;-0.99884033203125;-0.08319091796875;2.95999999252672;297;100 mA;
71.5244708194181;-0.9991455078125;-0.082977294921875;2.96999999250147;298;100 mA;
71.5344708193928;-0.9991455078125;-0.083099365234375;2.97999999247622;299;100 mA;
71.5444708193676;-0.99945068359375;-0.083770751953125;2.98999999245098;300;100 mA;
71.5544708193423;-0.99945068359375;-0.083648681640625;2.99999999242573;301;100 mA;
71.5644708193171;-0.999755859375;-0.084625244140625;3.00999999240048;302;100 mA;
71.5744708192918;-1.00006103515625;-0.083892822265625;3.01999999237523;303;100 mA;
71.5844708192666;-0.99945068359375;-0.085296630859375;3.02999999234999;304;100 mA;
71.5944708192413;-0.99945068359375;-0.08465576171875;3.03999999232474;305;100 mA;
71.6044708192161;-0.99884033203125;-0.085968017578125;3.04999999229949;306;100 mA;
71.6144708191908;-0.999755859375;-0.08489990234375;3.05999999227424;307;100 mA;
71.6244708191656;-0.999755859375;-0.085693359375;3.069999992249;308;100 mA;
71.6344708191403;-1.00006103515625;-0.085296630859375;3.07999999222375;309;100 mA;
71.6444708191151;-0.9991455078125;-0.086090087890625;3.0899999921985;310;100 mA;
71.6544708190899;-0.9991455078125;-0.08599853515625;3.09999999217325;311;100 mA;
71.6644708190646;-0.99945068359375;-0.085662841796875;3.109999992148;312;100 mA;
71.6744708190394;-0.999755859375;-0.086029052734375;3.11999999212276;313;100 mA;
71.6844708190141;-0.99945068359375;-0.0853271484375;3.12999999209751;314;100 mA;
71.6944708189889;-0.999755859375;-0.086517333984375;3.13999999207226;315;100 mA;
71.7044708189636;-1.00006103515625;-0.085357666015625;3.14999999204701;316;100 mA;
71.7144708189384;-0.9991455078125;-0.08685302734375;3.15999999202177;317;100 mA;
71.7244708189131;-0.99945068359375;-0.08526611328125;3.16999999199652;318;100 mA;
71.7344708188879;-0.9991455078125;-0.086029052734375;3.17999999197127;319;100 mA;
71.7444708188626;-1.00006103515625;-0.084869384765625;3.18999999194602;320;100 mA;
71.7544708188374;-0.999755859375;-0.085174560546875;3.19999999192078;321;100 mA;
71.7644708188121;-1.00006103515625;-0.08477783203125;3.20999999189553;322;100 mA;
71.7744708187869;-0.9991455078125;-0.08489990234375;3.21999999187028;323;100 mA;
71.7844708187616;-0.99945068359375;-0.085205078125;3.22999999184503;324;100 mA;
71.7944708187364;-0.9991455078125;-0.0845947265625;3.23999999181979;325;100 mA;
71.8044708187111;-0.9991455078125;-0.08544921875;3.24999999179454;326;100 mA;
71.8144708186859;-1.00006103515625;-0.0843505859375;3.25999999176929;327;100 mA;
71.8244708186606;-0.999755859375;-0.085296630859375;3.26999999174404;328;100 mA;
71.8344708186354;-0.9991455078125;-0.084320068359375;3.2799999917188;329;100 mA;
71.8444708186101;-0.9991455078125;-0.0850830078125;3.28999999169355;330;100 mA;
71.8544708185849;-0.99945068359375;-0.0836181640625;3.2999999916683;331;100 mA;
71.8644708185597;-0.99945068359375;-0.084228515625;3.30999999164305;332;100 mA;
71.8744708185344;-1.00006103515625;-0.083648681640625;3.31999999161781;333;100 mA;
71.8844708185092;-0.999755859375;-0.083892822265625;3.32999999159256;334;100 mA;
71.8944708184839;-0.999755859375;-0.083709716796875;3.33999999156731;335;100 mA;
71.9044708184587;-1.00006103515625;-0.08349609375;3.34999999154206;336;100 mA;
71.9144708184334;-0.99945068359375;-0.083984375;3.35999999151682;337;100 mA;
71.9244708184082;-0.99945068359375;-0.08331298828125;3.36999999149157;338;100 mA;
71.9344708183829;-0.9991455078125;-0.08441162109375;3.37999999146632;339;100 mA;
71.9444708183577;-0.9991455078125;-0.083587646484375;3.38999999144107;340;100 mA;
71.9544708183324;-1.00006103515625;-0.08538818359375;3.39999999141583;341;100 mA;
71.9644708183072;-1.00006103515625;-0.084320068359375;3.40999999139058;342;100 mA;
71.9744708182819;-0.9991455078125;-0.08502197265625;3.41999999136533;343;100 mA;
71.9844708182567;-0.9991455078125;-0.083984375;3.42999999134008;344;100 mA;
71.9944708182314;-0.999755859375;-0.0843505859375;3.43999999131483;345;100 mA;
72.0044708182062;-0.9991455078125;-0.08404541015625;3.44999999128959;346;100 mA;
72.0144708181809;-0.99945068359375;-0.084228515625;3.45999999126434;347;100 mA;
72.0244708181557;-0.9991455078125;-0.08489990234375;3.46999999123909;348;100 mA;
72.0344708181304;-0.9991455078125;-0.084503173828125;3.47999999121384;349;100 mA;
72.0444708181052;-0.999755859375;-0.085174560546875;3.4899999911886;350;100 mA;
72.0544708180799;-0.99945068359375;-0.08392333984375;3.49999999116335;351;100 mA;
72.0644708180547;-0.999755859375;-0.085052490234375;3.5099999911381;352;100 mA;
72.0744708180295;-0.9991455078125;-0.084014892578125;3.51999999111285;353;100 mA;
72.0844708180042;-0.9991455078125;-0.084747314453125;3.52999999108761;354;100 mA;
72.094470817979;-1.00006103515625;-0.083984375;3.53999999106236;355;100 mA;
72.1044708179537;-0.99945068359375;-0.08477783203125;3.54999999103711;356;100 mA;
72.1144708179285;-1.00006103515625;-0.084381103515625;3.55999999101186;357;100 mA;
72.1244708179032;-0.9991455078125;-0.084686279296875;3.56999999098662;358;100 mA;
72.134470817878;-0.99945068359375;-0.084808349609375;3.57999999096137;359;100 mA;
72.1444708178527;-0.9991455078125;-0.08489990234375;3.58999999093612;360;100 mA;
72.1544708178275;-0.99945068359375;-0.085662841796875;3.59999999091087;361;100 mA;
72.1644708178022;-0.99945068359375;-0.08514404296875;3.60999999088563;362;100 mA;
72.174470817777;-0.99945068359375;-0.08636474609375;3.61999999086038;363;100 mA;
72.1844708177517;-0.99945068359375;-0.08551025390625;3.62999999083513;364;100 mA;
72.1944708177265;-0.99945068359375;-0.086700439453125;3.63999999080988;365;100 mA;
72.2044708177012;-0.9991455078125;-0.0855712890625;3.64999999078464;366;100 mA;
72.214470817676;-0.999755859375;-0.0863037109375;3.65999999075939;367;100 mA;
72.2244708176507;-0.99945068359375;-0.08544921875;3.66999999073414;368;100 mA;
72.2344708176255;-0.99945068359375;-0.0858154296875;3.67999999070889;369;100 mA;
72.2444708176002;-0.9991455078125;-0.085723876953125;3.68999999068365;370;100 mA;
72.254470817575;-0.99945068359375;-0.08587646484375;3.6999999906584;371;100 mA;
72.2644708175497;-0.999755859375;-0.086578369140625;3.70999999063315;372;100 mA;
72.2744708175245;-0.99945068359375;-0.086090087890625;3.7199999906079;373;100 mA;
72.2844708174993;-0.99945068359375;-0.0867919921875;3.72999999058266;374;100 mA;
72.294470817474;-0.99945068359375;-0.085601806640625;3.73999999055741;375;100 mA;
72.3044708174488;-0.99945068359375;-0.086395263671875;3.74999999053216;376;100 mA;
72.3144708174235;-0.999755859375;-0.08538818359375;3.75999999050691;377;100 mA;
72.3244708173983;-0.9991455078125;-0.086273193359375;3.76999999048167;378;100 mA;
72.334470817373;-0.99945068359375;-0.085113525390625;3.77999999045642;379;100 mA;
72.3444708173478;-0.99945068359375;-0.0853271484375;3.78999999043117;380;100 mA;
72.3544708173225;-1.00006103515625;-0.08453369140625;3.79999999040592;381;100 mA;
72.3644708172973;-0.999755859375;-0.084747314453125;3.80999999038067;382;100 mA;
72.374470817272;-0.999755859375;-0.084381103515625;3.81999999035543;383;100 mA;
72.3844708172468;-0.9991455078125;-0.084075927734375;3.82999999033018;384;100 mA;
72.3944708172215;-0.99945068359375;-0.08428955078125;3.83999999030493;385;100 mA;
72.4044708171963;-0.99945068359375;-0.083648681640625;3.84999999027968;386;100 mA;
72.414470817171;-0.9991455078125;-0.084716796875;3.85999999025444;387;100 mA;
72.4244708171458;-0.99945068359375;-0.083709716796875;3.86999999022919;388;100 mA;
72.4344708171205;-0.999755859375;-0.0848388671875;3.87999999020394;389;100 mA;
72.4444708170953;-0.99945068359375;-0.084136962890625;3.88999999017869;390;100 mA;
72.45447081707;-0.999755859375;-0.0853271484375;3.89999999015345;391;100 mA;
72.4644708170448;-0.99945068359375;-0.084442138671875;3.9099999901282;392;100 mA;
72.4744708170196;-0.9991455078125;-0.084991455078125;3.91999999010295;393;100 mA;
72.4844708169943;-1.00006103515625;-0.0848388671875;3.9299999900777;394;100 mA;
72.4944708169691;-0.99945068359375;-0.0849609375;3.93999999005246;395;100 mA;
72.5044708169438;-0.99945068359375;-0.085540771484375;3.94999999002721;396;100 mA;
72.5144708169186;-0.999755859375;-0.08502197265625;3.95999999000196;397;100 mA;
72.5244708168933;-0.99945068359375;-0.0860595703125;3.96999998997671;398;100 mA;
72.5344708168681;-0.9991455078125;-0.08502197265625;3.97999998995147;399;100 mA;
72.5444708168428;-0.99884033203125;-0.085845947265625;3.98999998992622;400;100 mA;
72.5544708168176;-0.99945068359375;-0.084747314453125;3.99999998990097;401;100 mA;
72.5644708167923;-0.99945068359375;-0.085662841796875;4.00999998987572;402;100 mA;
72.5744708167671;-0.999755859375;-0.0845947265625;4.01999998985048;403;100 mA;
72.5844708167418;-0.9991455078125;-0.08502197265625;4.02999998982523;404;100 mA;
72.5944708167166;-0.9991455078125;-0.084381103515625;4.03999998979998;405;100 mA;
72.6044708166913;-0.99884033203125;-0.084564208984375;4.04999998977473;406;100 mA;
72.6144708166661;-0.999755859375;-0.08465576171875;4.05999998974949;407;100 mA;
72.6244708166408;-0.999755859375;-0.08447265625;4.06999998972424;408;100 mA;
72.6344708166156;-1.00006103515625;-0.08502197265625;4.07999998969899;409;100 mA;
72.6444708165903;-0.99945068359375;-0.084197998046875;4.08999998967374;410;100 mA;
72.6544708165651;-0.999755859375;-0.085052490234375;4.0999999896485;411;100 mA;
72.6644708165398;-0.99945068359375;-0.08380126953125;4.10999998962325;412;100 mA;
72.6744708165146;-0.999755859375;-0.085113525390625;4.119999989598;413;100 mA;
72.6844708164894;-0.9991455078125;-0.084075927734375;4.12999998957275;414;100 mA;
72.6944708164641;-0.9991455078125;-0.08489990234375;4.1399999895475;415;100 mA;
72.7044708164389;-0.999755859375;-0.084442138671875;4.14999998952226;416;100 mA;
72.7144708164136;-0.99945068359375;-0.08514404296875;4.15999998949701;417;100 mA;
72.7244708163884;-0.99884033203125;-0.084991455078125;4.16999998947176;418;100 mA;
72.7344708163631;-0.99945068359375;-0.0849609375;4.17999998944651;419;100 mA;
72.7444708163379;-0.9991455078125;-0.085235595703125;4.18999998942127;420;100 mA;
72.7544708163126;-0.99884033203125;-0.084747314453125;4.19999998939602;421;100 mA;
72.7644708162874;-0.99945068359375;-0.08538818359375;4.20999998937077;422;100 mA;
72.7744708162621;-0.9991455078125;-0.084503173828125;4.21999998934552;423;100 mA;
72.7844708162369;-0.99945068359375;-0.085418701171875;4.22999998932028;424;100 mA;
72.7944708162116;-0.99945068359375;-0.08392333984375;4.23999998929503;425;100 mA;
72.8044708161864;-0.99945068359375;-0.0848388671875;4.24999998926978;426;100 mA;
72.8144708161611;-0.999755859375;-0.08343505859375;4.25999998924453;427;100 mA;
72.8244708161359;-0.99884033203125;-0.084136962890625;4.26999998921929;428;100 mA;
72.8344708161106;-0.999755859375;-0.0836181640625;4.27999998919404;429;100 mA;
72.8444708160854;-0.999755859375;-0.0836181640625;4.28999998916879;430;100 mA;
72.8544708160601;-0.9991455078125;-0.083465576171875;4.29999998914354;431;100 mA;
72.8644708160349;-0.99945068359375;-0.082855224609375;4.3099999891183;432;100 mA;
72.8744708160096;-0.99945068359375;-0.083160400390625;4.31999998909305;433;100 mA;
72.8844708159844;-0.99945068359375;-0.082427978515625;4.3299999890678;434;100 mA;
72.8944708159592;-0.99945068359375;-0.0833740234375;4.33999998904255;435;100 mA;
72.9044708159339;-1.00006103515625;-0.082672119140625;4.34999998901731;436;100 mA;
72.9144708159087;-0.99945068359375;-0.08404541015625;4.35999998899206;437;100 mA;
72.9244708158834;-0.99945068359375;-0.082977294921875;4.36999998896681;438;100 mA;
72.9344708158582;-0.9991455078125;-0.083831787109375;4.37999998894156;439;100 mA;
72.9444708158329;-0.99945068359375;-0.083221435546875;4.38999998891632;440;100 mA;
72.9544708158077;-0.999755859375;-0.0836181640625;4.39999998889107;441;100 mA;
72.9644708157824;-0.99884033203125;-0.083038330078125;4.40999998886582;442;100 mA;
72.9744708157572;-0.999755859375;-0.08306884765625;4.41999998884057;443;100 mA;
72.9844708157319;-0.999755859375;-0.083343505859375;4.42999998881533;444;100 mA;
72.9944708157067;-0.99945068359375;-0.083099365234375;4.43999998879008;445;100 mA;
73.0044708156814;-0.99945068359375;-0.083770751953125;4.44999998876483;446;100 mA;
73.0144708156562;-0.99884033203125;-0.08306884765625;4.45999998873958;447;100 mA;
73.0244708156309;-0.99945068359375;-0.084381103515625;4.46999998871433;448;100 mA;
73.0344708156057;-0.999755859375;-0.08349609375;4.47999998868909;449;100 mA;
73.0444708155804;-0.9991455078125;-0.08489990234375;4.48999998866384;450;100 mA;
73.0544708155552;-0.99945068359375;-0.084259033203125;4.49999998863859;451;100 mA;
73.0644708155299;-0.99884033203125;-0.08514404296875;4.50999998861334;452;100 mA;
73.0744708155047;-0.99945068359375;-0.084564208984375;4.5199999885881;453;100 mA;
73.0844708154794;-1.0003662109375;-0.084716796875;4.52999998856285;454;100 mA;
73.0944708154542;-0.99945068359375;-0.084686279296875;4.5399999885376;455;100 mA;
73.104470815429;-0.999755859375;-0.084381103515625;4.54999998851235;456;100 mA;
73.1144708154037;-0.999755859375;-0.084686279296875;4.55999998848711;457;100 mA;
73.1244708153785;-1.00006103515625;-0.08367919921875;4.56999998846186;458;100 mA;
73.1344708153532;-0.99945068359375;-0.08453369140625;4.57999998843661;459;100 mA;
73.144470815328;-0.99945068359375;-0.08343505859375;4.58999998841136;460;100 mA;
73.1544708153027;-0.99945068359375;-0.084747314453125;4.59999998838612;461;100 mA;
73.1644708152775;-1.00006103515625;-0.083526611328125;4.60999998836087;462;100 mA;
73.1744708152522;-0.99945068359375;-0.0845947265625;4.61999998833562;463;100 mA;
73.184470815227;-0.99884033203125;-0.083953857421875;4.62999998831037;464;100 mA;
73.1944708152017;-0.99884033203125;-0.084808349609375;4.63999998828513;465;100 mA;
73.2044708151765;-0.999755859375;-0.0848388671875;4.64999998825988;466;100 mA;
73.2144708151512;-0.99945068359375;-0.08502197265625;4.65999998823463;467;100 mA;
73.224470815126;-0.999755859375;-0.08544921875;4.66999998820938;468;100 mA;
73.2344708151007;-0.99884033203125;-0.084930419921875;4.67999998818414;469;100 mA;
73.2444708150755;-0.9991455078125;-0.085968017578125;4.68999998815889;470;100 mA;
73.2544708150502;-0.9991455078125;-0.0849609375;4.69999998813364;471;100 mA;
73.264470815025;-0.9991455078125;-0.08636474609375;4.70999998810839;472;100 mA;
73.2744708149997;-0.99945068359375;-0.08544921875;4.71999998808315;473;100 mA;
73.2844708149745;-0.99945068359375;-0.0865478515625;4.7299999880579;474;100 mA;
73.2944708149492;-1.00006103515625;-0.085906982421875;4.73999998803265;475;100 mA;
73.304470814924;-0.999755859375;-0.086883544921875;4.7499999880074;476;100 mA;
73.3144708148988;-0.99853515625;-0.08636474609375;4.75999998798216;477;100 mA;
73.3244708148735;-0.9991455078125;-0.087158203125;4.76999998795691;478;100 mA;
73.3344708148483;-0.99884033203125;-0.086883544921875;4.77999998793166;479;100 mA;
73.344470814823;-0.9991455078125;-0.086395263671875;4.78999998790641;480;100 mA;
73.3544708147978;-0.999755859375;-0.086669921875;4.79999998788116;481;100 mA;
73.3644708147725;-0.999755859375;-0.085906982421875;4.80999998785592;482;100 mA;
73.3744708147473;-0.999755859375;-0.08746337890625;4.81999998783067;483;100 mA;
73.384470814722;-0.999755859375;-0.086212158203125;4.82999998780542;484;100 mA;
73.3944708146968;-1.00006103515625;-0.0870361328125;4.83999998778017;485;100 mA;
73.4044708146715;-0.99884033203125;-0.0858154296875;4.84999998775493;486;100 mA;
73.4144708146463;-0.99945068359375;-0.08648681640625;4.85999998772968;487;100 mA;
73.424470814621;-0.999755859375;-0.0853271484375;4.86999998770443;488;100 mA;
73.4344708145958;-0.99945068359375;-0.085845947265625;4.87999998767918;489;100 mA;
73.4444708145705;-0.99945068359375;-0.0853271484375;4.88999998765394;490;100 mA;
73.4544708145453;-0.99945068359375;-0.085235595703125;4.89999998762869;491;100 mA;
73.46447081452;-0.999755859375;-0.08514404296875;4.90999998760344;492;100 mA;
73.4744708144948;-0.99945068359375;-0.084625244140625;4.91999998757819;493;100 mA;
73.4844708144695;-0.99945068359375;-0.0850830078125;4.92999998755295;494;100 mA;
73.4944708144443;-1.0003662109375;-0.084228515625;4.9399999875277;495;100 mA;
73.5044708144191;-0.99945068359375;-0.0853271484375;4.94999998750245;496;100 mA;
73.5144708143938;-1.00006103515625;-0.084228515625;4.9599999874772;497;100 mA;
73.5244708143686;-0.99945068359375;-0.08502197265625;4.96999998745196;498;100 mA;
73.5344708143433;-0.99945068359375;-0.083709716796875;4.97999998742671;499;100 mA;
73.5444708143181;-0.999755859375;-0.084228515625;4.98999998740146;500;100 mA;
73.5544708142928;-1.00006103515625;-0.08331298828125;4.99999998737621;501;100 mA;
73.5644708142676;-1.00006103515625;-0.08380126953125;5.00999998735097;502;100 mA;
73.5744708142423;-0.99945068359375;-0.083953857421875;5.01999998732572;503;100 mA;
73.5844708142171;-0.9991455078125;-0.08392333984375;5.02999998730047;504;100 mA;
73.5944708141918;-1.00006103515625;-0.084503173828125;5.03999998727522;505;100 mA;
73.6044708141666;-1.0003662109375;-0.084075927734375;5.04999998724998;506;100 mA;
73.6144708141413;-0.9991455078125;-0.08526611328125;5.05999998722473;507;100 mA;
73.6244708141161;-0.9991455078125;-0.084259033203125;5.06999998719948;508;100 mA;
73.6344708140908;-0.9991455078125;-0.08544921875;5.07999998717423;509;100 mA;
73.6444708140656;-0.99945068359375;-0.08465576171875;5.08999998714899;510;100 mA;
73.6544708140403;-0.99945068359375;-0.085662841796875;5.09999998712374;511;100 mA;
73.6644708140151;-0.999755859375;-0.085052490234375;5.10999998709849;512;100 mA;
73.6744708139898;-0.999755859375;-0.08551025390625;5.11999998707324;513;100 mA;
73.6844708139646;-0.999755859375;-0.085113525390625;5.129999987048;514;100 mA;
73.6944708139393;-0.999755859375;-0.08526611328125;5.13999998702275;515;100 mA;
73.7044708139141;-0.99884033203125;-0.0855712890625;5.1499999869975;516;100 mA;
73.7144708138889;-1.00006103515625;-0.08489990234375;5.15999998697225;517;100 mA;
73.7244708138636;-0.9991455078125;-0.08563232421875;5.169999986947;518;100 mA;
73.7344708138384;-0.9991455078125;-0.084747314453125;5.17999998692176;519;100 mA;
73.7444708138131;-0.9991455078125;-0.085784912109375;5.18999998689651;520;100 mA;
73.7544708137879;-0.9991455078125;-0.084747314453125;5.19999998687126;521;100 mA;
73.7644708137626;-0.99945068359375;-0.08587646484375;5.20999998684601;522;100 mA;
73.7744708137374;-0.9991455078125;-0.084991455078125;5.21999998682077;523;100 mA;
73.7844708137121;-0.99884033203125;-0.085784912109375;5.22999998679552;524;100 mA;
73.7944708136869;-0.99884033203125;-0.085296630859375;5.23999998677027;525;100 mA;
73.8044708136616;-0.99945068359375;-0.0859375;5.24999998674502;526;100 mA;
73.8144708136364;-0.99945068359375;-0.0863037109375;5.25999998671978;527;100 mA;
73.8244708136111;-0.999755859375;-0.08660888671875;5.26999998669453;528;100 mA;
73.8344708135859;-0.9991455078125;-0.08734130859375;5.27999998666928;529;100 mA;
73.8444708135606;-0.999755859375;-0.08685302734375;5.28999998664403;530;100 mA;
73.8544708135354;-0.999755859375;-0.087921142578125;5.29999998661879;531;100 mA;
73.8644708135101;-1.00006103515625;-0.0870361328125;5.30999998659354;532;100 mA;
73.8744708134849;-0.99945068359375;-0.088348388671875;5.31999998656829;533;100 mA;
73.8844708134596;-0.99945068359375;-0.08697509765625;5.32999998654304;534;100 mA;
73.8944708134344;-0.99945068359375;-0.087738037109375;5.3399999865178;535;100 mA;
73.9044708134091;-0.99945068359375;-0.087127685546875;5.34999998649255;536;100 mA;
73.9144708133839;-0.99945068359375;-0.087615966796875;5.3599999864673;537;100 mA;
73.9244708133587;-0.99945068359375;-0.0872802734375;5.36999998644205;538;100 mA;
73.9344708133334;-0.9991455078125;-0.08740234375;5.37999998641681;539;100 mA;
73.9444708133082;-0.99945068359375;-0.08758544921875;5.38999998639156;540;100 mA;
73.9544708132829;-0.999755859375;-0.0867919921875;5.39999998636631;541;100 mA;
73.9644708132577;-0.9991455078125;-0.087310791015625;5.40999998634106;542;100 mA;
73.9744708132324;-0.999755859375;-0.08599853515625;5.41999998631582;543;100 mA;
73.9844708132072;-0.999755859375;-0.087127685546875;5.42999998629057;544;100 mA;
73.9944708131819;-0.99945068359375;-0.086090087890625;5.43999998626532;545;100 mA;
74.0044708131567;-0.9991455078125;-0.087127685546875;5.44999998624007;546;100 mA;
74.0144708131314;-0.999755859375;-0.086212158203125;5.45999998621483;547;100 mA;
74.0244708131062;-0.99945068359375;-0.086822509765625;5.46999998618958;548;100 mA;
74.0344708130809;-0.99945068359375;-0.086334228515625;5.47999998616433;549;100 mA;
74.0444708130557;-0.99945068359375;-0.086456298828125;5.48999998613908;550;100 mA;
74.0544708130304;-0.9991455078125;-0.0865478515625;5.49999998611383;551;100 mA;
74.0644708130052;-0.99945068359375;-0.0860595703125;5.50999998608859;552;100 mA;
74.0744708129799;-1.00006103515625;-0.08648681640625;5.51999998606334;553;100 mA;
74.0844708129547;-0.99945068359375;-0.0858154296875;5.52999998603809;554;100 mA;
74.0944708129294;-1.00006103515625;-0.0869140625;5.53999998601284;555;100 mA;
74.1044708129042;-0.99945068359375;-0.086029052734375;5.5499999859876;556;100 mA;
74.1144708128789;-0.99945068359375;-0.086944580078125;5.55999998596235;557;100 mA;
74.1244708128537;-0.99945068359375;-0.08575439453125;5.5699999859371;558;100 mA;
74.1344708128285;-0.99945068359375;-0.086395263671875;5.57999998591185;559;100 mA;
74.1444708128032;-0.999755859375;-0.085693359375;5.58999998588661;560;100 mA;
74.154470812778;-0.999755859375;-0.085845947265625;5.59999998586136;561;100 mA;
74.1644708127527;-0.99945068359375;-0.085601806640625;5.60999998583611;562;100 mA;
74.1744708127275;-0.999755859375;-0.08563232421875;5.61999998581086;563;100 mA;
74.1844708127022;-0.999755859375;-0.085662841796875;5.62999998578562;564;100 mA;
74.194470812677;-0.999755859375;-0.085205078125;5.63999998576037;565;100 mA;
74.2044708126517;-0.99945068359375;-0.085723876953125;5.64999998573512;566;100 mA;
74.2144708126265;-0.999755859375;-0.0849609375;5.65999998570987;567;100 mA;
74.2244708126012;-0.99945068359375;-0.086181640625;5.66999998568463;568;100 mA;
74.234470812576;-0.999755859375;-0.085540771484375;5.67999998565938;569;100 mA;
74.2444708125507;-0.99884033203125;-0.0869140625;5.68999998563413;570;100 mA;
74.2544708125255;-0.99945068359375;-0.086151123046875;5.69999998560888;571;100 mA;
74.2644708125002;-0.9991455078125;-0.08709716796875;5.70999998558364;572;100 mA;
74.274470812475;-0.999755859375;-0.086395263671875;5.71999998555839;573;100 mA;
74.2844708124497;-0.99945068359375;-0.086700439453125;5.72999998553314;574;100 mA;
74.2944708124245;-0.999755859375;-0.08685302734375;5.73999998550789;575;100 mA;
74.3044708123992;-0.999755859375;-0.0867919921875;5.74999998548265;576;100 mA;
74.314470812374;-0.99884033203125;-0.08734130859375;5.7599999854574;577;100 mA;
74.3244708123487;-0.999755859375;-0.08673095703125;5.76999998543215;578;100 mA;
74.3344708123235;-0.99884033203125;-0.087646484375;5.7799999854069;579;100 mA;
74.3444708122983;-1.00006103515625;-0.0867919921875;5.78999998538166;580;100 mA;
74.354470812273;-0.99945068359375;-0.0877685546875;5.79999998535641;581;100 mA;
74.3644708122478;-0.99945068359375;-0.0869140625;5.80999998533116;582;100 mA;
74.3744708122225;-0.9991455078125;-0.0882568359375;5.81999998530591;583;100 mA;
74.3844708121973;-0.999755859375;-0.087554931640625;5.82999998528066;584;100 mA;
74.394470812172;-0.99945068359375;-0.088409423828125;5.83999998525542;585;100 mA;
74.4044708121468;-0.999755859375;-0.08807373046875;5.84999998523017;586;100 mA;
74.4144708121215;-0.999755859375;-0.088409423828125;5.85999998520492;587;100 mA;
74.4244708120963;-0.999755859375;-0.088592529296875;5.86999998517967;588;100 mA;
74.434470812071;-0.99945068359375;-0.08807373046875;5.87999998515443;589;100 mA;
74.4444708120458;-0.99884033203125;-0.088836669921875;5.88999998512918;590;100 mA;
74.4544708120205;-0.9991455078125;-0.08807373046875;5.89999998510393;591;100 mA;
74.4644708119953;-0.999755859375;-0.08917236328125;5.90999998507868;592;100 mA;
74.47447081197;-0.99945068359375;-0.08819580078125;5.91999998505344;593;100 mA;
74.4844708119448;-0.99945068359375;-0.08905029296875;5.92999998502819;594;100 mA;
74.4944708119195;-0.99945068359375;-0.088104248046875;5.93999998500294;595;100 mA;
74.5044708118943;-0.99945068359375;-0.08868408203125;5.94999998497769;596;100 mA;
74.514470811869;-0.99884033203125;-0.088348388671875;5.95999998495245;597;100 mA;
74.5244708118438;-0.99945068359375;-0.0889892578125;5.9699999849272;598;100 mA;
74.5344708118186;-0.99945068359375;-0.088958740234375;5.97999998490195;599;100 mA;
74.5444708117933;-0.999755859375;-0.088653564453125;5.9899999848767;600;100 mA;
74.5544708117681;-0.999755859375;-0.088775634765625;5.99999998485146;601;100 mA;
74.5644708117428;-0.99945068359375;-0.088043212890625;6.00999998482621;602;100 mA;
74.5744708117176;-0.99945068359375;-0.088897705078125;6.01999998480096;603;100 mA;
74.5844708116923;-0.99945068359375;-0.088043212890625;6.02999998477571;604;100 mA;
74.5944708116671;-0.999755859375;-0.089111328125;6.03999998475047;605;100 mA;
74.6044708116418;-0.99945068359375;-0.0882568359375;6.04999998472522;606;100 mA;
74.6144708116166;-0.99945068359375;-0.088958740234375;6.05999998469997;607;100 mA;
74.6244708115913;-0.999755859375;-0.088104248046875;6.06999998467472;608;100 mA;
74.6344708115661;-0.999755859375;-0.088287353515625;6.07999998464948;609;100 mA;
74.6444708115408;-0.999755859375;-0.087615966796875;6.08999998462423;610;100 mA;
74.6544708115156;-0.9991455078125;-0.087646484375;6.09999998459898;611;100 mA;
74.6644708114903;-0.99945068359375;-0.0875244140625;6.10999998457373;612;100 mA;
74.6744708114651;-0.999755859375;-0.08660888671875;6.11999998454849;613;100 mA;
74.6844708114398;-0.999755859375;-0.0867919921875;6.12999998452324;614;100 mA;
74.6944708114146;-0.999755859375;-0.085723876953125;6.13999998449799;615;100 mA;
74.7044708113893;-0.9991455078125;-0.086456298828125;6.14999998447274;616;100 mA;
74.7144708113641;-1.0003662109375;-0.08563232421875;6.1599999844475;617;100 mA;
74.7244708113388;-0.99945068359375;-0.086334228515625;6.16999998442225;618;100 mA;
74.7344708113136;-0.9991455078125;-0.085205078125;6.179999984397;619;100 mA;
74.7444708112884;-0.9991455078125;-0.08544921875;6.18999998437175;620;100 mA;
74.7544708112631;-0.99945068359375;-0.08453369140625;6.1999999843465;621;100 mA;
74.7644708112379;-0.999755859375;-0.08465576171875;6.20999998432126;622;100 mA;
74.7744708112126;-0.99945068359375;-0.08428955078125;6.21999998429601;623;100 mA;
74.7844708111874;-0.99945068359375;-0.08441162109375;6.22999998427076;624;100 mA;
74.7944708111621;-0.99945068359375;-0.08489990234375;6.23999998424551;625;100 mA;
74.8044708111369;-0.9991455078125;-0.0845947265625;6.24999998422027;626;100 mA;
74.8144708111116;-0.99945068359375;-0.0855712890625;6.25999998419502;627;100 mA;
74.8244708110864;-0.99945068359375;-0.084442138671875;6.26999998416977;628;100 mA;
74.8344708110611;-0.9991455078125;-0.084930419921875;6.27999998414452;629;100 mA;
74.8444708110359;-0.999755859375;-0.08355712890625;6.28999998411928;630;100 mA;
74.8544708110106;-0.99884033203125;-0.084014892578125;6.29999998409403;631;100 mA;
74.8644708109854;-0.9991455078125;-0.0828857421875;6.30999998406878;632;100 mA;
74.8744708109601;-0.9991455078125;-0.083404541015625;6.31999998404353;633;100 mA;
74.8844708109349;-0.999755859375;-0.082916259765625;6.32999998401829;634;100 mA;
74.8944708109096;-0.999755859375;-0.083221435546875;6.33999998399304;635;100 mA;
74.9044708108844;-1.00006103515625;-0.0833740234375;6.34999998396779;636;100 mA;
74.9144708108591;-0.9991455078125;-0.083038330078125;6.35999998394254;637;100 mA;
74.9244708108339;-0.9991455078125;-0.083953857421875;6.3699999839173;638;100 mA;
74.9344708108086;-0.9991455078125;-0.083251953125;6.37999998389205;639;100 mA;
74.9444708107834;-0.9991455078125;-0.08465576171875;6.3899999838668;640;100 mA;
74.9544708107582;-0.9991455078125;-0.084228515625;6.39999998384155;641;100 mA;
74.9644708107329;-0.9991455078125;-0.085601806640625;6.40999998381631;642;100 mA;
74.9744708107077;-0.99945068359375;-0.08477783203125;6.41999998379106;643;100 mA;
74.9844708106824;-0.9991455078125;-0.085113525390625;6.42999998376581;644;100 mA;
74.9944708106572;-0.9991455078125;-0.084320068359375;6.43999998374056;645;100 mA;
75.0044708106319;-0.999755859375;-0.084503173828125;6.44999998371532;646;100 mA;
75.0144708106067;-0.99945068359375;-0.08428955078125;6.45999998369007;647;100 mA;
75.0244708105814;-0.9991455078125;-0.08441162109375;6.46999998366482;648;100 mA;
75.0344708105562;-1.0003662109375;-0.0848388671875;6.47999998363957;649;100 mA;
75.0444708105309;-0.99945068359375;-0.084381103515625;6.48999998361433;650;100 mA;
75.0544708105057;-0.999755859375;-0.085205078125;6.49999998358908;651;100 mA;
75.0644708104804;-0.9991455078125;-0.084228515625;6.50999998356383;652;100 mA;
75.0744708104552;-0.9991455078125;-0.0850830078125;6.51999998353858;653;100 mA;
75.0844708104299;-0.99945068359375;-0.08404541015625;6.52999998351333;654;100 mA;
75.0944708104047;-0.999755859375;-0.0848388671875;6.53999998348809;655;100 mA;
75.1044708103794;-0.999755859375;-0.084259033203125;6.54999998346284;656;100 mA;
75.1144708103542;-0.9991455078125;-0.084991455078125;6.55999998343759;657;100 mA;
75.1244708103289;-0.99945068359375;-0.0853271484375;6.56999998341234;658;100 mA;
75.1344708103037;-0.9991455078125;-0.085662841796875;6.5799999833871;659;100 mA;
75.1444708102784;-0.999755859375;-0.086212158203125;6.58999998336185;660;100 mA;
75.1544708102532;-0.99945068359375;-0.086151123046875;6.5999999833366;661;100 mA;
75.164470810228;-0.99945068359375;-0.08709716796875;6.60999998331135;662;100 mA;
75.1744708102027;-0.99945068359375;-0.08642578125;6.61999998328611;663;100 mA;
75.1844708101775;-0.99945068359375;-0.087249755859375;6.62999998326086;664;100 mA;
75.1944708101522;-0.99884033203125;-0.086334228515625;6.63999998323561;665;100 mA;
75.204470810127;-0.9991455078125;-0.086883544921875;6.64999998321036;666;100 mA;
75.2144708101017;-0.9991455078125;-0.086181640625;6.65999998318512;667;100 mA;
75.2244708100765;-0.999755859375;-0.0869140625;6.66999998315987;668;100 mA;
75.2344708100512;-0.999755859375;-0.0865478515625;6.67999998313462;669;100 mA;
75.244470810026;-0.999755859375;-0.0867919921875;6.68999998310937;670;100 mA;
75.2544708100007;-0.9991455078125;-0.086944580078125;6.69999998308413;671;100 mA;
75.2644708099755;-0.99945068359375;-0.0870361328125;6.70999998305888;672;100 mA;
75.2744708099502;-1.00006103515625;-0.0872802734375;6.71999998303363;673;100 mA;
75.284470809925;-0.99945068359375;-0.086822509765625;6.72999998300838;674;100 mA;
75.2944708098997;-0.999755859375;-0.087432861328125;6.73999998298314;675;100 mA;
75.3044708098745;-0.999755859375;-0.086273193359375;6.74999998295789;676;100 mA;
75.3144708098492;-0.999755859375;-0.087158203125;6.75999998293264;677;100 mA;
75.324470809824;-0.999755859375;-0.086151123046875;6.76999998290739;678;100 mA;
75.3344708097987;-0.99884033203125;-0.086578369140625;6.77999998288215;679;100 mA;
75.3444708097735;-0.99945068359375;-0.0855712890625;6.7899999828569;680;100 mA;
75.3544708097482;-0.99945068359375;-0.08575439453125;6.79999998283165;681;100 mA;
75.364470809723;-0.999755859375;-0.085113525390625;6.8099999828064;682;100 mA;
75.3744708096978;-0.999755859375;-0.08514404296875;6.81999998278116;683;100 mA;
75.3844708096725;-0.9991455078125;-0.084991455078125;6.82999998275591;684;100 mA;
75.3944708096473;-0.99945068359375;-0.0843505859375;6.83999998273066;685;100 mA;
75.404470809622;-0.999755859375;-0.084503173828125;6.84999998270541;686;100 mA;
75.4144708095968;-0.99884033203125;-0.08380126953125;6.85999998268016;687;100 mA;
75.4244708095715;-0.99945068359375;-0.084686279296875;6.86999998265492;688;100 mA;
75.4344708095463;-0.99945068359375;-0.08404541015625;6.87999998262967;689;100 mA;
75.444470809521;-0.99945068359375;-0.085296630859375;6.88999998260442;690;100 mA;
75.4544708094958;-0.99945068359375;-0.084381103515625;6.89999998257917;691;100 mA;
75.4644708094705;-0.99884033203125;-0.0849609375;6.90999998255393;692;100 mA;
75.4744708094453;-0.999755859375;-0.084686279296875;6.91999998252868;693;100 mA;
75.48447080942;-1.00006103515625;-0.084991455078125;6.92999998250343;694;100 mA;
75.4944708093948;-0.99945068359375;-0.085113525390625;6.93999998247818;695;100 mA;
75.5044708093695;-0.999755859375;-0.08502197265625;6.94999998245294;696;100 mA;
75.5144708093443;-0.99945068359375;-0.0855712890625;6.95999998242769;697;100 mA;
75.524470809319;-0.99945068359375;-0.08526611328125;6.96999998240244;698;100 mA;
75.5344708092938;-0.999755859375;-0.086181640625;6.97999998237719;699;100 mA;
75.5444708092685;-0.9991455078125;-0.085784912109375;6.98999998235195;700;100 mA;
