Time (s);WE(1).Potential (V);Corrected time (s);Index;WE(1).Current (A);Current range;Cutoffs
13.6810079654588;-0.119110107421875;0;1;-0.025;100 mA;
13.6910079654335;-0.142303466796875;0.00999999997475243;2;-0.0249908447265625;100 mA;
13.7010079654083;-0.15777587890625;0.0199999999495049;3;-0.0249969482421875;100 mA;
13.711007965383;-0.169403076171875;0.0299999999242573;4;-0.0249969482421875;100 mA;
13.7210079653578;-0.1787109375;0.0399999998990097;5;-0.0249969482421875;100 mA;
13.7310079653325;-0.18646240234375;0.0499999998737621;6;-0.025;100 mA;
13.7410079653073;-0.19317626953125;0.0599999998485146;7;-0.024993896484375;100 mA;
13.751007965282;-0.19903564453125;0.069999999823267;8;-0.024993896484375;100 mA;
13.7610079652568;-0.20428466796875;0.0799999997980194;9;-0.0249969482421875;100 mA;
13.7710079652315;-0.209014892578125;0.0899999997727718;10;-0.0249969482421875;100 mA;
13.7810079652063;-0.21337890625;0.0999999997475243;11;-0.024993896484375;100 mA;
13.7910079651811;-0.217376708984375;0.109999999722277;12;-0.024993896484375;100 mA;
13.8010079651558;-0.221099853515625;0.119999999697029;13;-0.025;100 mA;
13.8110079651306;-0.224609375;0.129999999671782;14;-0.0249969482421875;100 mA;
13.8210079651053;-0.2279052734375;0.139999999646534;15;-0.02498779296875;100 mA;
13.8310079650801;-0.23101806640625;0.149999999621286;16;-0.024993896484375;100 mA;
13.8410079650548;-0.233978271484375;0.159999999596039;17;-0.0249969482421875;100 mA;
13.8510079650296;-0.236785888671875;0.169999999570791;18;-0.0249969482421875;100 mA;
13.8610079650043;-0.239471435546875;0.179999999545544;19;-0.0249908447265625;100 mA;
13.8710079649791;-0.2420654296875;0.189999999520296;20;-0.024993896484375;100 mA;
13.8810079649538;-0.244537353515625;0.199999999495049;21;-0.025;100 mA;
13.8910079649286;-0.2469482421875;0.209999999469801;22;-0.0249908447265625;100 mA;
13.9010079649033;-0.249267578125;0.219999999444553;23;-0.024993896484375;100 mA;
13.9110079648781;-0.25152587890625;0.229999999419306;24;-0.0249969482421875;100 mA;
13.9210079648528;-0.253692626953125;0.239999999394058;25;-0.0249969482421875;100 mA;
13.9310079648276;-0.25579833984375;0.249999999368811;26;-0.02498779296875;100 mA;
13.9410079648023;-0.257843017578125;0.259999999343563;27;-0.024993896484375;100 mA;
13.9510079647771;-0.25982666015625;0.269999999318316;28;-0.024993896484375;100 mA;
13.9610079647518;-0.26177978515625;0.279999999293068;29;-0.024993896484375;100 mA;
13.9710079647266;-0.263671875;0.28999999926782;30;-0.024993896484375;100 mA;
13.9810079647013;-0.2655029296875;0.299999999242573;31;-0.025;100 mA;
13.9910079646761;-0.267303466796875;0.309999999217325;32;-0.0249908447265625;100 mA;
14.0010079646509;-0.26904296875;0.319999999192078;33;-0.024993896484375;100 mA;
14.0110079646256;-0.270782470703125;0.32999999916683;34;-0.0249969482421875;100 mA;
14.0210079646004;-0.2724609375;0.339999999141583;35;-0.0249969482421875;100 mA;
14.0310079645751;-0.27410888671875;0.349999999116335;36;-0.0249908447265625;100 mA;
14.0410079645499;-0.27569580078125;0.359999999091087;37;-0.0249908447265625;100 mA;
14.0510079645246;-0.27728271484375;0.36999999906584;38;-0.024993896484375;100 mA;
14.0610079644994;-0.27880859375;0.379999999040592;39;-0.024993896484375;100 mA;
14.0710079644741;-0.28033447265625;0.389999999015345;40;-0.0249969482421875;100 mA;
14.0810079644489;-0.28179931640625;0.399999998990097;41;-0.0249908447265625;100 mA;
14.0910079644236;-0.28326416015625;0.40999999896485;42;-0.0249969482421875;100 mA;
14.1010079643984;-0.28466796875;0.419999998939602;43;-0.024993896484375;100 mA;
14.1110079643731;-0.28607177734375;0.429999998914354;44;-0.024993896484375;100 mA;
14.1210079643479;-0.287445068359375;0.439999998889107;45;-0.0249969482421875;100 mA;
14.1310079643226;-0.288818359375;0.449999998863859;46;-0.0249908447265625;100 mA;
14.1410079642974;-0.290130615234375;0.459999998838612;47;-0.0249969482421875;100 mA;
14.1510079642721;-0.29144287109375;0.469999998813364;48;-0.0249908447265625;100 mA;
14.1610079642469;-0.292724609375;0.479999998788116;49;-0.024993896484375;100 mA;
14.1710079642216;-0.29400634765625;0.489999998762869;50;-0.024993896484375;100 mA;
14.1810079641964;-0.295257568359375;0.499999998737621;51;-0.024993896484375;100 mA;
14.1910079641711;-0.2965087890625;0.509999998712374;52;-0.024993896484375;100 mA;
14.2010079641459;-0.297698974609375;0.519999998687126;53;-0.024993896484375;100 mA;
14.2110079641207;-0.298919677734375;0.529999998661879;54;-0.0249969482421875;100 mA;
14.2210079640954;-0.30010986328125;0.539999998636631;55;-0.02498779296875;100 mA;
14.2310079640702;-0.301300048828125;0.549999998611383;56;-0.0249969482421875;100 mA;
14.2410079640449;-0.302459716796875;0.559999998586136;57;-0.0249969482421875;100 mA;
14.2510079640197;-0.303619384765625;0.569999998560888;58;-0.024993896484375;100 mA;
14.2610079639944;-0.30474853515625;0.579999998535641;59;-0.0249969482421875;100 mA;
14.2710079639692;-0.305877685546875;0.589999998510393;60;-0.024993896484375;100 mA;
14.2810079639439;-0.3070068359375;0.599999998485146;61;-0.024993896484375;100 mA;
14.2910079639187;-0.30810546875;0.609999998459898;62;-0.0249969482421875;100 mA;
14.3010079638934;-0.3092041015625;0.61999999843465;63;-0.02498779296875;100 mA;
14.3110079638682;-0.310302734375;0.629999998409403;64;-0.024993896484375;100 mA;
14.3210079638429;-0.311370849609375;0.639999998384155;65;-0.0249908447265625;100 mA;
14.3310079638177;-0.31243896484375;0.649999998358908;66;-0.0249908447265625;100 mA;
14.3410079637924;-0.3134765625;0.65999999833366;67;-0.024993896484375;100 mA;
14.3510079637672;-0.31451416015625;0.669999998308413;68;-0.024993896484375;100 mA;
14.3610079637419;-0.3155517578125;0.679999998283165;69;-0.02498779296875;100 mA;
14.3710079637167;-0.31658935546875;0.689999998257917;70;-0.024993896484375;100 mA;
14.3810079636914;-0.317596435546875;0.69999999823267;71;-0.024993896484375;100 mA;
14.3910079636662;-0.318603515625;0.709999998207422;72;-0.02498779296875;100 mA;
14.401007963641;-0.319610595703125;0.719999998182175;73;-0.024993896484375;100 mA;
14.4110079636157;-0.320587158203125;0.729999998156927;74;-0.02498779296875;100 mA;
14.4210079635905;-0.321563720703125;0.73999999813168;75;-0.024993896484375;100 mA;
14.4310079635652;-0.322540283203125;0.749999998106432;76;-0.024993896484375;100 mA;
14.44100796354;-0.323486328125;0.759999998081184;77;-0.0249969482421875;100 mA;
14.4510079635147;-0.324462890625;0.769999998055937;78;-0.024993896484375;100 mA;
14.4610079634895;-0.325408935546875;0.779999998030689;79;-0.02498779296875;100 mA;
14.4710079634642;-0.326324462890625;0.789999998005442;80;-0.024993896484375;100 mA;
14.481007963439;-0.3272705078125;0.799999997980194;81;-0.0249908447265625;100 mA;
14.4910079634137;-0.32818603515625;0.809999997954947;82;-0.0249969482421875;100 mA;
14.5010079633885;-0.329071044921875;0.819999997929699;83;-0.0249969482421875;100 mA;
14.5110079633632;-0.329986572265625;0.829999997904451;84;-0.0249969482421875;100 mA;
14.521007963338;-0.330902099609375;0.839999997879204;85;-0.02498779296875;100 mA;
14.5310079633127;-0.331787109375;0.849999997853956;86;-0.0249969482421875;100 mA;
14.5410079632875;-0.332672119140625;0.859999997828709;87;-0.024993896484375;100 mA;
14.5510079632622;-0.33355712890625;0.869999997803461;88;-0.0249908447265625;100 mA;
14.561007963237;-0.334442138671875;0.879999997778214;89;-0.0249908447265625;100 mA;
14.5710079632117;-0.335296630859375;0.889999997752966;90;-0.0249908447265625;100 mA;
14.5810079631865;-0.336151123046875;0.899999997727718;91;-0.0249908447265625;100 mA;
14.5910079631612;-0.337005615234375;0.909999997702471;92;-0.02498779296875;100 mA;
14.601007963136;-0.337860107421875;0.919999997677223;93;-0.0249908447265625;100 mA;
14.6110079631108;-0.33868408203125;0.929999997651976;94;-0.0249908447265625;100 mA;
14.6210079630855;-0.339508056640625;0.939999997626728;95;-0.024993896484375;100 mA;
14.6310079630603;-0.340362548828125;0.949999997601481;96;-0.024993896484375;100 mA;
14.641007963035;-0.3411865234375;0.959999997576233;97;-0.024993896484375;100 mA;
14.6510079630098;-0.342010498046875;0.969999997550985;98;-0.0249908447265625;100 mA;
14.6610079629845;-0.342803955078125;0.979999997525738;99;-0.024993896484375;100 mA;
14.6710079629593;-0.3436279296875;0.98999999750049;100;-0.0249908447265625;100 mA;
14.681007962934;-0.34442138671875;0.999999997475243;101;-0.02498779296875;100 mA;
14.6910079629088;-0.34521484375;1.00999999745;102;-0.024993896484375;100 mA;
14.7010079628835;-0.34600830078125;1.01999999742475;103;-0.024993896484375;100 mA;
14.7110079628583;-0.3468017578125;1.0299999973995;104;-0.0249908447265625;100 mA;
14.721007962833;-0.347564697265625;1.03999999737425;105;-0.0249969482421875;100 mA;
14.7310079628078;-0.348358154296875;1.049999997349;106;-0.0249908447265625;100 mA;
14.7410079627825;-0.34912109375;1.05999999732376;107;-0.0249969482421875;100 mA;
14.7510079627573;-0.34991455078125;1.06999999729851;108;-0.0249908447265625;100 mA;
14.761007962732;-0.350677490234375;1.07999999727326;109;-0.02498779296875;100 mA;
14.7710079627068;-0.351409912109375;1.08999999724801;110;-0.0249908447265625;100 mA;
14.7810079626815;-0.3521728515625;1.09999999722277;111;-0.0249908447265625;100 mA;
14.7910079626563;-0.3529052734375;1.10999999719752;112;-0.024993896484375;100 mA;
14.801007962631;-0.353668212890625;1.11999999717227;113;-0.0249969482421875;100 mA;
14.8110079626058;-0.354400634765625;1.12999999714702;114;-0.0249908447265625;100 mA;
14.8210079625806;-0.355133056640625;1.13999999712178;115;-0.0249969482421875;100 mA;
14.8310079625553;-0.355865478515625;1.14999999709653;116;-0.02498779296875;100 mA;
14.8410079625301;-0.356597900390625;1.15999999707128;117;-0.0249969482421875;100 mA;
14.8510079625048;-0.357330322265625;1.16999999704603;118;-0.0249908447265625;100 mA;
14.8610079624796;-0.358062744140625;1.17999999702079;119;-0.024993896484375;100 mA;
14.8710079624543;-0.3587646484375;1.18999999699554;120;-0.0249969482421875;100 mA;
14.8810079624291;-0.359466552734375;1.19999999697029;121;-0.025;100 mA;
14.8910079624038;-0.36016845703125;1.20999999694504;122;-0.024993896484375;100 mA;
14.9010079623786;-0.360870361328125;1.2199999969198;123;-0.024993896484375;100 mA;
14.9110079623533;-0.361602783203125;1.22999999689455;124;-0.024993896484375;100 mA;
14.9210079623281;-0.362274169921875;1.2399999968693;125;-0.0249908447265625;100 mA;
14.9310079623028;-0.36297607421875;1.24999999684405;126;-0.0249908447265625;100 mA;
14.9410079622776;-0.363677978515625;1.25999999681881;127;-0.0249969482421875;100 mA;
14.9510079622523;-0.364349365234375;1.26999999679356;128;-0.0249908447265625;100 mA;
14.9610079622271;-0.36505126953125;1.27999999676831;129;-0.024993896484375;100 mA;
14.9710079622018;-0.36572265625;1.28999999674306;130;-0.0249969482421875;100 mA;
14.9810079621766;-0.366424560546875;1.29999999671782;131;-0.0249908447265625;100 mA;
14.9910079621513;-0.367095947265625;1.30999999669257;132;-0.024993896484375;100 mA;
15.0010079621261;-0.367767333984375;1.31999999666732;133;-0.0249969482421875;100 mA;
15.0110079621008;-0.368438720703125;1.32999999664207;134;-0.024993896484375;100 mA;
15.0210079620756;-0.36907958984375;1.33999999661683;135;-0.0249908447265625;100 mA;
15.0310079620504;-0.369781494140625;1.34999999659158;136;-0.0249908447265625;100 mA;
15.0410079620251;-0.37042236328125;1.35999999656633;137;-0.0249908447265625;100 mA;
15.0510079619999;-0.37109375;1.36999999654108;138;-0.024993896484375;100 mA;
15.0610079619746;-0.37176513671875;1.37999999651583;139;-0.024993896484375;100 mA;
15.0710079619494;-0.372406005859375;1.38999999649059;140;-0.0249969482421875;100 mA;
15.0810079619241;-0.373046875;1.39999999646534;141;-0.0249908447265625;100 mA;
15.0910079618989;-0.37371826171875;1.40999999644009;142;-0.024993896484375;100 mA;
15.1010079618736;-0.374359130859375;1.41999999641484;143;-0.024993896484375;100 mA;
15.1110079618484;-0.375;1.4299999963896;144;-0.024993896484375;100 mA;
15.1210079618231;-0.3756103515625;1.43999999636435;145;-0.0249908447265625;100 mA;
15.1310079617979;-0.376251220703125;1.4499999963391;146;-0.0249908447265625;100 mA;
15.1410079617726;-0.37689208984375;1.45999999631385;147;-0.02498779296875;100 mA;
15.1510079617474;-0.377532958984375;1.46999999628861;148;-0.0249908447265625;100 mA;
15.1610079617221;-0.378173828125;1.47999999626336;149;-0.0249908447265625;100 mA;
15.1710079616969;-0.3787841796875;1.48999999623811;150;-0.0249908447265625;100 mA;
15.1810079616716;-0.379425048828125;1.49999999621286;151;-0.02498779296875;100 mA;
15.1910079616464;-0.380035400390625;1.50999999618762;152;-0.024993896484375;100 mA;
15.2010079616211;-0.380645751953125;1.51999999616237;153;-0.0249908447265625;100 mA;
15.2110079615959;-0.381256103515625;1.52999999613712;154;-0.025;100 mA;
15.2210079615706;-0.381866455078125;1.53999999611187;155;-0.0249908447265625;100 mA;
15.2310079615454;-0.382476806640625;1.54999999608663;156;-0.02498779296875;100 mA;
15.2410079615202;-0.383087158203125;1.55999999606138;157;-0.0249908447265625;100 mA;
15.2510079614949;-0.383697509765625;1.56999999603613;158;-0.0249908447265625;100 mA;
15.2610079614697;-0.38427734375;1.57999999601088;159;-0.02498779296875;100 mA;
15.2710079614444;-0.3848876953125;1.58999999598564;160;-0.024993896484375;100 mA;
15.2810079614192;-0.385498046875;1.59999999596039;161;-0.024993896484375;100 mA;
15.2910079613939;-0.386077880859375;1.60999999593514;162;-0.02498779296875;100 mA;
15.3010079613687;-0.38665771484375;1.61999999590989;163;-0.0249969482421875;100 mA;
15.3110079613434;-0.38726806640625;1.62999999588465;164;-0.0249908447265625;100 mA;
15.3210079613182;-0.387847900390625;1.6399999958594;165;-0.0249908447265625;100 mA;
15.3310079612929;-0.388427734375;1.64999999583415;166;-0.024993896484375;100 mA;
15.3410079612677;-0.389007568359375;1.6599999958089;167;-0.024993896484375;100 mA;
15.3510079612424;-0.38958740234375;1.66999999578366;168;-0.02498779296875;100 mA;
15.3610079612172;-0.390167236328125;1.67999999575841;169;-0.024993896484375;100 mA;
15.3710079611919;-0.390716552734375;1.68999999573316;170;-0.0249908447265625;100 mA;
15.3810079611667;-0.39129638671875;1.69999999570791;171;-0.024993896484375;100 mA;
15.3910079611414;-0.391845703125;1.70999999568267;172;-0.0249908447265625;100 mA;
15.4010079611162;-0.392425537109375;1.71999999565742;173;-0.0249908447265625;100 mA;
15.4110079610909;-0.392974853515625;1.72999999563217;174;-0.024993896484375;100 mA;
15.4210079610657;-0.3935546875;1.73999999560692;175;-0.02498779296875;100 mA;
15.4310079610405;-0.39410400390625;1.74999999558167;176;-0.02498779296875;100 mA;
15.4410079610152;-0.394683837890625;1.75999999555643;177;-0.02498779296875;100 mA;
15.45100796099;-0.395233154296875;1.76999999553118;178;-0.024993896484375;100 mA;
15.4610079609647;-0.39581298828125;1.77999999550593;179;-0.0249847412109375;100 mA;
15.4710079609395;-0.396331787109375;1.78999999548068;180;-0.024993896484375;100 mA;
15.4810079609142;-0.39691162109375;1.79999999545544;181;-0.02498779296875;100 mA;
15.491007960889;-0.3974609375;1.80999999543019;182;-0.024993896484375;100 mA;
15.5010079608637;-0.39801025390625;1.81999999540494;183;-0.0249969482421875;100 mA;
15.5110079608385;-0.3985595703125;1.82999999537969;184;-0.02498779296875;100 mA;
15.5210079608132;-0.39910888671875;1.83999999535445;185;-0.0249908447265625;100 mA;
15.531007960788;-0.399658203125;1.8499999953292;186;-0.024993896484375;100 mA;
15.5410079607627;-0.40020751953125;1.85999999530395;187;-0.024993896484375;100 mA;
15.5510079607375;-0.4007568359375;1.8699999952787;188;-0.0249908447265625;100 mA;
15.5610079607122;-0.40130615234375;1.87999999525346;189;-0.02498779296875;100 mA;
15.571007960687;-0.40185546875;1.88999999522821;190;-0.024993896484375;100 mA;
15.5810079606617;-0.40240478515625;1.89999999520296;191;-0.0249908447265625;100 mA;
15.5910079606365;-0.4029541015625;1.90999999517771;192;-0.024993896484375;100 mA;
15.6010079606112;-0.403472900390625;1.91999999515247;193;-0.0249908447265625;100 mA;
15.611007960586;-0.404022216796875;1.92999999512722;194;-0.0249908447265625;100 mA;
15.6210079605607;-0.404571533203125;1.93999999510197;195;-0.0249969482421875;100 mA;
15.6310079605355;-0.405120849609375;1.94999999507672;196;-0.02498779296875;100 mA;
15.6410079605103;-0.4056396484375;1.95999999505148;197;-0.0249908447265625;100 mA;
15.651007960485;-0.40618896484375;1.96999999502623;198;-0.024993896484375;100 mA;
15.6610079604598;-0.40673828125;1.97999999500098;199;-0.02498779296875;100 mA;
15.6710079604345;-0.407257080078125;1.98999999497573;200;-0.0249969482421875;100 mA;
15.6810079604093;-0.407806396484375;1.99999999495049;201;-0.0249908447265625;100 mA;
15.691007960384;-0.408355712890625;2.00999999492524;202;-0.0249908447265625;100 mA;
15.7010079603588;-0.40887451171875;2.01999999489999;203;-0.0249908447265625;100 mA;
15.7110079603335;-0.409423828125;2.02999999487474;204;-0.024993896484375;100 mA;
15.7210079603083;-0.409942626953125;2.0399999948495;205;-0.0249908447265625;100 mA;
15.731007960283;-0.410491943359375;2.04999999482425;206;-0.02498779296875;100 mA;
15.7410079602578;-0.4110107421875;2.059999994799;207;-0.024993896484375;100 mA;
15.7510079602325;-0.41156005859375;2.06999999477375;208;-0.0249908447265625;100 mA;
15.7610079602073;-0.412109375;2.0799999947485;209;-0.0249908447265625;100 mA;
15.771007960182;-0.412628173828125;2.08999999472326;210;-0.0249908447265625;100 mA;
15.7810079601568;-0.41314697265625;2.09999999469801;211;-0.024993896484375;100 mA;
15.7910079601315;-0.4136962890625;2.10999999467276;212;-0.024993896484375;100 mA;
15.8010079601063;-0.414215087890625;2.11999999464751;213;-0.024993896484375;100 mA;
15.811007960081;-0.41473388671875;2.12999999462227;214;-0.0249908447265625;100 mA;
15.8210079600558;-0.415252685546875;2.13999999459702;215;-0.0249847412109375;100 mA;
15.8310079600305;-0.415802001953125;2.14999999457177;216;-0.02498779296875;100 mA;
15.8410079600053;-0.41632080078125;2.15999999454652;217;-0.024993896484375;100 mA;
15.8510079599801;-0.416839599609375;2.16999999452128;218;-0.0249908447265625;100 mA;
15.8610079599548;-0.417388916015625;2.17999999449603;219;-0.024993896484375;100 mA;
15.8710079599296;-0.41790771484375;2.18999999447078;220;-0.0249908447265625;100 mA;
15.8810079599043;-0.418426513671875;2.19999999444553;221;-0.0249908447265625;100 mA;
15.8910079598791;-0.4189453125;2.20999999442029;222;-0.0249908447265625;100 mA;
15.9010079598538;-0.419464111328125;2.21999999439504;223;-0.0249969482421875;100 mA;
15.9110079598286;-0.420013427734375;2.22999999436979;224;-0.0249908447265625;100 mA;
15.9210079598033;-0.4205322265625;2.23999999434454;225;-0.0249908447265625;100 mA;
15.9310079597781;-0.421051025390625;2.2499999943193;226;-0.024993896484375;100 mA;
15.9410079597528;-0.42156982421875;2.25999999429405;227;-0.0249908447265625;100 mA;
15.9510079597276;-0.42205810546875;2.2699999942688;228;-0.0249908447265625;100 mA;
15.9610079597023;-0.422576904296875;2.27999999424355;229;-0.0249908447265625;100 mA;
15.9710079596771;-0.423095703125;2.28999999421831;230;-0.024993896484375;100 mA;
15.9810079596518;-0.423614501953125;2.29999999419306;231;-0.024993896484375;100 mA;
15.9910079596266;-0.42413330078125;2.30999999416781;232;-0.024993896484375;100 mA;
16.0010079596013;-0.424652099609375;2.31999999414256;233;-0.024993896484375;100 mA;
16.0110079595761;-0.4251708984375;2.32999999411732;234;-0.0249908447265625;100 mA;
16.0210079595508;-0.4256591796875;2.33999999409207;235;-0.0249908447265625;100 mA;
16.0310079595256;-0.426177978515625;2.34999999406682;236;-0.0249908447265625;100 mA;
16.0410079595003;-0.42669677734375;2.35999999404157;237;-0.0249908447265625;100 mA;
16.0510079594751;-0.427215576171875;2.36999999401633;238;-0.024993896484375;100 mA;
16.0610079594499;-0.427734375;2.37999999399108;239;-0.024993896484375;100 mA;
16.0710079594246;-0.42822265625;2.38999999396583;240;-0.0249908447265625;100 mA;
16.0810079593994;-0.428741455078125;2.39999999394058;241;-0.02498779296875;100 mA;
16.0910079593741;-0.42926025390625;2.40999999391533;242;-0.024993896484375;100 mA;
16.1010079593489;-0.42974853515625;2.41999999389009;243;-0.0249908447265625;100 mA;
16.1110079593236;-0.430267333984375;2.42999999386484;244;-0.0249908447265625;100 mA;
16.1210079592984;-0.430755615234375;2.43999999383959;245;-0.0249908447265625;100 mA;
16.1310079592731;-0.4312744140625;2.44999999381434;246;-0.0249908447265625;100 mA;
16.1410079592479;-0.431793212890625;2.4599999937891;247;-0.02498779296875;100 mA;
16.1510079592226;-0.432281494140625;2.46999999376385;248;-0.024993896484375;100 mA;
16.1610079591974;-0.43280029296875;2.4799999937386;249;-0.024993896484375;100 mA;
16.1710079591721;-0.433319091796875;2.48999999371335;250;-0.0249908447265625;100 mA;
16.1810079591469;-0.433837890625;2.49999999368811;251;-0.024993896484375;100 mA;
16.1910079591216;-0.434326171875;2.50999999366286;252;-0.024993896484375;100 mA;
16.2010079590964;-0.434844970703125;2.51999999363761;253;-0.0249908447265625;100 mA;
16.2110079590711;-0.435333251953125;2.52999999361236;254;-0.024993896484375;100 mA;
16.2210079590459;-0.43585205078125;2.53999999358712;255;-0.024993896484375;100 mA;
16.2310079590206;-0.436370849609375;2.54999999356187;256;-0.0249908447265625;100 mA;
16.2410079589954;-0.436859130859375;2.55999999353662;257;-0.0249908447265625;100 mA;
16.2510079589701;-0.4373779296875;2.56999999351137;258;-0.024993896484375;100 mA;
16.2610079589449;-0.4378662109375;2.57999999348613;259;-0.0249908447265625;100 mA;
16.2710079589197;-0.438385009765625;2.58999999346088;260;-0.0249908447265625;100 mA;
16.2810079588944;-0.43890380859375;2.59999999343563;261;-0.0249908447265625;100 mA;
16.2910079588692;-0.43939208984375;2.60999999341038;262;-0.02498779296875;100 mA;
16.3010079588439;-0.439910888671875;2.61999999338514;263;-0.024993896484375;100 mA;
16.3110079588187;-0.4404296875;2.62999999335989;264;-0.0249908447265625;100 mA;
16.3210079587934;-0.44091796875;2.63999999333464;265;-0.0249908447265625;100 mA;
16.3310079587682;-0.441436767578125;2.64999999330939;266;-0.02498779296875;100 mA;
16.3410079587429;-0.441925048828125;2.65999999328415;267;-0.0249908447265625;100 mA;
16.3510079587177;-0.44244384765625;2.6699999932589;268;-0.0249969482421875;100 mA;
16.3610079586924;-0.442962646484375;2.67999999323365;269;-0.0249908447265625;100 mA;
16.3710079586672;-0.443450927734375;2.6899999932084;270;-0.0249908447265625;100 mA;
16.3810079586419;-0.4439697265625;2.69999999318316;271;-0.024993896484375;100 mA;
16.3910079586167;-0.4444580078125;2.70999999315791;272;-0.0249908447265625;100 mA;
16.4010079585914;-0.444976806640625;2.71999999313266;273;-0.024993896484375;100 mA;
16.4110079585662;-0.445465087890625;2.72999999310741;274;-0.024993896484375;100 mA;
16.4210079585409;-0.44598388671875;2.73999999308217;275;-0.0249908447265625;100 mA;
16.4310079585157;-0.446502685546875;2.74999999305692;276;-0.0249908447265625;100 mA;
16.4410079584904;-0.446990966796875;2.75999999303167;277;-0.02498779296875;100 mA;
16.4510079584652;-0.447509765625;2.76999999300642;278;-0.02498779296875;100 mA;
16.46100795844;-0.448028564453125;2.77999999298117;279;-0.02498779296875;100 mA;
16.4710079584147;-0.448516845703125;2.78999999295593;280;-0.02498779296875;100 mA;
16.4810079583895;-0.44903564453125;2.79999999293068;281;-0.0249908447265625;100 mA;
16.4910079583642;-0.44952392578125;2.80999999290543;282;-0.0249908447265625;100 mA;
16.501007958339;-0.450042724609375;2.81999999288018;283;-0.02498779296875;100 mA;
16.5110079583137;-0.4505615234375;2.82999999285494;284;-0.02498779296875;100 mA;
16.5210079582885;-0.4510498046875;2.83999999282969;285;-0.02498779296875;100 mA;
16.5310079582632;-0.451568603515625;2.84999999280444;286;-0.0249908447265625;100 mA;
16.541007958238;-0.45208740234375;2.85999999277919;287;-0.0249908447265625;100 mA;
16.5510079582127;-0.45257568359375;2.86999999275395;288;-0.024993896484375;100 mA;
16.5610079581875;-0.453094482421875;2.8799999927287;289;-0.0249847412109375;100 mA;
16.5710079581622;-0.453582763671875;2.88999999270345;290;-0.02498779296875;100 mA;
16.581007958137;-0.4541015625;2.8999999926782;291;-0.0249908447265625;100 mA;
16.5910079581117;-0.45458984375;2.90999999265296;292;-0.0250030517578125;100 mA;
16.6010079580865;-0.455108642578125;2.91999999262771;293;-0.0249847412109375;100 mA;
16.6110079580612;-0.45562744140625;2.92999999260246;294;-0.024993896484375;100 mA;
16.621007958036;-0.456146240234375;2.93999999257721;295;-0.0249847412109375;100 mA;
16.6310079580107;-0.4566650390625;2.94999999255197;296;-0.0249908447265625;100 mA;
16.6410079579855;-0.4571533203125;2.95999999252672;297;-0.0249969482421875;100 mA;
16.6510079579602;-0.457672119140625;2.96999999250147;298;-0.02498779296875;100 mA;
16.661007957935;-0.45819091796875;2.97999999247622;299;-0.0249908447265625;100 mA;
16.6710079579098;-0.458709716796875;2.98999999245098;300;-0.024993896484375;100 mA;
16.6810079578845;-0.459228515625;2.99999999242573;301;-0.024993896484375;100 mA;
16.6910079578593;-0.459716796875;3.00999999240048;302;-0.0249908447265625;100 mA;
16.701007957834;-0.460235595703125;3.01999999237523;303;-0.0249908447265625;100 mA;
16.7110079578088;-0.46075439453125;3.02999999234999;304;-0.0249969482421875;100 mA;
16.7210079577835;-0.461273193359375;3.03999999232474;305;-0.02498779296875;100 mA;
16.7310079577583;-0.4617919921875;3.04999999229949;306;-0.024993896484375;100 mA;
16.741007957733;-0.462310791015625;3.05999999227424;307;-0.02498779296875;100 mA;
16.7510079577078;-0.46282958984375;3.069999992249;308;-0.0249908447265625;100 mA;
16.7610079576825;-0.463348388671875;3.07999999222375;309;-0.02498779296875;100 mA;
16.7710079576573;-0.4638671875;3.0899999921985;310;-0.0249908447265625;100 mA;
16.781007957632;-0.464385986328125;3.09999999217325;311;-0.0249969482421875;100 mA;
16.7910079576068;-0.464935302734375;3.109999992148;312;-0.0249908447265625;100 mA;
16.8010079575815;-0.4654541015625;3.11999999212276;313;-0.024993896484375;100 mA;
16.8110079575563;-0.465972900390625;3.12999999209751;314;-0.0249969482421875;100 mA;
16.821007957531;-0.46649169921875;3.13999999207226;315;-0.0249908447265625;100 mA;
16.8310079575058;-0.467041015625;3.14999999204701;316;-0.0249908447265625;100 mA;
16.8410079574805;-0.467559814453125;3.15999999202177;317;-0.02498779296875;100 mA;
16.8510079574553;-0.46807861328125;3.16999999199652;318;-0.024993896484375;100 mA;
16.86100795743;-0.4686279296875;3.17999999197127;319;-0.024993896484375;100 mA;
16.8710079574048;-0.469146728515625;3.18999999194602;320;-0.0249908447265625;100 mA;
16.8810079573796;-0.469696044921875;3.19999999192078;321;-0.02498779296875;100 mA;
16.8910079573543;-0.47021484375;3.20999999189553;322;-0.02498779296875;100 mA;
16.9010079573291;-0.47076416015625;3.21999999187028;323;-0.024993896484375;100 mA;
16.9110079573038;-0.4713134765625;3.22999999184503;324;-0.02498779296875;100 mA;
16.9210079572786;-0.471832275390625;3.23999999181979;325;-0.024993896484375;100 mA;
16.9310079572533;-0.472381591796875;3.24999999179454;326;-0.0249908447265625;100 mA;
16.9410079572281;-0.472930908203125;3.25999999176929;327;-0.024993896484375;100 mA;
16.9510079572028;-0.47344970703125;3.26999999174404;328;-0.0249908447265625;100 mA;
16.9610079571776;-0.4739990234375;3.2799999917188;329;-0.02498779296875;100 mA;
16.9710079571523;-0.47454833984375;3.28999999169355;330;-0.0249908447265625;100 mA;
16.9810079571271;-0.47509765625;3.2999999916683;331;-0.02498779296875;100 mA;
16.9910079571018;-0.47564697265625;3.30999999164305;332;-0.024993896484375;100 mA;
17.0010079570766;-0.4761962890625;3.31999999161781;333;-0.02498779296875;100 mA;
17.0110079570513;-0.47674560546875;3.32999999159256;334;-0.02498779296875;100 mA;
17.0210079570261;-0.477264404296875;3.33999999156731;335;-0.02498779296875;100 mA;
17.0310079570008;-0.47784423828125;3.34999999154206;336;-0.02498779296875;100 mA;
17.0410079569756;-0.4783935546875;3.35999999151682;337;-0.02498779296875;100 mA;
17.0510079569503;-0.47894287109375;3.36999999149157;338;-0.0249908447265625;100 mA;
17.0610079569251;-0.4794921875;3.37999999146632;339;-0.0249908447265625;100 mA;
17.0710079568998;-0.48004150390625;3.38999999144107;340;-0.0249969482421875;100 mA;
17.0810079568746;-0.480621337890625;3.39999999141583;341;-0.0249969482421875;100 mA;
17.0910079568494;-0.481170654296875;3.40999999139058;342;-0.0249908447265625;100 mA;
17.1010079568241;-0.481719970703125;3.41999999136533;343;-0.0249908447265625;100 mA;
17.1110079567989;-0.482269287109375;3.42999999134008;344;-0.0249908447265625;100 mA;
17.1210079567736;-0.48284912109375;3.43999999131483;345;-0.0249969482421875;100 mA;
17.1310079567484;-0.4833984375;3.44999999128959;346;-0.0249908447265625;100 mA;
17.1410079567231;-0.48394775390625;3.45999999126434;347;-0.0249847412109375;100 mA;
17.1510079566979;-0.4844970703125;3.46999999123909;348;-0.02498779296875;100 mA;
17.1610079566726;-0.485076904296875;3.47999999121384;349;-0.0249969482421875;100 mA;
17.1710079566474;-0.485626220703125;3.4899999911886;350;-0.0249908447265625;100 mA;
17.1810079566221;-0.4862060546875;3.49999999116335;351;-0.02498779296875;100 mA;
17.1910079565969;-0.48675537109375;3.5099999911381;352;-0.02498779296875;100 mA;
17.2010079565716;-0.487335205078125;3.51999999111285;353;-0.02498779296875;100 mA;
17.2110079565464;-0.4879150390625;3.52999999108761;354;-0.0249908447265625;100 mA;
17.2210079565211;-0.48846435546875;3.53999999106236;355;-0.02498779296875;100 mA;
17.2310079564959;-0.489044189453125;3.54999999103711;356;-0.02498779296875;100 mA;
17.2410079564706;-0.4896240234375;3.55999999101186;357;-0.024993896484375;100 mA;
17.2510079564454;-0.490203857421875;3.56999999098662;358;-0.024993896484375;100 mA;
17.2610079564201;-0.49078369140625;3.57999999096137;359;-0.024993896484375;100 mA;
17.2710079563949;-0.4913330078125;3.58999999093612;360;-0.02498779296875;100 mA;
17.2810079563696;-0.491912841796875;3.59999999091087;361;-0.02498779296875;100 mA;
17.2910079563444;-0.49249267578125;3.60999999088563;362;-0.0249847412109375;100 mA;
17.3010079563192;-0.493072509765625;3.61999999086038;363;-0.0249908447265625;100 mA;
17.3110079562939;-0.49365234375;3.62999999083513;364;-0.02498779296875;100 mA;
17.3210079562687;-0.49420166015625;3.63999999080988;365;-0.024993896484375;100 mA;
17.3310079562434;-0.49481201171875;3.64999999078464;366;-0.0249908447265625;100 mA;
17.3410079562182;-0.495391845703125;3.65999999075939;367;-0.024993896484375;100 mA;
17.3510079561929;-0.4959716796875;3.66999999073414;368;-0.0249847412109375;100 mA;
17.3610079561677;-0.496551513671875;3.67999999070889;369;-0.0249908447265625;100 mA;
17.3710079561424;-0.49713134765625;3.68999999068365;370;-0.024993896484375;100 mA;
17.3810079561172;-0.49774169921875;3.6999999906584;371;-0.0249969482421875;100 mA;
17.3910079560919;-0.498321533203125;3.70999999063315;372;-0.0249908447265625;100 mA;
17.4010079560667;-0.4989013671875;3.7199999906079;373;-0.0249847412109375;100 mA;
17.4110079560414;-0.49951171875;3.72999999058266;374;-0.024993896484375;100 mA;
17.4210079560162;-0.4998779296875;3.73999999055741;375;-0.0249908447265625;100 mA;
17.4310079559909;-0.50048828125;3.74999999053216;376;-0.02498779296875;100 mA;
17.4410079559657;-0.5010986328125;3.75999999050691;377;-0.0249847412109375;100 mA;
17.4510079559404;-0.501708984375;3.76999999048167;378;-0.0249847412109375;100 mA;
17.4610079559152;-0.5023193359375;3.77999999045642;379;-0.02498779296875;100 mA;
17.4710079558899;-0.5029296875;3.78999999043117;380;-0.024981689453125;100 mA;
17.4810079558647;-0.5035400390625;3.79999999040592;381;-0.0249908447265625;100 mA;
17.4910079558395;-0.504150390625;3.80999999038067;382;-0.02498779296875;100 mA;
17.5010079558142;-0.5047607421875;3.81999999035543;383;-0.02498779296875;100 mA;
17.511007955789;-0.50537109375;3.82999999033018;384;-0.02498779296875;100 mA;
17.5210079557637;-0.5059814453125;3.83999999030493;385;-0.02498779296875;100 mA;
17.5310079557385;-0.506591796875;3.84999999027968;386;-0.02498779296875;100 mA;
17.5410079557132;-0.5072021484375;3.85999999025444;387;-0.02498779296875;100 mA;
17.551007955688;-0.5078125;3.86999999022919;388;-0.02498779296875;100 mA;
17.5610079556627;-0.5084228515625;3.87999999020394;389;-0.0249908447265625;100 mA;
17.5710079556375;-0.509033203125;3.88999999017869;390;-0.024981689453125;100 mA;
17.5810079556122;-0.5096435546875;3.89999999015345;391;-0.0249908447265625;100 mA;
17.591007955587;-0.51025390625;3.9099999901282;392;-0.0249908447265625;100 mA;
17.6010079555617;-0.5108642578125;3.91999999010295;393;-0.02498779296875;100 mA;
17.6110079555365;-0.511474609375;3.9299999900777;394;-0.02498779296875;100 mA;
17.6210079555112;-0.5120849609375;3.93999999005246;395;-0.0249786376953125;100 mA;
17.631007955486;-0.5126953125;3.94999999002721;396;-0.0249908447265625;100 mA;
17.6410079554607;-0.5133056640625;3.95999999000196;397;-0.024993896484375;100 mA;
17.6510079554355;-0.513916015625;3.96999998997671;398;-0.0249847412109375;100 mA;
17.6610079554102;-0.5145263671875;3.97999998995147;399;-0.02498779296875;100 mA;
17.671007955385;-0.51513671875;3.98999998992622;400;-0.02498779296875;100 mA;
17.6810079553597;-0.51605224609375;3.99999998990097;401;-0.0249908447265625;100 mA;
17.6910079553345;-0.51666259765625;4.00999998987572;402;-0.02498779296875;100 mA;
17.7010079553093;-0.51727294921875;4.01999998985048;403;-0.02498779296875;100 mA;
17.711007955284;-0.51788330078125;4.02999998982523;404;-0.0249847412109375;100 mA;
17.7210079552588;-0.51849365234375;4.03999998979998;405;-0.0249908447265625;100 mA;
17.7310079552335;-0.51910400390625;4.04999998977473;406;-0.0249847412109375;100 mA;
17.7410079552083;-0.51971435546875;4.05999998974949;407;-0.0249908447265625;100 mA;
17.751007955183;-0.52032470703125;4.06999998972424;408;-0.0249847412109375;100 mA;
17.7610079551578;-0.52093505859375;4.07999998969899;409;-0.024993896484375;100 mA;
17.7710079551325;-0.5218505859375;4.08999998967374;410;-0.02498779296875;100 mA;
17.7810079551073;-0.5224609375;4.0999999896485;411;-0.02498779296875;100 mA;
17.791007955082;-0.5230712890625;4.10999998962325;412;-0.0249908447265625;100 mA;
17.8010079550568;-0.523681640625;4.119999989598;413;-0.02498779296875;100 mA;
17.8110079550315;-0.5242919921875;4.12999998957275;414;-0.02498779296875;100 mA;
17.8210079550063;-0.52490234375;4.1399999895475;415;-0.024993896484375;100 mA;
17.831007954981;-0.52581787109375;4.14999998952226;416;-0.0249908447265625;100 mA;
17.8410079549558;-0.52642822265625;4.15999998949701;417;-0.0249908447265625;100 mA;
17.8510079549305;-0.52703857421875;4.16999998947176;418;-0.02498779296875;100 mA;
17.8610079549053;-0.52764892578125;4.17999998944651;419;-0.02498779296875;100 mA;
17.87100795488;-0.528564453125;4.18999998942127;420;-0.02498779296875;100 mA;
17.8810079548548;-0.5291748046875;4.19999998939602;421;-0.0249908447265625;100 mA;
17.8910079548295;-0.52978515625;4.20999998937077;422;-0.0249847412109375;100 mA;
17.9010079548043;-0.5303955078125;4.21999998934552;423;-0.02498779296875;100 mA;
17.9110079547791;-0.53131103515625;4.22999998932028;424;-0.02498779296875;100 mA;
17.9210079547538;-0.53192138671875;4.23999998929503;425;-0.0249908447265625;100 mA;
17.9310079547286;-0.53253173828125;4.24999998926978;426;-0.0249969482421875;100 mA;
17.9410079547033;-0.53314208984375;4.25999998924453;427;-0.0249908447265625;100 mA;
17.9510079546781;-0.5340576171875;4.26999998921929;428;-0.02498779296875;100 mA;
17.9610079546528;-0.53466796875;4.27999998919404;429;-0.024993896484375;100 mA;
17.9710079546276;-0.5352783203125;4.28999998916879;430;-0.02498779296875;100 mA;
17.9810079546023;-0.53619384765625;4.29999998914354;431;-0.0249847412109375;100 mA;
17.9910079545771;-0.53680419921875;4.3099999891183;432;-0.02498779296875;100 mA;
18.0010079545518;-0.53741455078125;4.31999998909305;433;-0.024981689453125;100 mA;
18.0110079545266;-0.538330078125;4.3299999890678;434;-0.02498779296875;100 mA;
18.0210079545013;-0.5389404296875;4.33999998904255;435;-0.02498779296875;100 mA;
18.0310079544761;-0.53985595703125;4.34999998901731;436;-0.02498779296875;100 mA;
18.0410079544508;-0.54046630859375;4.35999998899206;437;-0.0249908447265625;100 mA;
18.0510079544256;-0.54107666015625;4.36999998896681;438;-0.02498779296875;100 mA;
18.0610079544003;-0.5419921875;4.37999998894156;439;-0.02498779296875;100 mA;
18.0710079543751;-0.5426025390625;4.38999998891632;440;-0.02498779296875;100 mA;
18.0810079543498;-0.54351806640625;4.39999998889107;441;-0.0249908447265625;100 mA;
18.0910079543246;-0.54412841796875;4.40999998886582;442;-0.0249847412109375;100 mA;
18.1010079542993;-0.54473876953125;4.41999998884057;443;-0.0249847412109375;100 mA;
18.1110079542741;-0.545654296875;4.42999998881533;444;-0.0249908447265625;100 mA;
18.1210079542489;-0.5462646484375;4.43999998879008;445;-0.0249908447265625;100 mA;
18.1310079542236;-0.54718017578125;4.44999998876483;446;-0.0249908447265625;100 mA;
18.1410079541984;-0.54779052734375;4.45999998873958;447;-0.02498779296875;100 mA;
18.1510079541731;-0.5487060546875;4.46999998871433;448;-0.0249847412109375;100 mA;
18.1610079541479;-0.54931640625;4.47999998868909;449;-0.0249908447265625;100 mA;
18.1710079541226;-0.55023193359375;4.48999998866384;450;-0.024993896484375;100 mA;
18.1810079540974;-0.55084228515625;4.49999998863859;451;-0.0249908447265625;100 mA;
18.1910079540721;-0.5517578125;4.50999998861334;452;-0.024993896484375;100 mA;
18.2010079540469;-0.5523681640625;4.5199999885881;453;-0.0249847412109375;100 mA;
18.2110079540216;-0.55328369140625;4.52999998856285;454;-0.024981689453125;100 mA;
18.2210079539964;-0.55419921875;4.5399999885376;455;-0.0249847412109375;100 mA;
18.2310079539711;-0.5548095703125;4.54999998851235;456;-0.0249908447265625;100 mA;
18.2410079539459;-0.55572509765625;4.55999998848711;457;-0.0249908447265625;100 mA;
18.2510079539206;-0.55633544921875;4.56999998846186;458;-0.0249908447265625;100 mA;
18.2610079538954;-0.5572509765625;4.57999998843661;459;-0.0249847412109375;100 mA;
18.2710079538701;-0.55816650390625;4.58999998841136;460;-0.0249847412109375;100 mA;
18.2810079538449;-0.55908203125;4.59999998838612;461;-0.02498779296875;100 mA;
18.2910079538196;-0.5596923828125;4.60999998836087;462;-0.0249847412109375;100 mA;
18.3010079537944;-0.56060791015625;4.61999998833562;463;-0.0249847412109375;100 mA;
18.3110079537691;-0.5615234375;4.62999998831037;464;-0.02498779296875;100 mA;
18.3210079537439;-0.5621337890625;4.63999998828513;465;-0.02498779296875;100 mA;
18.3310079537187;-0.56304931640625;4.64999998825988;466;-0.0249847412109375;100 mA;
18.3410079536934;-0.56396484375;4.65999998823463;467;-0.02498779296875;100 mA;
18.3510079536682;-0.56488037109375;4.66999998820938;468;-0.02498779296875;100 mA;
18.3610079536429;-0.56549072265625;4.67999998818414;469;-0.0249847412109375;100 mA;
18.3710079536177;-0.56640625;4.68999998815889;470;-0.02498779296875;100 mA;
18.3810079535924;-0.56732177734375;4.69999998813364;471;-0.0249786376953125;100 mA;
18.3910079535672;-0.5682373046875;4.70999998810839;472;-0.024993896484375;100 mA;
18.4010079535419;-0.56915283203125;4.71999998808315;473;-0.0249908447265625;100 mA;
18.4110079535167;-0.570068359375;4.7299999880579;474;-0.02498779296875;100 mA;
18.4210079534914;-0.5706787109375;4.73999998803265;475;-0.0249847412109375;100 mA;
18.4310079534662;-0.57159423828125;4.7499999880074;476;-0.0249847412109375;100 mA;
18.4410079534409;-0.572509765625;4.75999998798216;477;-0.0249908447265625;100 mA;
18.4510079534157;-0.57342529296875;4.76999998795691;478;-0.0249908447265625;100 mA;
18.4610079533904;-0.5743408203125;4.77999998793166;479;-0.0249908447265625;100 mA;
18.4710079533652;-0.57525634765625;4.78999998790641;480;-0.024993896484375;100 mA;
18.4810079533399;-0.576171875;4.79999998788116;481;-0.0249908447265625;100 mA;
18.4910079533147;-0.57708740234375;4.80999998785592;482;-0.02498779296875;100 mA;
18.5010079532894;-0.5780029296875;4.81999998783067;483;-0.02498779296875;100 mA;
18.5110079532642;-0.57891845703125;4.82999998780542;484;-0.0249908447265625;100 mA;
18.5210079532389;-0.579833984375;4.83999998778017;485;-0.0249908447265625;100 mA;
18.5310079532137;-0.58074951171875;4.84999998775493;486;-0.02498779296875;100 mA;
18.5410079531885;-0.5816650390625;4.85999998772968;487;-0.0249908447265625;100 mA;
18.5510079531632;-0.5828857421875;4.86999998770443;488;-0.02498779296875;100 mA;
18.561007953138;-0.58380126953125;4.87999998767918;489;-0.02498779296875;100 mA;
18.5710079531127;-0.584716796875;4.88999998765394;490;-0.0249908447265625;100 mA;
18.5810079530875;-0.58563232421875;4.89999998762869;491;-0.024993896484375;100 mA;
18.5910079530622;-0.58685302734375;4.90999998760344;492;-0.02498779296875;100 mA;
18.601007953037;-0.5877685546875;4.91999998757819;493;-0.02498779296875;100 mA;
18.6110079530117;-0.58868408203125;4.92999998755295;494;-0.02498779296875;100 mA;
18.6210079529865;-0.58990478515625;4.9399999875277;495;-0.0249908447265625;100 mA;
18.6310079529612;-0.5908203125;4.94999998750245;496;-0.0249847412109375;100 mA;
18.641007952936;-0.59173583984375;4.9599999874772;497;-0.02498779296875;100 mA;
18.6510079529107;-0.59295654296875;4.96999998745196;498;-0.02498779296875;100 mA;
18.6610079528855;-0.5938720703125;4.97999998742671;499;-0.02498779296875;100 mA;
18.6710079528602;-0.5950927734375;4.98999998740146;500;-0.02498779296875;100 mA;
18.681007952835;-0.5963134765625;4.99999998737621;501;-0.02498779296875;100 mA;
18.6910079528097;-0.59722900390625;5.00999998735097;502;-0.0249908447265625;100 mA;
18.7010079527845;-0.59844970703125;5.01999998732572;503;-0.0249908447265625;100 mA;
18.7110079527592;-0.599365234375;5.02999998730047;504;-0.0249908447265625;100 mA;
18.721007952734;-0.6005859375;5.03999998727522;505;-0.024993896484375;100 mA;
18.7310079527088;-0.601806640625;5.04999998724998;506;-0.024981689453125;100 mA;
18.7410079526835;-0.60302734375;5.05999998722473;507;-0.02498779296875;100 mA;
18.7510079526583;-0.604248046875;5.06999998719948;508;-0.0249908447265625;100 mA;
18.761007952633;-0.60546875;5.07999998717423;509;-0.024993896484375;100 mA;
18.7710079526078;-0.606689453125;5.08999998714899;510;-0.02498779296875;100 mA;
18.7810079525825;-0.60791015625;5.09999998712374;511;-0.0249847412109375;100 mA;
18.7910079525573;-0.609130859375;5.10999998709849;512;-0.024993896484375;100 mA;
18.801007952532;-0.6103515625;5.11999998707324;513;-0.02498779296875;100 mA;
18.8110079525068;-0.611572265625;5.129999987048;514;-0.0249847412109375;100 mA;
18.8210079524815;-0.61279296875;5.13999998702275;515;-0.0249908447265625;100 mA;
18.8310079524563;-0.614013671875;5.1499999869975;516;-0.02498779296875;100 mA;
18.841007952431;-0.61553955078125;5.15999998697225;517;-0.0249847412109375;100 mA;
18.8510079524058;-0.61676025390625;5.169999986947;518;-0.02498779296875;100 mA;
18.8610079523805;-0.6182861328125;5.17999998692176;519;-0.024981689453125;100 mA;
18.8710079523553;-0.6195068359375;5.18999998689651;520;-0.02498779296875;100 mA;
18.88100795233;-0.62103271484375;5.19999998687126;521;-0.0249847412109375;100 mA;
18.8910079523048;-0.62225341796875;5.20999998684601;522;-0.0249908447265625;100 mA;
18.9010079522795;-0.623779296875;5.21999998682077;523;-0.02498779296875;100 mA;
18.9110079522543;-0.62530517578125;5.22999998679552;524;-0.0249908447265625;100 mA;
18.921007952229;-0.6268310546875;5.23999998677027;525;-0.0249908447265625;100 mA;
18.9310079522038;-0.6280517578125;5.24999998674502;526;-0.0249908447265625;100 mA;
18.9410079521786;-0.62957763671875;5.25999998671978;527;-0.02498779296875;100 mA;
18.9510079521533;-0.631103515625;5.26999998669453;528;-0.02498779296875;100 mA;
18.9610079521281;-0.63262939453125;5.27999998666928;529;-0.02498779296875;100 mA;
18.9710079521028;-0.6341552734375;5.28999998664403;530;-0.02498779296875;100 mA;
18.9810079520776;-0.635986328125;5.29999998661879;531;-0.02498779296875;100 mA;
18.9910079520523;-0.63751220703125;5.30999998659354;532;-0.024981689453125;100 mA;
19.0010079520271;-0.63934326171875;5.31999998656829;533;-0.024981689453125;100 mA;
19.0110079520018;-0.640869140625;5.32999998654304;534;-0.02498779296875;100 mA;
19.0210079519766;-0.6427001953125;5.3399999865178;535;-0.0249847412109375;100 mA;
19.0310079519513;-0.64422607421875;5.34999998649255;536;-0.02498779296875;100 mA;
19.0410079519261;-0.64605712890625;5.3599999864673;537;-0.024981689453125;100 mA;
19.0510079519008;-0.64788818359375;5.36999998644205;538;-0.02498779296875;100 mA;
19.0610079518756;-0.64971923828125;5.37999998641681;539;-0.024993896484375;100 mA;
19.0710079518503;-0.65155029296875;5.38999998639156;540;-0.02498779296875;100 mA;
19.0810079518251;-0.65338134765625;5.39999998636631;541;-0.0249847412109375;100 mA;
19.0910079517998;-0.655517578125;5.40999998634106;542;-0.02498779296875;100 mA;
19.1010079517746;-0.6573486328125;5.41999998631582;543;-0.0249847412109375;100 mA;
19.1110079517493;-0.65948486328125;5.42999998629057;544;-0.0249908447265625;100 mA;
19.1210079517241;-0.66131591796875;5.43999998626532;545;-0.0249847412109375;100 mA;
19.1310079516988;-0.6634521484375;5.44999998624007;546;-0.0249847412109375;100 mA;
19.1410079516736;-0.66558837890625;5.45999998621483;547;-0.02498779296875;100 mA;
19.1510079516484;-0.667724609375;5.46999998618958;548;-0.02498779296875;100 mA;
19.1610079516231;-0.66986083984375;5.47999998616433;549;-0.0249847412109375;100 mA;
19.1710079515979;-0.67230224609375;5.48999998613908;550;-0.02498779296875;100 mA;
19.1810079515726;-0.6744384765625;5.49999998611383;551;-0.02498779296875;100 mA;
19.1910079515474;-0.6768798828125;5.50999998608859;552;-0.02498779296875;100 mA;
19.2010079515221;-0.67901611328125;5.51999998606334;553;-0.02498779296875;100 mA;
19.2110079514969;-0.68145751953125;5.52999998603809;554;-0.0249908447265625;100 mA;
19.2210079514716;-0.68389892578125;5.53999998601284;555;-0.0249847412109375;100 mA;
19.2310079514464;-0.6866455078125;5.5499999859876;556;-0.02498779296875;100 mA;
19.2410079514211;-0.6890869140625;5.55999998596235;557;-0.0249908447265625;100 mA;
19.2510079513959;-0.6915283203125;5.5699999859371;558;-0.024981689453125;100 mA;
19.2610079513706;-0.69427490234375;5.57999998591185;559;-0.0249847412109375;100 mA;
19.2710079513454;-0.697021484375;5.58999998588661;560;-0.02498779296875;100 mA;
19.2810079513201;-0.69976806640625;5.59999998586136;561;-0.0249786376953125;100 mA;
19.2910079512949;-0.7025146484375;5.60999998583611;562;-0.0249847412109375;100 mA;
19.3010079512696;-0.70556640625;5.61999998581086;563;-0.02498779296875;100 mA;
19.3110079512444;-0.7086181640625;5.62999998578562;564;-0.02498779296875;100 mA;
19.3210079512191;-0.711669921875;5.63999998576037;565;-0.02498779296875;100 mA;
19.3310079511939;-0.7147216796875;5.64999998573512;566;-0.02498779296875;100 mA;
19.3410079511686;-0.7177734375;5.65999998570987;567;-0.0249908447265625;100 mA;
19.3510079511434;-0.72113037109375;5.66999998568463;568;-0.0249908447265625;100 mA;
19.3610079511182;-0.7244873046875;5.67999998565938;569;-0.0249847412109375;100 mA;
19.3710079510929;-0.72784423828125;5.68999998563413;570;-0.0249847412109375;100 mA;
19.3810079510677;-0.73150634765625;5.69999998560888;571;-0.0249908447265625;100 mA;
19.3910079510424;-0.73486328125;5.70999998558364;572;-0.024981689453125;100 mA;
19.4010079510172;-0.738525390625;5.71999998555839;573;-0.024981689453125;100 mA;
19.4110079509919;-0.74249267578125;5.72999998553314;574;-0.0249847412109375;100 mA;
19.4210079509667;-0.74615478515625;5.73999998550789;575;-0.0249847412109375;100 mA;
19.4310079509414;-0.7501220703125;5.74999998548265;576;-0.02498779296875;100 mA;
19.4410079509162;-0.75408935546875;5.7599999854574;577;-0.0249908447265625;100 mA;
19.4510079508909;-0.75836181640625;5.76999998543215;578;-0.024981689453125;100 mA;
19.4610079508657;-0.7623291015625;5.7799999854069;579;-0.0249908447265625;100 mA;
19.4710079508404;-0.7666015625;5.78999998538166;580;-0.02498779296875;100 mA;
19.4810079508152;-0.77117919921875;5.79999998535641;581;-0.0249908447265625;100 mA;
19.4910079507899;-0.77545166015625;5.80999998533116;582;-0.0249908447265625;100 mA;
19.5010079507647;-0.780029296875;5.81999998530591;583;-0.0249908447265625;100 mA;
19.5110079507394;-0.78460693359375;5.82999998528066;584;-0.0249847412109375;100 mA;
19.5210079507142;-0.78948974609375;5.83999998525542;585;-0.024981689453125;100 mA;
19.5310079506889;-0.79437255859375;5.84999998523017;586;-0.02498779296875;100 mA;
19.5410079506637;-0.79925537109375;5.85999998520492;587;-0.0249847412109375;100 mA;
19.5510079506384;-0.804443359375;5.86999998517967;588;-0.0249908447265625;100 mA;WE(1).Potential < -0.8 V
19.5610079506132;-0.80963134765625;5.87999998515443;589;-0.02498779296875;100 mA;WE(1).Potential < -0.8 V
19.571007950588;-0.8148193359375;5.88999998512918;590;-0.02498779296875;100 mA;WE(1).Potential < -0.8 V
19.5810079505627;-0.8203125;5.89999998510393;591;-0.0249847412109375;100 mA;WE(1).Potential < -0.8 V
