Time (s);WE(1).Potential (V);Corrected time (s);Index;WE(1).Current (A);Current range;Cutoffs
143.541329637593;-0.140533447265625;0;1;-0.035009765625;100 mA;
143.551329637568;-0.165496826171875;0.00999999997475243;2;-0.035003662109375;100 mA;
143.561329637542;-0.181884765625;0.0199999999495049;3;-0.0350067138671875;100 mA;
143.571329637517;-0.194122314453125;0.0299999999242573;4;-0.035009765625;100 mA;
143.581329637492;-0.203857421875;0.0399999998990097;5;-0.035009765625;100 mA;
143.591329637467;-0.211944580078125;0.0499999998737621;6;-0.035009765625;100 mA;
143.601329637441;-0.21893310546875;0.0599999998485146;7;-0.035009765625;100 mA;
143.611329637416;-0.225067138671875;0.069999999823267;8;-0.0350067138671875;100 mA;
143.621329637391;-0.230560302734375;0.0799999997980194;9;-0.0350067138671875;100 mA;
143.631329637366;-0.235565185546875;0.0899999997727718;10;-0.035009765625;100 mA;
143.641329637341;-0.240203857421875;0.0999999997475243;11;-0.035009765625;100 mA;
143.651329637315;-0.244537353515625;0.109999999722277;12;-0.0350067138671875;100 mA;
143.66132963729;-0.24859619140625;0.119999999697029;13;-0.0350128173828125;100 mA;
143.671329637265;-0.25244140625;0.129999999671782;14;-0.0350128173828125;100 mA;
143.68132963724;-0.256134033203125;0.139999999646534;15;-0.0350067138671875;100 mA;
143.691329637214;-0.2596435546875;0.149999999621286;16;-0.035009765625;100 mA;
143.701329637189;-0.263031005859375;0.159999999596039;17;-0.0350006103515625;100 mA;
143.711329637164;-0.26629638671875;0.169999999570791;18;-0.0350067138671875;100 mA;
143.721329637139;-0.26947021484375;0.179999999545544;19;-0.035003662109375;100 mA;
143.731329637113;-0.27252197265625;0.189999999520296;20;-0.0350128173828125;100 mA;
143.741329637088;-0.2755126953125;0.199999999495049;21;-0.0350067138671875;100 mA;
143.751329637063;-0.278411865234375;0.209999999469801;22;-0.0350128173828125;100 mA;
143.761329637038;-0.281219482421875;0.219999999444553;23;-0.0350067138671875;100 mA;
143.771329637012;-0.283966064453125;0.229999999419306;24;-0.035003662109375;100 mA;
143.781329636987;-0.286651611328125;0.239999999394058;25;-0.035003662109375;100 mA;
143.791329636962;-0.28924560546875;0.249999999368811;26;-0.035009765625;100 mA;
143.801329636937;-0.29180908203125;0.259999999343563;27;-0.035009765625;100 mA;
143.811329636911;-0.294281005859375;0.269999999318316;28;-0.0350006103515625;100 mA;
143.821329636886;-0.296722412109375;0.279999999293068;29;-0.035009765625;100 mA;
143.831329636861;-0.299072265625;0.28999999926782;30;-0.035009765625;100 mA;
143.841329636836;-0.3013916015625;0.299999999242573;31;-0.035009765625;100 mA;
143.85132963681;-0.303680419921875;0.309999999217325;32;-0.0350128173828125;100 mA;
143.861329636785;-0.305877685546875;0.319999999192078;33;-0.035009765625;100 mA;
143.87132963676;-0.30804443359375;0.32999999916683;34;-0.035009765625;100 mA;
143.881329636735;-0.3101806640625;0.339999999141583;35;-0.035009765625;100 mA;
143.891329636709;-0.312255859375;0.349999999116335;36;-0.035003662109375;100 mA;
143.901329636684;-0.3143310546875;0.359999999091087;37;-0.035009765625;100 mA;
143.911329636659;-0.316314697265625;0.36999999906584;38;-0.0350006103515625;100 mA;
143.921329636634;-0.31829833984375;0.379999999040592;39;-0.035003662109375;100 mA;
143.931329636608;-0.320220947265625;0.389999999015345;40;-0.035003662109375;100 mA;
143.941329636583;-0.322113037109375;0.399999998990097;41;-0.035009765625;100 mA;
143.951329636558;-0.324005126953125;0.40999999896485;42;-0.035009765625;100 mA;
143.961329636533;-0.325836181640625;0.419999998939602;43;-0.0350067138671875;100 mA;
143.971329636507;-0.32763671875;0.429999998914354;44;-0.0350067138671875;100 mA;
143.981329636482;-0.32940673828125;0.439999998889107;45;-0.035003662109375;100 mA;
143.991329636457;-0.331146240234375;0.449999998863859;46;-0.0350128173828125;100 mA;
144.001329636432;-0.3328857421875;0.459999998838612;47;-0.035003662109375;100 mA;
144.011329636406;-0.334564208984375;0.469999998813364;48;-0.035009765625;100 mA;
144.021329636381;-0.33624267578125;0.479999998788116;49;-0.035003662109375;100 mA;
144.031329636356;-0.337890625;0.489999998762869;50;-0.0350128173828125;100 mA;
144.041329636331;-0.339508056640625;0.499999998737621;51;-0.035009765625;100 mA;
144.051329636305;-0.34112548828125;0.509999998712374;52;-0.0350067138671875;100 mA;
144.06132963628;-0.34271240234375;0.519999998687126;53;-0.035009765625;100 mA;
144.071329636255;-0.344268798828125;0.529999998661879;54;-0.035003662109375;100 mA;
144.08132963623;-0.3458251953125;0.539999998636631;55;-0.035003662109375;100 mA;
144.091329636204;-0.34735107421875;0.549999998611383;56;-0.035003662109375;100 mA;
144.101329636179;-0.348846435546875;0.559999998586136;57;-0.0350067138671875;100 mA;
144.111329636154;-0.350341796875;0.569999998560888;58;-0.0350006103515625;100 mA;
144.121329636129;-0.351806640625;0.579999998535641;59;-0.0350067138671875;100 mA;
144.131329636103;-0.353271484375;0.589999998510393;60;-0.0350067138671875;100 mA;
144.141329636078;-0.354736328125;0.599999998485146;61;-0.035003662109375;100 mA;
144.151329636053;-0.356170654296875;0.609999998459898;62;-0.0350067138671875;100 mA;
144.161329636028;-0.357574462890625;0.61999999843465;63;-0.0350067138671875;100 mA;
144.171329636002;-0.358978271484375;0.629999998409403;64;-0.035009765625;100 mA;
144.181329635977;-0.3603515625;0.639999998384155;65;-0.035003662109375;100 mA;
144.191329635952;-0.361724853515625;0.649999998358908;66;-0.0350067138671875;100 mA;
144.201329635927;-0.36309814453125;0.65999999833366;67;-0.0350128173828125;100 mA;
144.211329635901;-0.36444091796875;0.669999998308413;68;-0.0350067138671875;100 mA;
144.221329635876;-0.365814208984375;0.679999998283165;69;-0.0350067138671875;100 mA;
144.231329635851;-0.36712646484375;0.689999998257917;70;-0.0350067138671875;100 mA;
144.241329635826;-0.368438720703125;0.69999999823267;71;-0.0350067138671875;100 mA;
144.2513296358;-0.3697509765625;0.709999998207422;72;-0.0350067138671875;100 mA;
144.261329635775;-0.371063232421875;0.719999998182175;73;-0.0350067138671875;100 mA;
144.27132963575;-0.372344970703125;0.729999998156927;74;-0.0350067138671875;100 mA;
144.281329635725;-0.373626708984375;0.73999999813168;75;-0.035003662109375;100 mA;
144.291329635699;-0.374908447265625;0.749999998106432;76;-0.0350006103515625;100 mA;
144.301329635674;-0.376190185546875;0.759999998081184;77;-0.0350006103515625;100 mA;
144.311329635649;-0.377410888671875;0.769999998055937;78;-0.035003662109375;100 mA;
144.321329635624;-0.378692626953125;0.779999998030689;79;-0.03499755859375;100 mA;
144.331329635598;-0.379913330078125;0.789999998005442;80;-0.035003662109375;100 mA;
144.341329635573;-0.38116455078125;0.799999997980194;81;-0.0350067138671875;100 mA;
144.351329635548;-0.38238525390625;0.809999997954947;82;-0.0350067138671875;100 mA;
144.361329635523;-0.38360595703125;0.819999997929699;83;-0.0350006103515625;100 mA;
144.371329635497;-0.38482666015625;0.829999997904451;84;-0.035003662109375;100 mA;
144.381329635472;-0.386016845703125;0.839999997879204;85;-0.0350067138671875;100 mA;
144.391329635447;-0.38720703125;0.849999997853956;86;-0.0350067138671875;100 mA;
144.401329635422;-0.388427734375;0.859999997828709;87;-0.0350067138671875;100 mA;
144.411329635396;-0.389617919921875;0.869999997803461;88;-0.035009765625;100 mA;
144.421329635371;-0.390777587890625;0.879999997778214;89;-0.0350067138671875;100 mA;
144.431329635346;-0.3919677734375;0.889999997752966;90;-0.0350067138671875;100 mA;
144.441329635321;-0.39312744140625;0.899999997727718;91;-0.0350006103515625;100 mA;
144.451329635295;-0.394317626953125;0.909999997702471;92;-0.035003662109375;100 mA;
144.46132963527;-0.395477294921875;0.919999997677223;93;-0.0350067138671875;100 mA;
144.471329635245;-0.396636962890625;0.929999997651976;94;-0.0350067138671875;100 mA;
144.48132963522;-0.397796630859375;0.939999997626728;95;-0.035003662109375;100 mA;
144.491329635194;-0.39892578125;0.949999997601481;96;-0.035003662109375;100 mA;
144.501329635169;-0.40008544921875;0.959999997576233;97;-0.0350067138671875;100 mA;
144.511329635144;-0.401214599609375;0.969999997550985;98;-0.0350067138671875;100 mA;
144.521329635119;-0.40234375;0.979999997525738;99;-0.035009765625;100 mA;
144.531329635093;-0.40350341796875;0.98999999750049;100;-0.0350067138671875;100 mA;
144.541329635068;-0.40460205078125;0.999999997475243;101;-0.035003662109375;100 mA;
144.551329635043;-0.40576171875;1.00999999745;102;-0.0350067138671875;100 mA;
144.561329635018;-0.4068603515625;1.01999999742475;103;-0.035003662109375;100 mA;
144.571329634992;-0.407989501953125;1.0299999973995;104;-0.035009765625;100 mA;
144.581329634967;-0.40911865234375;1.03999999737425;105;-0.035009765625;100 mA;
144.591329634942;-0.41021728515625;1.049999997349;106;-0.035009765625;100 mA;
144.601329634917;-0.411346435546875;1.05999999732376;107;-0.035003662109375;100 mA;
144.611329634891;-0.412445068359375;1.06999999729851;108;-0.0350067138671875;100 mA;
144.621329634866;-0.413543701171875;1.07999999727326;109;-0.0350067138671875;100 mA;
144.631329634841;-0.414642333984375;1.08999999724801;110;-0.0350067138671875;100 mA;
144.641329634816;-0.415740966796875;1.09999999722277;111;-0.0350006103515625;100 mA;
144.65132963479;-0.416839599609375;1.10999999719752;112;-0.0350067138671875;100 mA;
144.661329634765;-0.417938232421875;1.11999999717227;113;-0.0350067138671875;100 mA;
144.67132963474;-0.419036865234375;1.12999999714702;114;-0.035009765625;100 mA;
144.681329634715;-0.420135498046875;1.13999999712178;115;-0.0350067138671875;100 mA;
144.69132963469;-0.421234130859375;1.14999999709653;116;-0.0350006103515625;100 mA;
144.701329634664;-0.42230224609375;1.15999999707128;117;-0.0350067138671875;100 mA;
144.711329634639;-0.423370361328125;1.16999999704603;118;-0.0350067138671875;100 mA;
144.721329634614;-0.424468994140625;1.17999999702079;119;-0.0350067138671875;100 mA;
144.731329634589;-0.425567626953125;1.18999999699554;120;-0.0350067138671875;100 mA;
144.741329634563;-0.4266357421875;1.19999999697029;121;-0.0350067138671875;100 mA;
144.751329634538;-0.427734375;1.20999999694504;122;-0.0350128173828125;100 mA;
144.761329634513;-0.428802490234375;1.2199999969198;123;-0.0350067138671875;100 mA;
144.771329634488;-0.429901123046875;1.22999999689455;124;-0.0350006103515625;100 mA;
144.781329634462;-0.43096923828125;1.2399999968693;125;-0.035003662109375;100 mA;
144.791329634437;-0.43206787109375;1.24999999684405;126;-0.035003662109375;100 mA;
144.801329634412;-0.433135986328125;1.25999999681881;127;-0.0350006103515625;100 mA;
144.811329634387;-0.434234619140625;1.26999999679356;128;-0.035003662109375;100 mA;
144.821329634361;-0.435302734375;1.27999999676831;129;-0.035009765625;100 mA;
144.831329634336;-0.4364013671875;1.28999999674306;130;-0.0350067138671875;100 mA;
144.841329634311;-0.437469482421875;1.29999999671782;131;-0.035009765625;100 mA;
144.851329634286;-0.438568115234375;1.30999999669257;132;-0.035003662109375;100 mA;
144.86132963426;-0.43963623046875;1.31999999666732;133;-0.0350067138671875;100 mA;
144.871329634235;-0.44073486328125;1.32999999664207;134;-0.035009765625;100 mA;
144.88132963421;-0.441802978515625;1.33999999661683;135;-0.0350067138671875;100 mA;
144.891329634185;-0.442901611328125;1.34999999659158;136;-0.0350067138671875;100 mA;
144.901329634159;-0.444000244140625;1.35999999656633;137;-0.035003662109375;100 mA;
144.911329634134;-0.445068359375;1.36999999654108;138;-0.0350067138671875;100 mA;
144.921329634109;-0.446136474609375;1.37999999651583;139;-0.0350067138671875;100 mA;
144.931329634084;-0.447235107421875;1.38999999649059;140;-0.0350006103515625;100 mA;
144.941329634058;-0.448333740234375;1.39999999646534;141;-0.035009765625;100 mA;
144.951329634033;-0.449432373046875;1.40999999644009;142;-0.035003662109375;100 mA;
144.961329634008;-0.450531005859375;1.41999999641484;143;-0.0350067138671875;100 mA;
144.971329633983;-0.451629638671875;1.4299999963896;144;-0.0350006103515625;100 mA;
144.981329633957;-0.45269775390625;1.43999999636435;145;-0.035003662109375;100 mA;
144.991329633932;-0.45379638671875;1.4499999963391;146;-0.0350067138671875;100 mA;
145.001329633907;-0.45489501953125;1.45999999631385;147;-0.0350006103515625;100 mA;
145.011329633882;-0.45599365234375;1.46999999628861;148;-0.035003662109375;100 mA;
145.021329633856;-0.45709228515625;1.47999999626336;149;-0.0350067138671875;100 mA;
145.031329633831;-0.458221435546875;1.48999999623811;150;-0.035003662109375;100 mA;
145.041329633806;-0.459320068359375;1.49999999621286;151;-0.0350067138671875;100 mA;
145.051329633781;-0.46044921875;1.50999999618762;152;-0.035003662109375;100 mA;
145.061329633755;-0.4615478515625;1.51999999616237;153;-0.035009765625;100 mA;
145.07132963373;-0.462677001953125;1.52999999613712;154;-0.0350067138671875;100 mA;
145.081329633705;-0.463775634765625;1.53999999611187;155;-0.035003662109375;100 mA;
145.09132963368;-0.46490478515625;1.54999999608663;156;-0.035003662109375;100 mA;
145.101329633654;-0.466033935546875;1.55999999606138;157;-0.03499755859375;100 mA;
145.111329633629;-0.4671630859375;1.56999999603613;158;-0.0350006103515625;100 mA;
145.121329633604;-0.468292236328125;1.57999999601088;159;-0.035003662109375;100 mA;
145.131329633579;-0.46942138671875;1.58999999598564;160;-0.0350006103515625;100 mA;
145.141329633553;-0.4705810546875;1.59999999596039;161;-0.035009765625;100 mA;
145.151329633528;-0.47174072265625;1.60999999593514;162;-0.0350006103515625;100 mA;
145.161329633503;-0.472869873046875;1.61999999590989;163;-0.03499755859375;100 mA;
145.171329633478;-0.474029541015625;1.62999999588465;164;-0.035009765625;100 mA;
145.181329633452;-0.475189208984375;1.6399999958594;165;-0.0350067138671875;100 mA;
145.191329633427;-0.476348876953125;1.64999999583415;166;-0.0350067138671875;100 mA;
145.201329633402;-0.477508544921875;1.6599999958089;167;-0.035003662109375;100 mA;
145.211329633377;-0.478668212890625;1.66999999578366;168;-0.0350067138671875;100 mA;
145.221329633351;-0.4798583984375;1.67999999575841;169;-0.0350067138671875;100 mA;
145.231329633326;-0.481048583984375;1.68999999573316;170;-0.035003662109375;100 mA;
145.241329633301;-0.482208251953125;1.69999999570791;171;-0.0350067138671875;100 mA;
145.251329633276;-0.483428955078125;1.70999999568267;172;-0.035009765625;100 mA;
145.26132963325;-0.484588623046875;1.71999999565742;173;-0.035003662109375;100 mA;
145.271329633225;-0.485809326171875;1.72999999563217;174;-0.035003662109375;100 mA;
145.2813296332;-0.48699951171875;1.73999999560692;175;-0.0350067138671875;100 mA;
145.291329633175;-0.48822021484375;1.74999999558167;176;-0.035003662109375;100 mA;
145.301329633149;-0.489471435546875;1.75999999555643;177;-0.035003662109375;100 mA;
145.311329633124;-0.490692138671875;1.76999999553118;178;-0.0350067138671875;100 mA;
145.321329633099;-0.491912841796875;1.77999999550593;179;-0.035003662109375;100 mA;
145.331329633074;-0.4931640625;1.78999999548068;180;-0.035003662109375;100 mA;
145.341329633048;-0.494415283203125;1.79999999545544;181;-0.0350067138671875;100 mA;
145.351329633023;-0.49566650390625;1.80999999543019;182;-0.0350067138671875;100 mA;
145.361329632998;-0.4969482421875;1.81999999540494;183;-0.035003662109375;100 mA;
145.371329632973;-0.49822998046875;1.82999999537969;184;-0.035009765625;100 mA;
145.381329632947;-0.499267578125;1.83999999535445;185;-0.0350067138671875;100 mA;
145.391329632922;-0.50079345703125;1.8499999953292;186;-0.0350006103515625;100 mA;
145.401329632897;-0.50201416015625;1.85999999530395;187;-0.03499755859375;100 mA;
145.411329632872;-0.50323486328125;1.8699999952787;188;-0.035003662109375;100 mA;
145.421329632846;-0.50445556640625;1.87999999525346;189;-0.0350067138671875;100 mA;
145.431329632821;-0.5059814453125;1.88999999522821;190;-0.0350006103515625;100 mA;
145.441329632796;-0.5072021484375;1.89999999520296;191;-0.035003662109375;100 mA;
145.451329632771;-0.50872802734375;1.90999999517771;192;-0.035009765625;100 mA;
145.461329632745;-0.50994873046875;1.91999999515247;193;-0.0350067138671875;100 mA;
145.47132963272;-0.511474609375;1.92999999512722;194;-0.035009765625;100 mA;
145.481329632695;-0.5126953125;1.93999999510197;195;-0.0350067138671875;100 mA;
145.49132963267;-0.51422119140625;1.94999999507672;196;-0.035003662109375;100 mA;
145.501329632644;-0.51544189453125;1.95999999505148;197;-0.035003662109375;100 mA;
145.511329632619;-0.5169677734375;1.96999999502623;198;-0.0350067138671875;100 mA;
145.521329632594;-0.5181884765625;1.97999999500098;199;-0.035003662109375;100 mA;
145.531329632569;-0.51971435546875;1.98999999497573;200;-0.035003662109375;100 mA;
145.541329632543;-0.521240234375;1.99999999495049;201;-0.0350067138671875;100 mA;
145.551329632518;-0.52276611328125;2.00999999492524;202;-0.03499755859375;100 mA;
145.561329632493;-0.5242919921875;2.01999999489999;203;-0.0350067138671875;100 mA;
145.571329632468;-0.5255126953125;2.02999999487474;204;-0.035003662109375;100 mA;
145.581329632442;-0.52703857421875;2.0399999948495;205;-0.035003662109375;100 mA;
145.591329632417;-0.528564453125;2.04999999482425;206;-0.0350067138671875;100 mA;
145.601329632392;-0.53009033203125;2.059999994799;207;-0.035003662109375;100 mA;
145.611329632367;-0.5316162109375;2.06999999477375;208;-0.0350006103515625;100 mA;
145.621329632341;-0.533447265625;2.0799999947485;209;-0.035003662109375;100 mA;
145.631329632316;-0.53497314453125;2.08999999472326;210;-0.0350067138671875;100 mA;
145.641329632291;-0.5364990234375;2.09999999469801;211;-0.0350067138671875;100 mA;
145.651329632266;-0.53802490234375;2.10999999467276;212;-0.035003662109375;100 mA;
145.66132963224;-0.53985595703125;2.11999999464751;213;-0.035003662109375;100 mA;
145.671329632215;-0.5413818359375;2.12999999462227;214;-0.03499755859375;100 mA;
145.68132963219;-0.543212890625;2.13999999459702;215;-0.0350006103515625;100 mA;
145.691329632165;-0.54473876953125;2.14999999457177;216;-0.035003662109375;100 mA;
145.70132963214;-0.54656982421875;2.15999999454652;217;-0.035003662109375;100 mA;
145.711329632114;-0.548095703125;2.16999999452128;218;-0.035003662109375;100 mA;
145.721329632089;-0.5499267578125;2.17999999449603;219;-0.035003662109375;100 mA;
145.731329632064;-0.5517578125;2.18999999447078;220;-0.0350006103515625;100 mA;
145.741329632039;-0.5535888671875;2.19999999444553;221;-0.0350006103515625;100 mA;
145.751329632013;-0.555419921875;2.20999999442029;222;-0.0350067138671875;100 mA;
145.761329631988;-0.5572509765625;2.21999999439504;223;-0.0350006103515625;100 mA;
145.771329631963;-0.55908203125;2.22999999436979;224;-0.035003662109375;100 mA;
145.781329631938;-0.5609130859375;2.23999999434454;225;-0.035003662109375;100 mA;
145.791329631912;-0.56304931640625;2.2499999943193;226;-0.035003662109375;100 mA;
145.801329631887;-0.56488037109375;2.25999999429405;227;-0.0350006103515625;100 mA;
145.811329631862;-0.5670166015625;2.2699999942688;228;-0.035003662109375;100 mA;
145.821329631837;-0.56884765625;2.27999999424355;229;-0.0350067138671875;100 mA;
145.831329631811;-0.57098388671875;2.28999999421831;230;-0.0350006103515625;100 mA;
145.841329631786;-0.5731201171875;2.29999999419306;231;-0.035003662109375;100 mA;
145.851329631761;-0.57525634765625;2.30999999416781;232;-0.035009765625;100 mA;
145.861329631736;-0.577392578125;2.31999999414256;233;-0.03499755859375;100 mA;
145.87132963171;-0.579833984375;2.32999999411732;234;-0.03499755859375;100 mA;
145.881329631685;-0.58197021484375;2.33999999409207;235;-0.0350006103515625;100 mA;
145.89132963166;-0.5841064453125;2.34999999406682;236;-0.0350006103515625;100 mA;
145.901329631635;-0.5865478515625;2.35999999404157;237;-0.035003662109375;100 mA;
145.911329631609;-0.5889892578125;2.36999999401633;238;-0.0350006103515625;100 mA;
145.921329631584;-0.5914306640625;2.37999999399108;239;-0.035003662109375;100 mA;
145.931329631559;-0.5938720703125;2.38999999396583;240;-0.035003662109375;100 mA;
145.941329631534;-0.59661865234375;2.39999999394058;241;-0.0350067138671875;100 mA;
145.951329631508;-0.59906005859375;2.40999999391533;242;-0.035003662109375;100 mA;
145.961329631483;-0.601806640625;2.41999999389009;243;-0.0350067138671875;100 mA;
145.971329631458;-0.60455322265625;2.42999999386484;244;-0.0350006103515625;100 mA;
145.981329631433;-0.6072998046875;2.43999999383959;245;-0.0350006103515625;100 mA;
145.991329631407;-0.61004638671875;2.44999999381434;246;-0.0350006103515625;100 mA;
146.001329631382;-0.61309814453125;2.4599999937891;247;-0.035003662109375;100 mA;
146.011329631357;-0.61614990234375;2.46999999376385;248;-0.0350006103515625;100 mA;
146.021329631332;-0.61920166015625;2.4799999937386;249;-0.035003662109375;100 mA;
146.031329631306;-0.62225341796875;2.48999999371335;250;-0.03499755859375;100 mA;
146.041329631281;-0.6256103515625;2.49999999368811;251;-0.035003662109375;100 mA;
146.051329631256;-0.62896728515625;2.50999999366286;252;-0.03499755859375;100 mA;
146.061329631231;-0.63232421875;2.51999999363761;253;-0.0350006103515625;100 mA;
146.071329631205;-0.635986328125;2.52999999361236;254;-0.03499755859375;100 mA;
146.08132963118;-0.63934326171875;2.53999999358712;255;-0.035003662109375;100 mA;
146.091329631155;-0.643310546875;2.54999999356187;256;-0.0350006103515625;100 mA;
146.10132963113;-0.64727783203125;2.55999999353662;257;-0.0350006103515625;100 mA;
146.111329631104;-0.6512451171875;2.56999999351137;258;-0.0350006103515625;100 mA;
146.121329631079;-0.65521240234375;2.57999999348613;259;-0.03499755859375;100 mA;
146.131329631054;-0.65948486328125;2.58999999346088;260;-0.035009765625;100 mA;
146.141329631029;-0.66375732421875;2.59999999343563;261;-0.035003662109375;100 mA;
146.151329631003;-0.66864013671875;2.60999999341038;262;-0.03499755859375;100 mA;
146.161329630978;-0.6732177734375;2.61999999338514;263;-0.035003662109375;100 mA;
146.171329630953;-0.6781005859375;2.62999999335989;264;-0.03499755859375;100 mA;
146.181329630928;-0.68328857421875;2.63999999333464;265;-0.03499755859375;100 mA;
146.191329630902;-0.6884765625;2.64999999330939;266;-0.03499755859375;100 mA;
146.201329630877;-0.6939697265625;2.65999999328415;267;-0.0350006103515625;100 mA;
146.211329630852;-0.69976806640625;2.6699999932589;268;-0.0350006103515625;100 mA;
146.221329630827;-0.70556640625;2.67999999323365;269;-0.0350006103515625;100 mA;
146.231329630801;-0.711669921875;2.6899999932084;270;-0.0350006103515625;100 mA;
146.241329630776;-0.71807861328125;2.69999999318316;271;-0.0350006103515625;100 mA;
146.251329630751;-0.72479248046875;2.70999999315791;272;-0.03499755859375;100 mA;
146.261329630726;-0.7318115234375;2.71999999313266;273;-0.0350006103515625;100 mA;
146.2713296307;-0.73883056640625;2.72999999310741;274;-0.0350006103515625;100 mA;
146.281329630675;-0.7464599609375;2.73999999308217;275;-0.035003662109375;100 mA;
146.29132963065;-0.75408935546875;2.74999999305692;276;-0.0350006103515625;100 mA;
146.301329630625;-0.76202392578125;2.75999999303167;277;-0.0350006103515625;100 mA;
146.311329630599;-0.770263671875;2.76999999300642;278;-0.0350006103515625;100 mA;
146.321329630574;-0.77880859375;2.77999999298117;279;-0.03499755859375;100 mA;
146.331329630549;-0.78765869140625;2.78999999295593;280;-0.0350006103515625;100 mA;
146.341329630524;-0.7965087890625;2.79999999293068;281;-0.0350006103515625;100 mA;
146.351329630498;-0.80596923828125;2.80999999290543;282;-0.035003662109375;100 mA;WE(1).Potential < -0.8 V
146.361329630473;-0.8154296875;2.81999999288018;283;-0.0349945068359375;100 mA;WE(1).Potential < -0.8 V
146.371329630448;-0.8251953125;2.82999999285494;284;-0.0350006103515625;100 mA;WE(1).Potential < -0.8 V
146.381329630423;-0.8349609375;2.83999999282969;285;-0.035003662109375;100 mA;WE(1).Potential < -0.8 V
