Time (s);WE(1).Potential (V);Corrected time (s);Index;WE(1).Current (A);Current range;Cutoffs
261.218035340488;0.091827392578125;0;1;0.190032958984375;100 mA;
261.219335340485;0.10980224609375;0.00129999999671782;2;0.190093994140625;100 mA;
261.220635340481;0.121368408203125;0.00259999999343563;3;0.190032958984375;100 mA;
261.221935340478;0.129974365234375;0.00389999999015345;4;0.1900634765625;100 mA;
261.223235340475;0.136871337890625;0.00519999998687126;5;0.190093994140625;100 mA;
261.224535340471;0.142608642578125;0.00649999998358908;6;0.1900634765625;100 mA;
261.225835340468;0.147613525390625;0.00779999998030689;7;0.190093994140625;100 mA;
261.227135340465;0.1519775390625;0.00909999997702471;8;0.1900634765625;100 mA;
261.228435340462;0.15594482421875;0.0103999999737425;9;0.19012451171875;100 mA;
261.229735340458;0.15948486328125;0.0116999999704603;10;0.19012451171875;100 mA;
261.231035340455;0.162750244140625;0.0129999999671782;11;0.190093994140625;100 mA;
261.232335340452;0.16571044921875;0.014299999963896;12;0.1900634765625;100 mA;
261.233635340448;0.16851806640625;0.0155999999606138;13;0.1900634765625;100 mA;
261.234935340445;0.171173095703125;0.0168999999573316;14;0.19000244140625;100 mA;
261.236235340442;0.173583984375;0.0181999999540494;15;0.190093994140625;100 mA;
261.237535340439;0.1759033203125;0.0194999999507672;16;0.190093994140625;100 mA;
261.238835340435;0.1781005859375;0.020799999947485;17;0.190093994140625;100 mA;
261.240135340432;0.18017578125;0.0220999999442029;18;0.1900634765625;100 mA;
261.241435340429;0.182220458984375;0.0233999999409207;19;0.1900634765625;100 mA;
261.242735340425;0.18414306640625;0.0246999999376385;20;0.1900634765625;100 mA;
261.244035340422;0.18597412109375;0.0259999999343563;21;0.19012451171875;100 mA;
261.245335340419;0.187744140625;0.0272999999310741;22;0.190032958984375;100 mA;
261.246635340416;0.189453125;0.0285999999277919;23;0.190032958984375;100 mA;
261.247935340412;0.191070556640625;0.0298999999245098;24;0.19012451171875;100 mA;
261.249235340409;0.192657470703125;0.0311999999212276;25;0.190093994140625;100 mA;
261.250535340406;0.194183349609375;0.0324999999179454;26;0.1900634765625;100 mA;
261.251835340403;0.19561767578125;0.0337999999146632;27;0.190032958984375;100 mA;
261.253135340399;0.19708251953125;0.035099999911381;28;0.1900634765625;100 mA;
261.254435340396;0.198455810546875;0.0363999999080988;29;0.19012451171875;100 mA;
261.255735340393;0.1998291015625;0.0376999999048167;30;0.1900634765625;100 mA;
261.257035340389;0.201141357421875;0.0389999999015345;31;0.1900634765625;100 mA;
261.258335340386;0.202484130859375;0.0402999998982523;32;0.190093994140625;100 mA;
261.259635340383;0.203704833984375;0.0415999998949701;33;0.19000244140625;100 mA;
261.26093534038;0.204925537109375;0.0428999998916879;34;0.1900634765625;100 mA;
261.262235340376;0.206146240234375;0.0441999998884057;35;0.1900634765625;100 mA;
261.263535340373;0.20733642578125;0.0454999998851235;36;0.1900634765625;100 mA;
261.26483534037;0.20843505859375;0.0467999998818414;37;0.1900634765625;100 mA;
261.266135340366;0.209564208984375;0.0480999998785592;38;0.1900634765625;100 mA;
261.267435340363;0.210662841796875;0.049399999875277;39;0.190093994140625;100 mA;
261.26873534036;0.211700439453125;0.0506999998719948;40;0.190032958984375;100 mA;
261.270035340357;0.2127685546875;0.0519999998687126;41;0.190093994140625;100 mA;
261.271335340353;0.213775634765625;0.0532999998654304;42;0.190093994140625;100 mA;
261.27263534035;0.214813232421875;0.0545999998621483;43;0.190093994140625;100 mA;
261.273935340347;0.2158203125;0.0558999998588661;44;0.190093994140625;100 mA;
261.275235340343;0.21685791015625;0.0571999998555839;45;0.190093994140625;100 mA;
261.27653534034;0.217803955078125;0.0584999998523017;46;0.190093994140625;100 mA;
261.277835340337;0.218719482421875;0.0597999998490195;47;0.19012451171875;100 mA;
261.279135340334;0.219696044921875;0.0610999998457373;48;0.1900634765625;100 mA;
261.28043534033;0.220611572265625;0.0623999998424551;49;0.190032958984375;100 mA;
261.281735340327;0.221527099609375;0.063699999839173;50;0.1900634765625;100 mA;
261.283035340324;0.222381591796875;0.0649999998358908;51;0.19012451171875;100 mA;
261.28433534032;0.2232666015625;0.0662999998326086;52;0.190032958984375;100 mA;
261.285635340317;0.22412109375;0.0675999998293264;53;0.190032958984375;100 mA;
261.286935340314;0.2249755859375;0.0688999998260442;54;0.19000244140625;100 mA;
261.288235340311;0.225799560546875;0.070199999822762;55;0.19000244140625;100 mA;
261.289535340307;0.22662353515625;0.0714999998194799;56;0.190032958984375;100 mA;
261.290835340304;0.22747802734375;0.0727999998161977;57;0.190093994140625;100 mA;
261.292135340301;0.228302001953125;0.0740999998129155;58;0.190093994140625;100 mA;
261.293435340297;0.2291259765625;0.0753999998096333;59;0.19000244140625;100 mA;
261.294735340294;0.229888916015625;0.0766999998063511;60;0.190093994140625;100 mA;
261.296035340291;0.230712890625;0.0779999998030689;61;0.190093994140625;100 mA;
261.297335340288;0.2314453125;0.0792999997997867;62;0.190032958984375;100 mA;
261.298635340284;0.232208251953125;0.0805999997965046;63;0.1900634765625;100 mA;
261.299935340281;0.232940673828125;0.0818999997932224;64;0.190093994140625;100 mA;
261.301235340278;0.233673095703125;0.0831999997899402;65;0.19012451171875;100 mA;
261.302535340275;0.234405517578125;0.084499999786658;66;0.190032958984375;100 mA;
261.303835340271;0.235137939453125;0.0857999997833758;67;0.1900634765625;100 mA;
261.305135340268;0.235809326171875;0.0870999997800936;68;0.190093994140625;100 mA;
261.306435340265;0.236572265625;0.0883999997768115;69;0.190093994140625;100 mA;
261.307735340261;0.237274169921875;0.0896999997735293;70;0.19012451171875;100 mA;
261.309035340258;0.23797607421875;0.0909999997702471;71;0.1900634765625;100 mA;
261.310335340255;0.2386474609375;0.0922999997669649;72;0.1900634765625;100 mA;
261.311635340252;0.239349365234375;0.0935999997636827;73;0.1900634765625;100 mA;
261.312935340248;0.24005126953125;0.0948999997604005;74;0.19012451171875;100 mA;
261.314235340245;0.24072265625;0.0961999997571183;75;0.1900634765625;100 mA;
261.315535340242;0.24139404296875;0.0974999997538362;76;0.1900634765625;100 mA;
261.316835340238;0.24200439453125;0.098799999750554;77;0.1900634765625;100 mA;
261.318135340235;0.24267578125;0.100099999747272;78;0.190093994140625;100 mA;
261.319435340232;0.243316650390625;0.10139999974399;79;0.1900634765625;100 mA;
261.320735340229;0.24395751953125;0.102699999740707;80;0.190093994140625;100 mA;
261.322035340225;0.24456787109375;0.103999999737425;81;0.190032958984375;100 mA;
261.323335340222;0.2452392578125;0.105299999734143;82;0.1900634765625;100 mA;
261.324635340219;0.245880126953125;0.106599999730861;83;0.190093994140625;100 mA;
261.325935340215;0.24652099609375;0.107899999727579;84;0.190093994140625;100 mA;
261.327235340212;0.247161865234375;0.109199999724297;85;0.190093994140625;100 mA;
261.328535340209;0.24774169921875;0.110499999721014;86;0.190093994140625;100 mA;
261.329835340206;0.248382568359375;0.111799999717732;87;0.1900634765625;100 mA;
261.331135340202;0.248992919921875;0.11309999971445;88;0.190093994140625;100 mA;
261.332435340199;0.249542236328125;0.114399999711168;89;0.1900634765625;100 mA;
261.333735340196;0.250152587890625;0.115699999707886;90;0.19012451171875;100 mA;
261.335035340192;0.250762939453125;0.116999999704603;91;0.1900634765625;100 mA;
261.336335340189;0.2513427734375;0.118299999701321;92;0.1900634765625;100 mA;
261.337635340186;0.25189208984375;0.119599999698039;93;0.1900634765625;100 mA;
261.338935340183;0.25250244140625;0.120899999694757;94;0.190093994140625;100 mA;
261.340235340179;0.253082275390625;0.122199999691475;95;0.190032958984375;100 mA;
261.341535340176;0.253662109375;0.123499999688192;96;0.190032958984375;100 mA;
261.342835340173;0.254241943359375;0.12479999968491;97;0.1900634765625;100 mA;
261.344135340169;0.254791259765625;0.126099999681628;98;0.19012451171875;100 mA;
261.345435340166;0.255401611328125;0.127399999678346;99;0.19012451171875;100 mA;
261.346735340163;0.255950927734375;0.128699999675064;100;0.190032958984375;100 mA;
261.34803534016;0.256500244140625;0.129999999671782;101;0.19012451171875;100 mA;
261.349335340156;0.257080078125;0.131299999668499;102;0.1900634765625;100 mA;
261.350635340153;0.257598876953125;0.132599999665217;103;0.1900634765625;100 mA;
261.35193534015;0.25811767578125;0.133899999661935;104;0.1900634765625;100 mA;
261.353235340147;0.258697509765625;0.135199999658653;105;0.19012451171875;100 mA;
261.354535340143;0.25921630859375;0.136499999655371;106;0.1900634765625;100 mA;
261.35583534014;0.259796142578125;0.137799999652088;107;0.190093994140625;100 mA;
261.357135340137;0.26031494140625;0.139099999648806;108;0.1900634765625;100 mA;
261.358435340133;0.260894775390625;0.140399999645524;109;0.190093994140625;100 mA;
261.35973534013;0.26141357421875;0.141699999642242;110;0.19000244140625;100 mA;
261.361035340127;0.261962890625;0.14299999963896;111;0.190032958984375;100 mA;
261.362335340124;0.262481689453125;0.144299999635678;112;0.190032958984375;100 mA;
261.36363534012;0.26300048828125;0.145599999632395;113;0.190032958984375;100 mA;
261.364935340117;0.2635498046875;0.146899999629113;114;0.190032958984375;100 mA;
261.366235340114;0.2640380859375;0.148199999625831;115;0.190093994140625;100 mA;
261.36753534011;0.264556884765625;0.149499999622549;116;0.19012451171875;100 mA;
261.368835340107;0.26507568359375;0.150799999619267;117;0.190032958984375;100 mA;
261.370135340104;0.265594482421875;0.152099999615984;118;0.190093994140625;100 mA;
261.371435340101;0.266082763671875;0.153399999612702;119;0.1900634765625;100 mA;
261.372735340097;0.2666015625;0.15469999960942;120;0.1900634765625;100 mA;
261.374035340094;0.267120361328125;0.155999999606138;121;0.190093994140625;100 mA;
261.375335340091;0.26763916015625;0.157299999602856;122;0.190093994140625;100 mA;
261.376635340087;0.268157958984375;0.158599999599573;123;0.1900634765625;100 mA;
261.377935340084;0.2686767578125;0.159899999596291;124;0.19012451171875;100 mA;
261.379235340081;0.269195556640625;0.161199999593009;125;0.190093994140625;100 mA;
261.380535340078;0.269683837890625;0.162499999589727;126;0.19012451171875;100 mA;
261.381835340074;0.270172119140625;0.163799999586445;127;0.19012451171875;100 mA;
261.383135340071;0.270660400390625;0.165099999583163;128;0.190093994140625;100 mA;
261.384435340068;0.271148681640625;0.16639999957988;129;0.19000244140625;100 mA;
261.385735340064;0.27166748046875;0.167699999576598;130;0.1900634765625;100 mA;
261.387035340061;0.272125244140625;0.168999999573316;131;0.190093994140625;100 mA;
261.388335340058;0.272613525390625;0.170299999570034;132;0.190093994140625;100 mA;
261.389635340055;0.273101806640625;0.171599999566752;133;0.1900634765625;100 mA;
261.390935340051;0.273590087890625;0.172899999563469;134;0.190093994140625;100 mA;
261.392235340048;0.274078369140625;0.174199999560187;135;0.1900634765625;100 mA;
261.393535340045;0.274566650390625;0.175499999556905;136;0.1900634765625;100 mA;
261.394835340041;0.275054931640625;0.176799999553623;137;0.190093994140625;100 mA;
261.396135340038;0.275543212890625;0.178099999550341;138;0.190093994140625;100 mA;
261.397435340035;0.2760009765625;0.179399999547059;139;0.190093994140625;100 mA;
261.398735340032;0.2764892578125;0.180699999543776;140;0.1900634765625;100 mA;
261.400035340028;0.276947021484375;0.181999999540494;141;0.190093994140625;100 mA;
261.401335340025;0.27740478515625;0.183299999537212;142;0.19012451171875;100 mA;
261.402635340022;0.277862548828125;0.18459999953393;143;0.1900634765625;100 mA;
261.403935340019;0.278350830078125;0.185899999530648;144;0.1900634765625;100 mA;
261.405235340015;0.278778076171875;0.187199999527365;145;0.190093994140625;100 mA;
261.406535340012;0.279266357421875;0.188499999524083;146;0.1900634765625;100 mA;
261.407835340009;0.279754638671875;0.189799999520801;147;0.19012451171875;100 mA;
261.409135340005;0.28021240234375;0.191099999517519;148;0.190032958984375;100 mA;
261.410435340002;0.280670166015625;0.192399999514237;149;0.190093994140625;100 mA;
261.411735339999;0.2811279296875;0.193699999510955;150;0.19012451171875;100 mA;
261.413035339996;0.281585693359375;0.194999999507672;151;0.190155029296875;100 mA;
261.414335339992;0.28204345703125;0.19629999950439;152;0.1900634765625;100 mA;
261.415635339989;0.282501220703125;0.197599999501108;153;0.190093994140625;100 mA;
261.416935339986;0.28289794921875;0.198899999497826;154;0.1900634765625;100 mA;
261.418235339982;0.2833251953125;0.200199999494544;155;0.1900634765625;100 mA;
261.419535339979;0.283782958984375;0.201499999491261;156;0.1900634765625;100 mA;
261.420835339976;0.284210205078125;0.202799999487979;157;0.1900634765625;100 mA;
261.422135339973;0.28466796875;0.204099999484697;158;0.190093994140625;100 mA;
261.423435339969;0.28509521484375;0.205399999481415;159;0.190093994140625;100 mA;
261.424735339966;0.285552978515625;0.206699999478133;160;0.190093994140625;100 mA;
261.426035339963;0.2860107421875;0.20799999947485;161;0.190093994140625;100 mA;
261.427335339959;0.28643798828125;0.209299999471568;162;0.190032958984375;100 mA;
261.428635339956;0.28692626953125;0.210599999468286;163;0.190032958984375;100 mA;
261.429935339953;0.287322998046875;0.211899999465004;164;0.190032958984375;100 mA;
261.43123533995;0.287750244140625;0.213199999461722;165;0.190093994140625;100 mA;
261.432535339946;0.28814697265625;0.21449999945844;166;0.1900634765625;100 mA;
261.433835339943;0.28857421875;0.215799999455157;167;0.190093994140625;100 mA;
261.43513533994;0.28900146484375;0.217099999451875;168;0.190032958984375;100 mA;
261.436435339936;0.2894287109375;0.218399999448593;169;0.190032958984375;100 mA;
261.437735339933;0.289825439453125;0.219699999445311;170;0.190093994140625;100 mA;
261.43903533993;0.29022216796875;0.220999999442029;171;0.1900634765625;100 mA;
261.440335339927;0.290679931640625;0.222299999438746;172;0.190032958984375;100 mA;
261.441635339923;0.2911376953125;0.223599999435464;173;0.19000244140625;100 mA;
261.44293533992;0.291534423828125;0.224899999432182;174;0.190093994140625;100 mA;
261.444235339917;0.29193115234375;0.2261999994289;175;0.1900634765625;100 mA;
261.445535339913;0.292388916015625;0.227499999425618;176;0.190093994140625;100 mA;
261.44683533991;0.29278564453125;0.228799999422336;177;0.1900634765625;100 mA;
261.448135339907;0.293182373046875;0.230099999419053;178;0.190093994140625;100 mA;
261.449435339904;0.293609619140625;0.231399999415771;179;0.190093994140625;100 mA;
261.4507353399;0.29400634765625;0.232699999412489;180;0.190093994140625;100 mA;
261.452035339897;0.294403076171875;0.233999999409207;181;0.190093994140625;100 mA;
261.453335339894;0.294769287109375;0.235299999405925;182;0.19012451171875;100 mA;
261.454635339891;0.295196533203125;0.236599999402642;183;0.190093994140625;100 mA;
261.455935339887;0.29559326171875;0.23789999939936;184;0.190093994140625;100 mA;
261.457235339884;0.296051025390625;0.239199999396078;185;0.1900634765625;100 mA;
261.458535339881;0.29644775390625;0.240499999392796;186;0.1900634765625;100 mA;
261.459835339877;0.296875;0.241799999389514;187;0.190032958984375;100 mA;
261.461135339874;0.297210693359375;0.243099999386232;188;0.1900634765625;100 mA;
261.462435339871;0.297637939453125;0.244399999382949;189;0.1900634765625;100 mA;
261.463735339868;0.29803466796875;0.245699999379667;190;0.1900634765625;100 mA;
261.465035339864;0.298431396484375;0.246999999376385;191;0.1900634765625;100 mA;
261.466335339861;0.298797607421875;0.248299999373103;192;0.1900634765625;100 mA;
261.467635339858;0.2991943359375;0.249599999369821;193;0.190093994140625;100 mA;
261.468935339854;0.299591064453125;0.250899999366538;194;0.190093994140625;100 mA;
261.470235339851;0.29998779296875;0.252199999363256;195;0.190093994140625;100 mA;
261.471535339848;0.30035400390625;0.253499999359974;196;0.19000244140625;100 mA;
261.472835339845;0.30078125;0.254799999356692;197;0.190093994140625;100 mA;
261.474135339841;0.301177978515625;0.25609999935341;198;0.190032958984375;100 mA;
261.475435339838;0.30157470703125;0.257399999350127;199;0.1900634765625;100 mA;
261.476735339835;0.30194091796875;0.258699999346845;200;0.19012451171875;100 mA;
261.478035339831;0.302398681640625;0.259999999343563;201;0.19012451171875;100 mA;
261.479335339828;0.302764892578125;0.261299999340281;202;0.1900634765625;100 mA;
261.480635339825;0.30316162109375;0.262599999336999;203;0.1900634765625;100 mA;
261.481935339822;0.303497314453125;0.263899999333717;204;0.1900634765625;100 mA;
261.483235339818;0.30389404296875;0.265199999330434;205;0.1900634765625;100 mA;
261.484535339815;0.30426025390625;0.266499999327152;206;0.19012451171875;100 mA;
261.485835339812;0.30462646484375;0.26779999932387;207;0.1900634765625;100 mA;
261.487135339808;0.30499267578125;0.269099999320588;208;0.190093994140625;100 mA;
261.488435339805;0.305389404296875;0.270399999317306;209;0.190093994140625;100 mA;
261.489735339802;0.3057861328125;0.271699999314023;210;0.190032958984375;100 mA;
261.491035339799;0.306182861328125;0.272999999310741;211;0.1900634765625;100 mA;
261.492335339795;0.30657958984375;0.274299999307459;212;0.190093994140625;100 mA;
261.493635339792;0.30694580078125;0.275599999304177;213;0.190032958984375;100 mA;
261.494935339789;0.307373046875;0.276899999300895;214;0.1900634765625;100 mA;
261.496235339785;0.3077392578125;0.278199999297613;215;0.19012451171875;100 mA;
261.497535339782;0.30810546875;0.27949999929433;216;0.1900634765625;100 mA;
261.498835339779;0.3084716796875;0.280799999291048;217;0.1900634765625;100 mA;
261.500135339776;0.308868408203125;0.282099999287766;218;0.190093994140625;100 mA;
261.501435339772;0.3092041015625;0.283399999284484;219;0.1900634765625;100 mA;
261.502735339769;0.3095703125;0.284699999281202;220;0.19000244140625;100 mA;
261.504035339766;0.309967041015625;0.285999999277919;221;0.190155029296875;100 mA;
261.505335339762;0.310333251953125;0.287299999274637;222;0.1900634765625;100 mA;
261.506635339759;0.31072998046875;0.288599999271355;223;0.190093994140625;100 mA;
261.507935339756;0.311126708984375;0.289899999268073;224;0.190093994140625;100 mA;
261.509235339753;0.311492919921875;0.291199999264791;225;0.1900634765625;100 mA;
261.510535339749;0.311859130859375;0.292499999261508;226;0.190032958984375;100 mA;
261.511835339746;0.312255859375;0.293799999258226;227;0.190093994140625;100 mA;
261.513135339743;0.3126220703125;0.295099999254944;228;0.190032958984375;100 mA;
261.51443533974;0.31298828125;0.296399999251662;229;0.1900634765625;100 mA;
261.515735339736;0.3133544921875;0.29769999924838;230;0.190093994140625;100 mA;
261.517035339733;0.313690185546875;0.298999999245098;231;0.1900634765625;100 mA;
261.51833533973;0.314056396484375;0.300299999241815;232;0.190093994140625;100 mA;
261.519635339726;0.314483642578125;0.301599999238533;233;0.1900634765625;100 mA;
261.520935339723;0.3148193359375;0.302899999235251;234;0.1900634765625;100 mA;
261.52223533972;0.315216064453125;0.304199999231969;235;0.190032958984375;100 mA;
261.523535339717;0.315582275390625;0.305499999228687;236;0.1900634765625;100 mA;
261.524835339713;0.31597900390625;0.306799999225404;237;0.1900634765625;100 mA;
261.52613533971;0.316314697265625;0.308099999222122;238;0.190093994140625;100 mA;
261.527435339707;0.316680908203125;0.30939999921884;239;0.1900634765625;100 mA;
261.528735339703;0.317108154296875;0.310699999215558;240;0.190032958984375;100 mA;
261.5300353397;0.317474365234375;0.311999999212276;241;0.19012451171875;100 mA;
261.531335339697;0.317840576171875;0.313299999208994;242;0.190093994140625;100 mA;
261.532635339694;0.31817626953125;0.314599999205711;243;0.190093994140625;100 mA;
261.53393533969;0.318572998046875;0.315899999202429;244;0.190032958984375;100 mA;
261.535235339687;0.318939208984375;0.317199999199147;245;0.1900634765625;100 mA;
261.536535339684;0.31927490234375;0.318499999195865;246;0.190093994140625;100 mA;
261.53783533968;0.319610595703125;0.319799999192583;247;0.190093994140625;100 mA;
261.539135339677;0.32000732421875;0.3210999991893;248;0.190093994140625;100 mA;
261.540435339674;0.320404052734375;0.322399999186018;249;0.1900634765625;100 mA;
261.541735339671;0.32073974609375;0.323699999182736;250;0.190032958984375;100 mA;
261.543035339667;0.321136474609375;0.324999999179454;251;0.190093994140625;100 mA;
261.544335339664;0.32147216796875;0.326299999176172;252;0.190093994140625;100 mA;
261.545635339661;0.3218994140625;0.32759999917289;253;0.190032958984375;100 mA;
261.546935339657;0.322265625;0.328899999169607;254;0.190093994140625;100 mA;
261.548235339654;0.3226318359375;0.330199999166325;255;0.190032958984375;100 mA;
261.549535339651;0.32293701171875;0.331499999163043;256;0.1900634765625;100 mA;
261.550835339648;0.32330322265625;0.332799999159761;257;0.19012451171875;100 mA;
261.552135339644;0.32366943359375;0.334099999156479;258;0.190032958984375;100 mA;
261.553435339641;0.324066162109375;0.335399999153196;259;0.1900634765625;100 mA;
261.554735339638;0.32440185546875;0.336699999149914;260;0.190093994140625;100 mA;
261.556035339634;0.32476806640625;0.337999999146632;261;0.190093994140625;100 mA;
261.557335339631;0.325164794921875;0.33929999914335;262;0.1900634765625;100 mA;
261.558635339628;0.3255615234375;0.340599999140068;263;0.1900634765625;100 mA;
261.559935339625;0.325897216796875;0.341899999136785;264;0.190093994140625;100 mA;
261.561235339621;0.326263427734375;0.343199999133503;265;0.190093994140625;100 mA;
261.562535339618;0.32666015625;0.344499999130221;266;0.19012451171875;100 mA;
261.563835339615;0.326995849609375;0.345799999126939;267;0.1900634765625;100 mA;
261.565135339612;0.327362060546875;0.347099999123657;268;0.1900634765625;100 mA;
261.566435339608;0.327728271484375;0.348399999120375;269;0.1900634765625;100 mA;
261.567735339605;0.328094482421875;0.349699999117092;270;0.190093994140625;100 mA;
261.569035339602;0.328460693359375;0.35099999911381;271;0.190093994140625;100 mA;
261.570335339598;0.328826904296875;0.352299999110528;272;0.190093994140625;100 mA;
261.571635339595;0.329132080078125;0.353599999107246;273;0.190093994140625;100 mA;
261.572935339592;0.329559326171875;0.354899999103964;274;0.190093994140625;100 mA;
261.574235339589;0.329925537109375;0.356199999100681;275;0.190093994140625;100 mA;
261.575535339585;0.330291748046875;0.357499999097399;276;0.1900634765625;100 mA;
261.576835339582;0.330657958984375;0.358799999094117;277;0.190093994140625;100 mA;
261.578135339579;0.3310546875;0.360099999090835;278;0.19012451171875;100 mA;
261.579435339575;0.3314208984375;0.361399999087553;279;0.190032958984375;100 mA;
261.580735339572;0.331787109375;0.362699999084271;280;0.1900634765625;100 mA;
261.582035339569;0.332122802734375;0.363999999080988;281;0.1900634765625;100 mA;
261.583335339566;0.332489013671875;0.365299999077706;282;0.1900634765625;100 mA;
261.584635339562;0.332855224609375;0.366599999074424;283;0.1900634765625;100 mA;
261.585935339559;0.333221435546875;0.367899999071142;284;0.1900634765625;100 mA;
261.587235339556;0.33355712890625;0.36919999906786;285;0.190093994140625;100 mA;
261.588535339552;0.333953857421875;0.370499999064577;286;0.1900634765625;100 mA;
261.589835339549;0.3343505859375;0.371799999061295;287;0.190032958984375;100 mA;
261.591135339546;0.334686279296875;0.373099999058013;288;0.190032958984375;100 mA;
261.592435339543;0.3350830078125;0.374399999054731;289;0.1900634765625;100 mA;
261.593735339539;0.33544921875;0.375699999051449;290;0.1900634765625;100 mA;
261.595035339536;0.335845947265625;0.376999999048167;291;0.190032958984375;100 mA;
261.596335339533;0.336212158203125;0.378299999044884;292;0.1900634765625;100 mA;
261.597635339529;0.3365478515625;0.379599999041602;293;0.190093994140625;100 mA;
261.598935339526;0.3369140625;0.38089999903832;294;0.190032958984375;100 mA;
261.600235339523;0.3372802734375;0.382199999035038;295;0.190032958984375;100 mA;
261.60153533952;0.337677001953125;0.383499999031756;296;0.19012451171875;100 mA;
261.602835339516;0.3380126953125;0.384799999028473;297;0.1900634765625;100 mA;
261.604135339513;0.33837890625;0.386099999025191;298;0.190032958984375;100 mA;
261.60543533951;0.338775634765625;0.387399999021909;299;0.190093994140625;100 mA;
261.606735339506;0.339141845703125;0.388699999018627;300;0.190093994140625;100 mA;
261.608035339503;0.33953857421875;0.389999999015345;301;0.1900634765625;100 mA;
261.6093353395;0.33990478515625;0.391299999012062;302;0.190093994140625;100 mA;
261.610635339497;0.34027099609375;0.39259999900878;303;0.1900634765625;100 mA;
261.611935339493;0.340667724609375;0.393899999005498;304;0.190093994140625;100 mA;
261.61323533949;0.341064453125;0.395199999002216;305;0.19012451171875;100 mA;
261.614535339487;0.3414306640625;0.396499998998934;306;0.190032958984375;100 mA;
261.615835339484;0.341766357421875;0.397799998995652;307;0.190093994140625;100 mA;
261.61713533948;0.3421630859375;0.399099998992369;308;0.19012451171875;100 mA;
261.618435339477;0.342498779296875;0.400399998989087;309;0.19012451171875;100 mA;
261.619735339474;0.342864990234375;0.401699998985805;310;0.190032958984375;100 mA;
261.62103533947;0.343231201171875;0.402999998982523;311;0.1900634765625;100 mA;
261.622335339467;0.3436279296875;0.404299998979241;312;0.1900634765625;100 mA;
261.623635339464;0.344024658203125;0.405599998975958;313;0.190093994140625;100 mA;
261.624935339461;0.344390869140625;0.406899998972676;314;0.19012451171875;100 mA;
261.626235339457;0.34478759765625;0.408199998969394;315;0.190032958984375;100 mA;
261.627535339454;0.34515380859375;0.409499998966112;316;0.1900634765625;100 mA;
261.628835339451;0.345550537109375;0.41079999896283;317;0.1900634765625;100 mA;
261.630135339447;0.345916748046875;0.412099998959548;318;0.190032958984375;100 mA;
261.631435339444;0.3463134765625;0.413399998956265;319;0.190093994140625;100 mA;
261.632735339441;0.346649169921875;0.414699998952983;320;0.1900634765625;100 mA;
261.634035339438;0.347015380859375;0.415999998949701;321;0.1900634765625;100 mA;
261.635335339434;0.347412109375;0.417299998946419;322;0.190093994140625;100 mA;
261.636635339431;0.347808837890625;0.418599998943137;323;0.190093994140625;100 mA;
261.637935339428;0.34814453125;0.419899998939854;324;0.190032958984375;100 mA;
261.639235339424;0.34857177734375;0.421199998936572;325;0.1900634765625;100 mA;
261.640535339421;0.34893798828125;0.42249999893329;326;0.1900634765625;100 mA;
261.641835339418;0.349334716796875;0.423799998930008;327;0.1900634765625;100 mA;
261.643135339415;0.3497314453125;0.425099998926726;328;0.190093994140625;100 mA;
261.644435339411;0.350128173828125;0.426399998923443;329;0.190093994140625;100 mA;
261.645735339408;0.35052490234375;0.427699998920161;330;0.190032958984375;100 mA;
261.647035339405;0.35089111328125;0.428999998916879;331;0.190093994140625;100 mA;
261.648335339401;0.35125732421875;0.430299998913597;332;0.1900634765625;100 mA;
261.649635339398;0.35162353515625;0.431599998910315;333;0.19012451171875;100 mA;
261.650935339395;0.352020263671875;0.432899998907033;334;0.1900634765625;100 mA;
261.652235339392;0.352386474609375;0.43419999890375;335;0.1900634765625;100 mA;
261.653535339388;0.352783203125;0.435499998900468;336;0.1900634765625;100 mA;
261.654835339385;0.3531494140625;0.436799998897186;337;0.190032958984375;100 mA;
261.656135339382;0.353546142578125;0.438099998893904;338;0.1900634765625;100 mA;
261.657435339378;0.353973388671875;0.439399998890622;339;0.1900634765625;100 mA;
261.658735339375;0.3543701171875;0.440699998887339;340;0.1900634765625;100 mA;
261.660035339372;0.354736328125;0.441999998884057;341;0.19000244140625;100 mA;
261.661335339369;0.355133056640625;0.443299998880775;342;0.1900634765625;100 mA;
261.662635339365;0.35552978515625;0.444599998877493;343;0.1900634765625;100 mA;
261.663935339362;0.355926513671875;0.445899998874211;344;0.190093994140625;100 mA;
261.665235339359;0.3563232421875;0.447199998870929;345;0.1900634765625;100 mA;
261.666535339356;0.356689453125;0.448499998867646;346;0.1900634765625;100 mA;
261.667835339352;0.3570556640625;0.449799998864364;347;0.1900634765625;100 mA;
261.669135339349;0.35748291015625;0.451099998861082;348;0.190032958984375;100 mA;
261.670435339346;0.357879638671875;0.4523999988578;349;0.1900634765625;100 mA;
261.671735339342;0.358245849609375;0.453699998854518;350;0.190093994140625;100 mA;
261.673035339339;0.358673095703125;0.454999998851235;351;0.190032958984375;100 mA;
261.674335339336;0.359130859375;0.456299998847953;352;0.190093994140625;100 mA;
261.675635339333;0.359466552734375;0.457599998844671;353;0.190032958984375;100 mA;
261.676935339329;0.35986328125;0.458899998841389;354;0.1900634765625;100 mA;
261.678235339326;0.360260009765625;0.460199998838107;355;0.1900634765625;100 mA;
261.679535339323;0.3607177734375;0.461499998834825;356;0.1900634765625;100 mA;
261.680835339319;0.361083984375;0.462799998831542;357;0.190093994140625;100 mA;
261.682135339316;0.361480712890625;0.46409999882826;358;0.190093994140625;100 mA;
261.683435339313;0.36187744140625;0.465399998824978;359;0.190093994140625;100 mA;
261.68473533931;0.362274169921875;0.466699998821696;360;0.190032958984375;100 mA;
261.686035339306;0.3626708984375;0.467999998818414;361;0.1900634765625;100 mA;
261.687335339303;0.363067626953125;0.469299998815131;362;0.1900634765625;100 mA;
261.6886353393;0.363494873046875;0.470599998811849;363;0.190093994140625;100 mA;
261.689935339296;0.3638916015625;0.471899998808567;364;0.1900634765625;100 mA;
261.691235339293;0.36431884765625;0.473199998805285;365;0.1900634765625;100 mA;
261.69253533929;0.36474609375;0.474499998802003;366;0.1900634765625;100 mA;
261.693835339287;0.365142822265625;0.47579999879872;367;0.19012451171875;100 mA;
261.695135339283;0.365570068359375;0.477099998795438;368;0.190093994140625;100 mA;
261.69643533928;0.365966796875;0.478399998792156;369;0.190032958984375;100 mA;
261.697735339277;0.366424560546875;0.479699998788874;370;0.1900634765625;100 mA;
261.699035339273;0.3668212890625;0.480999998785592;371;0.190032958984375;100 mA;
261.70033533927;0.367218017578125;0.48229999878231;372;0.1900634765625;100 mA;
261.701635339267;0.367645263671875;0.483599998779027;373;0.1900634765625;100 mA;
261.702935339264;0.368011474609375;0.484899998775745;374;0.190093994140625;100 mA;
261.70423533926;0.368438720703125;0.486199998772463;375;0.190032958984375;100 mA;
261.705535339257;0.368865966796875;0.487499998769181;376;0.1900634765625;100 mA;
261.706835339254;0.36932373046875;0.488799998765899;377;0.1900634765625;100 mA;
261.70813533925;0.3697509765625;0.490099998762616;378;0.1900634765625;100 mA;
261.709435339247;0.37017822265625;0.491399998759334;379;0.190093994140625;100 mA;
261.710735339244;0.37060546875;0.492699998756052;380;0.1900634765625;100 mA;
261.712035339241;0.37103271484375;0.49399999875277;381;0.190093994140625;100 mA;
261.713335339237;0.3714599609375;0.495299998749488;382;0.190093994140625;100 mA;
261.714635339234;0.37188720703125;0.496599998746206;383;0.190093994140625;100 mA;
261.715935339231;0.372283935546875;0.497899998742923;384;0.1900634765625;100 mA;
261.717235339227;0.372711181640625;0.499199998739641;385;0.1900634765625;100 mA;
261.718535339224;0.373138427734375;0.500499998736359;386;0.190093994140625;100 mA;
261.719835339221;0.373565673828125;0.501799998733077;387;0.1900634765625;100 mA;
261.721135339218;0.373992919921875;0.503099998729795;388;0.1900634765625;100 mA;
261.722435339214;0.374420166015625;0.504399998726512;389;0.190093994140625;100 mA;
261.723735339211;0.3748779296875;0.50569999872323;390;0.1900634765625;100 mA;
261.725035339208;0.375335693359375;0.506999998719948;391;0.1900634765625;100 mA;
261.726335339205;0.375762939453125;0.508299998716666;392;0.190093994140625;100 mA;
261.727635339201;0.376190185546875;0.509599998713384;393;0.1900634765625;100 mA;
261.728935339198;0.37664794921875;0.510899998710101;394;0.190093994140625;100 mA;
261.730235339195;0.377105712890625;0.512199998706819;395;0.1900634765625;100 mA;
261.731535339191;0.377532958984375;0.513499998703537;396;0.1900634765625;100 mA;
261.732835339188;0.37799072265625;0.514799998700255;397;0.190093994140625;100 mA;
261.734135339185;0.378387451171875;0.516099998696973;398;0.1900634765625;100 mA;
261.735435339182;0.37884521484375;0.517399998693691;399;0.190093994140625;100 mA;
261.736735339178;0.379302978515625;0.518699998690408;400;0.1900634765625;100 mA;
261.738035339175;0.379730224609375;0.519999998687126;401;0.19012451171875;100 mA;
261.739335339172;0.380218505859375;0.521299998683844;402;0.1900634765625;100 mA;
261.740635339168;0.38067626953125;0.522599998680562;403;0.1900634765625;100 mA;
261.741935339165;0.381134033203125;0.52389999867728;404;0.190093994140625;100 mA;
261.743235339162;0.381622314453125;0.525199998673997;405;0.190093994140625;100 mA;
261.744535339159;0.382080078125;0.526499998670715;406;0.1900634765625;100 mA;
261.745835339155;0.382537841796875;0.527799998667433;407;0.190093994140625;100 mA;
261.747135339152;0.382965087890625;0.529099998664151;408;0.1900634765625;100 mA;
261.748435339149;0.383453369140625;0.530399998660869;409;0.190093994140625;100 mA;
261.749735339145;0.383880615234375;0.531699998657587;410;0.190093994140625;100 mA;
261.751035339142;0.384368896484375;0.532999998654304;411;0.190093994140625;100 mA;
261.752335339139;0.38482666015625;0.534299998651022;412;0.1900634765625;100 mA;
261.753635339136;0.385284423828125;0.53559999864774;413;0.19012451171875;100 mA;
261.754935339132;0.385772705078125;0.536899998644458;414;0.190032958984375;100 mA;
261.756235339129;0.38623046875;0.538199998641176;415;0.190093994140625;100 mA;
261.757535339126;0.38671875;0.539499998637893;416;0.1900634765625;100 mA;
261.758835339122;0.38720703125;0.540799998634611;417;0.1900634765625;100 mA;
261.760135339119;0.3876953125;0.542099998631329;418;0.1900634765625;100 mA;
261.761435339116;0.388153076171875;0.543399998628047;419;0.1900634765625;100 mA;
261.762735339113;0.388671875;0.544699998624765;420;0.1900634765625;100 mA;
261.764035339109;0.389129638671875;0.545999998621483;421;0.190093994140625;100 mA;
261.765335339106;0.3896484375;0.5472999986182;422;0.1900634765625;100 mA;
261.766635339103;0.39007568359375;0.548599998614918;423;0.190093994140625;100 mA;
261.767935339099;0.39056396484375;0.549899998611636;424;0.1900634765625;100 mA;
261.769235339096;0.39105224609375;0.551199998608354;425;0.190093994140625;100 mA;
261.770535339093;0.391571044921875;0.552499998605072;426;0.190093994140625;100 mA;
261.77183533909;0.39202880859375;0.553799998601789;427;0.1900634765625;100 mA;
261.773135339086;0.392547607421875;0.555099998598507;428;0.19012451171875;100 mA;
261.774435339083;0.39306640625;0.556399998595225;429;0.1900634765625;100 mA;
261.77573533908;0.393585205078125;0.557699998591943;430;0.1900634765625;100 mA;
261.777035339077;0.394073486328125;0.558999998588661;431;0.1900634765625;100 mA;
261.778335339073;0.39459228515625;0.560299998585378;432;0.1900634765625;100 mA;
261.77963533907;0.395111083984375;0.561599998582096;433;0.1900634765625;100 mA;
261.780935339067;0.3956298828125;0.562899998578814;434;0.1900634765625;100 mA;
261.782235339063;0.396087646484375;0.564199998575532;435;0.1900634765625;100 mA;
261.78353533906;0.3966064453125;0.56549999857225;436;0.190093994140625;100 mA;
261.784835339057;0.397125244140625;0.566799998568968;437;0.190093994140625;100 mA;
261.786135339054;0.39764404296875;0.568099998565685;438;0.1900634765625;100 mA;
261.78743533905;0.398162841796875;0.569399998562403;439;0.190032958984375;100 mA;
261.788735339047;0.398681640625;0.570699998559121;440;0.190093994140625;100 mA;
261.790035339044;0.39923095703125;0.571999998555839;441;0.190032958984375;100 mA;
261.79133533904;0.399749755859375;0.573299998552557;442;0.190093994140625;100 mA;
261.792635339037;0.400299072265625;0.574599998549274;443;0.1900634765625;100 mA;
261.793935339034;0.40081787109375;0.575899998545992;444;0.190032958984375;100 mA;
261.795235339031;0.401397705078125;0.57719999854271;445;0.1900634765625;100 mA;
261.796535339027;0.40191650390625;0.578499998539428;446;0.190093994140625;100 mA;
261.797835339024;0.4024658203125;0.579799998536146;447;0.190093994140625;100 mA;
261.799135339021;0.40301513671875;0.581099998532864;448;0.1900634765625;100 mA;
261.800435339017;0.403533935546875;0.582399998529581;449;0.190032958984375;100 mA;
261.801735339014;0.404083251953125;0.583699998526299;450;0.1900634765625;100 mA;
261.803035339011;0.404632568359375;0.584999998523017;451;0.190093994140625;100 mA;
261.804335339008;0.405181884765625;0.586299998519735;452;0.1900634765625;100 mA;
261.805635339004;0.40576171875;0.587599998516453;453;0.190093994140625;100 mA;
261.806935339001;0.406341552734375;0.58889999851317;454;0.19012451171875;100 mA;
261.808235338998;0.406890869140625;0.590199998509888;455;0.190093994140625;100 mA;
261.809535338994;0.407470703125;0.591499998506606;456;0.1900634765625;100 mA;
261.810835338991;0.408050537109375;0.592799998503324;457;0.190093994140625;100 mA;
261.812135338988;0.40863037109375;0.594099998500042;458;0.190093994140625;100 mA;
261.813435338985;0.409210205078125;0.59539999849676;459;0.1900634765625;100 mA;
261.814735338981;0.4097900390625;0.596699998493477;460;0.190093994140625;100 mA;
261.816035338978;0.41033935546875;0.597999998490195;461;0.1900634765625;100 mA;
261.817335338975;0.410919189453125;0.599299998486913;462;0.1900634765625;100 mA;
261.818635338971;0.411529541015625;0.600599998483631;463;0.190032958984375;100 mA;
261.819935338968;0.412109375;0.601899998480349;464;0.1900634765625;100 mA;
261.821235338965;0.412689208984375;0.603199998477066;465;0.1900634765625;100 mA;
261.822535338962;0.413299560546875;0.604499998473784;466;0.190032958984375;100 mA;
261.823835338958;0.4139404296875;0.605799998470502;467;0.19000244140625;100 mA;
261.825135338955;0.414520263671875;0.60709999846722;468;0.190093994140625;100 mA;
261.826435338952;0.4151611328125;0.608399998463938;469;0.190093994140625;100 mA;
261.827735338949;0.415771484375;0.609699998460655;470;0.190093994140625;100 mA;
261.829035338945;0.416412353515625;0.610999998457373;471;0.190093994140625;100 mA;
261.830335338942;0.417022705078125;0.612299998454091;472;0.190093994140625;100 mA;
261.831635338939;0.417633056640625;0.613599998450809;473;0.1900634765625;100 mA;
261.832935338935;0.41827392578125;0.614899998447527;474;0.19012451171875;100 mA;
261.834235338932;0.41888427734375;0.616199998444245;475;0.190093994140625;100 mA;
261.835535338929;0.419525146484375;0.617499998440962;476;0.1900634765625;100 mA;
261.836835338926;0.420166015625;0.61879999843768;477;0.1900634765625;100 mA;
261.838135338922;0.420806884765625;0.620099998434398;478;0.190093994140625;100 mA;
261.839435338919;0.42144775390625;0.621399998431116;479;0.1900634765625;100 mA;
261.840735338916;0.422119140625;0.622699998427834;480;0.1900634765625;100 mA;
261.842035338912;0.42279052734375;0.623999998424551;481;0.19012451171875;100 mA;
261.843335338909;0.423431396484375;0.625299998421269;482;0.1900634765625;100 mA;
261.844635338906;0.42413330078125;0.626599998417987;483;0.1900634765625;100 mA;
261.845935338903;0.424835205078125;0.627899998414705;484;0.190032958984375;100 mA;
261.847235338899;0.425506591796875;0.629199998411423;485;0.1900634765625;100 mA;
261.848535338896;0.426177978515625;0.630499998408141;486;0.190032958984375;100 mA;
261.849835338893;0.426849365234375;0.631799998404858;487;0.190093994140625;100 mA;
261.851135338889;0.42755126953125;0.633099998401576;488;0.190032958984375;100 mA;
261.852435338886;0.42822265625;0.634399998398294;489;0.1900634765625;100 mA;
261.853735338883;0.428955078125;0.635699998395012;490;0.190032958984375;100 mA;
261.85503533888;0.42962646484375;0.63699999839173;491;0.1900634765625;100 mA;
261.856335338876;0.43035888671875;0.638299998388447;492;0.1900634765625;100 mA;
261.857635338873;0.43109130859375;0.639599998385165;493;0.190032958984375;100 mA;
261.85893533887;0.431854248046875;0.640899998381883;494;0.1900634765625;100 mA;
261.860235338866;0.43255615234375;0.642199998378601;495;0.1900634765625;100 mA;
261.861535338863;0.43328857421875;0.643499998375319;496;0.190032958984375;100 mA;
261.86283533886;0.434051513671875;0.644799998372036;497;0.190032958984375;100 mA;
261.864135338857;0.434814453125;0.646099998368754;498;0.190093994140625;100 mA;
261.865435338853;0.435546875;0.647399998365472;499;0.190093994140625;100 mA;
261.86673533885;0.436309814453125;0.64869999836219;500;0.1900634765625;100 mA;
261.868035338847;0.43707275390625;0.649999998358908;501;0.190032958984375;100 mA;
261.869335338843;0.437835693359375;0.651299998355626;502;0.190032958984375;100 mA;
261.87063533884;0.4385986328125;0.652599998352343;503;0.19012451171875;100 mA;
261.871935338837;0.43939208984375;0.653899998349061;504;0.1900634765625;100 mA;
261.873235338834;0.440216064453125;0.655199998345779;505;0.1900634765625;100 mA;
261.87453533883;0.441009521484375;0.656499998342497;506;0.1900634765625;100 mA;
261.875835338827;0.441864013671875;0.657799998339215;507;0.190093994140625;100 mA;
261.877135338824;0.442657470703125;0.659099998335932;508;0.190093994140625;100 mA;
261.878435338821;0.4434814453125;0.66039999833265;509;0.190093994140625;100 mA;
261.879735338817;0.4443359375;0.661699998329368;510;0.190093994140625;100 mA;
261.881035338814;0.445159912109375;0.662999998326086;511;0.1900634765625;100 mA;
261.882335338811;0.44598388671875;0.664299998322804;512;0.19012451171875;100 mA;
261.883635338807;0.44683837890625;0.665599998319522;513;0.1900634765625;100 mA;
261.884935338804;0.44769287109375;0.666899998316239;514;0.1900634765625;100 mA;
261.886235338801;0.448577880859375;0.668199998312957;515;0.1900634765625;100 mA;
261.887535338798;0.449432373046875;0.669499998309675;516;0.1900634765625;100 mA;
261.888835338794;0.450347900390625;0.670799998306393;517;0.190093994140625;100 mA;
261.890135338791;0.45123291015625;0.672099998303111;518;0.1900634765625;100 mA;
261.891435338788;0.452178955078125;0.673399998299828;519;0.1900634765625;100 mA;
261.892735338784;0.453094482421875;0.674699998296546;520;0.1900634765625;100 mA;
261.894035338781;0.454010009765625;0.675999998293264;521;0.190093994140625;100 mA;
261.895335338778;0.454925537109375;0.677299998289982;522;0.190093994140625;100 mA;
261.896635338775;0.455902099609375;0.6785999982867;523;0.1900634765625;100 mA;
261.897935338771;0.45684814453125;0.679899998283418;524;0.190093994140625;100 mA;
261.899235338768;0.45782470703125;0.681199998280135;525;0.1900634765625;100 mA;
261.900535338765;0.458770751953125;0.682499998276853;526;0.19012451171875;100 mA;
261.901835338761;0.45977783203125;0.683799998273571;527;0.190093994140625;100 mA;
261.903135338758;0.460784912109375;0.685099998270289;528;0.190093994140625;100 mA;
261.904435338755;0.461761474609375;0.686399998267007;529;0.19012451171875;100 mA;
261.905735338752;0.46282958984375;0.687699998263724;530;0.1900634765625;100 mA;
261.907035338748;0.463836669921875;0.688999998260442;531;0.190093994140625;100 mA;
261.908335338745;0.46490478515625;0.69029999825716;532;0.1900634765625;100 mA;
261.909635338742;0.465972900390625;0.691599998253878;533;0.190093994140625;100 mA;
261.910935338738;0.467071533203125;0.692899998250596;534;0.19012451171875;100 mA;
261.912235338735;0.468170166015625;0.694199998247313;535;0.19000244140625;100 mA;
261.913535338732;0.46923828125;0.695499998244031;536;0.1900634765625;100 mA;
261.914835338729;0.470367431640625;0.696799998240749;537;0.1900634765625;100 mA;
261.916135338725;0.47149658203125;0.698099998237467;538;0.1900634765625;100 mA;
261.917435338722;0.472625732421875;0.699399998234185;539;0.1900634765625;100 mA;
261.918735338719;0.47381591796875;0.700699998230903;540;0.1900634765625;100 mA;
261.920035338715;0.4749755859375;0.70199999822762;541;0.1900634765625;100 mA;
261.921335338712;0.476165771484375;0.703299998224338;542;0.190093994140625;100 mA;
261.922635338709;0.47735595703125;0.704599998221056;543;0.190093994140625;100 mA;
261.923935338706;0.478607177734375;0.705899998217774;544;0.1900634765625;100 mA;
261.925235338702;0.4798583984375;0.707199998214492;545;0.190032958984375;100 mA;
261.926535338699;0.481109619140625;0.708499998211209;546;0.190093994140625;100 mA;
261.927835338696;0.482391357421875;0.709799998207927;547;0.190093994140625;100 mA;
261.929135338693;0.483734130859375;0.711099998204645;548;0.19012451171875;100 mA;
261.930435338689;0.485015869140625;0.712399998201363;549;0.1900634765625;100 mA;
261.931735338686;0.486328125;0.713699998198081;550;0.1900634765625;100 mA;
261.933035338683;0.4876708984375;0.714999998194799;551;0.190032958984375;100 mA;
261.934335338679;0.489044189453125;0.716299998191516;552;0.190093994140625;100 mA;
261.935635338676;0.490478515625;0.717599998188234;553;0.190032958984375;100 mA;
261.936935338673;0.49188232421875;0.718899998184952;554;0.190032958984375;100 mA;
261.93823533867;0.493316650390625;0.72019999818167;555;0.19012451171875;100 mA;
261.939535338666;0.494842529296875;0.721499998178388;556;0.1900634765625;100 mA;
261.940835338663;0.496337890625;0.722799998175105;557;0.190093994140625;100 mA;
261.94213533866;0.49786376953125;0.724099998171823;558;0.19012451171875;100 mA;
261.943435338656;0.499420166015625;0.725399998168541;559;0.1900634765625;100 mA;
261.944735338653;0.501007080078125;0.726699998165259;560;0.1900634765625;100 mA;
261.94603533865;0.50262451171875;0.727999998161977;561;0.190032958984375;100 mA;
261.947335338647;0.504241943359375;0.729299998158695;562;0.19012451171875;100 mA;
261.948635338643;0.505889892578125;0.730599998155412;563;0.190093994140625;100 mA;
261.94993533864;0.507598876953125;0.73189999815213;564;0.1900634765625;100 mA;
261.951235338637;0.50927734375;0.733199998148848;565;0.190093994140625;100 mA;
261.952535338633;0.51104736328125;0.734499998145566;566;0.190093994140625;100 mA;
261.95383533863;0.5128173828125;0.735799998142284;567;0.19012451171875;100 mA;
261.955135338627;0.5146484375;0.737099998139001;568;0.1900634765625;100 mA;
261.956435338624;0.516510009765625;0.738399998135719;569;0.190032958984375;100 mA;
261.95773533862;0.518402099609375;0.739699998132437;570;0.190093994140625;100 mA;
261.959035338617;0.5203857421875;0.740999998129155;571;0.190093994140625;100 mA;
261.960335338614;0.522308349609375;0.742299998125873;572;0.19012451171875;100 mA;
261.96163533861;0.524322509765625;0.74359999812259;573;0.190032958984375;100 mA;
261.962935338607;0.526397705078125;0.744899998119308;574;0.1900634765625;100 mA;
261.964235338604;0.528472900390625;0.746199998116026;575;0.190093994140625;100 mA;
261.965535338601;0.530609130859375;0.747499998112744;576;0.19012451171875;100 mA;
261.966835338597;0.53271484375;0.748799998109462;577;0.1900634765625;100 mA;
261.968135338594;0.534942626953125;0.75009999810618;578;0.1900634765625;100 mA;
261.969435338591;0.537200927734375;0.751399998102897;579;0.190032958984375;100 mA;
261.970735338587;0.539520263671875;0.752699998099615;580;0.190093994140625;100 mA;
261.972035338584;0.5418701171875;0.753999998096333;581;0.1900634765625;100 mA;
261.973335338581;0.544281005859375;0.755299998093051;582;0.190093994140625;100 mA;
261.974635338578;0.5467529296875;0.756599998089769;583;0.1900634765625;100 mA;
261.975935338574;0.549224853515625;0.757899998086486;584;0.1900634765625;100 mA;
261.977235338571;0.55181884765625;0.759199998083204;585;0.190093994140625;100 mA;
261.978535338568;0.55438232421875;0.760499998079922;586;0.1900634765625;100 mA;
261.979835338564;0.5570068359375;0.76179999807664;587;0.190093994140625;100 mA;
261.981135338561;0.5596923828125;0.763099998073358;588;0.1900634765625;100 mA;
261.982435338558;0.56243896484375;0.764399998070076;589;0.190093994140625;100 mA;
261.983735338555;0.565155029296875;0.765699998066793;590;0.19012451171875;100 mA;
261.985035338551;0.5679931640625;0.766999998063511;591;0.1900634765625;100 mA;
261.986335338548;0.570831298828125;0.768299998060229;592;0.190032958984375;100 mA;
261.987635338545;0.57373046875;0.769599998056947;593;0.19012451171875;100 mA;
261.988935338542;0.57666015625;0.770899998053665;594;0.1900634765625;100 mA;
261.990235338538;0.579620361328125;0.772199998050382;595;0.190093994140625;100 mA;
261.991535338535;0.5826416015625;0.7734999980471;596;0.190032958984375;100 mA;
261.992835338532;0.585693359375;0.774799998043818;597;0.190032958984375;100 mA;
261.994135338528;0.588714599609375;0.776099998040536;598;0.190093994140625;100 mA;
261.995435338525;0.591796875;0.777399998037254;599;0.19012451171875;100 mA;
261.996735338522;0.594879150390625;0.778699998033971;600;0.1900634765625;100 mA;
261.998035338519;0.597991943359375;0.779999998030689;601;0.1900634765625;100 mA;
261.999335338515;0.601043701171875;0.781299998027407;602;0.190093994140625;100 mA;
262.000635338512;0.6041259765625;0.782599998024125;603;0.1900634765625;100 mA;
262.001935338509;0.60723876953125;0.783899998020843;604;0.1900634765625;100 mA;
262.003235338505;0.610321044921875;0.785199998017561;605;0.190093994140625;100 mA;
262.004535338502;0.613372802734375;0.786499998014278;606;0.190032958984375;100 mA;
262.005835338499;0.616455078125;0.787799998010996;607;0.190093994140625;100 mA;
262.007135338496;0.619537353515625;0.789099998007714;608;0.190032958984375;100 mA;
262.008435338492;0.62255859375;0.790399998004432;609;0.190032958984375;100 mA;
262.009735338489;0.6256103515625;0.79169999800115;610;0.1900634765625;100 mA;
262.011035338486;0.628570556640625;0.792999997997867;611;0.1900634765625;100 mA;
262.012335338482;0.631561279296875;0.794299997994585;612;0.190093994140625;100 mA;
262.013635338479;0.634490966796875;0.795599997991303;613;0.190093994140625;100 mA;
262.014935338476;0.637359619140625;0.796899997988021;614;0.190093994140625;100 mA;
262.016235338473;0.640228271484375;0.798199997984739;615;0.1900634765625;100 mA;
262.017535338469;0.643035888671875;0.799499997981457;616;0.19000244140625;100 mA;
262.018835338466;0.645843505859375;0.800799997978174;617;0.190093994140625;100 mA;
262.020135338463;0.64862060546875;0.802099997974892;618;0.190093994140625;100 mA;
262.021435338459;0.651336669921875;0.80339999797161;619;0.190032958984375;100 mA;
262.022735338456;0.654083251953125;0.804699997968328;620;0.1900634765625;100 mA;
262.024035338453;0.65679931640625;0.805999997965046;621;0.190093994140625;100 mA;
262.02533533845;0.659454345703125;0.807299997961763;622;0.1900634765625;100 mA;
262.026635338446;0.662078857421875;0.808599997958481;623;0.1900634765625;100 mA;
262.027935338443;0.6646728515625;0.809899997955199;624;0.190032958984375;100 mA;
262.02923533844;0.667236328125;0.811199997951917;625;0.190032958984375;100 mA;
262.030535338436;0.669769287109375;0.812499997948635;626;0.190093994140625;100 mA;
262.031835338433;0.6722412109375;0.813799997945353;627;0.19012451171875;100 mA;
262.03313533843;0.6746826171875;0.81509999794207;628;0.1900634765625;100 mA;
262.034435338427;0.6771240234375;0.816399997938788;629;0.1900634765625;100 mA;
262.035735338423;0.679534912109375;0.817699997935506;630;0.190032958984375;100 mA;
262.03703533842;0.681915283203125;0.818999997932224;631;0.190093994140625;100 mA;
262.038335338417;0.684295654296875;0.820299997928942;632;0.1900634765625;100 mA;
262.039635338414;0.686614990234375;0.821599997925659;633;0.19012451171875;100 mA;
262.04093533841;0.68890380859375;0.822899997922377;634;0.190093994140625;100 mA;
262.042235338407;0.69122314453125;0.824199997919095;635;0.190093994140625;100 mA;
262.043535338404;0.693450927734375;0.825499997915813;636;0.190093994140625;100 mA;
262.0448353384;0.6956787109375;0.826799997912531;637;0.190093994140625;100 mA;
262.046135338397;0.6978759765625;0.828099997909248;638;0.190032958984375;100 mA;
262.047435338394;0.70001220703125;0.829399997905966;639;0.190093994140625;100 mA;WE(1).Potential > 0.7 V
262.048735338391;0.7021484375;0.830699997902684;640;0.190032958984375;100 mA;WE(1).Potential > 0.7 V
262.050035338387;0.7042236328125;0.831999997899402;641;0.190032958984375;100 mA;WE(1).Potential > 0.7 V
262.051335338384;0.706329345703125;0.83329999789612;642;0.1900634765625;100 mA;WE(1).Potential > 0.7 V
