Time (s);WE(1).Potential (V);WE(1).Current (A);Corrected time (s);Index;Current range
17.7567289551686;0.600555419921875;1.07330322265625;0;1;1 A
17.7667289551433;0.600128173828125;0.775146484375;0.00999999997475243;2;1 A
17.7767289551181;0.59979248046875;0.6463623046875;0.0199999999495049;3;1 A
17.7867289550928;0.599517822265625;0.5731201171875;0.0299999999242573;4;1 A
17.7967289550676;0.599609375;0.51971435546875;0.0399999998990097;5;1 A
17.8067289550423;0.59954833984375;0.485321044921875;0.0499999998737621;6;1 A
17.8167289550171;0.599639892578125;0.464996337890625;0.0599999998485146;7;1 A
17.8267289549918;0.599609375;0.441741943359375;0.069999999823267;8;1 A
17.8367289549666;0.59954833984375;0.429168701171875;0.0799999997980194;9;1 A
17.8467289549413;0.59967041015625;0.4208984375;0.0899999997727718;10;1 A
17.8567289549161;0.5994873046875;0.406280517578125;0.0999999997475243;11;1 A
17.8667289548908;0.5994873046875;0.40234375;0.109999999722277;12;1 A
17.8767289548656;0.599578857421875;0.39447021484375;0.119999999697029;13;1 A
17.8867289548404;0.5994873046875;0.394012451171875;0.129999999671782;14;1 A
17.8967289548151;0.599578857421875;0.3878173828125;0.139999999646534;15;1 A
17.9067289547899;0.599578857421875;0.387725830078125;0.149999999621286;16;1 A
17.9167289547646;0.59954833984375;0.389312744140625;0.159999999596039;17;1 A
17.9267289547394;0.59954833984375;0.3843994140625;0.169999999570791;18;1 A
17.9367289547141;0.599578857421875;0.387481689453125;0.179999999545544;19;1 A
17.9467289546889;0.599517822265625;0.382049560546875;0.189999999520296;20;1 A
17.9567289546636;0.59942626953125;0.385986328125;0.199999999495049;21;1 A
17.9667289546384;0.59954833984375;0.3795166015625;0.209999999469801;22;1 A
17.9767289546131;0.59954833984375;0.37945556640625;0.219999999444553;23;1 A
17.9867289545879;0.59954833984375;0.382293701171875;0.229999999419306;24;1 A
17.9967289545626;0.599517822265625;0.375579833984375;0.239999999394058;25;1 A
18.0067289545374;0.599609375;0.377532958984375;0.249999999368811;26;1 A
18.0167289545121;0.599609375;0.3702392578125;0.259999999343563;27;1 A
18.0267289544869;0.59942626953125;0.37371826171875;0.269999999318316;28;1 A
18.0367289544616;0.5994873046875;0.37774658203125;0.279999999293068;29;1 A
18.0467289544364;0.599517822265625;0.376983642578125;0.28999999926782;30;1 A
18.0567289544111;0.59967041015625;0.379791259765625;0.299999999242573;31;1 A
18.0667289543859;0.59954833984375;0.372314453125;0.309999999217325;32;1 A
18.0767289543606;0.59954833984375;0.3739013671875;0.319999999192078;33;1 A
18.0867289543354;0.599639892578125;0.368988037109375;0.32999999916683;34;1 A
18.0967289543102;0.5994873046875;0.3748779296875;0.339999999141583;35;1 A
18.1067289542849;0.59954833984375;0.3758544921875;0.349999999116335;36;1 A
18.1167289542597;0.599456787109375;0.375640869140625;0.359999999091087;37;1 A
18.1267289542344;0.599517822265625;0.38177490234375;0.36999999906584;38;1 A
18.1367289542092;0.599578857421875;0.378204345703125;0.379999999040592;39;1 A
18.1467289541839;0.599517822265625;0.376129150390625;0.389999999015345;40;1 A
18.1567289541587;0.599639892578125;0.370147705078125;0.399999998990097;41;1 A
18.1667289541334;0.599517822265625;0.36663818359375;0.40999999896485;42;1 A
18.1767289541082;0.599639892578125;0.366302490234375;0.419999998939602;43;1 A
18.1867289540829;0.59954833984375;0.36151123046875;0.429999998914354;44;1 A
18.1967289540577;0.599456787109375;0.357025146484375;0.439999998889107;45;1 A
18.2067289540324;0.59954833984375;0.35321044921875;0.449999998863859;46;1 A
18.2167289540072;0.5994873046875;0.3577880859375;0.459999998838612;47;1 A
18.2267289539819;0.59967041015625;0.347015380859375;0.469999998813364;48;1 A
18.2367289539567;0.599578857421875;0.3463134765625;0.479999998788116;49;1 A
18.2467289539314;0.599578857421875;0.349456787109375;0.489999998762869;50;1 A
18.2567289539062;0.59967041015625;0.342498779296875;0.499999998737621;51;1 A
18.2667289538809;0.59942626953125;0.3441162109375;0.509999998712374;52;1 A
18.2767289538557;0.599517822265625;0.33978271484375;0.519999998687126;53;1 A
18.2867289538304;0.5994873046875;0.344573974609375;0.529999998661879;54;1 A
18.2967289538052;0.599639892578125;0.345672607421875;0.539999998636631;55;1 A
18.30672895378;0.599517822265625;0.34765625;0.549999998611383;56;1 A
18.3167289537547;0.599517822265625;0.34906005859375;0.559999998586136;57;1 A
18.3267289537295;0.59967041015625;0.34814453125;0.569999998560888;58;1 A
18.3367289537042;0.599609375;0.3468017578125;0.579999998535641;59;1 A
18.346728953679;0.599517822265625;0.34661865234375;0.589999998510393;60;1 A
18.3567289536537;0.599517822265625;0.342041015625;0.599999998485146;61;1 A
18.3667289536285;0.599578857421875;0.343048095703125;0.609999998459898;62;1 A
18.3767289536032;0.5994873046875;0.341217041015625;0.61999999843465;63;1 A
18.386728953578;0.5994873046875;0.340179443359375;0.629999998409403;64;1 A
18.3967289535527;0.599639892578125;0.342620849609375;0.639999998384155;65;1 A
18.4067289535275;0.5994873046875;0.339324951171875;0.649999998358908;66;1 A
18.4167289535022;0.599639892578125;0.338714599609375;0.65999999833366;67;1 A
18.426728953477;0.599578857421875;0.340484619140625;0.669999998308413;68;1 A
18.4367289534517;0.599517822265625;0.342681884765625;0.679999998283165;69;1 A
18.4467289534265;0.599578857421875;0.344818115234375;0.689999998257917;70;1 A
18.4567289534012;0.5994873046875;0.352569580078125;0.69999999823267;71;1 A
18.466728953376;0.599609375;0.34625244140625;0.709999998207422;72;1 A
18.4767289533507;0.599517822265625;0.345367431640625;0.719999998182175;73;1 A
18.4867289533255;0.599517822265625;0.352783203125;0.729999998156927;74;1 A
18.4967289533002;0.59967041015625;0.3511962890625;0.73999999813168;75;1 A
18.506728953275;0.59954833984375;0.35693359375;0.749999998106432;76;1 A
18.5167289532498;0.599609375;0.350372314453125;0.759999998081184;77;1 A
18.5267289532245;0.599517822265625;0.3463134765625;0.769999998055937;78;1 A
18.5367289531993;0.59967041015625;0.347259521484375;0.779999998030689;79;1 A
18.546728953174;0.599456787109375;0.344940185546875;0.789999998005442;80;1 A
18.5567289531488;0.599517822265625;0.345001220703125;0.799999997980194;81;1 A
18.5667289531235;0.599700927734375;0.343353271484375;0.809999997954947;82;1 A
18.5767289530983;0.59954833984375;0.346832275390625;0.819999997929699;83;1 A
18.586728953073;0.59954833984375;0.347625732421875;0.829999997904451;84;1 A
18.5967289530478;0.599578857421875;0.350433349609375;0.839999997879204;85;1 A
18.6067289530225;0.599609375;0.353424072265625;0.849999997853956;86;1 A
18.6167289529973;0.5994873046875;0.3548583984375;0.859999997828709;87;1 A
18.626728952972;0.5994873046875;0.351806640625;0.869999997803461;88;1 A
18.6367289529468;0.599639892578125;0.34454345703125;0.879999997778214;89;1 A
18.6467289529215;0.5994873046875;0.345855712890625;0.889999997752966;90;1 A
18.6567289528963;0.59967041015625;0.35009765625;0.899999997727718;91;1 A
18.666728952871;0.59967041015625;0.34442138671875;0.909999997702471;92;1 A
18.6767289528458;0.599517822265625;0.343109130859375;0.919999997677223;93;1 A
18.6867289528205;0.599578857421875;0.341094970703125;0.929999997651976;94;1 A
18.6967289527953;0.599456787109375;0.343017578125;0.939999997626728;95;1 A
18.70672895277;0.59954833984375;0.3453369140625;0.949999997601481;96;1 A
18.7167289527448;0.599456787109375;0.342864990234375;0.959999997576233;97;1 A
18.7267289527196;0.599517822265625;0.343597412109375;0.969999997550985;98;1 A
18.7367289526943;0.599700927734375;0.343170166015625;0.979999997525738;99;1 A
18.7467289526691;0.599517822265625;0.3438720703125;0.98999999750049;100;1 A
18.7567289526438;0.599639892578125;0.3453369140625;0.999999997475243;101;1 A
18.7667289526186;0.59954833984375;0.346893310546875;1.00999999745;102;1 A
18.7767289525933;0.599609375;0.34588623046875;1.01999999742475;103;1 A
18.7867289525681;0.5994873046875;0.3475341796875;1.0299999973995;104;1 A
18.7967289525428;0.59942626953125;0.353515625;1.03999999737425;105;1 A
18.8067289525176;0.599639892578125;0.3485107421875;1.049999997349;106;1 A
18.8167289524923;0.599639892578125;0.344268798828125;1.05999999732376;107;1 A
18.8267289524671;0.59954833984375;0.3447265625;1.06999999729851;108;1 A
18.8367289524418;0.599578857421875;0.341156005859375;1.07999999727326;109;1 A
18.8467289524166;0.599578857421875;0.3466796875;1.08999999724801;110;1 A
18.8567289523913;0.599517822265625;0.342987060546875;1.09999999722277;111;1 A
18.8667289523661;0.5994873046875;0.347991943359375;1.10999999719752;112;1 A
18.8767289523408;0.599639892578125;0.350067138671875;1.11999999717227;113;1 A
18.8867289523156;0.599578857421875;0.344329833984375;1.12999999714702;114;1 A
18.8967289522903;0.599639892578125;0.3460693359375;1.13999999712178;115;1 A
18.9067289522651;0.59954833984375;0.343963623046875;1.14999999709653;116;1 A
18.9167289522399;0.59954833984375;0.351776123046875;1.15999999707128;117;1 A
18.9267289522146;0.599609375;0.348663330078125;1.16999999704603;118;1 A
18.9367289521894;0.5994873046875;0.34771728515625;1.17999999702079;119;1 A
18.9467289521641;0.5994873046875;0.353271484375;1.18999999699554;120;1 A
18.9567289521389;0.59954833984375;0.35400390625;1.19999999697029;121;1 A
18.9667289521136;0.59954833984375;0.356475830078125;1.20999999694504;122;1 A
18.9767289520884;0.599609375;0.3516845703125;1.2199999969198;123;1 A
18.9867289520631;0.59954833984375;0.3485107421875;1.22999999689455;124;1 A
18.9967289520379;0.599639892578125;0.34686279296875;1.2399999968693;125;1 A
19.0067289520126;0.59954833984375;0.34808349609375;1.24999999684405;126;1 A
19.0167289519874;0.599609375;0.3494873046875;1.25999999681881;127;1 A
19.0267289519621;0.599517822265625;0.3458251953125;1.26999999679356;128;1 A
19.0367289519369;0.59954833984375;0.34759521484375;1.27999999676831;129;1 A
19.0467289519116;0.59967041015625;0.34661865234375;1.28999999674306;130;1 A
19.0567289518864;0.599578857421875;0.3433837890625;1.29999999671782;131;1 A
19.0667289518611;0.599700927734375;0.346954345703125;1.30999999669257;132;1 A
19.0767289518359;0.599517822265625;0.344207763671875;1.31999999666732;133;1 A
19.0867289518106;0.599639892578125;0.346832275390625;1.32999999664207;134;1 A
19.0967289517854;0.59954833984375;0.34747314453125;1.33999999661683;135;1 A
19.1067289517601;0.59942626953125;0.35174560546875;1.34999999659158;136;1 A
19.1167289517349;0.59954833984375;0.351776123046875;1.35999999656633;137;1 A
19.1267289517097;0.5994873046875;0.3463134765625;1.36999999654108;138;1 A
19.1367289516844;0.599609375;0.34588623046875;1.37999999651583;139;1 A
19.1467289516592;0.59954833984375;0.344573974609375;1.38999999649059;140;1 A
19.1567289516339;0.599609375;0.346160888671875;1.39999999646534;141;1 A
19.1667289516087;0.599578857421875;0.343658447265625;1.40999999644009;142;1 A
19.1767289515834;0.599578857421875;0.345367431640625;1.41999999641484;143;1 A
19.1867289515582;0.599609375;0.34979248046875;1.4299999963896;144;1 A
19.1967289515329;0.59954833984375;0.35394287109375;1.43999999636435;145;1 A
19.2067289515077;0.599517822265625;0.35321044921875;1.4499999963391;146;1 A
19.2167289514824;0.599517822265625;0.34796142578125;1.45999999631385;147;1 A
19.2267289514572;0.5994873046875;0.346435546875;1.46999999628861;148;1 A
19.2367289514319;0.599700927734375;0.343841552734375;1.47999999626336;149;1 A
19.2467289514067;0.599517822265625;0.343231201171875;1.48999999623811;150;1 A
19.2567289513814;0.599639892578125;0.34661865234375;1.49999999621286;151;1 A
19.2667289513562;0.59954833984375;0.345672607421875;1.50999999618762;152;1 A
19.2767289513309;0.5994873046875;0.34747314453125;1.51999999616237;153;1 A
19.2867289513057;0.599609375;0.3511962890625;1.52999999613712;154;1 A
19.2967289512804;0.599609375;0.35369873046875;1.53999999611187;155;1 A
19.3067289512552;0.599609375;0.3511962890625;1.54999999608663;156;1 A
19.3167289512299;0.599517822265625;0.34552001953125;1.55999999606138;157;1 A
19.3267289512047;0.599609375;0.347564697265625;1.56999999603613;158;1 A
19.3367289511795;0.599639892578125;0.34283447265625;1.57999999601088;159;1 A
19.3467289511542;0.59954833984375;0.3453369140625;1.58999999598564;160;1 A
19.356728951129;0.59954833984375;0.346038818359375;1.59999999596039;161;1 A
19.3667289511037;0.599517822265625;0.34747314453125;1.60999999593514;162;1 A
19.3767289510785;0.599609375;0.35162353515625;1.61999999590989;163;1 A
19.3867289510532;0.5994873046875;0.344940185546875;1.62999999588465;164;1 A
19.396728951028;0.599517822265625;0.35284423828125;1.6399999958594;165;1 A
19.4067289510027;0.599761962890625;0.354827880859375;1.64999999583415;166;1 A
19.4167289509775;0.599578857421875;0.354583740234375;1.6599999958089;167;1 A
19.4267289509522;0.599609375;0.3494873046875;1.66999999578366;168;1 A
19.436728950927;0.599517822265625;0.346160888671875;1.67999999575841;169;1 A
19.4467289509017;0.599517822265625;0.345123291015625;1.68999999573316;170;1 A
19.4567289508765;0.599578857421875;0.341400146484375;1.69999999570791;171;1 A
19.4667289508512;0.5994873046875;0.341278076171875;1.70999999568267;172;1 A
19.476728950826;0.599639892578125;0.341583251953125;1.71999999565742;173;1 A
19.4867289508007;0.5994873046875;0.34747314453125;1.72999999563217;174;1 A
19.4967289507755;0.599639892578125;0.350341796875;1.73999999560692;175;1 A
19.5067289507502;0.59954833984375;0.35107421875;1.74999999558167;176;1 A
19.516728950725;0.599517822265625;0.356201171875;1.75999999555643;177;1 A
19.5267289506997;0.599578857421875;0.351043701171875;1.76999999553118;178;1 A
19.5367289506745;0.599578857421875;0.345062255859375;1.77999999550593;179;1 A
19.5467289506493;0.599609375;0.34686279296875;1.78999999548068;180;1 A
19.556728950624;0.59942626953125;0.344696044921875;1.79999999545544;181;1 A
19.5667289505988;0.599517822265625;0.3489990234375;1.80999999543019;182;1 A
19.5767289505735;0.599578857421875;0.3426513671875;1.81999999540494;183;1 A
19.5867289505483;0.59954833984375;0.3433837890625;1.82999999537969;184;1 A
19.596728950523;0.59954833984375;0.3431396484375;1.83999999535445;185;1 A
19.6067289504978;0.599517822265625;0.34075927734375;1.8499999953292;186;1 A
19.6167289504725;0.59954833984375;0.343292236328125;1.85999999530395;187;1 A
19.6267289504473;0.599517822265625;0.3458251953125;1.8699999952787;188;1 A
19.636728950422;0.599456787109375;0.34747314453125;1.87999999525346;189;1 A
19.6467289503968;0.59967041015625;0.34393310546875;1.88999999522821;190;1 A
19.6567289503715;0.599639892578125;0.345550537109375;1.89999999520296;191;1 A
19.6667289503463;0.59967041015625;0.345184326171875;1.90999999517771;192;1 A
19.676728950321;0.59954833984375;0.350860595703125;1.91999999515247;193;1 A
19.6867289502958;0.599578857421875;0.3519287109375;1.92999999512722;194;1 A
19.6967289502705;0.599578857421875;0.344940185546875;1.93999999510197;195;1 A
19.7067289502453;0.599334716796875;0.34814453125;1.94999999507672;196;1 A
19.71672895022;0.599609375;0.347625732421875;1.95999999505148;197;1 A
19.7267289501948;0.599517822265625;0.349945068359375;1.96999999502623;198;1 A
19.7367289501695;0.59954833984375;0.358428955078125;1.97999999500098;199;1 A
19.7467289501443;0.59954833984375;0.35552978515625;1.98999999497573;200;1 A
19.7567289501191;0.599517822265625;0.356201171875;1.99999999495049;201;1 A
19.7667289500938;0.599639892578125;0.353424072265625;2.00999999492524;202;1 A
19.7767289500686;0.599517822265625;0.35546875;2.01999999489999;203;1 A
19.7867289500433;0.599609375;0.35809326171875;2.02999999487474;204;1 A
19.7967289500181;0.5994873046875;0.354827880859375;2.0399999948495;205;1 A
19.8067289499928;0.59954833984375;0.3564453125;2.04999999482425;206;1 A
19.8167289499676;0.599609375;0.357818603515625;2.059999994799;207;1 A
19.8267289499423;0.59954833984375;0.360687255859375;2.06999999477375;208;1 A
19.8367289499171;0.599517822265625;0.355377197265625;2.0799999947485;209;1 A
19.8467289498918;0.599456787109375;0.355865478515625;2.08999999472326;210;1 A
19.8567289498666;0.59954833984375;0.3662109375;2.09999999469801;211;1 A
19.8667289498413;0.5994873046875;0.364593505859375;2.10999999467276;212;1 A
19.8767289498161;0.599456787109375;0.357208251953125;2.11999999464751;213;1 A
19.8867289497908;0.599609375;0.351318359375;2.12999999462227;214;1 A
19.8967289497656;0.59954833984375;0.347686767578125;2.13999999459702;215;1 A
19.9067289497403;0.599700927734375;0.353179931640625;2.14999999457177;216;1 A
19.9167289497151;0.5994873046875;0.350341796875;2.15999999454652;217;1 A
19.9267289496898;0.599578857421875;0.350128173828125;2.16999999452128;218;1 A
19.9367289496646;0.599639892578125;0.350006103515625;2.17999999449603;219;1 A
19.9467289496394;0.59942626953125;0.350738525390625;2.18999999447078;220;1 A
19.9567289496141;0.59954833984375;0.35504150390625;2.19999999444553;221;1 A
19.9667289495889;0.599517822265625;0.35394287109375;2.20999999442029;222;1 A
19.9767289495636;0.599609375;0.354766845703125;2.21999999439504;223;1 A
19.9867289495384;0.599639892578125;0.355682373046875;2.22999999436979;224;1 A
19.9967289495131;0.59954833984375;0.36279296875;2.23999999434454;225;1 A
20.0067289494879;0.5997314453125;0.360687255859375;2.2499999943193;226;1 A
20.0167289494626;0.599609375;0.35504150390625;2.25999999429405;227;1 A
20.0267289494374;0.599639892578125;0.35076904296875;2.2699999942688;228;1 A
20.0367289494121;0.5994873046875;0.343231201171875;2.27999999424355;229;1 A
20.0467289493869;0.599517822265625;0.34295654296875;2.28999999421831;230;1 A
20.0567289493616;0.599609375;0.338287353515625;2.29999999419306;231;1 A
20.0667289493364;0.5994873046875;0.339874267578125;2.30999999416781;232;1 A
20.0767289493111;0.599609375;0.344329833984375;2.31999999414256;233;1 A
20.0867289492859;0.599578857421875;0.34478759765625;2.32999999411732;234;1 A
20.0967289492606;0.599517822265625;0.34857177734375;2.33999999409207;235;1 A
20.1067289492354;0.59967041015625;0.34600830078125;2.34999999406682;236;1 A
20.1167289492101;0.5994873046875;0.350128173828125;2.35999999404157;237;1 A
20.1267289491849;0.59967041015625;0.34765625;2.36999999401633;238;1 A
20.1367289491596;0.599609375;0.345794677734375;2.37999999399108;239;1 A
20.1467289491344;0.599578857421875;0.3497314453125;2.38999999396583;240;1 A
20.1567289491092;0.599456787109375;0.3529052734375;2.39999999394058;241;1 A
20.1667289490839;0.599639892578125;0.357086181640625;2.40999999391533;242;1 A
20.1767289490587;0.5997314453125;0.35205078125;2.41999999389009;243;1 A
20.1867289490334;0.599456787109375;0.35272216796875;2.42999999386484;244;1 A
20.1967289490082;0.599456787109375;0.358734130859375;2.43999999383959;245;1 A
20.2067289489829;0.599456787109375;0.355194091796875;2.44999999381434;246;1 A
20.2167289489577;0.599609375;0.362518310546875;2.4599999937891;247;1 A
20.2267289489324;0.599517822265625;0.356781005859375;2.46999999376385;248;1 A
20.2367289489072;0.5994873046875;0.35662841796875;2.4799999937386;249;1 A
20.2467289488819;0.59967041015625;0.350830078125;2.48999999371335;250;1 A
20.2567289488567;0.59954833984375;0.347930908203125;2.49999999368811;251;1 A
20.2667289488314;0.599517822265625;0.350677490234375;2.50999999366286;252;1 A
20.2767289488062;0.5994873046875;0.3485107421875;2.51999999363761;253;1 A
20.2867289487809;0.599517822265625;0.350250244140625;2.52999999361236;254;1 A
20.2967289487557;0.599578857421875;0.348907470703125;2.53999999358712;255;1 A
20.3067289487304;0.599517822265625;0.347076416015625;2.54999999356187;256;1 A
20.3167289487052;0.599700927734375;0.3486328125;2.55999999353662;257;1 A
20.3267289486799;0.599456787109375;0.350494384765625;2.56999999351137;258;1 A
20.3367289486547;0.599517822265625;0.3514404296875;2.57999999348613;259;1 A
20.3467289486294;0.59967041015625;0.350433349609375;2.58999999346088;260;1 A
20.3567289486042;0.599517822265625;0.355072021484375;2.59999999343563;261;1 A
20.366728948579;0.599639892578125;0.35552978515625;2.60999999341038;262;1 A
20.3767289485537;0.599517822265625;0.356201171875;2.61999999338514;263;1 A
20.3867289485285;0.599578857421875;0.351226806640625;2.62999999335989;264;1 A
20.3967289485032;0.5994873046875;0.34893798828125;2.63999999333464;265;1 A
20.406728948478;0.599517822265625;0.354278564453125;2.64999999330939;266;1 A
20.4167289484527;0.59967041015625;0.35198974609375;2.65999999328415;267;1 A
20.4267289484275;0.59954833984375;0.351409912109375;2.6699999932589;268;1 A
20.4367289484022;0.59967041015625;0.353424072265625;2.67999999323365;269;1 A
20.446728948377;0.5994873046875;0.352630615234375;2.6899999932084;270;1 A
20.4567289483517;0.599456787109375;0.353118896484375;2.69999999318316;271;1 A
20.4667289483265;0.59954833984375;0.343292236328125;2.70999999315791;272;1 A
20.4767289483012;0.5994873046875;0.340118408203125;2.71999999313266;273;1 A
20.486728948276;0.599700927734375;0.33770751953125;2.72999999310741;274;1 A
20.4967289482507;0.599578857421875;0.337677001953125;2.73999999308217;275;1 A
20.5067289482255;0.599578857421875;0.33978271484375;2.74999999305692;276;1 A
20.5167289482002;0.59954833984375;0.3414306640625;2.75999999303167;277;1 A
20.526728948175;0.599578857421875;0.353363037109375;2.76999999300642;278;1 A
20.5367289481497;0.599609375;0.34771728515625;2.77999999298117;279;1 A
20.5467289481245;0.5994873046875;0.344879150390625;2.78999999295593;280;1 A
20.5567289480992;0.59967041015625;0.34405517578125;2.79999999293068;281;1 A
20.566728948074;0.599517822265625;0.341278076171875;2.80999999290543;282;1 A
20.5767289480488;0.599578857421875;0.341796875;2.81999999288018;283;1 A
20.5867289480235;0.599639892578125;0.341552734375;2.82999999285494;284;1 A
20.5967289479983;0.599578857421875;0.344207763671875;2.83999999282969;285;1 A
20.606728947973;0.59967041015625;0.340606689453125;2.84999999280444;286;1 A
20.6167289479478;0.5994873046875;0.34259033203125;2.85999999277919;287;1 A
20.6267289479225;0.59954833984375;0.346832275390625;2.86999999275395;288;1 A
20.6367289478973;0.599456787109375;0.34185791015625;2.8799999927287;289;1 A
20.646728947872;0.5994873046875;0.341278076171875;2.88999999270345;290;1 A
20.6567289478468;0.599578857421875;0.337860107421875;2.8999999926782;291;1 A
20.6667289478215;0.599609375;0.340423583984375;2.90999999265296;292;1 A
20.6767289477963;0.599609375;0.339630126953125;2.91999999262771;293;1 A
20.686728947771;0.599517822265625;0.339691162109375;2.92999999260246;294;1 A
20.6967289477458;0.59942626953125;0.3414306640625;2.93999999257721;295;1 A
20.7067289477205;0.599578857421875;0.33892822265625;2.94999999255197;296;1 A
20.7167289476953;0.599456787109375;0.349029541015625;2.95999999252672;297;1 A
20.72672894767;0.5997314453125;0.345733642578125;2.96999999250147;298;1 A
20.7367289476448;0.59954833984375;0.347381591796875;2.97999999247622;299;1 A
20.7467289476195;0.59954833984375;0.349273681640625;2.98999999245098;300;1 A
20.7567289475943;0.599395751953125;0.351165771484375;2.99999999242573;301;1 A
20.766728947569;0.599609375;0.355438232421875;3.00999999240048;302;1 A
20.7767289475438;0.59967041015625;0.351593017578125;3.01999999237523;303;1 A
20.7867289475186;0.599456787109375;0.348907470703125;3.02999999234999;304;1 A
20.7967289474933;0.599578857421875;0.346466064453125;3.03999999232474;305;1 A
20.8067289474681;0.5994873046875;0.345489501953125;3.04999999229949;306;1 A
20.8167289474428;0.599517822265625;0.345489501953125;3.05999999227424;307;1 A
20.8267289474176;0.599609375;0.34747314453125;3.069999992249;308;1 A
20.8367289473923;0.599578857421875;0.35186767578125;3.07999999222375;309;1 A
20.8467289473671;0.599609375;0.352203369140625;3.0899999921985;310;1 A
20.8567289473418;0.599578857421875;0.35302734375;3.09999999217325;311;1 A
20.8667289473166;0.59942626953125;0.357513427734375;3.109999992148;312;1 A
20.8767289472913;0.5994873046875;0.35455322265625;3.11999999212276;313;1 A
20.8867289472661;0.5994873046875;0.355712890625;3.12999999209751;314;1 A
20.8967289472408;0.59954833984375;0.3492431640625;3.13999999207226;315;1 A
20.9067289472156;0.59954833984375;0.351531982421875;3.14999999204701;316;1 A
20.9167289471903;0.59967041015625;0.3486328125;3.15999999202177;317;1 A
20.9267289471651;0.59942626953125;0.34625244140625;3.16999999199652;318;1 A
20.9367289471398;0.59954833984375;0.352569580078125;3.17999999197127;319;1 A
20.9467289471146;0.59967041015625;0.349029541015625;3.18999999194602;320;1 A
20.9567289470893;0.599609375;0.352874755859375;3.19999999192078;321;1 A
20.9667289470641;0.599609375;0.34393310546875;3.20999999189553;322;1 A
20.9767289470389;0.59954833984375;0.340240478515625;3.21999999187028;323;1 A
20.9867289470136;0.59954833984375;0.346160888671875;3.22999999184503;324;1 A
20.9967289469884;0.59942626953125;0.34124755859375;3.23999999181979;325;1 A
21.0067289469631;0.599609375;0.3463134765625;3.24999999179454;326;1 A
21.0167289469379;0.59967041015625;0.340545654296875;3.25999999176929;327;1 A
21.0267289469126;0.599517822265625;0.341583251953125;3.26999999174404;328;1 A
21.0367289468874;0.599609375;0.34063720703125;3.2799999917188;329;1 A
21.0467289468621;0.599456787109375;0.339935302734375;3.28999999169355;330;1 A
21.0567289468369;0.599578857421875;0.344268798828125;3.2999999916683;331;1 A
21.0667289468116;0.599639892578125;0.3470458984375;3.30999999164305;332;1 A
21.0767289467864;0.599639892578125;0.34814453125;3.31999999161781;333;1 A
21.0867289467611;0.599761962890625;0.341705322265625;3.32999999159256;334;1 A
21.0967289467359;0.599609375;0.339202880859375;3.33999999156731;335;1 A
21.1067289467106;0.59954833984375;0.33892822265625;3.34999999154206;336;1 A
21.1167289466854;0.599456787109375;0.339080810546875;3.35999999151682;337;1 A
21.1267289466601;0.599578857421875;0.344024658203125;3.36999999149157;338;1 A
21.1367289466349;0.599578857421875;0.34075927734375;3.37999999146632;339;1 A
21.1467289466096;0.59954833984375;0.345428466796875;3.38999999144107;340;1 A
21.1567289465844;0.599609375;0.341583251953125;3.39999999141583;341;1 A
21.1667289465591;0.599456787109375;0.339874267578125;3.40999999139058;342;1 A
21.1767289465339;0.599609375;0.347259521484375;3.41999999136533;343;1 A
21.1867289465087;0.59967041015625;0.344696044921875;3.42999999134008;344;1 A
21.1967289464834;0.599609375;0.347259521484375;3.43999999131483;345;1 A
21.2067289464582;0.599609375;0.345367431640625;3.44999999128959;346;1 A
21.2167289464329;0.599517822265625;0.34869384765625;3.45999999126434;347;1 A
21.2267289464077;0.59954833984375;0.34625244140625;3.46999999123909;348;1 A
21.2367289463824;0.599456787109375;0.3460693359375;3.47999999121384;349;1 A
21.2467289463572;0.599517822265625;0.3468017578125;3.4899999911886;350;1 A
21.2567289463319;0.599639892578125;0.34368896484375;3.49999999116335;351;1 A
21.2667289463067;0.599578857421875;0.34967041015625;3.5099999911381;352;1 A
21.2767289462814;0.599639892578125;0.347930908203125;3.51999999111285;353;1 A
21.2867289462562;0.599517822265625;0.339996337890625;3.52999999108761;354;1 A
21.2967289462309;0.599609375;0.34197998046875;3.53999999106236;355;1 A
21.3067289462057;0.59954833984375;0.33795166015625;3.54999999103711;356;1 A
21.3167289461804;0.599639892578125;0.34033203125;3.55999999101186;357;1 A
21.3267289461552;0.59967041015625;0.33795166015625;3.56999999098662;358;1 A
21.3367289461299;0.599639892578125;0.33209228515625;3.57999999096137;359;1 A
21.3467289461047;0.5994873046875;0.33477783203125;3.58999999093612;360;1 A
21.3567289460794;0.59942626953125;0.33746337890625;3.59999999091087;361;1 A
21.3667289460542;0.599639892578125;0.336639404296875;3.60999999088563;362;1 A
21.3767289460289;0.599609375;0.334320068359375;3.61999999086038;363;1 A
21.3867289460037;0.59942626953125;0.340576171875;3.62999999083513;364;1 A
21.3967289459785;0.59967041015625;0.337982177734375;3.63999999080988;365;1 A
21.4067289459532;0.599517822265625;0.33917236328125;3.64999999078464;366;1 A
21.416728945928;0.599609375;0.3433837890625;3.65999999075939;367;1 A
21.4267289459027;0.599639892578125;0.342987060546875;3.66999999073414;368;1 A
21.4367289458775;0.59967041015625;0.33807373046875;3.67999999070889;369;1 A
21.4467289458522;0.59967041015625;0.3369140625;3.68999999068365;370;1 A
21.456728945827;0.599456787109375;0.336883544921875;3.6999999906584;371;1 A
21.4667289458017;0.599456787109375;0.339874267578125;3.70999999063315;372;1 A
21.4767289457765;0.599395751953125;0.3555908203125;3.7199999906079;373;1 A
21.4867289457512;0.599609375;0.35736083984375;3.72999999058266;374;1 A
21.496728945726;0.599639892578125;0.354644775390625;3.73999999055741;375;1 A
21.5067289457007;0.599578857421875;0.354583740234375;3.74999999053216;376;1 A
21.5167289456755;0.5997314453125;0.351715087890625;3.75999999050691;377;1 A
21.5267289456502;0.599578857421875;0.349395751953125;3.76999999048167;378;1 A
21.536728945625;0.599609375;0.353485107421875;3.77999999045642;379;1 A
21.5467289455997;0.599578857421875;0.357879638671875;3.78999999043117;380;1 A
21.5567289455745;0.59954833984375;0.3564453125;3.79999999040592;381;1 A
21.5667289455492;0.59954833984375;0.35284423828125;3.80999999038067;382;1 A
21.576728945524;0.599517822265625;0.34869384765625;3.81999999035543;383;1 A
21.5867289454987;0.599517822265625;0.35162353515625;3.82999999033018;384;1 A
21.5967289454735;0.59942626953125;0.3480224609375;3.83999999030493;385;1 A
21.6067289454483;0.599578857421875;0.353179931640625;3.84999999027968;386;1 A
21.616728945423;0.599609375;0.35162353515625;3.85999999025444;387;1 A
21.6267289453978;0.599517822265625;0.34771728515625;3.86999999022919;388;1 A
21.6367289453725;0.59967041015625;0.344512939453125;3.87999999020394;389;1 A
21.6467289453473;0.599517822265625;0.3433837890625;3.88999999017869;390;1 A
21.656728945322;0.599517822265625;0.3536376953125;3.89999999015345;391;1 A
21.6667289452968;0.599639892578125;0.346405029296875;3.9099999901282;392;1 A
21.6767289452715;0.599609375;0.349578857421875;3.91999999010295;393;1 A
21.6867289452463;0.599761962890625;0.347259521484375;3.9299999900777;394;1 A
21.696728945221;0.599517822265625;0.347076416015625;3.93999999005246;395;1 A
21.7067289451958;0.5994873046875;0.347564697265625;3.94999999002721;396;1 A
21.7167289451705;0.5994873046875;0.344024658203125;3.95999999000196;397;1 A
21.7267289451453;0.5994873046875;0.34869384765625;3.96999998997671;398;1 A
21.73672894512;0.5994873046875;0.345245361328125;3.97999998995147;399;1 A
21.7467289450948;0.599578857421875;0.346343994140625;3.98999998992622;400;1 A
21.7567289450695;0.599700927734375;0.34429931640625;3.99999998990097;401;1 A
21.7667289450443;0.599456787109375;0.34814453125;4.00999998987572;402;1 A
21.776728945019;0.599700927734375;0.348663330078125;4.01999998985048;403;1 A
21.7867289449938;0.599639892578125;0.3448486328125;4.02999998982523;404;1 A
21.7967289449685;0.5994873046875;0.348541259765625;4.03999998979998;405;1 A
21.8067289449433;0.599578857421875;0.347503662109375;4.04999998977473;406;1 A
21.8167289449181;0.599517822265625;0.3482666015625;4.05999998974949;407;1 A
21.8267289448928;0.59967041015625;0.347991943359375;4.06999998972424;408;1 A
21.8367289448676;0.5994873046875;0.348358154296875;4.07999998969899;409;1 A
21.8467289448423;0.599578857421875;0.348419189453125;4.08999998967374;410;1 A
21.8567289448171;0.59967041015625;0.347259521484375;4.0999999896485;411;1 A
21.8667289447918;0.599609375;0.345855712890625;4.10999998962325;412;1 A
21.8767289447666;0.59954833984375;0.343017578125;4.119999989598;413;1 A
21.8867289447413;0.599456787109375;0.34747314453125;4.12999998957275;414;1 A
21.8967289447161;0.599517822265625;0.347991943359375;4.1399999895475;415;1 A
21.9067289446908;0.599517822265625;0.349639892578125;4.14999998952226;416;1 A
21.9167289446656;0.5994873046875;0.352813720703125;4.15999998949701;417;1 A
21.9267289446403;0.599761962890625;0.3543701171875;4.16999998947176;418;1 A
21.9367289446151;0.599609375;0.351806640625;4.17999998944651;419;1 A
21.9467289445898;0.599609375;0.34814453125;4.18999998942127;420;1 A
21.9567289445646;0.59954833984375;0.34478759765625;4.19999998939602;421;1 A
21.9667289445393;0.59954833984375;0.352508544921875;4.20999998937077;422;1 A
21.9767289445141;0.599639892578125;0.347412109375;4.21999998934552;423;1 A
21.9867289444888;0.5994873046875;0.348876953125;4.22999998932028;424;1 A
21.9967289444636;0.59967041015625;0.3505859375;4.23999998929503;425;1 A
22.0067289444384;0.599456787109375;0.35272216796875;4.24999998926978;426;1 A
22.0167289444131;0.599609375;0.357666015625;4.25999998924453;427;1 A
22.0267289443879;0.599700927734375;0.3487548828125;4.26999998921929;428;1 A
22.0367289443626;0.599609375;0.3531494140625;4.27999998919404;429;1 A
22.0467289443374;0.599578857421875;0.352935791015625;4.28999998916879;430;1 A
22.0567289443121;0.599456787109375;0.3531494140625;4.29999998914354;431;1 A
22.0667289442869;0.599578857421875;0.34832763671875;4.3099999891183;432;1 A
22.0767289442616;0.5994873046875;0.3433837890625;4.31999998909305;433;1 A
22.0867289442364;0.5994873046875;0.344390869140625;4.3299999890678;434;1 A
22.0967289442111;0.599639892578125;0.345947265625;4.33999998904255;435;1 A
22.1067289441859;0.5994873046875;0.35113525390625;4.34999998901731;436;1 A
22.1167289441606;0.599609375;0.3489990234375;4.35999998899206;437;1 A
22.1267289441354;0.599456787109375;0.348541259765625;4.36999998896681;438;1 A
22.1367289441101;0.5994873046875;0.349395751953125;4.37999998894156;439;1 A
22.1467289440849;0.599578857421875;0.35101318359375;4.38999998891632;440;1 A
22.1567289440596;0.599517822265625;0.352508544921875;4.39999998889107;441;1 A
22.1667289440344;0.599578857421875;0.354034423828125;4.40999998886582;442;1 A
22.1767289440091;0.599609375;0.358062744140625;4.41999998884057;443;1 A
22.1867289439839;0.59954833984375;0.35211181640625;4.42999998881533;444;1 A
22.1967289439586;0.599456787109375;0.3475341796875;4.43999998879008;445;1 A
22.2067289439334;0.599517822265625;0.351409912109375;4.44999998876483;446;1 A
22.2167289439082;0.599609375;0.34759521484375;4.45999998873958;447;1 A
22.2267289438829;0.599609375;0.347381591796875;4.46999998871433;448;1 A
22.2367289438577;0.599639892578125;0.349395751953125;4.47999998868909;449;1 A
22.2467289438324;0.599456787109375;0.34423828125;4.48999998866384;450;1 A
22.2567289438072;0.59954833984375;0.347076416015625;4.49999998863859;451;1 A
22.2667289437819;0.599639892578125;0.343414306640625;4.50999998861334;452;1 A
22.2767289437567;0.599639892578125;0.346832275390625;4.5199999885881;453;1 A
22.2867289437314;0.59954833984375;0.345703125;4.52999998856285;454;1 A
22.2967289437062;0.599517822265625;0.340728759765625;4.5399999885376;455;1 A
22.3067289436809;0.5994873046875;0.349029541015625;4.54999998851235;456;1 A
22.3167289436557;0.59954833984375;0.34912109375;4.55999998848711;457;1 A
22.3267289436304;0.599456787109375;0.355987548828125;4.56999998846186;458;1 A
22.3367289436052;0.599578857421875;0.34686279296875;4.57999998843661;459;1 A
22.3467289435799;0.599578857421875;0.3477783203125;4.58999998841136;460;1 A
22.3567289435547;0.599700927734375;0.346343994140625;4.59999998838612;461;1 A
22.3667289435294;0.599517822265625;0.340301513671875;4.60999998836087;462;1 A
22.3767289435042;0.59954833984375;0.343170166015625;4.61999998833562;463;1 A
22.3867289434789;0.599578857421875;0.3426513671875;4.62999998831037;464;1 A
22.3967289434537;0.599517822265625;0.35076904296875;4.63999998828513;465;1 A
22.4067289434284;0.599517822265625;0.350799560546875;4.64999998825988;466;1 A
22.4167289434032;0.599517822265625;0.35272216796875;4.65999998823463;467;1 A
22.426728943378;0.599456787109375;0.35443115234375;4.66999998820938;468;1 A
22.4367289433527;0.599517822265625;0.350982666015625;4.67999998818414;469;1 A
22.4467289433275;0.599609375;0.35009765625;4.68999998815889;470;1 A
22.4567289433022;0.59967041015625;0.3428955078125;4.69999998813364;471;1 A
22.466728943277;0.599517822265625;0.34014892578125;4.70999998810839;472;1 A
22.4767289432517;0.599609375;0.3421630859375;4.71999998808315;473;1 A
22.4867289432265;0.599517822265625;0.338409423828125;4.7299999880579;474;1 A
22.4967289432012;0.599578857421875;0.342315673828125;4.73999998803265;475;1 A
22.506728943176;0.599517822265625;0.342559814453125;4.7499999880074;476;1 A
22.5167289431507;0.599639892578125;0.345550537109375;4.75999998798216;477;1 A
22.5267289431255;0.599639892578125;0.342681884765625;4.76999998795691;478;1 A
22.5367289431002;0.599578857421875;0.34783935546875;4.77999998793166;479;1 A
22.546728943075;0.59942626953125;0.35406494140625;4.78999998790641;480;1 A
22.5567289430497;0.59954833984375;0.3626708984375;4.79999998788116;481;1 A
22.5667289430245;0.599578857421875;0.363006591796875;4.80999998785592;482;1 A
22.5767289429992;0.599578857421875;0.35650634765625;4.81999998783067;483;1 A
22.586728942974;0.599517822265625;0.355743408203125;4.82999998780542;484;1 A
22.5967289429487;0.5997314453125;0.353118896484375;4.83999998778017;485;1 A
22.6067289429235;0.59954833984375;0.34844970703125;4.84999998775493;486;1 A
22.6167289428982;0.599578857421875;0.346435546875;4.85999998772968;487;1 A
22.626728942873;0.599639892578125;0.345306396484375;4.86999998770443;488;1 A
22.6367289428478;0.59967041015625;0.354827880859375;4.87999998767918;489;1 A
22.6467289428225;0.599639892578125;0.349945068359375;4.88999998765394;490;1 A
22.6567289427973;0.599456787109375;0.35052490234375;4.89999998762869;491;1 A
22.666728942772;0.599517822265625;0.346343994140625;4.90999998760344;492;1 A
22.6767289427468;0.599517822265625;0.342803955078125;4.91999998757819;493;1 A
22.6867289427215;0.599578857421875;0.34393310546875;4.92999998755295;494;1 A
22.6967289426963;0.5997314453125;0.344573974609375;4.9399999875277;495;1 A
22.706728942671;0.599609375;0.350677490234375;4.94999998750245;496;1 A
22.7167289426458;0.599578857421875;0.354217529296875;4.9599999874772;497;1 A
22.7267289426205;0.599517822265625;0.3487548828125;4.96999998745196;498;1 A
22.7367289425953;0.5994873046875;0.358428955078125;4.97999998742671;499;1 A
22.74672894257;0.599578857421875;0.3511962890625;4.98999998740146;500;1 A
