Time (s);WE(1).Potential (V);WE(1).Current (A);Corrected time (s);Index;Current range
0.495163998749831;0.40020751953125;0.0137054443359375;0;1;100 mA
0.505163998724584;0.400604248046875;0.0099945068359375;0.00999999997475243;2;100 mA
0.515163998699336;0.40045166015625;0.0079681396484375;0.0199999999495049;3;100 mA
0.525163998674088;0.400543212890625;0.00673828125;0.0299999999242573;4;100 mA
0.535163998648841;0.400421142578125;0.0058563232421875;0.0399999998990097;5;100 mA
0.545163998623593;0.40057373046875;0.0051483154296875;0.0499999998737621;6;100 mA
0.555163998598346;0.4005126953125;0.004632568359375;0.0599999998485146;7;100 mA
0.565163998573098;0.400543212890625;0.0042633056640625;0.069999999823267;8;100 mA
0.57516399854785;0.400543212890625;0.0039300537109375;0.0799999997980194;9;100 mA
0.585163998522603;0.4005126953125;0.00363433837890625;0.0899999997727718;10;100 mA
0.595163998497355;0.400634765625;0.00337921142578125;0.0999999997475243;11;100 mA
0.605163998472108;0.400543212890625;0.0032183837890625;0.109999999722277;12;100 mA
0.61516399844686;0.40069580078125;0.003050537109375;0.119999999697029;13;100 mA
0.625163998421613;0.400665283203125;0.002860107421875;0.129999999671782;14;100 mA
0.635163998396365;0.400665283203125;0.00273406982421875;0.139999999646534;15;100 mA
0.645163998371117;0.400543212890625;0.00264007568359375;0.149999999621286;16;100 mA
0.65516399834587;0.40057373046875;0.0025372314453125;0.159999999596039;17;100 mA
0.665163998320622;0.400634765625;0.0024200439453125;0.169999999570791;18;100 mA
0.675163998295375;0.400482177734375;0.00231842041015625;0.179999999545544;19;100 mA
0.685163998270127;0.40057373046875;0.00228363037109375;0.189999999520296;20;100 mA
0.69516399824488;0.400482177734375;0.00220794677734375;0.199999999495049;21;100 mA
0.705163998219632;0.400634765625;0.00211517333984375;0.209999999469801;22;100 mA
0.715163998194384;0.40045166015625;0.00205413818359375;0.219999999444553;23;100 mA
0.725163998169137;0.400543212890625;0.00201904296875;0.229999999419306;24;100 mA
0.735163998143889;0.400604248046875;0.00198272705078125;0.239999999394058;25;100 mA
0.745163998118642;0.40057373046875;0.00190032958984375;0.249999999368811;26;100 mA
0.755163998093394;0.400634765625;0.00184722900390625;0.259999999343563;27;100 mA
0.765163998068147;0.400543212890625;0.00183990478515625;0.269999999318316;28;100 mA
0.775163998042899;0.400634765625;0.0018035888671875;0.279999999293068;29;100 mA
0.785163998017651;0.400634765625;0.00175384521484375;0.28999999926782;30;100 mA
0.795163997992404;0.400634765625;0.0016912841796875;0.299999999242573;31;100 mA
0.805163997967156;0.4005126953125;0.0016973876953125;0.309999999217325;32;100 mA
0.815163997941909;0.4005126953125;0.0016717529296875;0.319999999192078;33;100 mA
0.825163997916661;0.400634765625;0.0016107177734375;0.32999999916683;34;100 mA
0.835163997891414;0.400482177734375;0.00157958984375;0.339999999141583;35;100 mA
0.845163997866166;0.4005126953125;0.0015802001953125;0.349999999116335;36;100 mA
0.855163997840918;0.400482177734375;0.00156219482421875;0.359999999091087;37;100 mA
0.865163997815671;0.40057373046875;0.001513671875;0.36999999906584;38;100 mA
0.875163997790423;0.400543212890625;0.00147918701171875;0.379999999040592;39;100 mA
0.885163997765176;0.400543212890625;0.0014910888671875;0.389999999015345;40;100 mA
0.895163997739928;0.40057373046875;0.00147705078125;0.399999998990097;41;100 mA
0.905163997714681;0.400634765625;0.001427001953125;0.40999999896485;42;100 mA
0.915163997689433;0.4007568359375;0.00140228271484375;0.419999998939602;43;100 mA
0.925163997664185;0.400604248046875;0.0014093017578125;0.429999998914354;44;100 mA
0.935163997638938;0.400604248046875;0.0014068603515625;0.439999998889107;45;100 mA
0.94516399761369;0.40057373046875;0.00136138916015625;0.449999998863859;46;100 mA
0.955163997588443;0.40057373046875;0.00133087158203125;0.459999998838612;47;100 mA
0.965163997563195;0.400604248046875;0.00135009765625;0.469999998813364;48;100 mA
0.975163997537948;0.400482177734375;0.0013360595703125;0.479999998788116;49;100 mA
0.9851639975127;0.400665283203125;0.00130401611328125;0.489999998762869;50;100 mA
0.995163997487452;0.400543212890625;0.0012713623046875;0.499999998737621;51;100 mA
1.0051639974622;0.400634765625;0.00129180908203125;0.509999998712374;52;100 mA
1.01516399743696;0.400482177734375;0.00128814697265625;0.519999998687126;53;100 mA
1.02516399741171;0.400543212890625;0.00124847412109375;0.529999998661879;54;100 mA
1.03516399738646;0.400634765625;0.001231689453125;0.539999998636631;55;100 mA
1.04516399736121;0.400543212890625;0.00124267578125;0.549999998611383;56;100 mA
1.05516399733597;0.400634765625;0.00124053955078125;0.559999998586136;57;100 mA
1.06516399731072;0.400604248046875;0.00121124267578125;0.569999998560888;58;100 mA
1.07516399728547;0.40069580078125;0.0011907958984375;0.579999998535641;59;100 mA
1.08516399726022;0.40057373046875;0.001212158203125;0.589999998510393;60;100 mA
1.09516399723498;0.40057373046875;0.00120361328125;0.599999998485146;61;100 mA
1.10516399720973;0.400634765625;0.00117889404296875;0.609999998459898;62;100 mA
1.11516399718448;0.400543212890625;0.001160888671875;0.61999999843465;63;100 mA
1.12516399715923;0.400543212890625;0.001168212890625;0.629999998409403;64;100 mA
1.13516399713399;0.4005126953125;0.00118255615234375;0.639999998384155;65;100 mA
1.14516399710874;0.40057373046875;0.001141357421875;0.649999998358908;66;100 mA
1.15516399708349;0.400543212890625;0.00112213134765625;0.65999999833366;67;100 mA
1.16516399705824;0.400543212890625;0.0011492919921875;0.669999998308413;68;100 mA
1.175163997033;0.400543212890625;0.00114501953125;0.679999998283165;69;100 mA
1.18516399700775;0.40057373046875;0.001129150390625;0.689999998257917;70;100 mA
1.1951639969825;0.400604248046875;0.00109893798828125;0.69999999823267;71;100 mA
1.20516399695725;0.400543212890625;0.00112518310546875;0.709999998207422;72;100 mA
1.21516399693201;0.400665283203125;0.0011236572265625;0.719999998182175;73;100 mA
1.22516399690676;0.400604248046875;0.001090087890625;0.729999998156927;74;100 mA
1.23516399688151;0.400787353515625;0.00108428955078125;0.73999999813168;75;100 mA
1.24516399685626;0.400543212890625;0.00109710693359375;0.749999998106432;76;100 mA
1.25516399683102;0.4005126953125;0.0011016845703125;0.759999998081184;77;100 mA
1.26516399680577;0.400665283203125;0.00107421875;0.769999998055937;78;100 mA
1.27516399678052;0.400543212890625;0.001055908203125;0.779999998030689;79;100 mA
1.28516399675527;0.400543212890625;0.00107666015625;0.789999998005442;80;100 mA
1.29516399673003;0.400482177734375;0.00107452392578125;0.799999997980194;81;100 mA
1.30516399670478;0.400604248046875;0.00104644775390625;0.809999997954947;82;100 mA
1.31516399667953;0.4005126953125;0.001033935546875;0.819999997929699;83;100 mA
1.32516399665428;0.40057373046875;0.00105010986328125;0.829999997904451;84;100 mA
1.33516399662903;0.400482177734375;0.00105743408203125;0.839999997879204;85;100 mA
1.34516399660379;0.40057373046875;0.001024169921875;0.849999997853956;86;100 mA
1.35516399657854;0.400604248046875;0.00100555419921875;0.859999997828709;87;100 mA
1.36516399655329;0.400543212890625;0.00103271484375;0.869999997803461;88;100 mA
1.37516399652804;0.40057373046875;0.00102874755859375;0.879999997778214;89;100 mA
1.3851639965028;0.400604248046875;0.0010125732421875;0.889999997752966;90;100 mA
1.39516399647755;0.400787353515625;0.00098388671875;0.899999997727718;91;100 mA
1.4051639964523;0.40057373046875;0.00101043701171875;0.909999997702471;92;100 mA
1.41516399642705;0.400634765625;0.0010125732421875;0.919999997677223;93;100 mA
1.42516399640181;0.40057373046875;0.000987548828125;0.929999997651976;94;100 mA
1.43516399637656;0.400665283203125;0.000972595214843749;0.939999997626728;95;100 mA
1.44516399635131;0.400604248046875;0.000992431640624999;0.949999997601481;96;100 mA
1.45516399632606;0.4005126953125;0.00099090576171875;0.959999997576233;97;100 mA
1.46516399630082;0.400543212890625;0.00097686767578125;0.969999997550985;98;100 mA
1.47516399627557;0.40057373046875;0.00094879150390625;0.979999997525738;99;100 mA
1.48516399625032;0.400634765625;0.00097625732421875;0.98999999750049;100;100 mA
1.49516399622507;0.400482177734375;0.000980529785156251;0.999999997475243;101;100 mA
1.50516399619983;0.400604248046875;0.0009552001953125;1.00999999745;102;100 mA
1.51516399617458;0.400543212890625;0.000943908691406251;1.01999999742475;103;100 mA
1.52516399614933;0.400604248046875;0.0009539794921875;1.0299999973995;104;100 mA
1.53516399612408;0.400604248046875;0.0009661865234375;1.03999999737425;105;100 mA
1.54516399609884;0.400543212890625;0.000937805175781251;1.049999997349;106;100 mA
1.55516399607359;0.400634765625;0.00092926025390625;1.05999999732376;107;100 mA
1.56516399604834;0.400604248046875;0.00094940185546875;1.06999999729851;108;100 mA
1.57516399602309;0.400665283203125;0.00094757080078125;1.07999999727326;109;100 mA
1.58516399599785;0.400604248046875;0.00093505859375;1.08999999724801;110;100 mA
1.5951639959726;0.40069580078125;0.00091705322265625;1.09999999722277;111;100 mA
1.60516399594735;0.400665283203125;0.000939025878906249;1.10999999719752;112;100 mA
1.6151639959221;0.400543212890625;0.000946960449218751;1.11999999717227;113;100 mA
1.62516399589686;0.400634765625;0.000921630859375;1.12999999714702;114;100 mA
1.63516399587161;0.40057373046875;0.00091705322265625;1.13999999712178;115;100 mA
1.64516399584636;0.400665283203125;0.000925598144531251;1.14999999709653;116;100 mA
1.65516399582111;0.40045166015625;0.00093353271484375;1.15999999707128;117;100 mA
1.66516399579587;0.400543212890625;0.0009234619140625;1.16999999704603;118;100 mA
1.67516399577062;0.4005126953125;0.00089752197265625;1.17999999702079;119;100 mA
1.68516399574537;0.400604248046875;0.000927124023437501;1.18999999699554;120;100 mA
1.69516399572012;0.40057373046875;0.000926513671875;1.19999999697029;121;100 mA
1.70516399569487;0.40057373046875;0.00091217041015625;1.20999999694504;122;100 mA
1.71516399566963;0.400665283203125;0.0008978271484375;1.2199999969198;123;100 mA
1.72516399564438;0.400543212890625;0.0009124755859375;1.22999999689455;124;100 mA
1.73516399561913;0.400665283203125;0.0009326171875;1.2399999968693;125;100 mA
1.74516399559388;0.4005126953125;0.00090911865234375;1.24999999684405;126;100 mA
1.75516399556864;0.400787353515625;0.0008978271484375;1.25999999681881;127;100 mA
1.76516399554339;0.400604248046875;0.0009185791015625;1.26999999679356;128;100 mA
1.77516399551814;0.400543212890625;0.000927124023437501;1.27999999676831;129;100 mA
1.78516399549289;0.400665283203125;0.000916137695312499;1.28999999674306;130;100 mA
1.79516399546765;0.4005126953125;0.00089019775390625;1.29999999671782;131;100 mA
1.8051639954424;0.40057373046875;0.00091552734375;1.30999999669257;132;100 mA
1.81516399541715;0.400482177734375;0.00092041015625;1.31999999666732;133;100 mA
1.8251639953919;0.400604248046875;0.000900878906249999;1.32999999664207;134;100 mA
1.83516399536666;0.4005126953125;0.000892333984375;1.33999999661683;135;100 mA
1.84516399534141;0.40057373046875;0.00089996337890625;1.34999999659158;136;100 mA
1.85516399531616;0.40045166015625;0.00091094970703125;1.35999999656633;137;100 mA
1.86516399529091;0.40057373046875;0.000892028808593751;1.36999999654108;138;100 mA
1.87516399526567;0.400604248046875;0.00087249755859375;1.37999999651583;139;100 mA
1.88516399524042;0.400634765625;0.000897216796875;1.38999999649059;140;100 mA
1.89516399521517;0.400634765625;0.0008990478515625;1.39999999646534;141;100 mA
1.90516399518992;0.400543212890625;0.000885620117187499;1.40999999644009;142;100 mA
1.91516399516468;0.40069580078125;0.00086395263671875;1.41999999641484;143;100 mA
1.92516399513943;0.400634765625;0.00087738037109375;1.4299999963896;144;100 mA
1.93516399511418;0.400604248046875;0.000899658203125001;1.43999999636435;145;100 mA
1.94516399508893;0.400634765625;0.000872802734375;1.4499999963391;146;100 mA
1.95516399506369;0.400665283203125;0.0008612060546875;1.45999999631385;147;100 mA
1.96516399503844;0.400634765625;0.000879821777343751;1.46999999628861;148;100 mA
1.97516399501319;0.400543212890625;0.0008831787109375;1.47999999626336;149;100 mA
1.98516399498794;0.40057373046875;0.00087860107421875;1.48999999623811;150;100 mA
1.9951639949627;0.4005126953125;0.0008624267578125;1.49999999621286;151;100 mA
2.00516399493745;0.400604248046875;0.00088043212890625;1.50999999618762;152;100 mA
2.0151639949122;0.400482177734375;0.000888671874999999;1.51999999616237;153;100 mA
2.02516399488695;0.40057373046875;0.00086822509765625;1.52999999613712;154;100 mA
2.0351639948617;0.40057373046875;0.000862731933593749;1.53999999611187;155;100 mA
2.04516399483646;0.400634765625;0.00087310791015625;1.54999999608663;156;100 mA
2.05516399481121;0.400482177734375;0.000885009765625;1.55999999606138;157;100 mA
2.06516399478596;0.4005126953125;0.00087310791015625;1.56999999603613;158;100 mA
2.07516399476071;0.400665283203125;0.00085357666015625;1.57999999601088;159;100 mA
2.08516399473547;0.400604248046875;0.000872802734375;1.58999999598564;160;100 mA
2.09516399471022;0.400634765625;0.000879821777343751;1.59999999596039;161;100 mA
2.10516399468497;0.400604248046875;0.000861511230468751;1.60999999593514;162;100 mA
2.11516399465972;0.40069580078125;0.00084716796875;1.61999999590989;163;100 mA
2.12516399463448;0.40057373046875;0.0008575439453125;1.62999999588465;164;100 mA
2.13516399460923;0.4005126953125;0.00088043212890625;1.6399999958594;165;100 mA
2.14516399458398;0.400634765625;0.0008526611328125;1.64999999583415;166;100 mA
2.15516399455873;0.4005126953125;0.000842895507812499;1.6599999958089;167;100 mA
2.16516399453349;0.400604248046875;0.000855102539062499;1.66999999578366;168;100 mA
2.17516399450824;0.4005126953125;0.000855712890625;1.67999999575841;169;100 mA
2.18516399448299;0.400482177734375;0.00085418701171875;1.68999999573316;170;100 mA
2.19516399445774;0.400482177734375;0.000826416015625001;1.69999999570791;171;100 mA
2.2051639944325;0.40057373046875;0.0008453369140625;1.70999999568267;172;100 mA
2.21516399440725;0.400543212890625;0.00085418701171875;1.71999999565742;173;100 mA
2.225163994382;0.40057373046875;0.0008367919921875;1.72999999563217;174;100 mA
2.23516399435675;0.400665283203125;0.00082366943359375;1.73999999560692;175;100 mA
2.24516399433151;0.400634765625;0.00083160400390625;1.74999999558167;176;100 mA
2.25516399430626;0.400634765625;0.000841369628906249;1.75999999555643;177;100 mA
2.26516399428101;0.400543212890625;0.000833740234374999;1.76999999553118;178;100 mA
2.27516399425576;0.400726318359375;0.000806884765625;1.77999999550593;179;100 mA
2.28516399423052;0.400604248046875;0.00083282470703125;1.78999999548068;180;100 mA
2.29516399420527;0.40057373046875;0.000841064453125;1.79999999545544;181;100 mA
2.30516399418002;0.400604248046875;0.000824890136718751;1.80999999543019;182;100 mA
2.31516399415477;0.400604248046875;0.000806884765625;1.81999999540494;183;100 mA
2.32516399412953;0.400634765625;0.0008221435546875;1.82999999537969;184;100 mA
2.33516399410428;0.4005126953125;0.00083740234375;1.83999999535445;185;100 mA
2.34516399407903;0.400634765625;0.000811157226562501;1.8499999953292;186;100 mA
2.35516399405378;0.400482177734375;0.000800476074218751;1.85999999530395;187;100 mA
2.36516399402853;0.400604248046875;0.00081787109375;1.8699999952787;188;100 mA
2.37516399400329;0.4005126953125;0.000820312500000001;1.87999999525346;189;100 mA
2.38516399397804;0.4005126953125;0.00081329345703125;1.88999999522821;190;100 mA
2.39516399395279;0.400634765625;0.000785217285156251;1.89999999520296;191;100 mA
2.40516399392754;0.400604248046875;0.00079986572265625;1.90999999517771;192;100 mA
2.4151639939023;0.400665283203125;0.00081329345703125;1.91999999515247;193;100 mA
2.42516399387705;0.400543212890625;0.000792846679687501;1.92999999512722;194;100 mA
2.4351639938518;0.40069580078125;0.0007861328125;1.93999999510197;195;100 mA
2.44516399382655;0.400665283203125;0.00078155517578125;1.94999999507672;196;100 mA
2.45516399380131;0.40057373046875;0.00080291748046875;1.95999999505148;197;100 mA
2.46516399377606;0.40057373046875;0.00078887939453125;1.96999999502623;198;100 mA
2.47516399375081;0.400665283203125;0.00076263427734375;1.97999999500098;199;100 mA
2.48516399372556;0.400634765625;0.000784912109375;1.98999999497573;200;100 mA
2.49516399370032;0.400543212890625;0.00078765869140625;1.99999999495049;201;100 mA
2.50516399367507;0.400604248046875;0.00077545166015625;2.00999999492524;202;100 mA
2.51516399364982;0.400482177734375;0.0007598876953125;2.01999999489999;203;100 mA
2.52516399362457;0.40057373046875;0.000769958496093751;2.02999999487474;204;100 mA
2.53516399359933;0.400482177734375;0.000785217285156251;2.0399999948495;205;100 mA
2.54516399357408;0.40057373046875;0.000766906738281251;2.04999999482425;206;100 mA
2.55516399354883;0.40057373046875;0.00074951171875;2.059999994799;207;100 mA
2.56516399352358;0.40057373046875;0.00076629638671875;2.06999999477375;208;100 mA
2.57516399349834;0.400543212890625;0.00076934814453125;2.0799999947485;209;100 mA
2.58516399347309;0.4005126953125;0.000765075683593749;2.08999999472326;210;100 mA
2.59516399344784;0.400665283203125;0.000742492675781251;2.09999999469801;211;100 mA
2.60516399342259;0.400604248046875;0.00075225830078125;2.10999999467276;212;100 mA
2.61516399339735;0.400604248046875;0.0007708740234375;2.11999999464751;213;100 mA
2.6251639933721;0.40057373046875;0.000757751464843751;2.12999999462227;214;100 mA
2.63516399334685;0.4007568359375;0.000740966796875001;2.13999999459702;215;100 mA
2.6451639933216;0.400665283203125;0.00074737548828125;2.14999999457177;216;100 mA
2.65516399329636;0.400482177734375;0.000762329101562501;2.15999999454652;217;100 mA
2.66516399327111;0.400604248046875;0.00075103759765625;2.16999999452128;218;100 mA
2.67516399324586;0.400482177734375;0.000733032226562499;2.17999999449603;219;100 mA
2.68516399322061;0.400604248046875;0.000750122070312501;2.18999999447078;220;100 mA
2.69516399319537;0.400482177734375;0.00076202392578125;2.19999999444553;221;100 mA
2.70516399317012;0.400482177734375;0.000755615234375;2.20999999442029;222;100 mA
2.71516399314487;0.40057373046875;0.000736083984374999;2.21999999439504;223;100 mA
2.72516399311962;0.400604248046875;0.000747070312500001;2.22999999436979;224;100 mA
2.73516399309437;0.400604248046875;0.00077362060546875;2.23999999434454;225;100 mA
2.74516399306913;0.400604248046875;0.0007489013671875;2.2499999943193;226;100 mA
2.75516399304388;0.400665283203125;0.00074005126953125;2.25999999429405;227;100 mA
2.76516399301863;0.400634765625;0.0007568359375;2.2699999942688;228;100 mA
2.77516399299338;0.40069580078125;0.00076416015625;2.27999999424355;229;100 mA
2.78516399296814;0.400543212890625;0.000765075683593749;2.28999999421831;230;100 mA
2.79516399294289;0.4007568359375;0.00074615478515625;2.29999999419306;231;100 mA
2.80516399291764;0.40057373046875;0.00076263427734375;2.30999999416781;232;100 mA
2.81516399289239;0.400543212890625;0.00077850341796875;2.31999999414256;233;100 mA
2.82516399286715;0.400604248046875;0.000765075683593749;2.32999999411732;234;100 mA
2.8351639928419;0.400543212890625;0.000760498046875;2.33999999409207;235;100 mA
2.84516399281665;0.400604248046875;0.00076568603515625;2.34999999406682;236;100 mA
2.8551639927914;0.400482177734375;0.0007830810546875;2.35999999404157;237;100 mA
2.86516399276616;0.4005126953125;0.0007794189453125;2.36999999401633;238;100 mA
2.87516399274091;0.4005126953125;0.000755615234375;2.37999999399108;239;100 mA
2.88516399271566;0.400634765625;0.000776062011718751;2.38999999396583;240;100 mA
2.89516399269041;0.40045166015625;0.000786743164062501;2.39999999394058;241;100 mA
2.90516399266517;0.400482177734375;0.0007763671875;2.40999999391533;242;100 mA
2.91516399263992;0.40057373046875;0.000760498046875;2.41999999389009;243;100 mA
2.92516399261467;0.400634765625;0.000765075683593749;2.42999999386484;244;100 mA
2.93516399258942;0.40069580078125;0.0007843017578125;2.43999999383959;245;100 mA
2.94516399256418;0.4005126953125;0.00077484130859375;2.44999999381434;246;100 mA
2.95516399253893;0.400665283203125;0.00075225830078125;2.4599999937891;247;100 mA
2.96516399251368;0.400665283203125;0.000769958496093751;2.46999999376385;248;100 mA
2.97516399248843;0.400604248046875;0.0007781982421875;2.4799999937386;249;100 mA
2.98516399246319;0.40057373046875;0.00077789306640625;2.48999999371335;250;100 mA
2.99516399243794;0.400604248046875;0.000751342773437499;2.49999999368811;251;100 mA
3.00516399241269;0.400665283203125;0.00076751708984375;2.50999999366286;252;100 mA
3.01516399238744;0.400543212890625;0.000783691406250001;2.51999999363761;253;100 mA
3.0251639923622;0.40057373046875;0.00076751708984375;2.52999999361236;254;100 mA
3.03516399233695;0.400482177734375;0.0007586669921875;2.53999999358712;255;100 mA
3.0451639923117;0.400604248046875;0.000762329101562501;2.54999999356187;256;100 mA
3.05516399228645;0.400482177734375;0.00077362060546875;2.55999999353662;257;100 mA
3.0651639922612;0.40045166015625;0.00076873779296875;2.56999999351137;258;100 mA
3.07516399223596;0.400604248046875;0.00074127197265625;2.57999999348613;259;100 mA
3.08516399221071;0.400604248046875;0.000762329101562501;2.58999999346088;260;100 mA
3.09516399218546;0.400604248046875;0.000762329101562501;2.59999999343563;261;100 mA
3.10516399216021;0.40045166015625;0.0007568359375;2.60999999341038;262;100 mA
3.11516399213497;0.40069580078125;0.0007354736328125;2.61999999338514;263;100 mA
3.12516399210972;0.40057373046875;0.00074432373046875;2.62999999335989;264;100 mA
3.13516399208447;0.400634765625;0.00076416015625;2.63999999333464;265;100 mA
3.14516399205922;0.40057373046875;0.00074920654296875;2.64999999330939;266;100 mA
3.15516399203398;0.400665283203125;0.000731811523437501;2.65999999328415;267;100 mA
3.16516399200873;0.400634765625;0.000745849609375;2.6699999932589;268;100 mA
3.17516399198348;0.40057373046875;0.000749816894531249;2.67999999323365;269;100 mA
3.18516399195823;0.400543212890625;0.000751342773437499;2.6899999932084;270;100 mA
3.19516399193299;0.400482177734375;0.00072662353515625;2.69999999318316;271;100 mA
3.20516399190774;0.400634765625;0.000742187499999999;2.70999999315791;272;100 mA
3.21516399188249;0.40045166015625;0.00075714111328125;2.71999999313266;273;100 mA
3.22516399185724;0.4005126953125;0.00074310302734375;2.72999999310741;274;100 mA
3.235163991832;0.400543212890625;0.00074005126953125;2.73999999308217;275;100 mA
3.24516399180675;0.400604248046875;0.00074462890625;2.74999999305692;276;100 mA
3.2551639917815;0.400543212890625;0.000757446289062499;2.75999999303167;277;100 mA
3.26516399175625;0.4005126953125;0.00076141357421875;2.76999999300642;278;100 mA
3.27516399173101;0.400665283203125;0.000730285644531251;2.77999999298117;279;100 mA
3.28516399170576;0.400604248046875;0.0007586669921875;2.78999999295593;280;100 mA
3.29516399168051;0.400634765625;0.000762329101562501;2.79999999293068;281;100 mA
3.30516399165526;0.4005126953125;0.000751953125;2.80999999290543;282;100 mA
3.31516399163002;0.400665283203125;0.0007415771484375;2.81999999288018;283;100 mA
3.32516399160477;0.400634765625;0.00074798583984375;2.82999999285494;284;100 mA
3.33516399157952;0.40057373046875;0.0007672119140625;2.83999999282969;285;100 mA
3.34516399155427;0.4005126953125;0.00075347900390625;2.84999999280444;286;100 mA
3.35516399152903;0.4005126953125;0.00073822021484375;2.85999999277919;287;100 mA
3.36516399150378;0.40069580078125;0.000753173828125001;2.86999999275395;288;100 mA
3.37516399147853;0.40045166015625;0.000758056640625;2.8799999927287;289;100 mA
3.38516399145328;0.400543212890625;0.0007586669921875;2.88999999270345;290;100 mA
3.39516399142803;0.4005126953125;0.000733642578125;2.8999999926782;291;100 mA
3.40516399140279;0.400634765625;0.0007537841796875;2.90999999265296;292;100 mA
3.41516399137754;0.400543212890625;0.000766906738281251;2.91999999262771;293;100 mA
3.42516399135229;0.400543212890625;0.00075653076171875;2.92999999260246;294;100 mA
3.43516399132704;0.400634765625;0.0007427978515625;2.93999999257721;295;100 mA
3.4451639913018;0.400665283203125;0.000751953125;2.94999999255197;296;100 mA
3.45516399127655;0.400634765625;0.00076202392578125;2.95999999252672;297;100 mA
3.4651639912513;0.40045166015625;0.000758056640625;2.96999999250147;298;100 mA
3.47516399122605;0.4007568359375;0.000731201171875;2.97999999247622;299;100 mA
3.48516399120081;0.400634765625;0.000749816894531249;2.98999999245098;300;100 mA
3.49516399117556;0.400604248046875;0.00075531005859375;2.99999999242573;301;100 mA
3.50516399115031;0.40057373046875;0.00075103759765625;3.00999999240048;302;100 mA
3.51516399112506;0.40057373046875;0.000734863281250001;3.01999999237523;303;100 mA
3.52516399109982;0.400665283203125;0.000744018554687501;3.02999999234999;304;100 mA
3.53516399107457;0.400482177734375;0.00076141357421875;3.03999999232474;305;100 mA
3.54516399104932;0.400482177734375;0.000751342773437499;3.04999999229949;306;100 mA
3.55516399102407;0.40045166015625;0.00072998046875;3.05999999227424;307;100 mA
3.56516399099883;0.400634765625;0.000749816894531249;3.069999992249;308;100 mA
3.57516399097358;0.400421142578125;0.000754699707031251;3.07999999222375;309;100 mA
3.58516399094833;0.400482177734375;0.00076202392578125;3.0899999921985;310;100 mA
3.59516399092308;0.400543212890625;0.00073150634765625;3.09999999217325;311;100 mA
3.60516399089784;0.400665283203125;0.00074951171875;3.109999992148;312;100 mA
3.61516399087259;0.400634765625;0.000760498046875;3.11999999212276;313;100 mA
3.62516399084734;0.400482177734375;0.0007525634765625;3.12999999209751;314;100 mA
3.63516399082209;0.40069580078125;0.000740966796875001;3.13999999207226;315;100 mA
3.64516399079685;0.400604248046875;0.00074951171875;3.14999999204701;316;100 mA
3.6551639907716;0.400604248046875;0.00076324462890625;3.15999999202177;317;100 mA
3.66516399074635;0.4005126953125;0.0007568359375;3.16999999199652;318;100 mA
3.6751639907211;0.40057373046875;0.0007342529296875;3.17999999197127;319;100 mA
3.68516399069586;0.400665283203125;0.0007525634765625;3.18999999194602;320;100 mA
3.69516399067061;0.400482177734375;0.00075531005859375;3.19999999192078;321;100 mA
3.70516399064536;0.400482177734375;0.0007550048828125;3.20999999189553;322;100 mA
3.71516399062011;0.400421142578125;0.0007342529296875;3.21999999187028;323;100 mA
3.72516399059487;0.400634765625;0.00073516845703125;3.22999999184503;324;100 mA
3.73516399056962;0.40045166015625;0.000755920410156249;3.23999999181979;325;100 mA
3.74516399054437;0.40045166015625;0.00073822021484375;3.24999999179454;326;100 mA
3.75516399051912;0.400543212890625;0.000725708007812501;3.25999999176929;327;100 mA
3.76516399049387;0.400634765625;0.00073516845703125;3.26999999174404;328;100 mA
3.77516399046863;0.40057373046875;0.00073883056640625;3.2799999917188;329;100 mA
3.78516399044338;0.400421142578125;0.000742187499999999;3.28999999169355;330;100 mA
3.79516399041813;0.400634765625;0.00071685791015625;3.2999999916683;331;100 mA
3.80516399039288;0.400665283203125;0.00072662353515625;3.30999999164305;332;100 mA
3.81516399036764;0.400604248046875;0.000739440917968751;3.31999999161781;333;100 mA
3.82516399034239;0.400482177734375;0.000722656250000001;3.32999999159256;334;100 mA
3.83516399031714;0.400665283203125;0.00071868896484375;3.33999999156731;335;100 mA
3.84516399029189;0.400604248046875;0.0007232666015625;3.34999999154206;336;100 mA
3.85516399026665;0.400543212890625;0.00073150634765625;3.35999999151682;337;100 mA
3.8651639902414;0.40057373046875;0.000724182128906251;3.36999999149157;338;100 mA
3.87516399021615;0.400482177734375;0.000702819824218751;3.37999999146632;339;100 mA
3.8851639901909;0.40069580078125;0.000725708007812501;3.38999999144107;340;100 mA
3.89516399016566;0.40045166015625;0.00073150634765625;3.39999999141583;341;100 mA
3.90516399014041;0.40045166015625;0.000727233886718751;3.40999999139058;342;100 mA
3.91516399011516;0.400482177734375;0.000712890625;3.41999999136533;343;100 mA
3.92516399008991;0.40069580078125;0.000715026855468751;3.42999999134008;344;100 mA
3.93516399006467;0.400604248046875;0.000740661621093749;3.43999999131483;345;100 mA
3.94516399003942;0.400482177734375;0.000726928710937499;3.44999999128959;346;100 mA
3.95516399001417;0.400634765625;0.0007122802734375;3.45999999126434;347;100 mA
3.96516398998892;0.400665283203125;0.00072357177734375;3.46999999123909;348;100 mA
3.97516398996368;0.400665283203125;0.000728454589843749;3.47999999121384;349;100 mA
3.98516398993843;0.400482177734375;0.00073089599609375;3.4899999911886;350;100 mA
3.99516398991318;0.400665283203125;0.0007122802734375;3.49999999116335;351;100 mA
4.00516398988793;0.40069580078125;0.0007147216796875;3.5099999911381;352;100 mA
4.01516398986269;0.40057373046875;0.00072998046875;3.51999999111285;353;100 mA
4.02516398983744;0.400543212890625;0.00072021484375;3.52999999108761;354;100 mA
4.03516398981219;0.400482177734375;0.000711669921874999;3.53999999106236;355;100 mA
4.04516398978694;0.400665283203125;0.000713195800781249;3.54999999103711;356;100 mA
4.0551639897617;0.4005126953125;0.0007244873046875;3.55999999101186;357;100 mA
4.06516398973645;0.4005126953125;0.0007232666015625;3.56999999098662;358;100 mA
4.0751639897112;0.40045166015625;0.00069915771484375;3.57999999096137;359;100 mA
4.08516398968595;0.400665283203125;0.00071746826171875;3.58999999093612;360;100 mA
4.0951639896607;0.400543212890625;0.0007183837890625;3.59999999091087;361;100 mA
4.10516398963546;0.400390625;0.000721435546875;3.60999999088563;362;100 mA
4.11516398961021;0.400543212890625;0.00070526123046875;3.61999999086038;363;100 mA
4.12516398958496;0.400665283203125;0.000713500976562501;3.62999999083513;364;100 mA
4.13516398955971;0.400604248046875;0.000728454589843749;3.63999999080988;365;100 mA
4.14516398953447;0.40045166015625;0.000719299316406249;3.64999999078464;366;100 mA
4.15516398950922;0.4007568359375;0.000706787109375;3.65999999075939;367;100 mA
4.16516398948397;0.400665283203125;0.00071746826171875;3.66999999073414;368;100 mA
4.17516398945872;0.400634765625;0.000724182128906251;3.67999999070889;369;100 mA
4.18516398943348;0.400543212890625;0.000728454589843749;3.68999999068365;370;100 mA
4.19516398940823;0.400543212890625;0.00070770263671875;3.6999999906584;371;100 mA
4.20516398938298;0.400665283203125;0.00072052001953125;3.70999999063315;372;100 mA
4.21516398935773;0.400482177734375;0.00072906494140625;3.7199999906079;373;100 mA
4.22516398933249;0.40045166015625;0.00072357177734375;3.72999999058266;374;100 mA
4.23516398930724;0.400482177734375;0.00071685791015625;3.73999999055741;375;100 mA
4.24516398928199;0.400665283203125;0.0007232666015625;3.74999999053216;376;100 mA
4.25516398925674;0.4005126953125;0.00072998046875;3.75999999050691;377;100 mA
4.2651639892315;0.400390625;0.000737915039062501;3.76999999048167;378;100 mA
4.27516398920625;0.400482177734375;0.00071685791015625;3.77999999045642;379;100 mA
4.285163989181;0.400634765625;0.0007342529296875;3.78999999043117;380;100 mA
4.29516398915575;0.400604248046875;0.00073577880859375;3.79999999040592;381;100 mA
4.30516398913051;0.40045166015625;0.000736083984374999;3.80999999038067;382;100 mA
4.31516398910526;0.400634765625;0.00072479248046875;3.81999999035543;383;100 mA
4.32516398908001;0.400726318359375;0.0007183837890625;3.82999999033018;384;100 mA
4.33516398905476;0.400634765625;0.000739440917968751;3.83999999030493;385;100 mA
4.34516398902952;0.400543212890625;0.0007275390625;3.84999999027968;386;100 mA
4.35516398900427;0.40057373046875;0.000713500976562501;3.85999999025444;387;100 mA
4.36516398897902;0.400604248046875;0.00072601318359375;3.86999999022919;388;100 mA
4.37516398895377;0.4005126953125;0.00072509765625;3.87999999020394;389;100 mA
4.38516398892853;0.40045166015625;0.00073760986328125;3.88999999017869;390;100 mA
4.39516398890328;0.400421142578125;0.00071136474609375;3.89999999015345;391;100 mA
4.40516398887803;0.400665283203125;0.00072235107421875;3.9099999901282;392;100 mA
4.41516398885278;0.4005126953125;0.00073272705078125;3.91999999010295;393;100 mA
4.42516398882753;0.400390625;0.00072174072265625;3.9299999900777;394;100 mA
4.43516398880229;0.400482177734375;0.00071990966796875;3.93999999005246;395;100 mA
4.44516398877704;0.400665283203125;0.000717773437499999;3.94999999002721;396;100 mA
4.45516398875179;0.400604248046875;0.000725708007812501;3.95999999000196;397;100 mA
4.46516398872654;0.400421142578125;0.000733032226562499;3.96999998997671;398;100 mA
4.4751639887013;0.400665283203125;0.000707397460937501;3.97999998995147;399;100 mA
4.48516398867605;0.40069580078125;0.000722656250000001;3.98999998992622;400;100 mA
4.4951639886508;0.400665283203125;0.000726318359375;3.99999998990097;401;100 mA
4.50516398862555;0.4005126953125;0.00071868896484375;4.00999998987572;402;100 mA
4.51516398860031;0.400634765625;0.00070831298828125;4.01999998985048;403;100 mA
4.52516398857506;0.400665283203125;0.000710449218750001;4.02999998982523;404;100 mA
4.53516398854981;0.4005126953125;0.00072662353515625;4.03999998979998;405;100 mA
4.54516398852456;0.400543212890625;0.000718078613281251;4.04999998977473;406;100 mA
4.55516398849932;0.4005126953125;0.00069854736328125;4.05999998974949;407;100 mA
4.56516398847407;0.4007568359375;0.00070953369140625;4.06999998972424;408;100 mA
4.57516398844882;0.40045166015625;0.00071533203125;4.07999998969899;409;100 mA
4.58516398842357;0.400482177734375;0.0007220458984375;4.08999998967374;410;100 mA
4.59516398839833;0.400482177734375;0.000696716308593751;4.0999999896485;411;100 mA
4.60516398837308;0.400665283203125;0.00070709228515625;4.10999998962325;412;100 mA
4.61516398834783;0.400543212890625;0.000722656250000001;4.119999989598;413;100 mA
4.62516398832258;0.4005126953125;0.00070831298828125;4.12999998957275;414;100 mA
4.63516398829734;0.400634765625;0.00070648193359375;4.1399999895475;415;100 mA
4.64516398827209;0.400665283203125;0.000705566406249999;4.14999998952226;416;100 mA
4.65516398824684;0.400665283203125;0.000715026855468751;4.15999998949701;417;100 mA
4.66516398822159;0.400482177734375;0.00071685791015625;4.16999998947176;418;100 mA
4.67516398819635;0.400665283203125;0.0006884765625;4.17999998944651;419;100 mA
4.6851639881711;0.400604248046875;0.000708923339843751;4.18999998942127;420;100 mA
4.69516398814585;0.4005126953125;0.000709228515625;4.19999998939602;421;100 mA
4.7051639881206;0.400543212890625;0.000703125;4.20999998937077;422;100 mA
4.71516398809536;0.4005126953125;0.0006939697265625;4.21999998934552;423;100 mA
4.72516398807011;0.400665283203125;0.00069580078125;4.22999998932028;424;100 mA
4.73516398804486;0.400482177734375;0.000711669921874999;4.23999998929503;425;100 mA
4.74516398801961;0.400390625;0.00070159912109375;4.24999998926978;426;100 mA
4.75516398799437;0.40045166015625;0.00068939208984375;4.25999998924453;427;100 mA
4.76516398796912;0.40069580078125;0.0007000732421875;4.26999998921929;428;100 mA
4.77516398794387;0.4005126953125;0.000695190429687501;4.27999998919404;429;100 mA
4.78516398791862;0.40045166015625;0.0007061767578125;4.28999998916879;430;100 mA
4.79516398789337;0.400665283203125;0.0006817626953125;4.29999998914354;431;100 mA
4.80516398786813;0.400665283203125;0.0006884765625;4.3099999891183;432;100 mA
4.81516398784288;0.400665283203125;0.0007037353515625;4.31999998909305;433;100 mA
4.82516398781763;0.400390625;0.000701293945312501;4.3299999890678;434;100 mA
4.83516398779238;0.40069580078125;0.0006939697265625;4.33999998904255;435;100 mA
4.84516398776714;0.400665283203125;0.000697937011718749;4.34999998901731;436;100 mA
4.85516398774189;0.400634765625;0.00071136474609375;4.35999998899206;437;100 mA
4.86516398771664;0.400543212890625;0.000713195800781249;4.36999998896681;438;100 mA
4.87516398769139;0.40057373046875;0.00069305419921875;4.37999998894156;439;100 mA
4.88516398766615;0.400665283203125;0.000712890625;4.38999998891632;440;100 mA
4.8951639876409;0.400543212890625;0.00071258544921875;4.39999998889107;441;100 mA
4.90516398761565;0.400482177734375;0.00071441650390625;4.40999998886582;442;100 mA
4.9151639875904;0.400482177734375;0.0006976318359375;4.41999998884057;443;100 mA
4.92516398756516;0.40069580078125;0.000699462890625;4.42999998881533;444;100 mA
4.93516398753991;0.400482177734375;0.0007159423828125;4.43999998879008;445;100 mA
4.94516398751466;0.400390625;0.00071441650390625;4.44999998876483;446;100 mA
4.95516398748941;0.40057373046875;0.000697937011718749;4.45999998873958;447;100 mA
4.96516398746417;0.400665283203125;0.000705871582031251;4.46999998871433;448;100 mA
4.97516398743892;0.400665283203125;0.000706787109375;4.47999998868909;449;100 mA
4.98516398741367;0.400360107421875;0.000721435546875;4.48999998866384;450;100 mA
4.99516398738842;0.40069580078125;0.0006927490234375;4.49999998863859;451;100 mA
5.00516398736318;0.40069580078125;0.00070037841796875;4.50999998861334;452;100 mA
5.01516398733793;0.400665283203125;0.0007147216796875;4.5199999885881;453;100 mA
5.02516398731268;0.4005126953125;0.000706787109375;4.52999998856285;454;100 mA
5.03516398728743;0.40069580078125;0.000697937011718749;4.5399999885376;455;100 mA
5.04516398726219;0.400665283203125;0.00070465087890625;4.54999998851235;456;100 mA
5.05516398723694;0.4005126953125;0.00070953369140625;4.55999998848711;457;100 mA
5.06516398721169;0.400482177734375;0.0007122802734375;4.56999998846186;458;100 mA
5.07516398718644;0.40045166015625;0.0006915283203125;4.57999998843661;459;100 mA
5.0851639871612;0.400665283203125;0.000701293945312501;4.58999998841136;460;100 mA
5.09516398713595;0.4005126953125;0.00070831298828125;4.59999998838612;461;100 mA
5.1051639871107;0.400390625;0.00070465087890625;4.60999998836087;462;100 mA
5.11516398708545;0.40057373046875;0.000690612792968751;4.61999998833562;463;100 mA
5.1251639870602;0.40069580078125;0.0006915283203125;4.62999998831037;464;100 mA
5.13516398703496;0.40057373046875;0.0007080078125;4.63999998828513;465;100 mA
5.14516398700971;0.400421142578125;0.00069915771484375;4.64999998825988;466;100 mA
5.15516398698446;0.400604248046875;0.000684509277343751;4.65999998823463;467;100 mA
5.16516398695921;0.400634765625;0.00069854736328125;4.66999998820938;468;100 mA
5.17516398693397;0.400634765625;0.00070037841796875;4.67999998818414;469;100 mA
5.18516398690872;0.400482177734375;0.000709228515625;4.68999998815889;470;100 mA
5.19516398688347;0.400604248046875;0.00068695068359375;4.69999998813364;471;100 mA
5.20516398685822;0.400665283203125;0.00070159912109375;4.70999998810839;472;100 mA
5.21516398683298;0.4005126953125;0.0007171630859375;4.71999998808315;473;100 mA
5.22516398680773;0.4005126953125;0.000709228515625;4.7299999880579;474;100 mA
5.23516398678248;0.40045166015625;0.000701293945312501;4.73999998803265;475;100 mA
5.24516398675723;0.400665283203125;0.000705871582031251;4.7499999880074;476;100 mA
5.25516398673199;0.400482177734375;0.000713195800781249;4.75999998798216;477;100 mA
5.26516398670674;0.400390625;0.0007171630859375;4.76999998795691;478;100 mA
5.27516398668149;0.400543212890625;0.000690307617187499;4.77999998793166;479;100 mA
5.28516398665624;0.400634765625;0.000715026855468751;4.78999998790641;480;100 mA
5.295163986631;0.400604248046875;0.00070831298828125;4.79999998788116;481;100 mA
5.30516398660575;0.400421142578125;0.000710449218750001;4.80999998785592;482;100 mA
5.3151639865805;0.400665283203125;0.0006915283203125;4.81999998783067;483;100 mA
5.32516398655525;0.40057373046875;0.00070159912109375;4.82999998780542;484;100 mA
5.33516398653001;0.400634765625;0.00071258544921875;4.83999998778017;485;100 mA
5.34516398650476;0.400421142578125;0.0007080078125;4.84999998775493;486;100 mA
5.35516398647951;0.400726318359375;0.000684814453125;4.85999998772968;487;100 mA
5.36516398645426;0.400665283203125;0.00070343017578125;4.86999998770443;488;100 mA
5.37516398642902;0.40057373046875;0.0006988525390625;4.87999998767918;489;100 mA
5.38516398640377;0.400482177734375;0.00071380615234375;4.88999998765394;490;100 mA
5.39516398637852;0.4005126953125;0.00069000244140625;4.89999998762869;491;100 mA
5.40516398635327;0.4007568359375;0.00070098876953125;4.90999998760344;492;100 mA
5.41516398632803;0.400482177734375;0.0007147216796875;4.91999998757819;493;100 mA
5.42516398630278;0.40045166015625;0.000704040527343749;4.92999998755295;494;100 mA
5.43516398627753;0.400482177734375;0.000705871582031251;4.9399999875277;495;100 mA
5.44516398625228;0.40069580078125;0.000705871582031251;4.94999998750245;496;100 mA
5.45516398622703;0.400604248046875;0.0007086181640625;4.9599999874772;497;100 mA
5.46516398620179;0.400421142578125;0.00071075439453125;4.96999998745196;498;100 mA
5.47516398617654;0.400604248046875;0.000689086914062501;4.97999998742671;499;100 mA
5.48516398615129;0.400665283203125;0.00070831298828125;4.98999998740146;500;100 mA
5.49516398612604;0.40069580078125;0.00071075439453125;4.99999998737621;501;100 mA
5.5051639861008;0.40045166015625;0.00070709228515625;5.00999998735097;502;100 mA
5.51516398607555;0.40069580078125;0.000696411132812499;5.01999998732572;503;100 mA
5.5251639860503;0.400665283203125;0.0007000732421875;5.02999998730047;504;100 mA
5.53516398602505;0.400543212890625;0.00071075439453125;5.03999998727522;505;100 mA
5.54516398599981;0.4005126953125;0.00070709228515625;5.04999998724998;506;100 mA
5.55516398597456;0.4005126953125;0.000687255859374999;5.05999998722473;507;100 mA
5.56516398594931;0.400634765625;0.000699462890625;5.06999998719948;508;100 mA
5.57516398592406;0.4005126953125;0.000698242187500001;5.07999998717423;509;100 mA
5.58516398589882;0.40045166015625;0.000705566406249999;5.08999998714899;510;100 mA
5.59516398587357;0.400421142578125;0.00069305419921875;5.09999998712374;511;100 mA
5.60516398584832;0.40069580078125;0.00069305419921875;5.10999998709849;512;100 mA
5.61516398582307;0.400543212890625;0.00070220947265625;5.11999998707324;513;100 mA
5.62516398579783;0.400390625;0.000696411132812499;5.129999987048;514;100 mA
5.63516398577258;0.400604248046875;0.000693664550781251;5.13999998702275;515;100 mA
5.64516398574733;0.400726318359375;0.000696411132812499;5.1499999869975;516;100 mA
5.65516398572208;0.400604248046875;0.000702819824218751;5.15999998697225;517;100 mA
5.66516398569684;0.40045166015625;0.00070159912109375;5.169999986947;518;100 mA
5.67516398567159;0.400665283203125;0.00068389892578125;5.17999998692176;519;100 mA
5.68516398564634;0.400634765625;0.000703125;5.18999998689651;520;100 mA
5.69516398562109;0.400665283203125;0.000697021484375;5.19999998687126;521;100 mA
5.70516398559585;0.400543212890625;0.00069244384765625;5.20999998684601;522;100 mA
5.7151639855706;0.400543212890625;0.000689697265625;5.21999998682077;523;100 mA
5.72516398554535;0.400665283203125;0.000687255859374999;5.22999998679552;524;100 mA
5.7351639855201;0.4005126953125;0.000701293945312501;5.23999998677027;525;100 mA
5.74516398549486;0.40045166015625;0.000698242187500001;5.24999998674502;526;100 mA
5.75516398546961;0.40045166015625;0.000679931640625001;5.25999998671978;527;100 mA
5.76516398544436;0.40069580078125;0.000697021484375;5.26999998669453;528;100 mA
5.77516398541911;0.4005126953125;0.00068817138671875;5.27999998666928;529;100 mA
5.78516398539387;0.40045166015625;0.000695190429687501;5.28999998664403;530;100 mA
5.79516398536862;0.400543212890625;0.0006793212890625;5.29999998661879;531;100 mA
5.80516398534337;0.400634765625;0.000689697265625;5.30999998659354;532;100 mA
5.81516398531812;0.400665283203125;0.00069427490234375;5.31999998656829;533;100 mA
5.82516398529287;0.40045166015625;0.0006854248046875;5.32999998654304;534;100 mA
5.83516398526763;0.400726318359375;0.000681152343749999;5.3399999865178;535;100 mA
5.84516398524238;0.400634765625;0.0006866455078125;5.34999998649255;536;100 mA
5.85516398521713;0.400604248046875;0.00069305419921875;5.3599999864673;537;100 mA
5.86516398519188;0.40045166015625;0.00069854736328125;5.36999998644205;538;100 mA
5.87516398516664;0.40057373046875;0.0006793212890625;5.37999998641681;539;100 mA
5.88516398514139;0.400726318359375;0.00069610595703125;5.38999998639156;540;100 mA
5.89516398511614;0.40057373046875;0.0006988525390625;5.39999998636631;541;100 mA
5.90516398509089;0.4005126953125;0.00069183349609375;5.40999998634106;542;100 mA
5.91516398506565;0.400421142578125;0.000689697265625;5.41999998631582;543;100 mA
5.9251639850404;0.40069580078125;0.00068023681640625;5.42999998629057;544;100 mA
5.93516398501515;0.40045166015625;0.000698242187500001;5.43999998626532;545;100 mA
5.9451639849899;0.400421142578125;0.00069244384765625;5.44999998624007;546;100 mA
5.95516398496466;0.400604248046875;0.000676879882812501;5.45999998621483;547;100 mA
5.96516398493941;0.400665283203125;0.000695190429687501;5.46999998618958;548;100 mA
5.97516398491416;0.400665283203125;0.000687561035156251;5.47999998616433;549;100 mA
5.98516398488891;0.40045166015625;0.00069000244140625;5.48999998613908;550;100 mA
5.99516398486367;0.400634765625;0.0006756591796875;5.49999998611383;551;100 mA
6.00516398483842;0.400634765625;0.000682678222656249;5.50999998608859;552;100 mA
6.01516398481317;0.400665283203125;0.0006927490234375;5.51999998606334;553;100 mA
6.02516398478792;0.400482177734375;0.00068023681640625;5.52999998603809;554;100 mA
6.03516398476268;0.40069580078125;0.000678405761718751;5.53999998601284;555;100 mA
6.04516398473743;0.40069580078125;0.00067901611328125;5.5499999859876;556;100 mA
6.05516398471218;0.400543212890625;0.000679626464843749;5.55999998596235;557;100 mA
6.06516398468693;0.40045166015625;0.000690307617187499;5.5699999859371;558;100 mA
6.07516398466169;0.400482177734375;0.000660095214843751;5.57999998591185;559;100 mA
6.08516398463644;0.400634765625;0.0006817626953125;5.58999998588661;560;100 mA
6.09516398461119;0.400482177734375;0.000681152343749999;5.59999998586136;561;100 mA
6.10516398458594;0.400421142578125;0.00068023681640625;5.60999998583611;562;100 mA
6.1151639845607;0.40057373046875;0.00067138671875;5.61999998581086;563;100 mA
6.12516398453545;0.400726318359375;0.000675048828124999;5.62999998578562;564;100 mA
6.1351639845102;0.400604248046875;0.000684814453125;5.63999998576037;565;100 mA
6.14516398448495;0.400390625;0.0006866455078125;5.64999998573512;566;100 mA
6.1551639844597;0.400634765625;0.00067474365234375;5.65999998570987;567;100 mA
6.16516398443446;0.400665283203125;0.0006854248046875;5.66999998568463;568;100 mA
6.17516398440921;0.400634765625;0.00068206787109375;5.67999998565938;569;100 mA
6.18516398438396;0.400543212890625;0.000690307617187499;5.68999998563413;570;100 mA
6.19516398435871;0.400665283203125;0.000676879882812501;5.69999998560888;571;100 mA
6.20516398433347;0.40069580078125;0.00068511962890625;5.70999998558364;572;100 mA
6.21516398430822;0.40057373046875;0.00069091796875;5.71999998555839;573;100 mA
6.22516398428297;0.4005126953125;0.000682373046875;5.72999998553314;574;100 mA
6.23516398425772;0.40045166015625;0.000687255859374999;5.73999998550789;575;100 mA
6.24516398423248;0.40069580078125;0.0006915283203125;5.74999998548265;576;100 mA
6.25516398420723;0.4005126953125;0.0006842041015625;5.7599999854574;577;100 mA
6.26516398418198;0.400360107421875;0.000695190429687501;5.76999998543215;578;100 mA
6.27516398415673;0.40045166015625;0.00067901611328125;5.7799999854069;579;100 mA
6.28516398413149;0.4007568359375;0.000689697265625;5.78999998538166;580;100 mA
6.29516398410624;0.400543212890625;0.00069610595703125;5.79999998535641;581;100 mA
6.30516398408099;0.400421142578125;0.00068817138671875;5.80999998533116;582;100 mA
6.31516398405574;0.400604248046875;0.000682373046875;5.81999998530591;583;100 mA
6.3251639840305;0.400726318359375;0.00068634033203125;5.82999998528066;584;100 mA
6.33516398400525;0.400726318359375;0.00069244384765625;5.83999998525542;585;100 mA
6.34516398398;0.40045166015625;0.0006878662109375;5.84999998523017;586;100 mA
6.35516398395475;0.40069580078125;0.00067596435546875;5.85999998520492;587;100 mA
6.36516398392951;0.400634765625;0.0006927490234375;5.86999998517967;588;100 mA
6.37516398390426;0.400543212890625;0.000684814453125;5.87999998515443;589;100 mA
6.38516398387901;0.4005126953125;0.000694580078125;5.88999998512918;590;100 mA
6.39516398385376;0.400482177734375;0.0006878662109375;5.89999998510393;591;100 mA
6.40516398382852;0.40069580078125;0.000690612792968751;5.90999998507868;592;100 mA
6.41516398380327;0.400543212890625;0.000696716308593751;5.91999998505344;593;100 mA
6.42516398377802;0.400421142578125;0.00069000244140625;5.92999998502819;594;100 mA
6.43516398375277;0.400482177734375;0.0006884765625;5.93999998500294;595;100 mA
6.44516398372753;0.400726318359375;0.00069854736328125;5.94999998497769;596;100 mA
6.45516398370228;0.400604248046875;0.000702514648437499;5.95999998495245;597;100 mA
6.46516398367703;0.40032958984375;0.00070648193359375;5.9699999849272;598;100 mA
6.47516398365178;0.400604248046875;0.000687561035156251;5.97999998490195;599;100 mA
6.48516398362653;0.400726318359375;0.000705566406249999;5.9899999848767;600;100 mA
6.49516398360129;0.400665283203125;0.0007080078125;5.99999998485146;601;100 mA
6.50516398357604;0.400482177734375;0.0007049560546875;6.00999998482621;602;100 mA
6.51516398355079;0.40069580078125;0.0007000732421875;6.01999998480096;603;100 mA
6.52516398352554;0.40069580078125;0.000702514648437499;6.02999998477571;604;100 mA
6.5351639835003;0.400604248046875;0.00071563720703125;6.03999998475047;605;100 mA
6.54516398347505;0.400482177734375;0.000709228515625;6.04999998472522;606;100 mA
6.5551639834498;0.400543212890625;0.00069915771484375;6.05999998469997;607;100 mA
6.56516398342455;0.4007568359375;0.000712890625;6.06999998467472;608;100 mA
6.57516398339931;0.40045166015625;0.000705871582031251;6.07999998464948;609;100 mA
6.58516398337406;0.400543212890625;0.000709228515625;6.08999998462423;610;100 mA
6.59516398334881;0.400421142578125;0.000696716308593751;6.09999998459898;611;100 mA
6.60516398332356;0.400665283203125;0.000706787109375;6.10999998457373;612;100 mA
6.61516398329832;0.400543212890625;0.000712890625;6.11999998454849;613;100 mA
6.62516398327307;0.400390625;0.000697021484375;6.12999998452324;614;100 mA
6.63516398324782;0.400543212890625;0.000702514648437499;6.13999998449799;615;100 mA
6.64516398322257;0.40069580078125;0.000702514648437499;6.14999998447274;616;100 mA
6.65516398319733;0.400634765625;0.000704345703125001;6.1599999844475;617;100 mA
6.66516398317208;0.400482177734375;0.00070098876953125;6.16999998442225;618;100 mA
6.67516398314683;0.40069580078125;0.00068572998046875;6.179999984397;619;100 mA
6.68516398312158;0.400665283203125;0.000699768066406251;6.18999998437175;620;100 mA
6.69516398309634;0.400634765625;0.0006988525390625;6.1999999843465;621;100 mA
6.70516398307109;0.400482177734375;0.00069549560546875;6.20999998432126;622;100 mA
6.71516398304584;0.400543212890625;0.000690612792968751;6.21999998429601;623;100 mA
6.72516398302059;0.4007568359375;0.000689086914062501;6.22999998427076;624;100 mA
6.73516398299535;0.400543212890625;0.000701904296875;6.23999998424551;625;100 mA
6.7451639829701;0.400482177734375;0.000693359375;6.24999998422027;626;100 mA
6.75516398294485;0.400421142578125;0.00068328857421875;6.25999998419502;627;100 mA
6.7651639829196;0.400634765625;0.0006939697265625;6.26999998416977;628;100 mA
6.77516398289436;0.400482177734375;0.00069427490234375;6.27999998414452;629;100 mA
6.78516398286911;0.400390625;0.0006976318359375;6.28999998411928;630;100 mA
6.79516398284386;0.400543212890625;0.000690612792968751;6.29999998409403;631;100 mA
6.80516398281861;0.400726318359375;0.00069854736328125;6.30999998406878;632;100 mA
6.81516398279336;0.400634765625;0.000699462890625;6.31999998404353;633;100 mA
6.82516398276812;0.400421142578125;0.000690307617187499;6.32999998401829;634;100 mA
6.83516398274287;0.40069580078125;0.0006915283203125;6.33999998399304;635;100 mA
6.84516398271762;0.400665283203125;0.000694580078125;6.34999998396779;636;100 mA
6.85516398269237;0.400665283203125;0.000692138671875001;6.35999998394254;637;100 mA
6.86516398266713;0.400421142578125;0.0006939697265625;6.3699999839173;638;100 mA
6.87516398264188;0.40057373046875;0.00067779541015625;6.37999998389205;639;100 mA
6.88516398261663;0.40069580078125;0.00069580078125;6.3899999838668;640;100 mA
6.89516398259138;0.400543212890625;0.00069549560546875;6.39999998384155;641;100 mA
6.90516398256614;0.4005126953125;0.00068572998046875;6.40999998381631;642;100 mA
6.91516398254089;0.4005126953125;0.00068572998046875;6.41999998379106;643;100 mA
6.92516398251564;0.40069580078125;0.00068511962890625;6.42999998376581;644;100 mA
6.93516398249039;0.400482177734375;0.000695190429687501;6.43999998374056;645;100 mA
6.94516398246515;0.400421142578125;0.000687561035156251;6.44999998371532;646;100 mA
6.9551639824399;0.40045166015625;0.000686035156250001;6.45999998369007;647;100 mA
6.96516398241465;0.40069580078125;0.0006927490234375;6.46999998366482;648;100 mA
6.9751639823894;0.400634765625;0.000684509277343751;6.47999998363957;649;100 mA
6.98516398236416;0.400421142578125;0.00069732666015625;6.48999998361433;650;100 mA
6.99516398233891;0.400665283203125;0.000682373046875;6.49999998358908;651;100 mA
7.00516398231366;0.400665283203125;0.0006939697265625;6.50999998356383;652;100 mA
7.01516398228841;0.400634765625;0.000693664550781251;6.51999998353858;653;100 mA
7.02516398226317;0.400421142578125;0.0006884765625;6.52999998351333;654;100 mA
7.03516398223792;0.400604248046875;0.0006927490234375;6.53999998348809;655;100 mA
7.04516398221267;0.400726318359375;0.0006988525390625;6.54999998346284;656;100 mA
7.05516398218742;0.400604248046875;0.000698242187500001;6.55999998343759;657;100 mA
7.06516398216218;0.40045166015625;0.0007000732421875;6.56999998341234;658;100 mA
7.07516398213693;0.400421142578125;0.00068695068359375;6.5799999833871;659;100 mA
7.08516398211168;0.400665283203125;0.00070526123046875;6.58999998336185;660;100 mA
7.09516398208643;0.400482177734375;0.000701293945312501;6.5999999833366;661;100 mA
7.10516398206119;0.400421142578125;0.00069915771484375;6.60999998331135;662;100 mA
7.11516398203594;0.400482177734375;0.00069854736328125;6.61999998328611;663;100 mA
7.12516398201069;0.400634765625;0.000696716308593751;6.62999998326086;664;100 mA
7.13516398198544;0.400604248046875;0.000709228515625;6.63999998323561;665;100 mA
7.1451639819602;0.40045166015625;0.0006976318359375;6.64999998321036;666;100 mA
7.15516398193495;0.40069580078125;0.0006939697265625;6.65999998318512;667;100 mA
7.1651639819097;0.40069580078125;0.00070526123046875;6.66999998315987;668;100 mA
7.17516398188445;0.400665283203125;0.00069580078125;6.67999998313462;669;100 mA
7.1851639818592;0.4005126953125;0.00069854736328125;6.68999998310937;670;100 mA
7.19516398183396;0.400634765625;0.00069305419921875;6.69999998308413;671;100 mA
7.20516398180871;0.40069580078125;0.000703125;6.70999998305888;672;100 mA
7.21516398178346;0.400634765625;0.0006976318359375;6.71999998303363;673;100 mA
7.22516398175821;0.40045166015625;0.000687561035156251;6.72999998300838;674;100 mA
7.23516398173297;0.400421142578125;0.000697937011718749;6.73999998298314;675;100 mA
7.24516398170772;0.40069580078125;0.00069580078125;6.74999998295789;676;100 mA
7.25516398168247;0.4005126953125;0.00069610595703125;6.75999998293264;677;100 mA
7.26516398165722;0.400421142578125;0.00069122314453125;6.76999998290739;678;100 mA
7.27516398163198;0.40045166015625;0.00067169189453125;6.77999998288215;679;100 mA
7.28516398160673;0.400665283203125;0.000689086914062501;6.7899999828569;680;100 mA
7.29516398158148;0.400634765625;0.00068817138671875;6.79999998283165;681;100 mA
7.30516398155623;0.400421142578125;0.000684509277343751;6.8099999828064;682;100 mA
7.31516398153099;0.400634765625;0.00067901611328125;6.81999998278116;683;100 mA
7.32516398150574;0.400665283203125;0.0006781005859375;6.82999998275591;684;100 mA
7.33516398148049;0.40069580078125;0.000681457519531251;6.83999998273066;685;100 mA
7.34516398145524;0.40045166015625;0.000676879882812501;6.84999998270541;686;100 mA
7.35516398143;0.400665283203125;0.000672607421875;6.85999998268016;687;100 mA
7.36516398140475;0.400726318359375;0.0006854248046875;6.86999998265492;688;100 mA
7.3751639813795;0.400634765625;0.000673828125000001;6.87999998262967;689;100 mA
7.38516398135425;0.4005126953125;0.000677490234375;6.88999998260442;690;100 mA
7.39516398132901;0.40045166015625;0.000672302246093751;6.89999998257917;691;100 mA
7.40516398130376;0.40069580078125;0.00068023681640625;6.90999998255393;692;100 mA
7.41516398127851;0.400482177734375;0.0006842041015625;6.91999998252868;693;100 mA
7.42516398125326;0.400421142578125;0.00067657470703125;6.92999998250343;694;100 mA
7.43516398122802;0.40045166015625;0.000682678222656249;6.93999998247818;695;100 mA
7.44516398120277;0.40069580078125;0.00068206787109375;6.94999998245294;696;100 mA
7.45516398117752;0.400543212890625;0.000679626464843749;6.95999998242769;697;100 mA
7.46516398115227;0.400421142578125;0.00067718505859375;6.96999998240244;698;100 mA
7.47516398112703;0.40057373046875;0.00066375732421875;6.97999998237719;699;100 mA
7.48516398110178;0.400634765625;0.0006793212890625;6.98999998235195;700;100 mA
