Time (s);WE(1).Potential (V);WE(1).Current (A);Corrected time (s);Index;Current range
22.9997219419313;-0.79986572265625;-0.33251953125;0;1;100 mA
23.009721941906;-0.79925537109375;-0.242431640625;0.00999999997475243;2;100 mA
23.0197219418808;-0.79925537109375;-0.199798583984375;0.0199999999495049;3;100 mA
23.0297219418555;-0.7989501953125;-0.173583984375;0.0299999999242573;4;100 mA
23.0397219418303;-0.79986572265625;-0.155975341796875;0.0399999998990097;5;100 mA
23.049721941805;-0.7989501953125;-0.142333984375;0.0499999998737621;6;100 mA
23.0597219417798;-0.79925537109375;-0.13189697265625;0.0599999998485146;7;100 mA
23.0697219417546;-0.7989501953125;-0.123565673828125;0.069999999823267;8;100 mA
23.0797219417293;-0.79864501953125;-0.116790771484375;0.0799999997980194;9;100 mA
23.0897219417041;-0.79925537109375;-0.11083984375;0.0899999997727718;10;100 mA
23.0997219416788;-0.7989501953125;-0.10577392578125;0.0999999997475243;11;100 mA
23.1097219416536;-0.79864501953125;-0.10137939453125;0.109999999722277;12;100 mA
23.1197219416283;-0.79925537109375;-0.09783935546875;0.119999999697029;13;100 mA
23.1297219416031;-0.7989501953125;-0.094329833984375;0.129999999671782;14;100 mA
23.1397219415778;-0.7989501953125;-0.091400146484375;0.139999999646534;15;100 mA
23.1497219415526;-0.7989501953125;-0.0887451171875;0.149999999621286;16;100 mA
23.1597219415273;-0.7989501953125;-0.08648681640625;0.159999999596039;17;100 mA
23.1697219415021;-0.79925537109375;-0.084197998046875;0.169999999570791;18;100 mA
23.1797219414768;-0.7989501953125;-0.082183837890625;0.179999999545544;19;100 mA
23.1897219414516;-0.799560546875;-0.080413818359375;0.189999999520296;20;100 mA
23.1997219414263;-0.7989501953125;-0.078826904296875;0.199999999495049;21;100 mA
23.2097219414011;-0.79986572265625;-0.07720947265625;0.209999999469801;22;100 mA
23.2197219413758;-0.799560546875;-0.075897216796875;0.219999999444553;23;100 mA
23.2297219413506;-0.799560546875;-0.0745849609375;0.229999999419306;24;100 mA
23.2397219413253;-0.799560546875;-0.0736083984375;0.239999999394058;25;100 mA
23.2497219413001;-0.799560546875;-0.07232666015625;0.249999999368811;26;100 mA
23.2597219412748;-0.79925537109375;-0.07135009765625;0.259999999343563;27;100 mA
23.2697219412496;-0.79925537109375;-0.070465087890625;0.269999999318316;28;100 mA
23.2797219412244;-0.799560546875;-0.06964111328125;0.279999999293068;29;100 mA
23.2897219411991;-0.79925537109375;-0.068695068359375;0.28999999926782;30;100 mA
23.2997219411739;-0.799560546875;-0.067962646484375;0.299999999242573;31;100 mA
23.3097219411486;-0.79925537109375;-0.0672607421875;0.309999999217325;32;100 mA
23.3197219411234;-0.799560546875;-0.066680908203125;0.319999999192078;33;100 mA
23.3297219410981;-0.79833984375;-0.06585693359375;0.32999999916683;34;100 mA
23.3397219410729;-0.79864501953125;-0.065338134765625;0.339999999141583;35;100 mA
23.3497219410476;-0.7989501953125;-0.064788818359375;0.349999999116335;36;100 mA
23.3597219410224;-0.79925537109375;-0.06439208984375;0.359999999091087;37;100 mA
23.3697219409971;-0.7989501953125;-0.063720703125;0.36999999906584;38;100 mA
23.3797219409719;-0.79925537109375;-0.06329345703125;0.379999999040592;39;100 mA
23.3897219409466;-0.79925537109375;-0.062896728515625;0.389999999015345;40;100 mA
23.3997219409214;-0.79864501953125;-0.06243896484375;0.399999998990097;41;100 mA
23.4097219408961;-0.799560546875;-0.061859130859375;0.40999999896485;42;100 mA
23.4197219408709;-0.799560546875;-0.0615234375;0.419999998939602;43;100 mA
23.4297219408456;-0.79925537109375;-0.061126708984375;0.429999998914354;44;100 mA
23.4397219408204;-0.79925537109375;-0.060943603515625;0.439999998889107;45;100 mA
23.4497219407951;-0.79925537109375;-0.060394287109375;0.449999998863859;46;100 mA
23.4597219407699;-0.799560546875;-0.060150146484375;0.459999998838612;47;100 mA
23.4697219407446;-0.79925537109375;-0.05987548828125;0.469999998813364;48;100 mA
23.4797219407194;-0.79925537109375;-0.05963134765625;0.479999998788116;49;100 mA
23.4897219406942;-0.7989501953125;-0.059234619140625;0.489999998762869;50;100 mA
23.4997219406689;-0.7989501953125;-0.059051513671875;0.499999998737621;51;100 mA
23.5097219406437;-0.79925537109375;-0.058868408203125;0.509999998712374;52;100 mA
23.5197219406184;-0.79925537109375;-0.0587158203125;0.519999998687126;53;100 mA
23.5297219405932;-0.7989501953125;-0.058319091796875;0.529999998661879;54;100 mA
23.5397219405679;-0.79925537109375;-0.0582275390625;0.539999998636631;55;100 mA
23.5497219405427;-0.799560546875;-0.058013916015625;0.549999998611383;56;100 mA
23.5597219405174;-0.7989501953125;-0.057952880859375;0.559999998586136;57;100 mA
23.5697219404922;-0.7989501953125;-0.057586669921875;0.569999998560888;58;100 mA
23.5797219404669;-0.79925537109375;-0.057464599609375;0.579999998535641;59;100 mA
23.5897219404417;-0.7989501953125;-0.057342529296875;0.589999998510393;60;100 mA
23.5997219404164;-0.79925537109375;-0.057220458984375;0.599999998485146;61;100 mA
23.6097219403912;-0.79925537109375;-0.05694580078125;0.609999998459898;62;100 mA
23.6197219403659;-0.7989501953125;-0.056793212890625;0.61999999843465;63;100 mA
23.6297219403407;-0.799560546875;-0.05657958984375;0.629999998409403;64;100 mA
23.6397219403154;-0.799560546875;-0.056488037109375;0.639999998384155;65;100 mA
23.6497219402902;-0.7989501953125;-0.05609130859375;0.649999998358908;66;100 mA
23.6597219402649;-0.79925537109375;-0.0560302734375;0.65999999833366;67;100 mA
23.6697219402397;-0.79925537109375;-0.055877685546875;0.669999998308413;68;100 mA
23.6797219402144;-0.79925537109375;-0.05584716796875;0.679999998283165;69;100 mA
23.6897219401892;-0.7989501953125;-0.05560302734375;0.689999998257917;70;100 mA
23.699721940164;-0.79925537109375;-0.0555419921875;0.69999999823267;71;100 mA
23.7097219401387;-0.79864501953125;-0.0555419921875;0.709999998207422;72;100 mA
23.7197219401135;-0.7989501953125;-0.055511474609375;0.719999998182175;73;100 mA
23.7297219400882;-0.7989501953125;-0.055206298828125;0.729999998156927;74;100 mA
23.739721940063;-0.79925537109375;-0.055206298828125;0.73999999813168;75;100 mA
23.7497219400377;-0.7989501953125;-0.055084228515625;0.749999998106432;76;100 mA
23.7597219400125;-0.79925537109375;-0.055145263671875;0.759999998081184;77;100 mA
23.7697219399872;-0.79986572265625;-0.054840087890625;0.769999998055937;78;100 mA
23.779721939962;-0.799560546875;-0.054840087890625;0.779999998030689;79;100 mA
23.7897219399367;-0.79925537109375;-0.054779052734375;0.789999998005442;80;100 mA
23.7997219399115;-0.7989501953125;-0.054840087890625;0.799999997980194;81;100 mA
23.8097219398862;-0.79925537109375;-0.05462646484375;0.809999997954947;82;100 mA
23.819721939861;-0.7989501953125;-0.05450439453125;0.819999997929699;83;100 mA
23.8297219398357;-0.799560546875;-0.054443359375;0.829999997904451;84;100 mA
23.8397219398105;-0.79925537109375;-0.054443359375;0.839999997879204;85;100 mA
23.8497219397852;-0.7989501953125;-0.05413818359375;0.849999997853956;86;100 mA
23.85972193976;-0.79925537109375;-0.05413818359375;0.859999997828709;87;100 mA
23.8697219397347;-0.79925537109375;-0.054046630859375;0.869999997803461;88;100 mA
23.8797219397095;-0.79925537109375;-0.054107666015625;0.879999997778214;89;100 mA
23.8897219396843;-0.79864501953125;-0.05389404296875;0.889999997752966;90;100 mA
23.899721939659;-0.7989501953125;-0.0538330078125;0.899999997727718;91;100 mA
23.9097219396338;-0.79925537109375;-0.0538330078125;0.909999997702471;92;100 mA
23.9197219396085;-0.79986572265625;-0.0538330078125;0.919999997677223;93;100 mA
23.9297219395833;-0.79925537109375;-0.053619384765625;0.929999997651976;94;100 mA
23.939721939558;-0.79925537109375;-0.0535888671875;0.939999997626728;95;100 mA
23.9497219395328;-0.79925537109375;-0.05352783203125;0.949999997601481;96;100 mA
23.9597219395075;-0.79925537109375;-0.053619384765625;0.959999997576233;97;100 mA
23.9697219394823;-0.799560546875;-0.053375244140625;0.969999997550985;98;100 mA
23.979721939457;-0.7989501953125;-0.053436279296875;0.979999997525738;99;100 mA
23.9897219394318;-0.7989501953125;-0.053375244140625;0.98999999750049;100;100 mA
23.9997219394065;-0.79986572265625;-0.053436279296875;0.999999997475243;101;100 mA
24.0097219393813;-0.799560546875;-0.05328369140625;1.00999999745;102;100 mA
24.019721939356;-0.7989501953125;-0.05328369140625;1.01999999742475;103;100 mA
24.0297219393308;-0.79925537109375;-0.053314208984375;1.0299999973995;104;100 mA
24.0397219393055;-0.79925537109375;-0.053375244140625;1.03999999737425;105;100 mA
24.0497219392803;-0.799560546875;-0.053192138671875;1.049999997349;106;100 mA
24.059721939255;-0.79833984375;-0.05328369140625;1.05999999732376;107;100 mA
24.0697219392298;-0.7989501953125;-0.053253173828125;1.06999999729851;108;100 mA
24.0797219392045;-0.799560546875;-0.053375244140625;1.07999999727326;109;100 mA
24.0897219391793;-0.79925537109375;-0.053192138671875;1.08999999724801;110;100 mA
24.0997219391541;-0.79925537109375;-0.053192138671875;1.09999999722277;111;100 mA
24.1097219391288;-0.799560546875;-0.05316162109375;1.10999999719752;112;100 mA
24.1197219391036;-0.7989501953125;-0.05316162109375;1.11999999717227;113;100 mA
24.1297219390783;-0.799560546875;-0.053009033203125;1.12999999714702;114;100 mA
24.1397219390531;-0.79864501953125;-0.053009033203125;1.13999999712178;115;100 mA
24.1497219390278;-0.7989501953125;-0.053070068359375;1.14999999709653;116;100 mA
24.1597219390026;-0.799560546875;-0.05322265625;1.15999999707128;117;100 mA
24.1697219389773;-0.7989501953125;-0.052947998046875;1.16999999704603;118;100 mA
24.1797219389521;-0.7989501953125;-0.053009033203125;1.17999999702079;119;100 mA
24.1897219389268;-0.79925537109375;-0.052886962890625;1.18999999699554;120;100 mA
24.1997219389016;-0.79925537109375;-0.052825927734375;1.19999999697029;121;100 mA
24.2097219388763;-0.7989501953125;-0.052642822265625;1.20999999694504;122;100 mA
24.2197219388511;-0.79925537109375;-0.052581787109375;1.2199999969198;123;100 mA
24.2297219388258;-0.79925537109375;-0.0526123046875;1.22999999689455;124;100 mA
24.2397219388006;-0.799560546875;-0.0526123046875;1.2399999968693;125;100 mA
24.2497219387753;-0.79925537109375;-0.0523681640625;1.24999999684405;126;100 mA
24.2597219387501;-0.79925537109375;-0.0523681640625;1.25999999681881;127;100 mA
24.2697219387248;-0.79925537109375;-0.052215576171875;1.26999999679356;128;100 mA
24.2797219386996;-0.7989501953125;-0.05218505859375;1.27999999676831;129;100 mA
24.2897219386743;-0.79925537109375;-0.051849365234375;1.28999999674306;130;100 mA
24.2997219386491;-0.7989501953125;-0.051788330078125;1.29999999671782;131;100 mA
24.3097219386239;-0.79986572265625;-0.051727294921875;1.30999999669257;132;100 mA
24.3197219385986;-0.7989501953125;-0.05169677734375;1.31999999666732;133;100 mA
24.3297219385734;-0.799560546875;-0.051513671875;1.32999999664207;134;100 mA
24.3397219385481;-0.79925537109375;-0.051422119140625;1.33999999661683;135;100 mA
24.3497219385229;-0.79925537109375;-0.05133056640625;1.34999999659158;136;100 mA
24.3597219384976;-0.7989501953125;-0.0513916015625;1.35999999656633;137;100 mA
24.3697219384724;-0.799560546875;-0.05108642578125;1.36999999654108;138;100 mA
24.3797219384471;-0.7989501953125;-0.0511474609375;1.37999999651583;139;100 mA
24.3897219384219;-0.7989501953125;-0.051116943359375;1.38999999649059;140;100 mA
24.3997219383966;-0.7989501953125;-0.05120849609375;1.39999999646534;141;100 mA
24.4097219383714;-0.79925537109375;-0.051116943359375;1.40999999644009;142;100 mA
24.4197219383461;-0.799560546875;-0.051116943359375;1.41999999641484;143;100 mA
24.4297219383209;-0.79864501953125;-0.0511474609375;1.4299999963896;144;100 mA
24.4397219382956;-0.799560546875;-0.051177978515625;1.43999999636435;145;100 mA
24.4497219382704;-0.7989501953125;-0.051055908203125;1.4499999963391;146;100 mA
24.4597219382451;-0.7989501953125;-0.0511474609375;1.45999999631385;147;100 mA
24.4697219382199;-0.79925537109375;-0.0511474609375;1.46999999628861;148;100 mA
24.4797219381946;-0.79925537109375;-0.0513916015625;1.47999999626336;149;100 mA
24.4897219381694;-0.79925537109375;-0.051239013671875;1.48999999623811;150;100 mA
24.4997219381441;-0.7989501953125;-0.051422119140625;1.49999999621286;151;100 mA
24.5097219381189;-0.799560546875;-0.051544189453125;1.50999999618762;152;100 mA
24.5197219380937;-0.79925537109375;-0.051666259765625;1.51999999616237;153;100 mA
24.5297219380684;-0.7989501953125;-0.051666259765625;1.52999999613712;154;100 mA
24.5397219380432;-0.799560546875;-0.05169677734375;1.53999999611187;155;100 mA
24.5497219380179;-0.79986572265625;-0.051727294921875;1.54999999608663;156;100 mA
24.5597219379927;-0.799560546875;-0.051849365234375;1.55999999606138;157;100 mA
24.5697219379674;-0.79925537109375;-0.0516357421875;1.56999999603613;158;100 mA
24.5797219379422;-0.799560546875;-0.0517578125;1.57999999601088;159;100 mA
24.5897219379169;-0.799560546875;-0.051666259765625;1.58999999598564;160;100 mA
24.5997219378917;-0.79925537109375;-0.0517578125;1.59999999596039;161;100 mA
24.6097219378664;-0.799560546875;-0.051605224609375;1.60999999593514;162;100 mA
24.6197219378412;-0.79925537109375;-0.051544189453125;1.61999999590989;163;100 mA
24.6297219378159;-0.7989501953125;-0.051513671875;1.62999999588465;164;100 mA
24.6397219377907;-0.79925537109375;-0.051513671875;1.6399999958594;165;100 mA
24.6497219377654;-0.79925537109375;-0.051361083984375;1.64999999583415;166;100 mA
24.6597219377402;-0.7989501953125;-0.0513916015625;1.6599999958089;167;100 mA
24.6697219377149;-0.79925537109375;-0.051361083984375;1.66999999578366;168;100 mA
24.6797219376897;-0.79925537109375;-0.051544189453125;1.67999999575841;169;100 mA
24.6897219376644;-0.799560546875;-0.05133056640625;1.68999999573316;170;100 mA
24.6997219376392;-0.79864501953125;-0.05145263671875;1.69999999570791;171;100 mA
24.7097219376139;-0.7989501953125;-0.051513671875;1.70999999568267;172;100 mA
24.7197219375887;-0.7989501953125;-0.051605224609375;1.71999999565742;173;100 mA
24.7297219375635;-0.79925537109375;-0.0516357421875;1.72999999563217;174;100 mA
24.7397219375382;-0.799560546875;-0.0517578125;1.73999999560692;175;100 mA
24.749721937513;-0.79925537109375;-0.051971435546875;1.74999999558167;176;100 mA
24.7597219374877;-0.79864501953125;-0.05218505859375;1.75999999555643;177;100 mA
24.7697219374625;-0.799560546875;-0.052093505859375;1.76999999553118;178;100 mA
24.7797219374372;-0.799560546875;-0.052276611328125;1.77999999550593;179;100 mA
24.789721937412;-0.79925537109375;-0.052276611328125;1.78999999548068;180;100 mA
24.7997219373867;-0.79925537109375;-0.052459716796875;1.79999999545544;181;100 mA
24.8097219373615;-0.79925537109375;-0.052337646484375;1.80999999543019;182;100 mA
24.8197219373362;-0.79925537109375;-0.05242919921875;1.81999999540494;183;100 mA
24.829721937311;-0.7989501953125;-0.052581787109375;1.82999999537969;184;100 mA
24.8397219372857;-0.799560546875;-0.0526123046875;1.83999999535445;185;100 mA
24.8497219372605;-0.79925537109375;-0.052490234375;1.8499999953292;186;100 mA
24.8597219372352;-0.79925537109375;-0.052459716796875;1.85999999530395;187;100 mA
24.86972193721;-0.799560546875;-0.0523681640625;1.8699999952787;188;100 mA
24.8797219371847;-0.7989501953125;-0.052459716796875;1.87999999525346;189;100 mA
24.8897219371595;-0.79925537109375;-0.0521240234375;1.88999999522821;190;100 mA
24.8997219371342;-0.79864501953125;-0.0521240234375;1.89999999520296;191;100 mA
24.909721937109;-0.7989501953125;-0.052032470703125;1.90999999517771;192;100 mA
24.9197219370838;-0.79986572265625;-0.051971435546875;1.91999999515247;193;100 mA
24.9297219370585;-0.79925537109375;-0.05169677734375;1.92999999512722;194;100 mA
24.9397219370333;-0.7989501953125;-0.051513671875;1.93999999510197;195;100 mA
24.949721937008;-0.79925537109375;-0.051422119140625;1.94999999507672;196;100 mA
24.9597219369828;-0.799560546875;-0.0513916015625;1.95999999505148;197;100 mA
24.9697219369575;-0.79925537109375;-0.051116943359375;1.96999999502623;198;100 mA
24.9797219369323;-0.79925537109375;-0.051116943359375;1.97999999500098;199;100 mA
24.989721936907;-0.799560546875;-0.051025390625;1.98999999497573;200;100 mA
24.9997219368818;-0.7989501953125;-0.051116943359375;1.99999999495049;201;100 mA
25.0097219368565;-0.79864501953125;-0.05078125;2.00999999492524;202;100 mA
25.0197219368313;-0.7989501953125;-0.050689697265625;2.01999999489999;203;100 mA
25.029721936806;-0.799560546875;-0.050628662109375;2.02999999487474;204;100 mA
25.0397219367808;-0.799560546875;-0.050567626953125;2.0399999948495;205;100 mA
25.0497219367555;-0.79925537109375;-0.0504150390625;2.04999999482425;206;100 mA
25.0597219367303;-0.79864501953125;-0.05035400390625;2.059999994799;207;100 mA
25.069721936705;-0.79925537109375;-0.05035400390625;2.06999999477375;208;100 mA
25.0797219366798;-0.7989501953125;-0.0504150390625;2.0799999947485;209;100 mA
25.0897219366545;-0.799560546875;-0.05010986328125;2.08999999472326;210;100 mA
25.0997219366293;-0.79925537109375;-0.050140380859375;2.09999999469801;211;100 mA
25.109721936604;-0.799560546875;-0.050018310546875;2.10999999467276;212;100 mA
25.1197219365788;-0.79925537109375;-0.050018310546875;2.11999999464751;213;100 mA
25.1297219365536;-0.7989501953125;-0.049835205078125;2.12999999462227;214;100 mA
25.1397219365283;-0.79986572265625;-0.0498046875;2.13999999459702;215;100 mA
25.1497219365031;-0.799560546875;-0.04986572265625;2.14999999457177;216;100 mA
25.1597219364778;-0.7989501953125;-0.049896240234375;2.15999999454652;217;100 mA
25.1697219364526;-0.79925537109375;-0.04974365234375;2.16999999452128;218;100 mA
25.1797219364273;-0.7989501953125;-0.0498046875;2.17999999449603;219;100 mA
25.1897219364021;-0.79925537109375;-0.049713134765625;2.18999999447078;220;100 mA
25.1997219363768;-0.79925537109375;-0.04986572265625;2.19999999444553;221;100 mA
25.2097219363516;-0.7989501953125;-0.049560546875;2.20999999442029;222;100 mA
25.2197219363263;-0.79925537109375;-0.049591064453125;2.21999999439504;223;100 mA
25.2297219363011;-0.7989501953125;-0.049591064453125;2.22999999436979;224;100 mA
25.2397219362758;-0.7989501953125;-0.0495269775390625;2.23999999434454;225;100 mA
25.2497219362506;-0.7989501953125;-0.049346923828125;2.2499999943193;226;100 mA
25.2597219362253;-0.79864501953125;-0.0492706298828125;2.25999999429405;227;100 mA
25.2697219362001;-0.799560546875;-0.049224853515625;2.2699999942688;228;100 mA
25.2797219361748;-0.7989501953125;-0.049322509765625;2.27999999424355;229;100 mA
25.2897219361496;-0.799560546875;-0.049102783203125;2.28999999421831;230;100 mA
25.2997219361243;-0.79925537109375;-0.049200439453125;2.29999999419306;231;100 mA
25.3097219360991;-0.79925537109375;-0.049188232421875;2.30999999416781;232;100 mA
25.3197219360738;-0.799560546875;-0.049346923828125;2.31999999414256;233;100 mA
25.3297219360486;-0.79925537109375;-0.0491943359375;2.32999999411732;234;100 mA
25.3397219360234;-0.7989501953125;-0.0491912841796875;2.33999999409207;235;100 mA
25.3497219359981;-0.799560546875;-0.0492462158203125;2.34999999406682;236;100 mA
25.3597219359729;-0.7989501953125;-0.04930419921875;2.35999999404157;237;100 mA
25.3697219359476;-0.79864501953125;-0.049224853515625;2.36999999401633;238;100 mA
25.3797219359224;-0.799560546875;-0.0493255615234375;2.37999999399108;239;100 mA
25.3897219358971;-0.7989501953125;-0.049371337890625;2.38999999396583;240;100 mA
25.3997219358719;-0.79925537109375;-0.049591064453125;2.39999999394058;241;100 mA
25.4097219358466;-0.79925537109375;-0.04937744140625;2.40999999391533;242;100 mA
25.4197219358214;-0.79864501953125;-0.0494049072265625;2.41999999389009;243;100 mA
25.4297219357961;-0.79925537109375;-0.049365234375;2.42999999386484;244;100 mA
25.4397219357709;-0.79925537109375;-0.04937744140625;2.43999999383959;245;100 mA
25.4497219357456;-0.79925537109375;-0.04931640625;2.44999999381434;246;100 mA
25.4597219357204;-0.7989501953125;-0.0492767333984375;2.4599999937891;247;100 mA
25.4697219356951;-0.799560546875;-0.04937744140625;2.46999999376385;248;100 mA
25.4797219356699;-0.7989501953125;-0.04949951171875;2.4799999937386;249;100 mA
25.4897219356446;-0.79925537109375;-0.04937744140625;2.48999999371335;250;100 mA
25.4997219356194;-0.7989501953125;-0.049456787109375;2.49999999368811;251;100 mA
25.5097219355941;-0.799560546875;-0.049407958984375;2.50999999366286;252;100 mA
25.5197219355689;-0.799560546875;-0.049560546875;2.51999999363761;253;100 mA
25.5297219355436;-0.79925537109375;-0.0494384765625;2.52999999361236;254;100 mA
25.5397219355184;-0.7989501953125;-0.04951171875;2.53999999358712;255;100 mA
25.5497219354932;-0.79925537109375;-0.0496826171875;2.54999999356187;256;100 mA
25.5597219354679;-0.7989501953125;-0.0498046875;2.55999999353662;257;100 mA
25.5697219354427;-0.79864501953125;-0.0498046875;2.56999999351137;258;100 mA
25.5797219354174;-0.7989501953125;-0.049896240234375;2.57999999348613;259;100 mA
25.5897219353922;-0.799560546875;-0.049957275390625;2.58999999346088;260;100 mA
25.5997219353669;-0.799560546875;-0.050262451171875;2.59999999343563;261;100 mA
25.6097219353417;-0.7989501953125;-0.050201416015625;2.60999999341038;262;100 mA
25.6197219353164;-0.79925537109375;-0.05047607421875;2.61999999338514;263;100 mA
25.6297219352912;-0.79864501953125;-0.0506591796875;2.62999999335989;264;100 mA
25.6397219352659;-0.79925537109375;-0.0509033203125;2.63999999333464;265;100 mA
25.6497219352407;-0.79925537109375;-0.05096435546875;2.64999999330939;266;100 mA
25.6597219352154;-0.799560546875;-0.051055908203125;2.65999999328415;267;100 mA
25.6697219351902;-0.79925537109375;-0.05120849609375;2.6699999932589;268;100 mA
25.6797219351649;-0.79986572265625;-0.05133056640625;2.67999999323365;269;100 mA
25.6897219351397;-0.79925537109375;-0.051239013671875;2.6899999932084;270;100 mA
25.6997219351144;-0.7989501953125;-0.051300048828125;2.69999999318316;271;100 mA
25.7097219350892;-0.799560546875;-0.05120849609375;2.70999999315791;272;100 mA
25.7197219350639;-0.79864501953125;-0.051361083984375;2.71999999313266;273;100 mA
25.7297219350387;-0.79986572265625;-0.0511474609375;2.72999999310741;274;100 mA
25.7397219350134;-0.79864501953125;-0.05120849609375;2.73999999308217;275;100 mA
25.7497219349882;-0.799560546875;-0.051239013671875;2.74999999305692;276;100 mA
25.759721934963;-0.7989501953125;-0.05126953125;2.75999999303167;277;100 mA
25.7697219349377;-0.79925537109375;-0.051177978515625;2.76999999300642;278;100 mA
25.7797219349125;-0.79833984375;-0.05120849609375;2.77999999298117;279;100 mA
25.7897219348872;-0.7989501953125;-0.051177978515625;2.78999999295593;280;100 mA
25.799721934862;-0.79925537109375;-0.05126953125;2.79999999293068;281;100 mA
25.8097219348367;-0.7989501953125;-0.051025390625;2.80999999290543;282;100 mA
25.8197219348115;-0.79986572265625;-0.051116943359375;2.81999999288018;283;100 mA
25.8297219347862;-0.79925537109375;-0.05108642578125;2.82999999285494;284;100 mA
25.839721934761;-0.79864501953125;-0.05120849609375;2.83999999282969;285;100 mA
25.8497219347357;-0.79925537109375;-0.0511474609375;2.84999999280444;286;100 mA
25.8597219347105;-0.79925537109375;-0.05120849609375;2.85999999277919;287;100 mA
25.8697219346852;-0.799560546875;-0.05133056640625;2.86999999275395;288;100 mA
25.87972193466;-0.79986572265625;-0.05145263671875;2.8799999927287;289;100 mA
25.8897219346347;-0.7989501953125;-0.0513916015625;2.88999999270345;290;100 mA
25.8997219346095;-0.7989501953125;-0.05157470703125;2.8999999926782;291;100 mA
25.9097219345842;-0.79925537109375;-0.0516357421875;2.90999999265296;292;100 mA
25.919721934559;-0.79925537109375;-0.05194091796875;2.91999999262771;293;100 mA
25.9297219345337;-0.7989501953125;-0.05181884765625;2.92999999260246;294;100 mA
25.9397219345085;-0.79864501953125;-0.051971435546875;2.93999999257721;295;100 mA
25.9497219344833;-0.7989501953125;-0.052001953125;2.94999999255197;296;100 mA
25.959721934458;-0.799560546875;-0.05206298828125;2.95999999252672;297;100 mA
25.9697219344328;-0.79864501953125;-0.051910400390625;2.96999999250147;298;100 mA
25.9797219344075;-0.7989501953125;-0.051849365234375;2.97999999247622;299;100 mA
25.9897219343823;-0.7989501953125;-0.05181884765625;2.98999999245098;300;100 mA
25.999721934357;-0.7989501953125;-0.05194091796875;2.99999999242573;301;100 mA
26.0097219343318;-0.799560546875;-0.051727294921875;3.00999999240048;302;100 mA
26.0197219343065;-0.7989501953125;-0.0518798828125;3.01999999237523;303;100 mA
26.0297219342813;-0.799560546875;-0.051849365234375;3.02999999234999;304;100 mA
26.039721934256;-0.799560546875;-0.052001953125;3.03999999232474;305;100 mA
26.0497219342308;-0.79925537109375;-0.0518798828125;3.04999999229949;306;100 mA
26.0597219342055;-0.7989501953125;-0.051910400390625;3.05999999227424;307;100 mA
26.0697219341803;-0.799560546875;-0.051910400390625;3.069999992249;308;100 mA
26.079721934155;-0.799560546875;-0.0518798828125;3.07999999222375;309;100 mA
26.0897219341298;-0.799560546875;-0.051666259765625;3.0899999921985;310;100 mA
26.0997219341045;-0.799560546875;-0.0516357421875;3.09999999217325;311;100 mA
26.1097219340793;-0.7989501953125;-0.051513671875;3.109999992148;312;100 mA
26.119721934054;-0.79925537109375;-0.05157470703125;3.11999999212276;313;100 mA
26.1297219340288;-0.7989501953125;-0.05133056640625;3.12999999209751;314;100 mA
26.1397219340035;-0.79925537109375;-0.051361083984375;3.13999999207226;315;100 mA
26.1497219339783;-0.7989501953125;-0.051361083984375;3.14999999204701;316;100 mA
26.1597219339531;-0.79925537109375;-0.0513916015625;3.15999999202177;317;100 mA
26.1697219339278;-0.7989501953125;-0.05120849609375;3.16999999199652;318;100 mA
26.1797219339026;-0.79925537109375;-0.0511474609375;3.17999999197127;319;100 mA
26.1897219338773;-0.79925537109375;-0.05108642578125;3.18999999194602;320;100 mA
26.1997219338521;-0.79925537109375;-0.051055908203125;3.19999999192078;321;100 mA
26.2097219338268;-0.79986572265625;-0.050811767578125;3.20999999189553;322;100 mA
26.2197219338016;-0.7989501953125;-0.050872802734375;3.21999999187028;323;100 mA
26.2297219337763;-0.7989501953125;-0.05084228515625;3.22999999184503;324;100 mA
26.2397219337511;-0.79864501953125;-0.05096435546875;3.23999999181979;325;100 mA
26.2497219337258;-0.7989501953125;-0.05078125;3.24999999179454;326;100 mA
26.2597219337006;-0.7989501953125;-0.050750732421875;3.25999999176929;327;100 mA
26.2697219336753;-0.79925537109375;-0.050750732421875;3.26999999174404;328;100 mA
26.2797219336501;-0.7989501953125;-0.050811767578125;3.2799999917188;329;100 mA
26.2897219336248;-0.799560546875;-0.05072021484375;3.28999999169355;330;100 mA
26.2997219335996;-0.79864501953125;-0.05078125;3.2999999916683;331;100 mA
26.3097219335743;-0.79925537109375;-0.050872802734375;3.30999999164305;332;100 mA
26.3197219335491;-0.79925537109375;-0.051055908203125;3.31999999161781;333;100 mA
26.3297219335238;-0.7989501953125;-0.05084228515625;3.32999999159256;334;100 mA
26.3397219334986;-0.79925537109375;-0.050872802734375;3.33999999156731;335;100 mA
26.3497219334733;-0.79925537109375;-0.05072021484375;3.34999999154206;336;100 mA
26.3597219334481;-0.799560546875;-0.05078125;3.35999999151682;337;100 mA
26.3697219334229;-0.79925537109375;-0.05059814453125;3.36999999149157;338;100 mA
26.3797219333976;-0.79925537109375;-0.05059814453125;3.37999999146632;339;100 mA
26.3897219333724;-0.799560546875;-0.05059814453125;3.38999999144107;340;100 mA
26.3997219333471;-0.7989501953125;-0.050628662109375;3.39999999141583;341;100 mA
26.4097219333219;-0.79925537109375;-0.0504150390625;3.40999999139058;342;100 mA
26.4197219332966;-0.7989501953125;-0.05035400390625;3.41999999136533;343;100 mA
26.4297219332714;-0.799560546875;-0.050140380859375;3.42999999134008;344;100 mA
26.4397219332461;-0.79925537109375;-0.0501708984375;3.43999999131483;345;100 mA
26.4497219332209;-0.7989501953125;-0.049896240234375;3.44999999128959;346;100 mA
26.4597219331956;-0.7989501953125;-0.049835205078125;3.45999999126434;347;100 mA
26.4697219331704;-0.79925537109375;-0.049774169921875;3.46999999123909;348;100 mA
26.4797219331451;-0.799560546875;-0.04974365234375;3.47999999121384;349;100 mA
26.4897219331199;-0.799560546875;-0.049591064453125;3.4899999911886;350;100 mA
26.4997219330946;-0.79864501953125;-0.049468994140625;3.49999999116335;351;100 mA
26.5097219330694;-0.79925537109375;-0.0494384765625;3.5099999911381;352;100 mA
26.5197219330441;-0.7989501953125;-0.04947509765625;3.51999999111285;353;100 mA
26.5297219330189;-0.79864501953125;-0.049285888671875;3.52999999108761;354;100 mA
26.5397219329936;-0.7989501953125;-0.0494140625;3.53999999106236;355;100 mA
26.5497219329684;-0.79864501953125;-0.0494384765625;3.54999999103711;356;100 mA
26.5597219329431;-0.799560546875;-0.0496826171875;3.55999999101186;357;100 mA
26.5697219329179;-0.79925537109375;-0.04962158203125;3.56999999098662;358;100 mA
26.5797219328927;-0.79925537109375;-0.0496826171875;3.57999999096137;359;100 mA
26.5897219328674;-0.79986572265625;-0.04974365234375;3.58999999093612;360;100 mA
26.5997219328422;-0.7989501953125;-0.049835205078125;3.59999999091087;361;100 mA
26.6097219328169;-0.799560546875;-0.0498046875;3.60999999088563;362;100 mA
26.6197219327917;-0.79986572265625;-0.049835205078125;3.61999999086038;363;100 mA
26.6297219327664;-0.79925537109375;-0.049774169921875;3.62999999083513;364;100 mA
26.6397219327412;-0.7989501953125;-0.0499267578125;3.63999999080988;365;100 mA
26.6497219327159;-0.799560546875;-0.0496826171875;3.64999999078464;366;100 mA
26.6597219326907;-0.799560546875;-0.049713134765625;3.65999999075939;367;100 mA
26.6697219326654;-0.7989501953125;-0.049591064453125;3.66999999073414;368;100 mA
26.6797219326402;-0.79986572265625;-0.04962158203125;3.67999999070889;369;100 mA
26.6897219326149;-0.79864501953125;-0.049468994140625;3.68999999068365;370;100 mA
26.6997219325897;-0.79925537109375;-0.0494415283203125;3.6999999906584;371;100 mA
26.7097219325644;-0.79925537109375;-0.04949951171875;3.70999999063315;372;100 mA
26.7197219325392;-0.79925537109375;-0.0496246337890625;3.7199999906079;373;100 mA
26.7297219325139;-0.7989501953125;-0.049560546875;3.72999999058266;374;100 mA
26.7397219324887;-0.79925537109375;-0.04974365234375;3.73999999055741;375;100 mA
26.7497219324634;-0.79925537109375;-0.049774169921875;3.74999999053216;376;100 mA
26.7597219324382;-0.79925537109375;-0.04998779296875;3.75999999050691;377;100 mA
26.7697219324129;-0.799560546875;-0.049896240234375;3.76999999048167;378;100 mA
26.7797219323877;-0.79925537109375;-0.050048828125;3.77999999045642;379;100 mA
26.7897219323625;-0.799560546875;-0.0501708984375;3.78999999043117;380;100 mA
26.7997219323372;-0.799560546875;-0.05029296875;3.79999999040592;381;100 mA
26.809721932312;-0.799560546875;-0.050262451171875;3.80999999038067;382;100 mA
26.8197219322867;-0.79925537109375;-0.050323486328125;3.81999999035543;383;100 mA
26.8297219322615;-0.79925537109375;-0.050384521484375;3.82999999033018;384;100 mA
26.8397219322362;-0.79986572265625;-0.050567626953125;3.83999999030493;385;100 mA
26.849721932211;-0.7989501953125;-0.050384521484375;3.84999999027968;386;100 mA
26.8597219321857;-0.7989501953125;-0.050506591796875;3.85999999025444;387;100 mA
26.8697219321605;-0.79925537109375;-0.050537109375;3.86999999022919;388;100 mA
26.8797219321352;-0.799560546875;-0.0506591796875;3.87999999020394;389;100 mA
26.88972193211;-0.79925537109375;-0.050506591796875;3.88999999017869;390;100 mA
26.8997219320847;-0.79925537109375;-0.050506591796875;3.89999999015345;391;100 mA
26.9097219320595;-0.7989501953125;-0.050537109375;3.9099999901282;392;100 mA
26.9197219320342;-0.79864501953125;-0.050567626953125;3.91999999010295;393;100 mA
26.929721932009;-0.79925537109375;-0.05047607421875;3.9299999900777;394;100 mA
26.9397219319837;-0.79925537109375;-0.050567626953125;3.93999999005246;395;100 mA
26.9497219319585;-0.799560546875;-0.05059814453125;3.94999999002721;396;100 mA
26.9597219319332;-0.7989501953125;-0.050872802734375;3.95999999000196;397;100 mA
26.969721931908;-0.79925537109375;-0.050750732421875;3.96999998997671;398;100 mA
26.9797219318828;-0.79925537109375;-0.0509033203125;3.97999998995147;399;100 mA
26.9897219318575;-0.79925537109375;-0.051025390625;3.98999998992622;400;100 mA
26.9997219318323;-0.7989501953125;-0.051177978515625;3.99999998990097;401;100 mA
27.009721931807;-0.799560546875;-0.051239013671875;4.00999998987572;402;100 mA
27.0197219317818;-0.79986572265625;-0.05133056640625;4.01999998985048;403;100 mA
27.0297219317565;-0.79925537109375;-0.051422119140625;4.02999998982523;404;100 mA
27.0397219317313;-0.79925537109375;-0.051605224609375;4.03999998979998;405;100 mA
27.049721931706;-0.79925537109375;-0.05145263671875;4.04999998977473;406;100 mA
27.0597219316808;-0.79925537109375;-0.05157470703125;4.05999998974949;407;100 mA
27.0697219316555;-0.7989501953125;-0.051544189453125;4.06999998972424;408;100 mA
27.0797219316303;-0.79925537109375;-0.051666259765625;4.07999998969899;409;100 mA
27.089721931605;-0.7989501953125;-0.051544189453125;4.08999998967374;410;100 mA
27.0997219315798;-0.79864501953125;-0.051605224609375;4.0999999896485;411;100 mA
27.1097219315545;-0.79925537109375;-0.051666259765625;4.10999998962325;412;100 mA
27.1197219315293;-0.799560546875;-0.05169677734375;4.119999989598;413;100 mA
27.129721931504;-0.7989501953125;-0.051513671875;4.12999998957275;414;100 mA
27.1397219314788;-0.7989501953125;-0.05145263671875;4.1399999895475;415;100 mA
27.1497219314535;-0.7989501953125;-0.051361083984375;4.14999998952226;416;100 mA
27.1597219314283;-0.79925537109375;-0.05145263671875;4.15999998949701;417;100 mA
27.169721931403;-0.7989501953125;-0.0511474609375;4.16999998947176;418;100 mA
27.1797219313778;-0.79925537109375;-0.051239013671875;4.17999998944651;419;100 mA
27.1897219313526;-0.79925537109375;-0.051239013671875;4.18999998942127;420;100 mA
27.1997219313273;-0.799560546875;-0.05126953125;4.19999998939602;421;100 mA
27.2097219313021;-0.799560546875;-0.0511474609375;4.20999998937077;422;100 mA
27.2197219312768;-0.79864501953125;-0.051116943359375;4.21999998934552;423;100 mA
27.2297219312516;-0.79925537109375;-0.051116943359375;4.22999998932028;424;100 mA
27.2397219312263;-0.799560546875;-0.05120849609375;4.23999998929503;425;100 mA
27.2497219312011;-0.79925537109375;-0.051025390625;4.24999998926978;426;100 mA
27.2597219311758;-0.799560546875;-0.051116943359375;4.25999998924453;427;100 mA
27.2697219311506;-0.7989501953125;-0.05108642578125;4.26999998921929;428;100 mA
27.2797219311253;-0.799560546875;-0.05126953125;4.27999998919404;429;100 mA
27.2897219311001;-0.7989501953125;-0.05108642578125;4.28999998916879;430;100 mA
27.2997219310748;-0.79864501953125;-0.0511474609375;4.29999998914354;431;100 mA
27.3097219310496;-0.7989501953125;-0.051177978515625;4.3099999891183;432;100 mA
27.3197219310243;-0.79925537109375;-0.051177978515625;4.31999998909305;433;100 mA
27.3297219309991;-0.79925537109375;-0.05108642578125;4.3299999890678;434;100 mA
27.3397219309738;-0.79925537109375;-0.05108642578125;4.33999998904255;435;100 mA
27.3497219309486;-0.7989501953125;-0.05108642578125;4.34999998901731;436;100 mA
27.3597219309233;-0.799560546875;-0.05126953125;4.35999998899206;437;100 mA
27.3697219308981;-0.79925537109375;-0.051055908203125;4.36999998896681;438;100 mA
27.3797219308728;-0.79925537109375;-0.051177978515625;4.37999998894156;439;100 mA
27.3897219308476;-0.7989501953125;-0.05120849609375;4.38999998891632;440;100 mA
27.3997219308224;-0.8001708984375;-0.05126953125;4.39999998889107;441;100 mA
27.4097219307971;-0.799560546875;-0.051177978515625;4.40999998886582;442;100 mA
27.4197219307719;-0.799560546875;-0.05120849609375;4.41999998884057;443;100 mA
27.4297219307466;-0.7989501953125;-0.05126953125;4.42999998881533;444;100 mA
27.4397219307214;-0.799560546875;-0.051300048828125;4.43999998879008;445;100 mA
27.4497219306961;-0.7989501953125;-0.051116943359375;4.44999998876483;446;100 mA
27.4597219306709;-0.79925537109375;-0.0511474609375;4.45999998873958;447;100 mA
27.4697219306456;-0.7989501953125;-0.051025390625;4.46999998871433;448;100 mA
27.4797219306204;-0.799560546875;-0.051177978515625;4.47999998868909;449;100 mA
27.4897219305951;-0.79925537109375;-0.050933837890625;4.48999998866384;450;100 mA
27.4997219305699;-0.7989501953125;-0.05096435546875;4.49999998863859;451;100 mA
27.5097219305446;-0.799560546875;-0.050994873046875;4.50999998861334;452;100 mA
27.5197219305194;-0.79925537109375;-0.050994873046875;4.5199999885881;453;100 mA
27.5297219304941;-0.7989501953125;-0.050872802734375;4.52999998856285;454;100 mA
27.5397219304689;-0.7989501953125;-0.05084228515625;4.5399999885376;455;100 mA
27.5497219304436;-0.7989501953125;-0.050750732421875;4.54999998851235;456;100 mA
27.5597219304184;-0.799560546875;-0.050811767578125;4.55999998848711;457;100 mA
27.5697219303931;-0.79925537109375;-0.050537109375;4.56999998846186;458;100 mA
27.5797219303679;-0.79925537109375;-0.05059814453125;4.57999998843661;459;100 mA
27.5897219303426;-0.7989501953125;-0.050537109375;4.58999998841136;460;100 mA
27.5997219303174;-0.79925537109375;-0.050689697265625;4.59999998838612;461;100 mA
27.6097219302922;-0.7989501953125;-0.050537109375;4.60999998836087;462;100 mA
27.6197219302669;-0.7989501953125;-0.050506591796875;4.61999998833562;463;100 mA
27.6297219302417;-0.7989501953125;-0.050537109375;4.62999998831037;464;100 mA
27.6397219302164;-0.7989501953125;-0.050537109375;4.63999998828513;465;100 mA
27.6497219301912;-0.79925537109375;-0.050445556640625;4.64999998825988;466;100 mA
27.6597219301659;-0.7989501953125;-0.050567626953125;4.65999998823463;467;100 mA
27.6697219301407;-0.79925537109375;-0.050567626953125;4.66999998820938;468;100 mA
27.6797219301154;-0.7989501953125;-0.05084228515625;4.67999998818414;469;100 mA
27.6897219300902;-0.79925537109375;-0.050628662109375;4.68999998815889;470;100 mA
27.6997219300649;-0.7989501953125;-0.050689697265625;4.69999998813364;471;100 mA
27.7097219300397;-0.7989501953125;-0.0506591796875;4.70999998810839;472;100 mA
27.7197219300144;-0.799560546875;-0.050689697265625;4.71999998808315;473;100 mA
27.7297219299892;-0.799560546875;-0.050628662109375;4.7299999880579;474;100 mA
27.7397219299639;-0.7989501953125;-0.050628662109375;4.73999998803265;475;100 mA
27.7497219299387;-0.79925537109375;-0.050689697265625;4.7499999880074;476;100 mA
27.7597219299134;-0.7989501953125;-0.05078125;4.75999998798216;477;100 mA
27.7697219298882;-0.7989501953125;-0.050628662109375;4.76999998795691;478;100 mA
27.7797219298629;-0.799560546875;-0.05078125;4.77999998793166;479;100 mA
27.7897219298377;-0.7989501953125;-0.050689697265625;4.78999998790641;480;100 mA
27.7997219298124;-0.79986572265625;-0.050872802734375;4.79999998788116;481;100 mA
27.8097219297872;-0.7989501953125;-0.05072021484375;4.80999998785592;482;100 mA
27.819721929762;-0.7989501953125;-0.05078125;4.81999998783067;483;100 mA
27.8297219297367;-0.79864501953125;-0.050872802734375;4.82999998780542;484;100 mA
27.8397219297115;-0.79925537109375;-0.050933837890625;4.83999998778017;485;100 mA
27.8497219296862;-0.799560546875;-0.0509033203125;4.84999998775493;486;100 mA
27.859721929661;-0.79925537109375;-0.050994873046875;4.85999998772968;487;100 mA
27.8697219296357;-0.799560546875;-0.051025390625;4.86999998770443;488;100 mA
27.8797219296105;-0.799560546875;-0.05126953125;4.87999998767918;489;100 mA
27.8897219295852;-0.799560546875;-0.051116943359375;4.88999998765394;490;100 mA
27.89972192956;-0.799560546875;-0.05133056640625;4.89999998762869;491;100 mA
27.9097219295347;-0.799560546875;-0.051361083984375;4.90999998760344;492;100 mA
27.9197219295095;-0.79925537109375;-0.05145263671875;4.91999998757819;493;100 mA
27.9297219294842;-0.79986572265625;-0.051422119140625;4.92999998755295;494;100 mA
27.939721929459;-0.79925537109375;-0.051422119140625;4.9399999875277;495;100 mA
27.9497219294337;-0.7989501953125;-0.051513671875;4.94999998750245;496;100 mA
27.9597219294085;-0.799560546875;-0.0516357421875;4.9599999874772;497;100 mA
27.9697219293832;-0.79925537109375;-0.051483154296875;4.96999998745196;498;100 mA
27.979721929358;-0.79925537109375;-0.051605224609375;4.97999998742671;499;100 mA
27.9897219293327;-0.79925537109375;-0.051513671875;4.98999998740146;500;100 mA
27.9997219293075;-0.7989501953125;-0.051605224609375;4.99999998737621;501;100 mA
28.0097219292823;-0.79925537109375;-0.051422119140625;5.00999998735097;502;100 mA
28.019721929257;-0.7989501953125;-0.05145263671875;5.01999998732572;503;100 mA
28.0297219292318;-0.79925537109375;-0.051483154296875;5.02999998730047;504;100 mA
28.0397219292065;-0.7989501953125;-0.051605224609375;5.03999998727522;505;100 mA
28.0497219291813;-0.7989501953125;-0.051544189453125;5.04999998724998;506;100 mA
28.059721929156;-0.79925537109375;-0.051666259765625;5.05999998722473;507;100 mA
28.0697219291308;-0.799560546875;-0.0517578125;5.06999998719948;508;100 mA
28.0797219291055;-0.79925537109375;-0.05194091796875;5.07999998717423;509;100 mA
28.0897219290803;-0.7989501953125;-0.051788330078125;5.08999998714899;510;100 mA
28.099721929055;-0.79833984375;-0.052001953125;5.09999998712374;511;100 mA
28.1097219290298;-0.79925537109375;-0.052001953125;5.10999998709849;512;100 mA
28.1197219290045;-0.79925537109375;-0.052093505859375;5.11999998707324;513;100 mA
28.1297219289793;-0.79925537109375;-0.05206298828125;5.129999987048;514;100 mA
28.139721928954;-0.7989501953125;-0.052093505859375;5.13999998702275;515;100 mA
28.1497219289288;-0.79925537109375;-0.05218505859375;5.1499999869975;516;100 mA
28.1597219289035;-0.799560546875;-0.05224609375;5.15999998697225;517;100 mA
28.1697219288783;-0.79864501953125;-0.05206298828125;5.169999986947;518;100 mA
28.179721928853;-0.79864501953125;-0.05218505859375;5.17999998692176;519;100 mA
28.1897219288278;-0.79925537109375;-0.052154541015625;5.18999998689651;520;100 mA
28.1997219288025;-0.799560546875;-0.0523681640625;5.19999998687126;521;100 mA
28.2097219287773;-0.7989501953125;-0.05218505859375;5.20999998684601;522;100 mA
28.2197219287521;-0.79864501953125;-0.05230712890625;5.21999998682077;523;100 mA
28.2297219287268;-0.79925537109375;-0.052337646484375;5.22999998679552;524;100 mA
28.2397219287016;-0.79925537109375;-0.05230712890625;5.23999998677027;525;100 mA
28.2497219286763;-0.79925537109375;-0.052154541015625;5.24999998674502;526;100 mA
28.2597219286511;-0.79925537109375;-0.052093505859375;5.25999998671978;527;100 mA
28.2697219286258;-0.79986572265625;-0.052032470703125;5.26999998669453;528;100 mA
28.2797219286006;-0.79986572265625;-0.052093505859375;5.27999998666928;529;100 mA
28.2897219285753;-0.79925537109375;-0.0517578125;5.28999998664403;530;100 mA
28.2997219285501;-0.799560546875;-0.051849365234375;5.29999998661879;531;100 mA
28.3097219285248;-0.79925537109375;-0.05169677734375;5.30999998659354;532;100 mA
28.3197219284996;-0.799560546875;-0.051727294921875;5.31999998656829;533;100 mA
28.3297219284743;-0.7989501953125;-0.051513671875;5.32999998654304;534;100 mA
28.3397219284491;-0.79864501953125;-0.051422119140625;5.3399999865178;535;100 mA
28.3497219284238;-0.7989501953125;-0.051361083984375;5.34999998649255;536;100 mA
28.3597219283986;-0.799560546875;-0.051300048828125;5.3599999864673;537;100 mA
28.3697219283733;-0.7989501953125;-0.05108642578125;5.36999998644205;538;100 mA
28.3797219283481;-0.799560546875;-0.051025390625;5.37999998641681;539;100 mA
28.3897219283228;-0.79925537109375;-0.050933837890625;5.38999998639156;540;100 mA
28.3997219282976;-0.79864501953125;-0.05108642578125;5.39999998636631;541;100 mA
28.4097219282723;-0.7989501953125;-0.05084228515625;5.40999998634106;542;100 mA
28.4197219282471;-0.79925537109375;-0.051055908203125;5.41999998631582;543;100 mA
28.4297219282219;-0.79925537109375;-0.0511474609375;5.42999998629057;544;100 mA
28.4397219281966;-0.7989501953125;-0.051300048828125;5.43999998626532;545;100 mA
28.4497219281714;-0.799560546875;-0.05126953125;5.44999998624007;546;100 mA
28.4597219281461;-0.79925537109375;-0.051239013671875;5.45999998621483;547;100 mA
28.4697219281209;-0.79925537109375;-0.051300048828125;5.46999998618958;548;100 mA
28.4797219280956;-0.79986572265625;-0.051422119140625;5.47999998616433;549;100 mA
28.4897219280704;-0.79986572265625;-0.05120849609375;5.48999998613908;550;100 mA
28.4997219280451;-0.79925537109375;-0.051361083984375;5.49999998611383;551;100 mA
28.5097219280199;-0.7989501953125;-0.051361083984375;5.50999998608859;552;100 mA
28.5197219279946;-0.79925537109375;-0.051544189453125;5.51999998606334;553;100 mA
28.5297219279694;-0.79864501953125;-0.05145263671875;5.52999998603809;554;100 mA
28.5397219279441;-0.79925537109375;-0.05145263671875;5.53999998601284;555;100 mA
28.5497219279189;-0.7989501953125;-0.051483154296875;5.5499999859876;556;100 mA
28.5597219278936;-0.79925537109375;-0.051513671875;5.55999998596235;557;100 mA
28.5697219278684;-0.79925537109375;-0.051422119140625;5.5699999859371;558;100 mA
28.5797219278431;-0.79864501953125;-0.05145263671875;5.57999998591185;559;100 mA
28.5897219278179;-0.7989501953125;-0.05145263671875;5.58999998588661;560;100 mA
28.5997219277926;-0.79925537109375;-0.051666259765625;5.59999998586136;561;100 mA
28.6097219277674;-0.79925537109375;-0.051422119140625;5.60999998583611;562;100 mA
28.6197219277421;-0.79925537109375;-0.051544189453125;5.61999998581086;563;100 mA
28.6297219277169;-0.799560546875;-0.051483154296875;5.62999998578562;564;100 mA
28.6397219276917;-0.7989501953125;-0.051513671875;5.63999998576037;565;100 mA
28.6497219276664;-0.79925537109375;-0.0513916015625;5.64999998573512;566;100 mA
28.6597219276412;-0.79925537109375;-0.051300048828125;5.65999998570987;567;100 mA
28.6697219276159;-0.79864501953125;-0.05133056640625;5.66999998568463;568;100 mA
28.6797219275907;-0.799560546875;-0.051422119140625;5.67999998565938;569;100 mA
28.6897219275654;-0.799560546875;-0.05126953125;5.68999998563413;570;100 mA
28.6997219275402;-0.79925537109375;-0.0513916015625;5.69999998560888;571;100 mA
28.7097219275149;-0.7989501953125;-0.051361083984375;5.70999998558364;572;100 mA
28.7197219274897;-0.79925537109375;-0.05157470703125;5.71999998555839;573;100 mA
28.7297219274644;-0.7989501953125;-0.051422119140625;5.72999998553314;574;100 mA
28.7397219274392;-0.799560546875;-0.051513671875;5.73999998550789;575;100 mA
28.7497219274139;-0.7989501953125;-0.0516357421875;5.74999998548265;576;100 mA
28.7597219273887;-0.79925537109375;-0.051727294921875;5.7599999854574;577;100 mA
28.7697219273634;-0.79925537109375;-0.05169677734375;5.76999998543215;578;100 mA
28.7797219273382;-0.799560546875;-0.0517578125;5.7799999854069;579;100 mA
28.7897219273129;-0.79925537109375;-0.051727294921875;5.78999998538166;580;100 mA
28.7997219272877;-0.79925537109375;-0.051849365234375;5.79999998535641;581;100 mA
28.8097219272624;-0.79925537109375;-0.051544189453125;5.80999998533116;582;100 mA
28.8197219272372;-0.7989501953125;-0.0516357421875;5.81999998530591;583;100 mA
28.8297219272119;-0.79925537109375;-0.051666259765625;5.82999998528066;584;100 mA
28.8397219271867;-0.7989501953125;-0.051849365234375;5.83999998525542;585;100 mA
28.8497219271615;-0.79925537109375;-0.051849365234375;5.84999998523017;586;100 mA
28.8597219271362;-0.7989501953125;-0.05194091796875;5.85999998520492;587;100 mA
28.869721927111;-0.7989501953125;-0.052093505859375;5.86999998517967;588;100 mA
28.8797219270857;-0.7989501953125;-0.052215576171875;5.87999998515443;589;100 mA
28.8897219270605;-0.7989501953125;-0.0521240234375;5.88999998512918;590;100 mA
28.8997219270352;-0.7989501953125;-0.052215576171875;5.89999998510393;591;100 mA
28.90972192701;-0.7989501953125;-0.05224609375;5.90999998507868;592;100 mA
28.9197219269847;-0.79925537109375;-0.052520751953125;5.91999998505344;593;100 mA
28.9297219269595;-0.799560546875;-0.052398681640625;5.92999998502819;594;100 mA
28.9397219269342;-0.7989501953125;-0.052642822265625;5.93999998500294;595;100 mA
28.949721926909;-0.799560546875;-0.05279541015625;5.94999998497769;596;100 mA
28.9597219268837;-0.79864501953125;-0.05291748046875;5.95999998495245;597;100 mA
28.9697219268585;-0.79986572265625;-0.05291748046875;5.9699999849272;598;100 mA
28.9797219268332;-0.79864501953125;-0.052947998046875;5.97999998490195;599;100 mA
28.989721926808;-0.79925537109375;-0.052947998046875;5.9899999848767;600;100 mA
28.9997219267827;-0.799560546875;-0.053070068359375;5.99999998485146;601;100 mA
29.0097219267575;-0.7989501953125;-0.052825927734375;6.00999998482621;602;100 mA
29.0197219267322;-0.79925537109375;-0.05291748046875;6.01999998480096;603;100 mA
29.029721926707;-0.7989501953125;-0.052886962890625;6.02999998477571;604;100 mA
29.0397219266818;-0.79925537109375;-0.05303955078125;6.03999998475047;605;100 mA
29.0497219266565;-0.7989501953125;-0.052947998046875;6.04999998472522;606;100 mA
29.0597219266313;-0.7989501953125;-0.05303955078125;6.05999998469997;607;100 mA
29.069721926606;-0.79925537109375;-0.053131103515625;6.06999998467472;608;100 mA
29.0797219265808;-0.79925537109375;-0.05322265625;6.07999998464948;609;100 mA
29.0897219265555;-0.7989501953125;-0.05316162109375;6.08999998462423;610;100 mA
29.0997219265303;-0.79925537109375;-0.05322265625;6.09999998459898;611;100 mA
29.109721926505;-0.799560546875;-0.053253173828125;6.10999998457373;612;100 mA
29.1197219264798;-0.79925537109375;-0.053466796875;6.11999998454849;613;100 mA
29.1297219264545;-0.7989501953125;-0.05322265625;6.12999998452324;614;100 mA
29.1397219264293;-0.7989501953125;-0.0533447265625;6.13999998449799;615;100 mA
29.149721926404;-0.799560546875;-0.053375244140625;6.14999998447274;616;100 mA
29.1597219263788;-0.799560546875;-0.053436279296875;6.1599999844475;617;100 mA
29.1697219263535;-0.799560546875;-0.0533447265625;6.16999998442225;618;100 mA
29.1797219263283;-0.7989501953125;-0.0533447265625;6.179999984397;619;100 mA
29.189721926303;-0.79925537109375;-0.0533447265625;6.18999998437175;620;100 mA
29.1997219262778;-0.7989501953125;-0.053466796875;6.1999999843465;621;100 mA
29.2097219262525;-0.79925537109375;-0.05328369140625;6.20999998432126;622;100 mA
29.2197219262273;-0.79864501953125;-0.053314208984375;6.21999998429601;623;100 mA
29.229721926202;-0.79864501953125;-0.05322265625;6.22999998427076;624;100 mA
29.2397219261768;-0.799560546875;-0.053314208984375;6.23999998424551;625;100 mA
29.2497219261516;-0.7989501953125;-0.053131103515625;6.24999998422027;626;100 mA
29.2597219261263;-0.7989501953125;-0.053131103515625;6.25999998419502;627;100 mA
29.2697219261011;-0.799560546875;-0.053131103515625;6.26999998416977;628;100 mA
29.2797219260758;-0.79925537109375;-0.0531005859375;6.27999998414452;629;100 mA
29.2897219260506;-0.79864501953125;-0.052947998046875;6.28999998411928;630;100 mA
29.2997219260253;-0.79925537109375;-0.052947998046875;6.29999998409403;631;100 mA
29.3097219260001;-0.7989501953125;-0.052886962890625;6.30999998406878;632;100 mA
29.3197219259748;-0.79925537109375;-0.052947998046875;6.31999998404353;633;100 mA
29.3297219259496;-0.79925537109375;-0.05267333984375;6.32999998401829;634;100 mA
29.3397219259243;-0.7989501953125;-0.052734375;6.33999998399304;635;100 mA
29.3497219258991;-0.799560546875;-0.052703857421875;6.34999998396779;636;100 mA
29.3597219258738;-0.7989501953125;-0.052764892578125;6.35999998394254;637;100 mA
29.3697219258486;-0.79925537109375;-0.052642822265625;6.3699999839173;638;100 mA
29.3797219258233;-0.79925537109375;-0.05267333984375;6.37999998389205;639;100 mA
29.3897219257981;-0.79925537109375;-0.052703857421875;6.3899999838668;640;100 mA
29.3997219257728;-0.79925537109375;-0.052734375;6.39999998384155;641;100 mA
29.4097219257476;-0.79925537109375;-0.052581787109375;6.40999998381631;642;100 mA
29.4197219257223;-0.79925537109375;-0.05267333984375;6.41999998379106;643;100 mA
29.4297219256971;-0.79986572265625;-0.052581787109375;6.42999998376581;644;100 mA
29.4397219256718;-0.79925537109375;-0.052734375;6.43999998374056;645;100 mA
29.4497219256466;-0.7989501953125;-0.052490234375;6.44999998371532;646;100 mA
29.4597219256214;-0.79925537109375;-0.05255126953125;6.45999998369007;647;100 mA
29.4697219255961;-0.79864501953125;-0.052581787109375;6.46999998366482;648;100 mA
29.4797219255709;-0.79925537109375;-0.05267333984375;6.47999998363957;649;100 mA
29.4897219255456;-0.79925537109375;-0.05255126953125;6.48999998361433;650;100 mA
29.4997219255204;-0.79925537109375;-0.05255126953125;6.49999998358908;651;100 mA
29.5097219254951;-0.7989501953125;-0.05255126953125;6.50999998356383;652;100 mA
29.5197219254699;-0.79925537109375;-0.052642822265625;6.51999998353858;653;100 mA
29.5297219254446;-0.79925537109375;-0.05242919921875;6.52999998351333;654;100 mA
29.5397219254194;-0.79925537109375;-0.052520751953125;6.53999998348809;655;100 mA
29.5497219253941;-0.799560546875;-0.052490234375;6.54999998346284;656;100 mA
29.5597219253689;-0.7989501953125;-0.0526123046875;6.55999998343759;657;100 mA
29.5697219253436;-0.7989501953125;-0.052520751953125;6.56999998341234;658;100 mA
29.5797219253184;-0.7989501953125;-0.05255126953125;6.5799999833871;659;100 mA
29.5897219252931;-0.7989501953125;-0.0526123046875;6.58999998336185;660;100 mA
29.5997219252679;-0.79925537109375;-0.0526123046875;6.5999999833366;661;100 mA
29.6097219252426;-0.79925537109375;-0.05242919921875;6.60999998331135;662;100 mA
29.6197219252174;-0.7989501953125;-0.05242919921875;6.61999998328611;663;100 mA
29.6297219251921;-0.79925537109375;-0.05230712890625;6.62999998326086;664;100 mA
29.6397219251669;-0.79925537109375;-0.052459716796875;6.63999998323561;665;100 mA
29.6497219251416;-0.79925537109375;-0.052154541015625;6.64999998321036;666;100 mA
29.6597219251164;-0.799560546875;-0.05218505859375;6.65999998318512;667;100 mA
29.6697219250912;-0.7989501953125;-0.0521240234375;6.66999998315987;668;100 mA
29.6797219250659;-0.79986572265625;-0.05206298828125;6.67999998313462;669;100 mA
29.6897219250407;-0.79925537109375;-0.0518798828125;6.68999998310937;670;100 mA
29.6997219250154;-0.79925537109375;-0.05181884765625;6.69999998308413;671;100 mA
29.7097219249902;-0.79925537109375;-0.0518798828125;6.70999998305888;672;100 mA
29.7197219249649;-0.7989501953125;-0.05194091796875;6.71999998303363;673;100 mA
29.7297219249397;-0.79925537109375;-0.051727294921875;6.72999998300838;674;100 mA
29.7397219249144;-0.79925537109375;-0.051788330078125;6.73999998298314;675;100 mA
29.7497219248892;-0.79864501953125;-0.0517578125;6.74999998295789;676;100 mA
29.7597219248639;-0.79925537109375;-0.051910400390625;6.75999998293264;677;100 mA
29.7697219248387;-0.79925537109375;-0.051727294921875;6.76999998290739;678;100 mA
29.7797219248134;-0.7989501953125;-0.0517578125;6.77999998288215;679;100 mA
29.7897219247882;-0.799560546875;-0.051788330078125;6.7899999828569;680;100 mA
29.7997219247629;-0.79925537109375;-0.051849365234375;6.79999998283165;681;100 mA
29.8097219247377;-0.79864501953125;-0.0517578125;6.8099999828064;682;100 mA
29.8197219247124;-0.7989501953125;-0.0518798828125;6.81999998278116;683;100 mA
29.8297219246872;-0.7989501953125;-0.05194091796875;6.82999998275591;684;100 mA
29.8397219246619;-0.7989501953125;-0.052215576171875;6.83999998273066;685;100 mA
29.8497219246367;-0.8001708984375;-0.05206298828125;6.84999998270541;686;100 mA
29.8597219246114;-0.79925537109375;-0.05218505859375;6.85999998268016;687;100 mA
29.8697219245862;-0.79925537109375;-0.05218505859375;6.86999998265492;688;100 mA
29.879721924561;-0.799560546875;-0.052276611328125;6.87999998262967;689;100 mA
29.8897219245357;-0.79986572265625;-0.05218505859375;6.88999998260442;690;100 mA
29.8997219245105;-0.7989501953125;-0.052154541015625;6.89999998257917;691;100 mA
29.9097219244852;-0.7989501953125;-0.052215576171875;6.90999998255393;692;100 mA
29.91972192446;-0.79986572265625;-0.05224609375;6.91999998252868;693;100 mA
29.9297219244347;-0.79925537109375;-0.052032470703125;6.92999998250343;694;100 mA
29.9397219244095;-0.79925537109375;-0.052001953125;6.93999998247818;695;100 mA
29.9497219243842;-0.79864501953125;-0.051788330078125;6.94999998245294;696;100 mA
29.959721924359;-0.79925537109375;-0.05181884765625;6.95999998242769;697;100 mA
29.9697219243337;-0.7989501953125;-0.051483154296875;6.96999998240244;698;100 mA
29.9797219243085;-0.7989501953125;-0.051361083984375;6.97999998237719;699;100 mA
29.9897219242832;-0.799560546875;-0.05120849609375;6.98999998235195;700;100 mA
