Time (s);WE(1).Potential (V);WE(1).Current (A);Corrected time (s);Index;Current range
45.6149188848334;-0.9002685546875;-0.336151123046875;0;1;100 mA
45.6249188848082;-0.8990478515625;-0.244720458984375;0.00999999997475243;2;100 mA
45.6349188847829;-0.89935302734375;-0.201416015625;0.0199999999495049;3;100 mA
45.6449188847577;-0.89996337890625;-0.17510986328125;0.0299999999242573;4;100 mA
45.6549188847324;-0.89935302734375;-0.156890869140625;0.0399999998990097;5;100 mA
45.6649188847072;-0.89935302734375;-0.143524169921875;0.0499999998737621;6;100 mA
45.6749188846819;-0.89935302734375;-0.1329345703125;0.0599999998485146;7;100 mA
45.6849188846567;-0.89996337890625;-0.124481201171875;0.069999999823267;8;100 mA
45.6949188846314;-0.8990478515625;-0.1175537109375;0.0799999997980194;9;100 mA
45.7049188846062;-0.8990478515625;-0.111663818359375;0.0899999997727718;10;100 mA
45.7149188845809;-0.899658203125;-0.106597900390625;0.0999999997475243;11;100 mA
45.7249188845557;-0.8990478515625;-0.102264404296875;0.109999999722277;12;100 mA
45.7349188845304;-0.8990478515625;-0.09857177734375;0.119999999697029;13;100 mA
45.7449188845052;-0.89874267578125;-0.095184326171875;0.129999999671782;14;100 mA
45.7549188844799;-0.899658203125;-0.092193603515625;0.139999999646534;15;100 mA
45.7649188844547;-0.89874267578125;-0.089630126953125;0.149999999621286;16;100 mA
45.7749188844294;-0.89935302734375;-0.087188720703125;0.159999999596039;17;100 mA
45.7849188844042;-0.89935302734375;-0.085052490234375;0.169999999570791;18;100 mA
45.7949188843789;-0.8990478515625;-0.083099365234375;0.179999999545544;19;100 mA
45.8049188843537;-0.899658203125;-0.08135986328125;0.189999999520296;20;100 mA
45.8149188843284;-0.899658203125;-0.07977294921875;0.199999999495049;21;100 mA
45.8249188843032;-0.89935302734375;-0.078216552734375;0.209999999469801;22;100 mA
45.834918884278;-0.8990478515625;-0.076812744140625;0.219999999444553;23;100 mA
45.8449188842527;-0.8990478515625;-0.075592041015625;0.229999999419306;24;100 mA
45.8549188842275;-0.89935302734375;-0.074371337890625;0.239999999394058;25;100 mA
45.8649188842022;-0.89935302734375;-0.0732421875;0.249999999368811;26;100 mA
45.874918884177;-0.8990478515625;-0.072174072265625;0.259999999343563;27;100 mA
45.8849188841517;-0.8990478515625;-0.071319580078125;0.269999999318316;28;100 mA
45.8949188841265;-0.89935302734375;-0.070404052734375;0.279999999293068;29;100 mA
45.9049188841012;-0.89935302734375;-0.069580078125;0.28999999926782;30;100 mA
45.914918884076;-0.899658203125;-0.068817138671875;0.299999999242573;31;100 mA
45.9249188840507;-0.89935302734375;-0.068115234375;0.309999999217325;32;100 mA
45.9349188840255;-0.89935302734375;-0.067474365234375;0.319999999192078;33;100 mA
45.9449188840002;-0.8990478515625;-0.066680908203125;0.32999999916683;34;100 mA
45.954918883975;-0.899658203125;-0.066009521484375;0.339999999141583;35;100 mA
45.9649188839497;-0.89935302734375;-0.065521240234375;0.349999999116335;36;100 mA
45.9749188839245;-0.899658203125;-0.06494140625;0.359999999091087;37;100 mA
45.9849188838992;-0.89935302734375;-0.064453125;0.36999999906584;38;100 mA
45.994918883874;-0.89935302734375;-0.063934326171875;0.379999999040592;39;100 mA
46.0049188838487;-0.899658203125;-0.06353759765625;0.389999999015345;40;100 mA
46.0149188838235;-0.89935302734375;-0.06317138671875;0.399999998990097;41;100 mA
46.0249188837983;-0.899658203125;-0.062652587890625;0.40999999896485;42;100 mA
46.034918883773;-0.89935302734375;-0.062225341796875;0.419999998939602;43;100 mA
46.0449188837478;-0.89874267578125;-0.061920166015625;0.429999998914354;44;100 mA
46.0549188837225;-0.89935302734375;-0.061614990234375;0.439999998889107;45;100 mA
46.0649188836973;-0.8990478515625;-0.061279296875;0.449999998863859;46;100 mA
46.074918883672;-0.899658203125;-0.0609130859375;0.459999998838612;47;100 mA
46.0849188836468;-0.899658203125;-0.060699462890625;0.469999998813364;48;100 mA
46.0949188836215;-0.89935302734375;-0.06036376953125;0.479999998788116;49;100 mA
46.1049188835963;-0.89935302734375;-0.05999755859375;0.489999998762869;50;100 mA
46.114918883571;-0.899658203125;-0.0596923828125;0.499999998737621;51;100 mA
46.1249188835458;-0.89935302734375;-0.0594482421875;0.509999998712374;52;100 mA
46.1349188835205;-0.899658203125;-0.05926513671875;0.519999998687126;53;100 mA
46.1449188834953;-0.8990478515625;-0.0589599609375;0.529999998661879;54;100 mA
46.15491888347;-0.899658203125;-0.0587158203125;0.539999998636631;55;100 mA
46.1649188834448;-0.89935302734375;-0.058624267578125;0.549999998611383;56;100 mA
46.1749188834195;-0.8990478515625;-0.058441162109375;0.559999998586136;57;100 mA
46.1849188833943;-0.89935302734375;-0.05828857421875;0.569999998560888;58;100 mA
46.194918883369;-0.89935302734375;-0.058074951171875;0.579999998535641;59;100 mA
46.2049188833438;-0.89996337890625;-0.058013916015625;0.589999998510393;60;100 mA
46.2149188833185;-0.89935302734375;-0.057861328125;0.599999998485146;61;100 mA
46.2249188832933;-0.89874267578125;-0.057647705078125;0.609999998459898;62;100 mA
46.2349188832681;-0.89935302734375;-0.057403564453125;0.61999999843465;63;100 mA
46.2449188832428;-0.89935302734375;-0.057220458984375;0.629999998409403;64;100 mA
46.2549188832176;-0.89935302734375;-0.05712890625;0.639999998384155;65;100 mA
46.2649188831923;-0.899658203125;-0.056884765625;0.649999998358908;66;100 mA
46.2749188831671;-0.89874267578125;-0.056640625;0.65999999833366;67;100 mA
46.2849188831418;-0.8990478515625;-0.05657958984375;0.669999998308413;68;100 mA
46.2949188831166;-0.89935302734375;-0.056365966796875;0.679999998283165;69;100 mA
46.3049188830913;-0.89935302734375;-0.056182861328125;0.689999998257917;70;100 mA
46.3149188830661;-0.89935302734375;-0.055938720703125;0.69999999823267;71;100 mA
46.3249188830408;-0.899658203125;-0.0557861328125;0.709999998207422;72;100 mA
46.3349188830156;-0.89935302734375;-0.055694580078125;0.719999998182175;73;100 mA
46.3449188829903;-0.899658203125;-0.055419921875;0.729999998156927;74;100 mA
46.3549188829651;-0.8990478515625;-0.05511474609375;0.73999999813168;75;100 mA
46.3649188829398;-0.89935302734375;-0.054931640625;0.749999998106432;76;100 mA
46.3749188829146;-0.8990478515625;-0.054718017578125;0.759999998081184;77;100 mA
46.3849188828893;-0.89935302734375;-0.0545654296875;0.769999998055937;78;100 mA
46.3949188828641;-0.89935302734375;-0.05438232421875;0.779999998030689;79;100 mA
46.4049188828388;-0.89935302734375;-0.054351806640625;0.789999998005442;80;100 mA
46.4149188828136;-0.89935302734375;-0.054290771484375;0.799999997980194;81;100 mA
46.4249188827883;-0.89996337890625;-0.054229736328125;0.809999997954947;82;100 mA
46.4349188827631;-0.899658203125;-0.054107666015625;0.819999997929699;83;100 mA
46.4449188827379;-0.899658203125;-0.053985595703125;0.829999997904451;84;100 mA
46.4549188827126;-0.899658203125;-0.053955078125;0.839999997879204;85;100 mA
46.4649188826874;-0.89935302734375;-0.05377197265625;0.849999997853956;86;100 mA
46.4749188826621;-0.899658203125;-0.053558349609375;0.859999997828709;87;100 mA
46.4849188826369;-0.8990478515625;-0.053497314453125;0.869999997803461;88;100 mA
46.4949188826116;-0.899658203125;-0.053314208984375;0.879999997778214;89;100 mA
46.5049188825864;-0.89935302734375;-0.053192138671875;0.889999997752966;90;100 mA
46.5149188825611;-0.8990478515625;-0.05303955078125;0.899999997727718;91;100 mA
46.5249188825359;-0.8984375;-0.05291748046875;0.909999997702471;92;100 mA
46.5349188825106;-0.89935302734375;-0.052825927734375;0.919999997677223;93;100 mA
46.5449188824854;-0.8990478515625;-0.05267333984375;0.929999997651976;94;100 mA
46.5549188824601;-0.899658203125;-0.052520751953125;0.939999997626728;95;100 mA
46.5649188824349;-0.89935302734375;-0.052490234375;0.949999997601481;96;100 mA
46.5749188824096;-0.89935302734375;-0.052520751953125;0.959999997576233;97;100 mA
46.5849188823844;-0.89935302734375;-0.052520751953125;0.969999997550985;98;100 mA
46.5949188823591;-0.8990478515625;-0.052490234375;0.979999997525738;99;100 mA
46.6049188823339;-0.89935302734375;-0.05255126953125;0.98999999750049;100;100 mA
46.6149188823086;-0.89935302734375;-0.05255126953125;0.999999997475243;101;100 mA
46.6249188822834;-0.8990478515625;-0.0526123046875;1.00999999745;102;100 mA
46.6349188822581;-0.89935302734375;-0.0526123046875;1.01999999742475;103;100 mA
46.6449188822329;-0.89874267578125;-0.052642822265625;1.0299999973995;104;100 mA
46.6549188822077;-0.899658203125;-0.052825927734375;1.03999999737425;105;100 mA
46.6649188821824;-0.8990478515625;-0.0528564453125;1.049999997349;106;100 mA
46.6749188821572;-0.899658203125;-0.05291748046875;1.05999999732376;107;100 mA
46.6849188821319;-0.89874267578125;-0.05303955078125;1.06999999729851;108;100 mA
46.6949188821067;-0.89996337890625;-0.053131103515625;1.07999999727326;109;100 mA
46.7049188820814;-0.899658203125;-0.053253173828125;1.08999999724801;110;100 mA
46.7149188820562;-0.89935302734375;-0.053314208984375;1.09999999722277;111;100 mA
46.7249188820309;-0.8990478515625;-0.053497314453125;1.10999999719752;112;100 mA
46.7349188820057;-0.899658203125;-0.053680419921875;1.11999999717227;113;100 mA
46.7449188819804;-0.8990478515625;-0.053802490234375;1.12999999714702;114;100 mA
46.7549188819552;-0.899658203125;-0.05389404296875;1.13999999712178;115;100 mA
46.7649188819299;-0.89996337890625;-0.053924560546875;1.14999999709653;116;100 mA
46.7749188819047;-0.899658203125;-0.0540771484375;1.15999999707128;117;100 mA
46.7849188818794;-0.89935302734375;-0.054046630859375;1.16999999704603;118;100 mA
46.7949188818542;-0.8990478515625;-0.053955078125;1.17999999702079;119;100 mA
46.8049188818289;-0.8990478515625;-0.053985595703125;1.18999999699554;120;100 mA
46.8149188818037;-0.899658203125;-0.053924560546875;1.19999999697029;121;100 mA
46.8249188817784;-0.89935302734375;-0.05389404296875;1.20999999694504;122;100 mA
46.8349188817532;-0.899658203125;-0.053802490234375;1.2199999969198;123;100 mA
46.8449188817279;-0.8990478515625;-0.053741455078125;1.22999999689455;124;100 mA
46.8549188817027;-0.8990478515625;-0.0537109375;1.2399999968693;125;100 mA
46.8649188816775;-0.89935302734375;-0.053558349609375;1.24999999684405;126;100 mA
46.8749188816522;-0.89935302734375;-0.05340576171875;1.25999999681881;127;100 mA
46.884918881627;-0.89935302734375;-0.053253173828125;1.26999999679356;128;100 mA
46.8949188816017;-0.89935302734375;-0.053131103515625;1.27999999676831;129;100 mA
46.9049188815765;-0.89996337890625;-0.05303955078125;1.28999999674306;130;100 mA
46.9149188815512;-0.899658203125;-0.0528564453125;1.29999999671782;131;100 mA
46.924918881526;-0.89935302734375;-0.052825927734375;1.30999999669257;132;100 mA
46.9349188815007;-0.89935302734375;-0.052764892578125;1.31999999666732;133;100 mA
46.9449188814755;-0.89935302734375;-0.05279541015625;1.32999999664207;134;100 mA
46.9549188814502;-0.8990478515625;-0.052703857421875;1.33999999661683;135;100 mA
46.964918881425;-0.89935302734375;-0.0526123046875;1.34999999659158;136;100 mA
46.9749188813997;-0.899658203125;-0.0526123046875;1.35999999656633;137;100 mA
46.9849188813745;-0.89935302734375;-0.052490234375;1.36999999654108;138;100 mA
46.9949188813492;-0.89935302734375;-0.052337646484375;1.37999999651583;139;100 mA
47.004918881324;-0.89935302734375;-0.052337646484375;1.38999999649059;140;100 mA
47.0149188812987;-0.8990478515625;-0.05230712890625;1.39999999646534;141;100 mA
47.0249188812735;-0.89935302734375;-0.052398681640625;1.40999999644009;142;100 mA
47.0349188812482;-0.89874267578125;-0.052398681640625;1.41999999641484;143;100 mA
47.044918881223;-0.89935302734375;-0.05242919921875;1.4299999963896;144;100 mA
47.0549188811978;-0.8990478515625;-0.052459716796875;1.43999999636435;145;100 mA
47.0649188811725;-0.899658203125;-0.052490234375;1.4499999963391;146;100 mA
47.0749188811473;-0.8990478515625;-0.052490234375;1.45999999631385;147;100 mA
47.084918881122;-0.899658203125;-0.052520751953125;1.46999999628861;148;100 mA
47.0949188810968;-0.89935302734375;-0.0526123046875;1.47999999626336;149;100 mA
47.1049188810715;-0.8990478515625;-0.052642822265625;1.48999999623811;150;100 mA
47.1149188810463;-0.89935302734375;-0.05255126953125;1.49999999621286;151;100 mA
47.124918881021;-0.89874267578125;-0.05255126953125;1.50999999618762;152;100 mA
47.1349188809958;-0.8990478515625;-0.052459716796875;1.51999999616237;153;100 mA
47.1449188809705;-0.89935302734375;-0.052398681640625;1.52999999613712;154;100 mA
47.1549188809453;-0.89935302734375;-0.052276611328125;1.53999999611187;155;100 mA
47.16491888092;-0.8990478515625;-0.052154541015625;1.54999999608663;156;100 mA
47.1749188808948;-0.899658203125;-0.052215576171875;1.55999999606138;157;100 mA
47.1849188808695;-0.899658203125;-0.0521240234375;1.56999999603613;158;100 mA
47.1949188808443;-0.899658203125;-0.052093505859375;1.57999999601088;159;100 mA
47.204918880819;-0.899658203125;-0.0521240234375;1.58999999598564;160;100 mA
47.2149188807938;-0.89935302734375;-0.052093505859375;1.59999999596039;161;100 mA
47.2249188807685;-0.899658203125;-0.05218505859375;1.60999999593514;162;100 mA
47.2349188807433;-0.89935302734375;-0.05218505859375;1.61999999590989;163;100 mA
47.244918880718;-0.89874267578125;-0.05230712890625;1.62999999588465;164;100 mA
47.2549188806928;-0.899658203125;-0.05242919921875;1.6399999958594;165;100 mA
47.2649188806676;-0.899658203125;-0.05255126953125;1.64999999583415;166;100 mA
47.2749188806423;-0.89874267578125;-0.05267333984375;1.6599999958089;167;100 mA
47.2849188806171;-0.89874267578125;-0.052734375;1.66999999578366;168;100 mA
47.2949188805918;-0.899658203125;-0.052947998046875;1.67999999575841;169;100 mA
47.3049188805666;-0.8990478515625;-0.053070068359375;1.68999999573316;170;100 mA
47.3149188805413;-0.899658203125;-0.0531005859375;1.69999999570791;171;100 mA
47.3249188805161;-0.89935302734375;-0.05328369140625;1.70999999568267;172;100 mA
47.3349188804908;-0.899658203125;-0.05328369140625;1.71999999565742;173;100 mA
47.3449188804656;-0.89935302734375;-0.053436279296875;1.72999999563217;174;100 mA
47.3549188804403;-0.89935302734375;-0.053497314453125;1.73999999560692;175;100 mA
47.3649188804151;-0.89935302734375;-0.05352783203125;1.74999999558167;176;100 mA
47.3749188803898;-0.89935302734375;-0.05364990234375;1.75999999555643;177;100 mA
47.3849188803646;-0.899658203125;-0.0535888671875;1.76999999553118;178;100 mA
47.3949188803393;-0.89935302734375;-0.05352783203125;1.77999999550593;179;100 mA
47.4049188803141;-0.8990478515625;-0.053497314453125;1.78999999548068;180;100 mA
47.4149188802888;-0.89935302734375;-0.05340576171875;1.79999999545544;181;100 mA
47.4249188802636;-0.8990478515625;-0.053375244140625;1.80999999543019;182;100 mA
47.4349188802383;-0.89935302734375;-0.05322265625;1.81999999540494;183;100 mA
47.4449188802131;-0.8990478515625;-0.05316162109375;1.82999999537969;184;100 mA
47.4549188801878;-0.89935302734375;-0.05303955078125;1.83999999535445;185;100 mA
47.4649188801626;-0.89935302734375;-0.053009033203125;1.8499999953292;186;100 mA
47.4749188801374;-0.899658203125;-0.052947998046875;1.85999999530395;187;100 mA
47.4849188801121;-0.8990478515625;-0.052825927734375;1.8699999952787;188;100 mA
47.4949188800869;-0.89935302734375;-0.0528564453125;1.87999999525346;189;100 mA
47.5049188800616;-0.899658203125;-0.052764892578125;1.88999999522821;190;100 mA
47.5149188800364;-0.899658203125;-0.052642822265625;1.89999999520296;191;100 mA
47.5249188800111;-0.899658203125;-0.052703857421875;1.90999999517771;192;100 mA
47.5349188799859;-0.89935302734375;-0.052642822265625;1.91999999515247;193;100 mA
47.5449188799606;-0.8990478515625;-0.05267333984375;1.92999999512722;194;100 mA
47.5549188799354;-0.899658203125;-0.0526123046875;1.93999999510197;195;100 mA
47.5649188799101;-0.8990478515625;-0.052581787109375;1.94999999507672;196;100 mA
47.5749188798849;-0.89935302734375;-0.0526123046875;1.95999999505148;197;100 mA
47.5849188798596;-0.89935302734375;-0.052520751953125;1.96999999502623;198;100 mA
47.5949188798344;-0.899658203125;-0.052520751953125;1.97999999500098;199;100 mA
47.6049188798091;-0.89935302734375;-0.052520751953125;1.98999999497573;200;100 mA
47.6149188797839;-0.899658203125;-0.05255126953125;1.99999999495049;201;100 mA
47.6249188797586;-0.89935302734375;-0.052642822265625;2.00999999492524;202;100 mA
47.6349188797334;-0.89935302734375;-0.052642822265625;2.01999999489999;203;100 mA
47.6449188797081;-0.89935302734375;-0.052764892578125;2.02999999487474;204;100 mA
47.6549188796829;-0.899658203125;-0.05279541015625;2.0399999948495;205;100 mA
47.6649188796576;-0.89996337890625;-0.052825927734375;2.04999999482425;206;100 mA
47.6749188796324;-0.89996337890625;-0.0528564453125;2.059999994799;207;100 mA
47.6849188796072;-0.89935302734375;-0.05279541015625;2.06999999477375;208;100 mA
47.6949188795819;-0.89935302734375;-0.0528564453125;2.0799999947485;209;100 mA
47.7049188795567;-0.89935302734375;-0.052825927734375;2.08999999472326;210;100 mA
47.7149188795314;-0.899658203125;-0.052764892578125;2.09999999469801;211;100 mA
47.7249188795062;-0.89935302734375;-0.052825927734375;2.10999999467276;212;100 mA
47.7349188794809;-0.89996337890625;-0.052764892578125;2.11999999464751;213;100 mA
47.7449188794557;-0.89935302734375;-0.052764892578125;2.12999999462227;214;100 mA
47.7549188794304;-0.89996337890625;-0.05267333984375;2.13999999459702;215;100 mA
47.7649188794052;-0.89935302734375;-0.05267333984375;2.14999999457177;216;100 mA
47.7749188793799;-0.8990478515625;-0.05267333984375;2.15999999454652;217;100 mA
47.7849188793547;-0.89935302734375;-0.0526123046875;2.16999999452128;218;100 mA
47.7949188793294;-0.89935302734375;-0.05267333984375;2.17999999449603;219;100 mA
47.8049188793042;-0.899658203125;-0.052642822265625;2.18999999447078;220;100 mA
47.8149188792789;-0.89935302734375;-0.052703857421875;2.19999999444553;221;100 mA
47.8249188792537;-0.89874267578125;-0.052703857421875;2.20999999442029;222;100 mA
47.8349188792284;-0.89935302734375;-0.052642822265625;2.21999999439504;223;100 mA
47.8449188792032;-0.89874267578125;-0.052703857421875;2.22999999436979;224;100 mA
47.8549188791779;-0.8990478515625;-0.052703857421875;2.23999999434454;225;100 mA
47.8649188791527;-0.8990478515625;-0.052764892578125;2.2499999943193;226;100 mA
47.8749188791274;-0.89935302734375;-0.05279541015625;2.25999999429405;227;100 mA
47.8849188791022;-0.89935302734375;-0.052886962890625;2.2699999942688;228;100 mA
47.894918879077;-0.8990478515625;-0.05303955078125;2.27999999424355;229;100 mA
47.9049188790517;-0.89935302734375;-0.05303955078125;2.28999999421831;230;100 mA
47.9149188790265;-0.89996337890625;-0.053009033203125;2.29999999419306;231;100 mA
47.9249188790012;-0.8990478515625;-0.053009033203125;2.30999999416781;232;100 mA
47.934918878976;-0.89996337890625;-0.05291748046875;2.31999999414256;233;100 mA
47.9449188789507;-0.899658203125;-0.05291748046875;2.32999999411732;234;100 mA
47.9549188789255;-0.8990478515625;-0.052764892578125;2.33999999409207;235;100 mA
47.9649188789002;-0.8990478515625;-0.052734375;2.34999999406682;236;100 mA
47.974918878875;-0.89935302734375;-0.05267333984375;2.35999999404157;237;100 mA
47.9849188788497;-0.8990478515625;-0.052581787109375;2.36999999401633;238;100 mA
47.9949188788245;-0.899658203125;-0.052490234375;2.37999999399108;239;100 mA
48.0049188787992;-0.899658203125;-0.0523681640625;2.38999999396583;240;100 mA
48.014918878774;-0.8990478515625;-0.0523681640625;2.39999999394058;241;100 mA
48.0249188787487;-0.89935302734375;-0.052276611328125;2.40999999391533;242;100 mA
48.0349188787235;-0.8990478515625;-0.0521240234375;2.41999999389009;243;100 mA
48.0449188786982;-0.8990478515625;-0.0521240234375;2.42999999386484;244;100 mA
48.054918878673;-0.899658203125;-0.052032470703125;2.43999999383959;245;100 mA
48.0649188786477;-0.89996337890625;-0.05206298828125;2.44999999381434;246;100 mA
48.0749188786225;-0.899658203125;-0.051971435546875;2.4599999937891;247;100 mA
48.0849188785973;-0.899658203125;-0.051910400390625;2.46999999376385;248;100 mA
48.094918878572;-0.899658203125;-0.0518798828125;2.4799999937386;249;100 mA
48.1049188785468;-0.89935302734375;-0.05169677734375;2.48999999371335;250;100 mA
48.1149188785215;-0.899658203125;-0.0516357421875;2.49999999368811;251;100 mA
48.1249188784963;-0.89996337890625;-0.051544189453125;2.50999999366286;252;100 mA
48.134918878471;-0.89935302734375;-0.051483154296875;2.51999999363761;253;100 mA
48.1449188784458;-0.89935302734375;-0.051544189453125;2.52999999361236;254;100 mA
48.1549188784205;-0.899658203125;-0.051422119140625;2.53999999358712;255;100 mA
48.1649188783953;-0.899658203125;-0.05145263671875;2.54999999356187;256;100 mA
48.17491887837;-0.89935302734375;-0.0513916015625;2.55999999353662;257;100 mA
48.1849188783448;-0.8990478515625;-0.05133056640625;2.56999999351137;258;100 mA
48.1949188783195;-0.89935302734375;-0.05133056640625;2.57999999348613;259;100 mA
48.2049188782943;-0.8990478515625;-0.05126953125;2.58999999346088;260;100 mA
48.214918878269;-0.89935302734375;-0.051422119140625;2.59999999343563;261;100 mA
48.2249188782438;-0.89935302734375;-0.051483154296875;2.60999999341038;262;100 mA
48.2349188782185;-0.89935302734375;-0.051544189453125;2.61999999338514;263;100 mA
48.2449188781933;-0.899658203125;-0.05169677734375;2.62999999335989;264;100 mA
48.254918878168;-0.899658203125;-0.05169677734375;2.63999999333464;265;100 mA
48.2649188781428;-0.899658203125;-0.051849365234375;2.64999999330939;266;100 mA
48.2749188781175;-0.899658203125;-0.051910400390625;2.65999999328415;267;100 mA
48.2849188780923;-0.89935302734375;-0.052001953125;2.6699999932589;268;100 mA
48.2949188780671;-0.899658203125;-0.052154541015625;2.67999999323365;269;100 mA
48.3049188780418;-0.899658203125;-0.05218505859375;2.6899999932084;270;100 mA
48.3149188780166;-0.899658203125;-0.052276611328125;2.69999999318316;271;100 mA
48.3249188779913;-0.8990478515625;-0.05230712890625;2.70999999315791;272;100 mA
48.3349188779661;-0.8990478515625;-0.0523681640625;2.71999999313266;273;100 mA
48.3449188779408;-0.899658203125;-0.05242919921875;2.72999999310741;274;100 mA
48.3549188779156;-0.8990478515625;-0.0523681640625;2.73999999308217;275;100 mA
48.3649188778903;-0.89935302734375;-0.052490234375;2.74999999305692;276;100 mA
48.3749188778651;-0.899658203125;-0.052459716796875;2.75999999303167;277;100 mA
48.3849188778398;-0.8990478515625;-0.052520751953125;2.76999999300642;278;100 mA
48.3949188778146;-0.899658203125;-0.052459716796875;2.77999999298117;279;100 mA
48.4049188777893;-0.89935302734375;-0.0523681640625;2.78999999295593;280;100 mA
48.4149188777641;-0.8990478515625;-0.052490234375;2.79999999293068;281;100 mA
48.4249188777388;-0.899658203125;-0.052398681640625;2.80999999290543;282;100 mA
48.4349188777136;-0.899658203125;-0.05230712890625;2.81999999288018;283;100 mA
48.4449188776883;-0.89935302734375;-0.052337646484375;2.82999999285494;284;100 mA
48.4549188776631;-0.89935302734375;-0.052215576171875;2.83999999282969;285;100 mA
48.4649188776378;-0.89874267578125;-0.05224609375;2.84999999280444;286;100 mA
48.4749188776126;-0.8990478515625;-0.0521240234375;2.85999999277919;287;100 mA
48.4849188775873;-0.899658203125;-0.052093505859375;2.86999999275395;288;100 mA
48.4949188775621;-0.89935302734375;-0.052093505859375;2.8799999927287;289;100 mA
48.5049188775369;-0.89874267578125;-0.052032470703125;2.88999999270345;290;100 mA
48.5149188775116;-0.899658203125;-0.052032470703125;2.8999999926782;291;100 mA
48.5249188774864;-0.899658203125;-0.052032470703125;2.90999999265296;292;100 mA
48.5349188774611;-0.8990478515625;-0.05206298828125;2.91999999262771;293;100 mA
48.5449188774359;-0.89935302734375;-0.05206298828125;2.92999999260246;294;100 mA
48.5549188774106;-0.89935302734375;-0.051971435546875;2.93999999257721;295;100 mA
48.5649188773854;-0.899658203125;-0.052093505859375;2.94999999255197;296;100 mA
48.5749188773601;-0.899658203125;-0.052093505859375;2.95999999252672;297;100 mA
48.5849188773349;-0.89935302734375;-0.05224609375;2.96999999250147;298;100 mA
48.5949188773096;-0.899658203125;-0.0523681640625;2.97999999247622;299;100 mA
48.6049188772844;-0.89935302734375;-0.05242919921875;2.98999999245098;300;100 mA
48.6149188772591;-0.89935302734375;-0.052642822265625;2.99999999242573;301;100 mA
48.6249188772339;-0.899658203125;-0.05267333984375;3.00999999240048;302;100 mA
48.6349188772086;-0.8990478515625;-0.052703857421875;3.01999999237523;303;100 mA
48.6449188771834;-0.8990478515625;-0.0528564453125;3.02999999234999;304;100 mA
48.6549188771581;-0.899658203125;-0.05291748046875;3.03999999232474;305;100 mA
48.6649188771329;-0.89935302734375;-0.053131103515625;3.04999999229949;306;100 mA
48.6749188771076;-0.89996337890625;-0.05316162109375;3.05999999227424;307;100 mA
48.6849188770824;-0.899658203125;-0.05328369140625;3.069999992249;308;100 mA
48.6949188770571;-0.899658203125;-0.053314208984375;3.07999999222375;309;100 mA
48.7049188770319;-0.89996337890625;-0.053375244140625;3.0899999921985;310;100 mA
48.7149188770067;-0.89935302734375;-0.05340576171875;3.09999999217325;311;100 mA
48.7249188769814;-0.899658203125;-0.053436279296875;3.109999992148;312;100 mA
48.7349188769562;-0.89935302734375;-0.05352783203125;3.11999999212276;313;100 mA
48.7449188769309;-0.89935302734375;-0.05352783203125;3.12999999209751;314;100 mA
48.7549188769057;-0.89935302734375;-0.053436279296875;3.13999999207226;315;100 mA
48.7649188768804;-0.8990478515625;-0.053558349609375;3.14999999204701;316;100 mA
48.7749188768552;-0.8990478515625;-0.05340576171875;3.15999999202177;317;100 mA
48.7849188768299;-0.899658203125;-0.053436279296875;3.16999999199652;318;100 mA
48.7949188768047;-0.8990478515625;-0.053375244140625;3.17999999197127;319;100 mA
48.8049188767794;-0.89996337890625;-0.053314208984375;3.18999999194602;320;100 mA
48.8149188767542;-0.8990478515625;-0.053314208984375;3.19999999192078;321;100 mA
48.8249188767289;-0.8990478515625;-0.053192138671875;3.20999999189553;322;100 mA
48.8349188767037;-0.89935302734375;-0.053070068359375;3.21999999187028;323;100 mA
48.8449188766784;-0.899658203125;-0.052947998046875;3.22999999184503;324;100 mA
48.8549188766532;-0.8990478515625;-0.05279541015625;3.23999999181979;325;100 mA
48.8649188766279;-0.899658203125;-0.052703857421875;3.24999999179454;326;100 mA
48.8749188766027;-0.89935302734375;-0.05255126953125;3.25999999176929;327;100 mA
48.8849188765774;-0.899658203125;-0.052581787109375;3.26999999174404;328;100 mA
48.8949188765522;-0.89935302734375;-0.052490234375;3.2799999917188;329;100 mA
48.9049188765269;-0.8990478515625;-0.052490234375;3.28999999169355;330;100 mA
48.9149188765017;-0.899658203125;-0.0523681640625;3.2999999916683;331;100 mA
48.9249188764765;-0.89874267578125;-0.05224609375;3.30999999164305;332;100 mA
48.9349188764512;-0.8990478515625;-0.05224609375;3.31999999161781;333;100 mA
48.944918876426;-0.89935302734375;-0.052093505859375;3.32999999159256;334;100 mA
48.9549188764007;-0.89935302734375;-0.051910400390625;3.33999999156731;335;100 mA
48.9649188763755;-0.89874267578125;-0.051849365234375;3.34999999154206;336;100 mA
48.9749188763502;-0.8990478515625;-0.051727294921875;3.35999999151682;337;100 mA
48.984918876325;-0.89935302734375;-0.051727294921875;3.36999999149157;338;100 mA
48.9949188762997;-0.8990478515625;-0.0516357421875;3.37999999146632;339;100 mA
49.0049188762745;-0.89935302734375;-0.051605224609375;3.38999999144107;340;100 mA
49.0149188762492;-0.89935302734375;-0.0516357421875;3.39999999141583;341;100 mA
49.024918876224;-0.89935302734375;-0.05169677734375;3.40999999139058;342;100 mA
49.0349188761987;-0.89935302734375;-0.05169677734375;3.41999999136533;343;100 mA
49.0449188761735;-0.89935302734375;-0.05169677734375;3.42999999134008;344;100 mA
49.0549188761482;-0.89935302734375;-0.051788330078125;3.43999999131483;345;100 mA
49.064918876123;-0.89935302734375;-0.0517578125;3.44999999128959;346;100 mA
49.0749188760977;-0.8990478515625;-0.0516357421875;3.45999999126434;347;100 mA
49.0849188760725;-0.8990478515625;-0.0516357421875;3.46999999123909;348;100 mA
49.0949188760472;-0.89935302734375;-0.051422119140625;3.47999999121384;349;100 mA
49.104918876022;-0.89935302734375;-0.05133056640625;3.4899999911886;350;100 mA
49.1149188759968;-0.899658203125;-0.051116943359375;3.49999999116335;351;100 mA
49.1249188759715;-0.8990478515625;-0.05084228515625;3.5099999911381;352;100 mA
49.1349188759463;-0.8990478515625;-0.05078125;3.51999999111285;353;100 mA
49.144918875921;-0.89935302734375;-0.050628662109375;3.52999999108761;354;100 mA
49.1549188758958;-0.89935302734375;-0.050506591796875;3.53999999106236;355;100 mA
49.1649188758705;-0.8990478515625;-0.05047607421875;3.54999999103711;356;100 mA
49.1749188758453;-0.89935302734375;-0.050384521484375;3.55999999101186;357;100 mA
49.18491887582;-0.89996337890625;-0.0504150390625;3.56999999098662;358;100 mA
49.1949188757948;-0.899658203125;-0.050384521484375;3.57999999096137;359;100 mA
49.2049188757695;-0.8990478515625;-0.050384521484375;3.58999999093612;360;100 mA
49.2149188757443;-0.89874267578125;-0.0504150390625;3.59999999091087;361;100 mA
49.224918875719;-0.89935302734375;-0.050537109375;3.60999999088563;362;100 mA
49.2349188756938;-0.899658203125;-0.050628662109375;3.61999999086038;363;100 mA
49.2449188756685;-0.89874267578125;-0.0506591796875;3.62999999083513;364;100 mA
49.2549188756433;-0.89935302734375;-0.050811767578125;3.63999999080988;365;100 mA
49.264918875618;-0.89935302734375;-0.0509033203125;3.64999999078464;366;100 mA
49.2749188755928;-0.89935302734375;-0.050994873046875;3.65999999075939;367;100 mA
49.2849188755675;-0.8990478515625;-0.05120849609375;3.66999999073414;368;100 mA
49.2949188755423;-0.89935302734375;-0.051300048828125;3.67999999070889;369;100 mA
49.304918875517;-0.8990478515625;-0.051483154296875;3.68999999068365;370;100 mA
49.3149188754918;-0.899658203125;-0.051544189453125;3.6999999906584;371;100 mA
49.3249188754666;-0.899658203125;-0.05157470703125;3.70999999063315;372;100 mA
49.3349188754413;-0.8990478515625;-0.0516357421875;3.7199999906079;373;100 mA
49.3449188754161;-0.89935302734375;-0.05169677734375;3.72999999058266;374;100 mA
49.3549188753908;-0.899658203125;-0.051727294921875;3.73999999055741;375;100 mA
49.3649188753656;-0.89935302734375;-0.05181884765625;3.74999999053216;376;100 mA
49.3749188753403;-0.89935302734375;-0.051910400390625;3.75999999050691;377;100 mA
49.3849188753151;-0.89935302734375;-0.052032470703125;3.76999999048167;378;100 mA
49.3949188752898;-0.89874267578125;-0.05206298828125;3.77999999045642;379;100 mA
49.4049188752646;-0.89935302734375;-0.052154541015625;3.78999999043117;380;100 mA
49.4149188752393;-0.89935302734375;-0.052093505859375;3.79999999040592;381;100 mA
49.4249188752141;-0.8990478515625;-0.052093505859375;3.80999999038067;382;100 mA
49.4349188751888;-0.8990478515625;-0.052001953125;3.81999999035543;383;100 mA
49.4449188751636;-0.899658203125;-0.051849365234375;3.82999999033018;384;100 mA
49.4549188751383;-0.89935302734375;-0.05181884765625;3.83999999030493;385;100 mA
49.4649188751131;-0.89935302734375;-0.0517578125;3.84999999027968;386;100 mA
49.4749188750878;-0.899658203125;-0.051666259765625;3.85999999025444;387;100 mA
49.4849188750626;-0.89935302734375;-0.051666259765625;3.86999999022919;388;100 mA
49.4949188750373;-0.89996337890625;-0.0516357421875;3.87999999020394;389;100 mA
49.5049188750121;-0.899658203125;-0.051666259765625;3.88999999017869;390;100 mA
49.5149188749868;-0.899658203125;-0.051605224609375;3.89999999015345;391;100 mA
49.5249188749616;-0.8990478515625;-0.0516357421875;3.9099999901282;392;100 mA
49.5349188749364;-0.89935302734375;-0.0516357421875;3.91999999010295;393;100 mA
49.5449188749111;-0.899658203125;-0.05169677734375;3.9299999900777;394;100 mA
49.5549188748859;-0.89935302734375;-0.051788330078125;3.93999999005246;395;100 mA
49.5649188748606;-0.8990478515625;-0.05181884765625;3.94999999002721;396;100 mA
49.5749188748354;-0.89935302734375;-0.051910400390625;3.95999999000196;397;100 mA
49.5849188748101;-0.89935302734375;-0.05206298828125;3.96999998997671;398;100 mA
49.5949188747849;-0.89935302734375;-0.052093505859375;3.97999998995147;399;100 mA
49.6049188747596;-0.8990478515625;-0.052276611328125;3.98999998992622;400;100 mA
49.6149188747344;-0.89935302734375;-0.052276611328125;3.99999998990097;401;100 mA
49.6249188747091;-0.8990478515625;-0.052398681640625;4.00999998987572;402;100 mA
49.6349188746839;-0.8990478515625;-0.052520751953125;4.01999998985048;403;100 mA
49.6449188746586;-0.899658203125;-0.052581787109375;4.02999998982523;404;100 mA
49.6549188746334;-0.899658203125;-0.052703857421875;4.03999998979998;405;100 mA
49.6649188746081;-0.89935302734375;-0.052703857421875;4.04999998977473;406;100 mA
49.6749188745829;-0.899658203125;-0.052734375;4.05999998974949;407;100 mA
49.6849188745576;-0.899658203125;-0.05279541015625;4.06999998972424;408;100 mA
49.6949188745324;-0.899658203125;-0.052825927734375;4.07999998969899;409;100 mA
49.7049188745071;-0.89996337890625;-0.052886962890625;4.08999998967374;410;100 mA
49.7149188744819;-0.899658203125;-0.05291748046875;4.0999999896485;411;100 mA
49.7249188744566;-0.899658203125;-0.053070068359375;4.10999998962325;412;100 mA
49.7349188744314;-0.899658203125;-0.0531005859375;4.119999989598;413;100 mA
49.7449188744062;-0.89996337890625;-0.053131103515625;4.12999998957275;414;100 mA
49.7549188743809;-0.899658203125;-0.05316162109375;4.1399999895475;415;100 mA
49.7649188743557;-0.89935302734375;-0.05316162109375;4.14999998952226;416;100 mA
49.7749188743304;-0.899658203125;-0.05316162109375;4.15999998949701;417;100 mA
49.7849188743052;-0.8990478515625;-0.05316162109375;4.16999998947176;418;100 mA
49.7949188742799;-0.89935302734375;-0.0531005859375;4.17999998944651;419;100 mA
49.8049188742547;-0.89935302734375;-0.053192138671875;4.18999998942127;420;100 mA
49.8149188742294;-0.9002685546875;-0.0531005859375;4.19999998939602;421;100 mA
49.8249188742042;-0.89874267578125;-0.05316162109375;4.20999998937077;422;100 mA
49.8349188741789;-0.899658203125;-0.05316162109375;4.21999998934552;423;100 mA
49.8449188741537;-0.89935302734375;-0.053131103515625;4.22999998932028;424;100 mA
49.8549188741284;-0.899658203125;-0.053070068359375;4.23999998929503;425;100 mA
49.8649188741032;-0.90057373046875;-0.052978515625;4.24999998926978;426;100 mA
49.8749188740779;-0.89935302734375;-0.05291748046875;4.25999998924453;427;100 mA
49.8849188740527;-0.899658203125;-0.052886962890625;4.26999998921929;428;100 mA
49.8949188740274;-0.899658203125;-0.052764892578125;4.27999998919404;429;100 mA
49.9049188740022;-0.89935302734375;-0.05279541015625;4.28999998916879;430;100 mA
49.9149188739769;-0.89935302734375;-0.052703857421875;4.29999998914354;431;100 mA
49.9249188739517;-0.8990478515625;-0.052703857421875;4.3099999891183;432;100 mA
49.9349188739264;-0.89935302734375;-0.052581787109375;4.31999998909305;433;100 mA
49.9449188739012;-0.89935302734375;-0.05255126953125;4.3299999890678;434;100 mA
49.954918873876;-0.89996337890625;-0.05255126953125;4.33999998904255;435;100 mA
49.9649188738507;-0.89935302734375;-0.052520751953125;4.34999998901731;436;100 mA
49.9749188738255;-0.8990478515625;-0.052581787109375;4.35999998899206;437;100 mA
49.9849188738002;-0.8990478515625;-0.052520751953125;4.36999998896681;438;100 mA
49.994918873775;-0.899658203125;-0.052490234375;4.37999998894156;439;100 mA
50.0049188737497;-0.89935302734375;-0.052520751953125;4.38999998891632;440;100 mA
50.0149188737245;-0.89935302734375;-0.052459716796875;4.39999998889107;441;100 mA
50.0249188736992;-0.89935302734375;-0.052520751953125;4.40999998886582;442;100 mA
50.034918873674;-0.8990478515625;-0.052490234375;4.41999998884057;443;100 mA
50.0449188736487;-0.8990478515625;-0.052520751953125;4.42999998881533;444;100 mA
50.0549188736235;-0.8990478515625;-0.052520751953125;4.43999998879008;445;100 mA
50.0649188735982;-0.9002685546875;-0.052459716796875;4.44999998876483;446;100 mA
50.074918873573;-0.89935302734375;-0.05242919921875;4.45999998873958;447;100 mA
50.0849188735477;-0.8990478515625;-0.0523681640625;4.46999998871433;448;100 mA
50.0949188735225;-0.8990478515625;-0.0523681640625;4.47999998868909;449;100 mA
50.1049188734972;-0.899658203125;-0.052337646484375;4.48999998866384;450;100 mA
50.114918873472;-0.89874267578125;-0.052215576171875;4.49999998863859;451;100 mA
50.1249188734467;-0.899658203125;-0.05224609375;4.50999998861334;452;100 mA
50.1349188734215;-0.89935302734375;-0.0521240234375;4.5199999885881;453;100 mA
50.1449188733963;-0.89874267578125;-0.052093505859375;4.52999998856285;454;100 mA
50.154918873371;-0.899658203125;-0.05206298828125;4.5399999885376;455;100 mA
50.1649188733458;-0.89874267578125;-0.052001953125;4.54999998851235;456;100 mA
50.1749188733205;-0.899658203125;-0.052032470703125;4.55999998848711;457;100 mA
50.1849188732953;-0.89935302734375;-0.0518798828125;4.56999998846186;458;100 mA
50.19491887327;-0.89935302734375;-0.05181884765625;4.57999998843661;459;100 mA
50.2049188732448;-0.89935302734375;-0.05181884765625;4.58999998841136;460;100 mA
50.2149188732195;-0.8990478515625;-0.0517578125;4.59999998838612;461;100 mA
50.2249188731943;-0.899658203125;-0.051788330078125;4.60999998836087;462;100 mA
50.234918873169;-0.8990478515625;-0.05169677734375;4.61999998833562;463;100 mA
50.2449188731438;-0.899658203125;-0.05169677734375;4.62999998831037;464;100 mA
50.2549188731185;-0.8990478515625;-0.0517578125;4.63999998828513;465;100 mA
50.2649188730933;-0.899658203125;-0.0517578125;4.64999998825988;466;100 mA
50.274918873068;-0.8990478515625;-0.05181884765625;4.65999998823463;467;100 mA
50.2849188730428;-0.8990478515625;-0.051910400390625;4.66999998820938;468;100 mA
50.2949188730175;-0.8990478515625;-0.051971435546875;4.67999998818414;469;100 mA
50.3049188729923;-0.89935302734375;-0.05194091796875;4.68999998815889;470;100 mA
50.314918872967;-0.89996337890625;-0.05181884765625;4.69999998813364;471;100 mA
50.3249188729418;-0.89935302734375;-0.051788330078125;4.70999998810839;472;100 mA
50.3349188729165;-0.899658203125;-0.051666259765625;4.71999998808315;473;100 mA
50.3449188728913;-0.899658203125;-0.051666259765625;4.7299999880579;474;100 mA
50.3549188728661;-0.89935302734375;-0.051666259765625;4.73999998803265;475;100 mA
50.3649188728408;-0.899658203125;-0.051727294921875;4.7499999880074;476;100 mA
50.3749188728156;-0.899658203125;-0.051849365234375;4.75999998798216;477;100 mA
50.3849188727903;-0.89996337890625;-0.051849365234375;4.76999998795691;478;100 mA
50.3949188727651;-0.899658203125;-0.051849365234375;4.77999998793166;479;100 mA
50.4049188727398;-0.899658203125;-0.051849365234375;4.78999998790641;480;100 mA
50.4149188727146;-0.89996337890625;-0.051788330078125;4.79999998788116;481;100 mA
50.4249188726893;-0.8990478515625;-0.051788330078125;4.80999998785592;482;100 mA
50.4349188726641;-0.899658203125;-0.051666259765625;4.81999998783067;483;100 mA
50.4449188726388;-0.8990478515625;-0.051605224609375;4.82999998780542;484;100 mA
50.4549188726136;-0.8990478515625;-0.051483154296875;4.83999998778017;485;100 mA
50.4649188725883;-0.8990478515625;-0.051422119140625;4.84999998775493;486;100 mA
50.4749188725631;-0.89935302734375;-0.05133056640625;4.85999998772968;487;100 mA
50.4849188725378;-0.89935302734375;-0.051177978515625;4.86999998770443;488;100 mA
50.4949188725126;-0.89935302734375;-0.05120849609375;4.87999998767918;489;100 mA
50.5049188724873;-0.899658203125;-0.05108642578125;4.88999998765394;490;100 mA
50.5149188724621;-0.8990478515625;-0.05096435546875;4.89999998762869;491;100 mA
50.5249188724368;-0.899658203125;-0.05096435546875;4.90999998760344;492;100 mA
50.5349188724116;-0.8990478515625;-0.050811767578125;4.91999998757819;493;100 mA
50.5449188723863;-0.899658203125;-0.0509033203125;4.92999998755295;494;100 mA
50.5549188723611;-0.8990478515625;-0.05084228515625;4.9399999875277;495;100 mA
50.5649188723359;-0.89935302734375;-0.05078125;4.94999998750245;496;100 mA
50.5749188723106;-0.89935302734375;-0.05078125;4.9599999874772;497;100 mA
50.5849188722854;-0.89935302734375;-0.050750732421875;4.96999998745196;498;100 mA
50.5949188722601;-0.899658203125;-0.05078125;4.97999998742671;499;100 mA
50.6049188722349;-0.89935302734375;-0.05084228515625;4.98999998740146;500;100 mA
50.6149188722096;-0.899658203125;-0.0509033203125;4.99999998737621;501;100 mA
50.6249188721844;-0.8990478515625;-0.051055908203125;5.00999998735097;502;100 mA
50.6349188721591;-0.89874267578125;-0.051055908203125;5.01999998732572;503;100 mA
50.6449188721339;-0.899658203125;-0.051116943359375;5.02999998730047;504;100 mA
50.6549188721086;-0.89935302734375;-0.051055908203125;5.03999998727522;505;100 mA
50.6649188720834;-0.899658203125;-0.050994873046875;5.04999998724998;506;100 mA
50.6749188720581;-0.89935302734375;-0.050933837890625;5.05999998722473;507;100 mA
50.6849188720329;-0.89935302734375;-0.050811767578125;5.06999998719948;508;100 mA
50.6949188720076;-0.899658203125;-0.05084228515625;5.07999998717423;509;100 mA
50.7049188719824;-0.899658203125;-0.05072021484375;5.08999998714899;510;100 mA
50.7149188719571;-0.89935302734375;-0.0506591796875;5.09999998712374;511;100 mA
50.7249188719319;-0.89935302734375;-0.050628662109375;5.10999998709849;512;100 mA
50.7349188719066;-0.89996337890625;-0.050537109375;5.11999998707324;513;100 mA
50.7449188718814;-0.899658203125;-0.050689697265625;5.129999987048;514;100 mA
50.7549188718561;-0.89935302734375;-0.050750732421875;5.13999998702275;515;100 mA
50.7649188718309;-0.89935302734375;-0.050872802734375;5.1499999869975;516;100 mA
50.7749188718057;-0.89935302734375;-0.05108642578125;5.15999998697225;517;100 mA
50.7849188717804;-0.899658203125;-0.051239013671875;5.169999986947;518;100 mA
50.7949188717552;-0.89935302734375;-0.051422119140625;5.17999998692176;519;100 mA
50.8049188717299;-0.89935302734375;-0.051513671875;5.18999998689651;520;100 mA
50.8149188717047;-0.89935302734375;-0.05169677734375;5.19999998687126;521;100 mA
50.8249188716794;-0.8990478515625;-0.05181884765625;5.20999998684601;522;100 mA
50.8349188716542;-0.899658203125;-0.051910400390625;5.21999998682077;523;100 mA
50.8449188716289;-0.8990478515625;-0.05218505859375;5.22999998679552;524;100 mA
50.8549188716037;-0.8990478515625;-0.05224609375;5.23999998677027;525;100 mA
50.8649188715784;-0.899658203125;-0.052398681640625;5.24999998674502;526;100 mA
50.8749188715532;-0.89935302734375;-0.052398681640625;5.25999998671978;527;100 mA
50.8849188715279;-0.899658203125;-0.052276611328125;5.26999998669453;528;100 mA
50.8949188715027;-0.89935302734375;-0.052276611328125;5.27999998666928;529;100 mA
50.9049188714774;-0.899658203125;-0.052093505859375;5.28999998664403;530;100 mA
50.9149188714522;-0.89935302734375;-0.05194091796875;5.29999998661879;531;100 mA
50.9249188714269;-0.89996337890625;-0.05181884765625;5.30999998659354;532;100 mA
50.9349188714017;-0.89874267578125;-0.051666259765625;5.31999998656829;533;100 mA
50.9449188713764;-0.8990478515625;-0.051666259765625;5.32999998654304;534;100 mA
50.9549188713512;-0.89935302734375;-0.05157470703125;5.3399999865178;535;100 mA
50.9649188713259;-0.89874267578125;-0.051544189453125;5.34999998649255;536;100 mA
50.9749188713007;-0.8990478515625;-0.051483154296875;5.3599999864673;537;100 mA
50.9849188712755;-0.89935302734375;-0.051544189453125;5.36999998644205;538;100 mA
50.9949188712502;-0.89996337890625;-0.05157470703125;5.37999998641681;539;100 mA
51.004918871225;-0.8990478515625;-0.051544189453125;5.38999998639156;540;100 mA
51.0149188711997;-0.89935302734375;-0.051666259765625;5.39999998636631;541;100 mA
51.0249188711745;-0.89935302734375;-0.051666259765625;5.40999998634106;542;100 mA
51.0349188711492;-0.899658203125;-0.051666259765625;5.41999998631582;543;100 mA
51.044918871124;-0.89935302734375;-0.051849365234375;5.42999998629057;544;100 mA
51.0549188710987;-0.899658203125;-0.051788330078125;5.43999998626532;545;100 mA
51.0649188710735;-0.89935302734375;-0.0518798828125;5.44999998624007;546;100 mA
51.0749188710482;-0.899658203125;-0.0518798828125;5.45999998621483;547;100 mA
51.084918871023;-0.899658203125;-0.05181884765625;5.46999998618958;548;100 mA
51.0949188709977;-0.899658203125;-0.0517578125;5.47999998616433;549;100 mA
51.1049188709725;-0.8990478515625;-0.051666259765625;5.48999998613908;550;100 mA
51.1149188709472;-0.8984375;-0.05157470703125;5.49999998611383;551;100 mA
51.124918870922;-0.89935302734375;-0.051544189453125;5.50999998608859;552;100 mA
51.1349188708967;-0.899658203125;-0.051513671875;5.51999998606334;553;100 mA
51.1449188708715;-0.899658203125;-0.05157470703125;5.52999998603809;554;100 mA
51.1549188708462;-0.89935302734375;-0.051605224609375;5.53999998601284;555;100 mA
51.164918870821;-0.8990478515625;-0.051788330078125;5.5499999859876;556;100 mA
51.1749188707958;-0.89935302734375;-0.051849365234375;5.55999998596235;557;100 mA
51.1849188707705;-0.8990478515625;-0.052001953125;5.5699999859371;558;100 mA
51.1949188707453;-0.899658203125;-0.05218505859375;5.57999998591185;559;100 mA
51.20491887072;-0.8990478515625;-0.05224609375;5.58999998588661;560;100 mA
51.2149188706948;-0.899658203125;-0.052459716796875;5.59999998586136;561;100 mA
51.2249188706695;-0.899658203125;-0.052490234375;5.60999998583611;562;100 mA
51.2349188706443;-0.89935302734375;-0.052459716796875;5.61999998581086;563;100 mA
51.244918870619;-0.89935302734375;-0.05255126953125;5.62999998578562;564;100 mA
51.2549188705938;-0.899658203125;-0.05242919921875;5.63999998576037;565;100 mA
51.2649188705685;-0.899658203125;-0.05242919921875;5.64999998573512;566;100 mA
51.2749188705433;-0.899658203125;-0.0523681640625;5.65999998570987;567;100 mA
51.284918870518;-0.89935302734375;-0.052276611328125;5.66999998568463;568;100 mA
51.2949188704928;-0.89935302734375;-0.05224609375;5.67999998565938;569;100 mA
51.3049188704675;-0.89996337890625;-0.052154541015625;5.68999998563413;570;100 mA
51.3149188704423;-0.899658203125;-0.05206298828125;5.69999998560888;571;100 mA
51.324918870417;-0.8990478515625;-0.05194091796875;5.70999998558364;572;100 mA
51.3349188703918;-0.89874267578125;-0.05181884765625;5.71999998555839;573;100 mA
51.3449188703665;-0.8990478515625;-0.051727294921875;5.72999998553314;574;100 mA
51.3549188703413;-0.899658203125;-0.051513671875;5.73999998550789;575;100 mA
51.364918870316;-0.89935302734375;-0.051483154296875;5.74999998548265;576;100 mA
51.3749188702908;-0.89935302734375;-0.051300048828125;5.7599999854574;577;100 mA
51.3849188702656;-0.89996337890625;-0.051239013671875;5.76999998543215;578;100 mA
51.3949188702403;-0.8990478515625;-0.05120849609375;5.7799999854069;579;100 mA
51.4049188702151;-0.89935302734375;-0.051116943359375;5.78999998538166;580;100 mA
51.4149188701898;-0.899658203125;-0.051177978515625;5.79999998535641;581;100 mA
51.4249188701646;-0.899658203125;-0.0511474609375;5.80999998533116;582;100 mA
51.4349188701393;-0.8990478515625;-0.051116943359375;5.81999998530591;583;100 mA
51.4449188701141;-0.8990478515625;-0.05120849609375;5.82999998528066;584;100 mA
51.4549188700888;-0.89874267578125;-0.05120849609375;5.83999998525542;585;100 mA
51.4649188700636;-0.89935302734375;-0.051361083984375;5.84999998523017;586;100 mA
51.4749188700383;-0.899658203125;-0.0513916015625;5.85999998520492;587;100 mA
51.4849188700131;-0.89935302734375;-0.0513916015625;5.86999998517967;588;100 mA
51.4949188699878;-0.8990478515625;-0.0513916015625;5.87999998515443;589;100 mA
51.5049188699626;-0.8990478515625;-0.051422119140625;5.88999998512918;590;100 mA
51.5149188699373;-0.89935302734375;-0.05145263671875;5.89999998510393;591;100 mA
51.5249188699121;-0.899658203125;-0.051361083984375;5.90999998507868;592;100 mA
51.5349188698868;-0.899658203125;-0.051361083984375;5.91999998505344;593;100 mA
51.5449188698616;-0.89935302734375;-0.051361083984375;5.92999998502819;594;100 mA
51.5549188698363;-0.89935302734375;-0.05126953125;5.93999998500294;595;100 mA
51.5649188698111;-0.899658203125;-0.051300048828125;5.94999998497769;596;100 mA
51.5749188697858;-0.89935302734375;-0.05120849609375;5.95999998495245;597;100 mA
51.5849188697606;-0.899658203125;-0.051300048828125;5.9699999849272;598;100 mA
51.5949188697354;-0.89935302734375;-0.0513916015625;5.97999998490195;599;100 mA
51.6049188697101;-0.89935302734375;-0.05145263671875;5.9899999848767;600;100 mA
51.6149188696849;-0.899658203125;-0.051605224609375;5.99999998485146;601;100 mA
51.6249188696596;-0.89935302734375;-0.05169677734375;6.00999998482621;602;100 mA
51.6349188696344;-0.89874267578125;-0.0517578125;6.01999998480096;603;100 mA
51.6449188696091;-0.89935302734375;-0.051849365234375;6.02999998477571;604;100 mA
51.6549188695839;-0.89935302734375;-0.0518798828125;6.03999998475047;605;100 mA
51.6649188695586;-0.89935302734375;-0.052093505859375;6.04999998472522;606;100 mA
51.6749188695334;-0.899658203125;-0.05218505859375;6.05999998469997;607;100 mA
51.6849188695081;-0.899658203125;-0.052490234375;6.06999998467472;608;100 mA
51.6949188694829;-0.899658203125;-0.0526123046875;6.07999998464948;609;100 mA
51.7049188694576;-0.89874267578125;-0.052825927734375;6.08999998462423;610;100 mA
51.7149188694324;-0.89935302734375;-0.052947998046875;6.09999998459898;611;100 mA
51.7249188694071;-0.8990478515625;-0.052978515625;6.10999998457373;612;100 mA
51.7349188693819;-0.899658203125;-0.05316162109375;6.11999998454849;613;100 mA
51.7449188693566;-0.8990478515625;-0.053253173828125;6.12999998452324;614;100 mA
51.7549188693314;-0.89935302734375;-0.053253173828125;6.13999998449799;615;100 mA
51.7649188693061;-0.89935302734375;-0.05340576171875;6.14999998447274;616;100 mA
51.7749188692809;-0.8990478515625;-0.053375244140625;6.1599999844475;617;100 mA
51.7849188692556;-0.899658203125;-0.053466796875;6.16999998442225;618;100 mA
51.7949188692304;-0.89935302734375;-0.053497314453125;6.179999984397;619;100 mA
51.8049188692052;-0.89935302734375;-0.053497314453125;6.18999998437175;620;100 mA
51.8149188691799;-0.8990478515625;-0.053497314453125;6.1999999843465;621;100 mA
51.8249188691547;-0.89874267578125;-0.053497314453125;6.20999998432126;622;100 mA
51.8349188691294;-0.899658203125;-0.053497314453125;6.21999998429601;623;100 mA
51.8449188691042;-0.89935302734375;-0.053466796875;6.22999998427076;624;100 mA
51.8549188690789;-0.89996337890625;-0.053466796875;6.23999998424551;625;100 mA
51.8649188690537;-0.8990478515625;-0.053497314453125;6.24999998422027;626;100 mA
51.8749188690284;-0.89935302734375;-0.0533447265625;6.25999998419502;627;100 mA
51.8849188690032;-0.89935302734375;-0.05328369140625;6.26999998416977;628;100 mA
51.8949188689779;-0.8990478515625;-0.0531005859375;6.27999998414452;629;100 mA
51.9049188689527;-0.89996337890625;-0.05303955078125;6.28999998411928;630;100 mA
51.9149188689274;-0.899658203125;-0.052978515625;6.29999998409403;631;100 mA
51.9249188689022;-0.89935302734375;-0.0528564453125;6.30999998406878;632;100 mA
51.9349188688769;-0.89935302734375;-0.052886962890625;6.31999998404353;633;100 mA
51.9449188688517;-0.89935302734375;-0.052886962890625;6.32999998401829;634;100 mA
51.9549188688264;-0.89935302734375;-0.052886962890625;6.33999998399304;635;100 mA
51.9649188688012;-0.8990478515625;-0.052947998046875;6.34999998396779;636;100 mA
51.9749188687759;-0.89874267578125;-0.052886962890625;6.35999998394254;637;100 mA
51.9849188687507;-0.89935302734375;-0.052947998046875;6.3699999839173;638;100 mA
51.9949188687254;-0.89935302734375;-0.052886962890625;6.37999998389205;639;100 mA
52.0049188687002;-0.8990478515625;-0.052886962890625;6.3899999838668;640;100 mA
52.014918868675;-0.89935302734375;-0.0528564453125;6.39999998384155;641;100 mA
52.0249188686497;-0.89935302734375;-0.0528564453125;6.40999998381631;642;100 mA
52.0349188686245;-0.899658203125;-0.0528564453125;6.41999998379106;643;100 mA
52.0449188685992;-0.8990478515625;-0.05279541015625;6.42999998376581;644;100 mA
52.054918868574;-0.89935302734375;-0.052825927734375;6.43999998374056;645;100 mA
52.0649188685487;-0.899658203125;-0.0528564453125;6.44999998371532;646;100 mA
52.0749188685235;-0.8990478515625;-0.052825927734375;6.45999998369007;647;100 mA
52.0849188684982;-0.89935302734375;-0.053009033203125;6.46999998366482;648;100 mA
52.094918868473;-0.8990478515625;-0.052978515625;6.47999998363957;649;100 mA
52.1049188684477;-0.899658203125;-0.0531005859375;6.48999998361433;650;100 mA
52.1149188684225;-0.899658203125;-0.05322265625;6.49999998358908;651;100 mA
52.1249188683972;-0.89935302734375;-0.05322265625;6.50999998356383;652;100 mA
52.134918868372;-0.899658203125;-0.05328369140625;6.51999998353858;653;100 mA
52.1449188683467;-0.899658203125;-0.053253173828125;6.52999998351333;654;100 mA
52.1549188683215;-0.899658203125;-0.05322265625;6.53999998348809;655;100 mA
52.1649188682962;-0.899658203125;-0.053253173828125;6.54999998346284;656;100 mA
52.174918868271;-0.89935302734375;-0.05316162109375;6.55999998343759;657;100 mA
52.1849188682457;-0.89935302734375;-0.05322265625;6.56999998341234;658;100 mA
52.1949188682205;-0.899658203125;-0.05322265625;6.5799999833871;659;100 mA
52.2049188681953;-0.8990478515625;-0.053253173828125;6.58999998336185;660;100 mA
52.21491886817;-0.8990478515625;-0.053192138671875;6.5999999833366;661;100 mA
52.2249188681448;-0.89935302734375;-0.05322265625;6.60999998331135;662;100 mA
52.2349188681195;-0.899658203125;-0.05328369140625;6.61999998328611;663;100 mA
52.2449188680943;-0.89935302734375;-0.053253173828125;6.62999998326086;664;100 mA
52.254918868069;-0.8990478515625;-0.053253173828125;6.63999998323561;665;100 mA
52.2649188680438;-0.8990478515625;-0.05328369140625;6.64999998321036;666;100 mA
52.2749188680185;-0.899658203125;-0.053314208984375;6.65999998318512;667;100 mA
52.2849188679933;-0.899658203125;-0.053466796875;6.66999998315987;668;100 mA
52.294918867968;-0.8990478515625;-0.053436279296875;6.67999998313462;669;100 mA
52.3049188679428;-0.89935302734375;-0.0535888671875;6.68999998310937;670;100 mA
52.3149188679175;-0.899658203125;-0.053680419921875;6.69999998308413;671;100 mA
52.3249188678923;-0.8990478515625;-0.05377197265625;6.70999998305888;672;100 mA
52.334918867867;-0.8990478515625;-0.053802490234375;6.71999998303363;673;100 mA
52.3449188678418;-0.89935302734375;-0.0538330078125;6.72999998300838;674;100 mA
52.3549188678165;-0.899658203125;-0.053924560546875;6.73999998298314;675;100 mA
52.3649188677913;-0.89935302734375;-0.05401611328125;6.74999998295789;676;100 mA
52.374918867766;-0.899658203125;-0.054046630859375;6.75999998293264;677;100 mA
52.3849188677408;-0.89935302734375;-0.05419921875;6.76999998290739;678;100 mA
52.3949188677155;-0.899658203125;-0.054229736328125;6.77999998288215;679;100 mA
52.4049188676903;-0.89935302734375;-0.054351806640625;6.7899999828569;680;100 mA
52.4149188676651;-0.89935302734375;-0.0543212890625;6.79999998283165;681;100 mA
52.4249188676398;-0.899658203125;-0.05438232421875;6.8099999828064;682;100 mA
52.4349188676146;-0.9002685546875;-0.054412841796875;6.81999998278116;683;100 mA
52.4449188675893;-0.89935302734375;-0.05438232421875;6.82999998275591;684;100 mA
52.4549188675641;-0.89935302734375;-0.054473876953125;6.83999998273066;685;100 mA
52.4649188675388;-0.899658203125;-0.05450439453125;6.84999998270541;686;100 mA
52.4749188675136;-0.89935302734375;-0.0545654296875;6.85999998268016;687;100 mA
52.4849188674883;-0.89874267578125;-0.054779052734375;6.86999998265492;688;100 mA
52.4949188674631;-0.89874267578125;-0.05474853515625;6.87999998262967;689;100 mA
52.5049188674378;-0.899658203125;-0.054840087890625;6.88999998260442;690;100 mA
52.5149188674126;-0.89935302734375;-0.054779052734375;6.89999998257917;691;100 mA
52.5249188673873;-0.89935302734375;-0.054779052734375;6.90999998255393;692;100 mA
52.5349188673621;-0.899658203125;-0.054718017578125;6.91999998252868;693;100 mA
52.5449188673368;-0.899658203125;-0.05462646484375;6.92999998250343;694;100 mA
52.5549188673116;-0.89935302734375;-0.05462646484375;6.93999998247818;695;100 mA
52.5649188672863;-0.899658203125;-0.0545654296875;6.94999998245294;696;100 mA
52.5749188672611;-0.89935302734375;-0.054473876953125;6.95999998242769;697;100 mA
52.5849188672358;-0.899658203125;-0.054412841796875;6.96999998240244;698;100 mA
52.5949188672106;-0.899658203125;-0.05426025390625;6.97999998237719;699;100 mA
52.6049188671853;-0.89935302734375;-0.054229736328125;6.98999998235195;700;100 mA
