Time (s);WE(1).Potential (V);WE(1).Current (A);Corrected time (s);Index;Current range
68.4534328271717;-1.0009765625;-0.3380126953125;0;1;100 mA
68.4634328271464;-0.99945068359375;-0.245819091796875;0.00999999997475243;2;100 mA
68.4734328271212;-0.99884033203125;-0.20233154296875;0.0199999999495049;3;100 mA
68.483432827096;-1.00006103515625;-0.176239013671875;0.0299999999242573;4;100 mA
68.4934328270707;-0.999755859375;-0.157562255859375;0.0399999998990097;5;100 mA
68.5034328270455;-0.999755859375;-0.1439208984375;0.0499999998737621;6;100 mA
68.5134328270202;-0.99945068359375;-0.133331298828125;0.0599999998485146;7;100 mA
68.523432826995;-0.9991455078125;-0.1251220703125;0.069999999823267;8;100 mA
68.5334328269697;-0.9991455078125;-0.117950439453125;0.0799999997980194;9;100 mA
68.5434328269445;-0.99945068359375;-0.111968994140625;0.0899999997727718;10;100 mA
68.5534328269192;-0.9991455078125;-0.106964111328125;0.0999999997475243;11;100 mA
68.563432826894;-0.999755859375;-0.10272216796875;0.109999999722277;12;100 mA
68.5734328268687;-0.99945068359375;-0.098785400390625;0.119999999697029;13;100 mA
68.5834328268435;-0.99945068359375;-0.0953369140625;0.129999999671782;14;100 mA
68.5934328268182;-0.9991455078125;-0.092315673828125;0.139999999646534;15;100 mA
68.603432826793;-0.99945068359375;-0.08978271484375;0.149999999621286;16;100 mA
68.6134328267677;-0.99884033203125;-0.087188720703125;0.159999999596039;17;100 mA
68.6234328267425;-0.9991455078125;-0.0849609375;0.169999999570791;18;100 mA
68.6334328267172;-0.999755859375;-0.0830078125;0.179999999545544;19;100 mA
68.643432826692;-0.9991455078125;-0.081298828125;0.189999999520296;20;100 mA
68.6534328266667;-0.99884033203125;-0.07952880859375;0.199999999495049;21;100 mA
68.6634328266415;-0.999755859375;-0.077972412109375;0.209999999469801;22;100 mA
68.6734328266162;-0.99945068359375;-0.07659912109375;0.219999999444553;23;100 mA
68.683432826591;-0.99945068359375;-0.07537841796875;0.229999999419306;24;100 mA
68.6934328265658;-0.99945068359375;-0.07403564453125;0.239999999394058;25;100 mA
68.7034328265405;-1.00006103515625;-0.072998046875;0.249999999368811;26;100 mA
68.7134328265153;-0.9991455078125;-0.071929931640625;0.259999999343563;27;100 mA
68.72343282649;-0.9991455078125;-0.071075439453125;0.269999999318316;28;100 mA
68.7334328264648;-0.9991455078125;-0.07000732421875;0.279999999293068;29;100 mA
68.7434328264395;-0.99945068359375;-0.06915283203125;0.28999999926782;30;100 mA
68.7534328264143;-0.999755859375;-0.068389892578125;0.299999999242573;31;100 mA
68.763432826389;-0.99945068359375;-0.067596435546875;0.309999999217325;32;100 mA
68.7734328263638;-0.999755859375;-0.0667724609375;0.319999999192078;33;100 mA
68.7834328263385;-0.99945068359375;-0.06610107421875;0.32999999916683;34;100 mA
68.7934328263133;-1.0003662109375;-0.065460205078125;0.339999999141583;35;100 mA
68.803432826288;-0.99945068359375;-0.064971923828125;0.349999999116335;36;100 mA
68.8134328262628;-0.999755859375;-0.064239501953125;0.359999999091087;37;100 mA
68.8234328262375;-0.999755859375;-0.06378173828125;0.36999999906584;38;100 mA
68.8334328262123;-0.99945068359375;-0.063323974609375;0.379999999040592;39;100 mA
68.843432826187;-0.99945068359375;-0.0628662109375;0.389999999015345;40;100 mA
68.8534328261618;-0.99945068359375;-0.062347412109375;0.399999998990097;41;100 mA
68.8634328261365;-0.99884033203125;-0.06195068359375;0.40999999896485;42;100 mA
68.8734328261113;-0.9991455078125;-0.061676025390625;0.419999998939602;43;100 mA
68.8834328260861;-0.9991455078125;-0.061309814453125;0.429999998914354;44;100 mA
68.8934328260608;-0.9991455078125;-0.060760498046875;0.439999998889107;45;100 mA
68.9034328260356;-0.99945068359375;-0.060455322265625;0.449999998863859;46;100 mA
68.9134328260103;-0.99884033203125;-0.06005859375;0.459999998838612;47;100 mA
68.9234328259851;-0.999755859375;-0.059906005859375;0.469999998813364;48;100 mA
68.9334328259598;-0.999755859375;-0.0594482421875;0.479999998788116;49;100 mA
68.9434328259346;-0.99945068359375;-0.05926513671875;0.489999998762869;50;100 mA
68.9534328259093;-0.99945068359375;-0.059112548828125;0.499999998737621;51;100 mA
68.9634328258841;-0.9991455078125;-0.05889892578125;0.509999998712374;52;100 mA
68.9734328258588;-0.99945068359375;-0.05853271484375;0.519999998687126;53;100 mA
68.9834328258336;-0.9991455078125;-0.058319091796875;0.529999998661879;54;100 mA
68.9934328258083;-1.00006103515625;-0.05810546875;0.539999998636631;55;100 mA
69.0034328257831;-0.999755859375;-0.057952880859375;0.549999998611383;56;100 mA
69.0134328257578;-0.99945068359375;-0.057525634765625;0.559999998586136;57;100 mA
69.0234328257326;-0.9991455078125;-0.057403564453125;0.569999998560888;58;100 mA
69.0334328257073;-0.9991455078125;-0.05718994140625;0.579999998535641;59;100 mA
69.0434328256821;-0.99945068359375;-0.0570068359375;0.589999998510393;60;100 mA
69.0534328256568;-0.9991455078125;-0.05657958984375;0.599999998485146;61;100 mA
69.0634328256316;-0.99945068359375;-0.0562744140625;0.609999998459898;62;100 mA
69.0734328256063;-0.9991455078125;-0.056121826171875;0.61999999843465;63;100 mA
69.0834328255811;-0.999755859375;-0.055908203125;0.629999998409403;64;100 mA
69.0934328255559;-0.9991455078125;-0.05560302734375;0.639999998384155;65;100 mA
69.1034328255306;-0.9991455078125;-0.055572509765625;0.649999998358908;66;100 mA
69.1134328255054;-0.99945068359375;-0.05548095703125;0.65999999833366;67;100 mA
69.1234328254801;-0.9991455078125;-0.055511474609375;0.669999998308413;68;100 mA
69.1334328254549;-0.99945068359375;-0.055206298828125;0.679999998283165;69;100 mA
69.1434328254296;-0.9991455078125;-0.055084228515625;0.689999998257917;70;100 mA
69.1534328254044;-0.999755859375;-0.05499267578125;0.69999999823267;71;100 mA
69.1634328253791;-0.99945068359375;-0.054901123046875;0.709999998207422;72;100 mA
69.1734328253539;-0.99945068359375;-0.054656982421875;0.719999998182175;73;100 mA
69.1834328253286;-0.9991455078125;-0.0545654296875;0.729999998156927;74;100 mA
69.1934328253034;-0.99945068359375;-0.0545654296875;0.73999999813168;75;100 mA
69.2034328252781;-0.999755859375;-0.05450439453125;0.749999998106432;76;100 mA
69.2134328252529;-0.99945068359375;-0.054168701171875;0.759999998081184;77;100 mA
69.2234328252276;-1.00006103515625;-0.0540771484375;0.769999998055937;78;100 mA
69.2334328252024;-0.9991455078125;-0.053863525390625;0.779999998030689;79;100 mA
69.2434328251771;-0.99945068359375;-0.05377197265625;0.789999998005442;80;100 mA
69.2534328251519;-0.9991455078125;-0.05352783203125;0.799999997980194;81;100 mA
69.2634328251266;-0.9991455078125;-0.05340576171875;0.809999997954947;82;100 mA
69.2734328251014;-0.99945068359375;-0.053466796875;0.819999997929699;83;100 mA
69.2834328250761;-0.99945068359375;-0.05340576171875;0.829999997904451;84;100 mA
69.2934328250509;-0.99945068359375;-0.05322265625;0.839999997879204;85;100 mA
69.3034328250257;-0.99884033203125;-0.05316162109375;0.849999997853956;86;100 mA
69.3134328250004;-0.999755859375;-0.053070068359375;0.859999997828709;87;100 mA
69.3234328249752;-0.99945068359375;-0.053070068359375;0.869999997803461;88;100 mA
69.3334328249499;-0.99945068359375;-0.052764892578125;0.879999997778214;89;100 mA
69.3434328249247;-0.99945068359375;-0.05267333984375;0.889999997752966;90;100 mA
69.3534328248994;-0.99884033203125;-0.0526123046875;0.899999997727718;91;100 mA
69.3634328248742;-0.99945068359375;-0.052520751953125;0.909999997702471;92;100 mA
69.3734328248489;-0.99884033203125;-0.05224609375;0.919999997677223;93;100 mA
69.3834328248237;-0.99945068359375;-0.052093505859375;0.929999997651976;94;100 mA
69.3934328247984;-0.9991455078125;-0.05206298828125;0.939999997626728;95;100 mA
69.4034328247732;-0.999755859375;-0.051971435546875;0.949999997601481;96;100 mA
69.4134328247479;-0.9991455078125;-0.05169677734375;0.959999997576233;97;100 mA
69.4234328247227;-0.9991455078125;-0.051666259765625;0.969999997550985;98;100 mA
69.4334328246974;-0.9991455078125;-0.051605224609375;0.979999997525738;99;100 mA
69.4434328246722;-0.99945068359375;-0.0516357421875;0.98999999750049;100;100 mA
69.4534328246469;-0.99945068359375;-0.05145263671875;0.999999997475243;101;100 mA
69.4634328246217;-0.9991455078125;-0.051422119140625;1.00999999745;102;100 mA
69.4734328245964;-0.999755859375;-0.05145263671875;1.01999999742475;103;100 mA
69.4834328245712;-0.9991455078125;-0.05145263671875;1.0299999973995;104;100 mA
69.4934328245459;-0.99945068359375;-0.05126953125;1.03999999737425;105;100 mA
69.5034328245207;-0.9991455078125;-0.051239013671875;1.049999997349;106;100 mA
69.5134328244955;-0.99945068359375;-0.051239013671875;1.05999999732376;107;100 mA
69.5234328244702;-0.99945068359375;-0.051361083984375;1.06999999729851;108;100 mA
69.533432824445;-0.9991455078125;-0.051177978515625;1.07999999727326;109;100 mA
69.5434328244197;-0.999755859375;-0.051177978515625;1.08999999724801;110;100 mA
69.5534328243945;-0.99884033203125;-0.0511474609375;1.09999999722277;111;100 mA
69.5634328243692;-0.999755859375;-0.05120849609375;1.10999999719752;112;100 mA
69.573432824344;-0.99884033203125;-0.0511474609375;1.11999999717227;113;100 mA
69.5834328243187;-0.9991455078125;-0.0511474609375;1.12999999714702;114;100 mA
69.5934328242935;-0.999755859375;-0.05133056640625;1.13999999712178;115;100 mA
69.6034328242682;-0.999755859375;-0.05145263671875;1.14999999709653;116;100 mA
69.613432824243;-0.999755859375;-0.05133056640625;1.15999999707128;117;100 mA
69.6234328242177;-0.99945068359375;-0.05145263671875;1.16999999704603;118;100 mA
69.6334328241925;-0.9991455078125;-0.05145263671875;1.17999999702079;119;100 mA
69.6434328241672;-0.99945068359375;-0.05157470703125;1.18999999699554;120;100 mA
69.653432824142;-0.99945068359375;-0.0513916015625;1.19999999697029;121;100 mA
69.6634328241167;-0.99945068359375;-0.051361083984375;1.20999999694504;122;100 mA
69.6734328240915;-0.99945068359375;-0.051361083984375;1.2199999969198;123;100 mA
69.6834328240662;-0.999755859375;-0.051361083984375;1.22999999689455;124;100 mA
69.693432824041;-0.99945068359375;-0.051177978515625;1.2399999968693;125;100 mA
69.7034328240157;-0.999755859375;-0.051055908203125;1.24999999684405;126;100 mA
69.7134328239905;-0.9991455078125;-0.051055908203125;1.25999999681881;127;100 mA
69.7234328239653;-0.999755859375;-0.05108642578125;1.26999999679356;128;100 mA
69.73343282394;-0.99945068359375;-0.050872802734375;1.27999999676831;129;100 mA
69.7434328239148;-0.99945068359375;-0.0509033203125;1.28999999674306;130;100 mA
69.7534328238895;-0.9991455078125;-0.05084228515625;1.29999999671782;131;100 mA
69.7634328238643;-0.9991455078125;-0.050933837890625;1.30999999669257;132;100 mA
69.773432823839;-0.9991455078125;-0.05084228515625;1.31999999666732;133;100 mA
69.7834328238138;-0.99945068359375;-0.050750732421875;1.32999999664207;134;100 mA
69.7934328237885;-0.9991455078125;-0.05084228515625;1.33999999661683;135;100 mA
69.8034328237633;-0.99945068359375;-0.050933837890625;1.34999999659158;136;100 mA
69.813432823738;-0.99945068359375;-0.05084228515625;1.35999999656633;137;100 mA
69.8234328237128;-0.99945068359375;-0.05096435546875;1.36999999654108;138;100 mA
69.8334328236875;-0.999755859375;-0.051055908203125;1.37999999651583;139;100 mA
69.8434328236623;-0.999755859375;-0.05120849609375;1.38999999649059;140;100 mA
69.853432823637;-0.99945068359375;-0.050994873046875;1.39999999646534;141;100 mA
69.8634328236118;-0.999755859375;-0.050994873046875;1.40999999644009;142;100 mA
69.8734328235865;-0.9991455078125;-0.05096435546875;1.41999999641484;143;100 mA
69.8834328235613;-0.99945068359375;-0.051055908203125;1.4299999963896;144;100 mA
69.893432823536;-0.99945068359375;-0.05096435546875;1.43999999636435;145;100 mA
69.9034328235108;-0.99945068359375;-0.050933837890625;1.4499999963391;146;100 mA
69.9134328234856;-0.99945068359375;-0.05096435546875;1.45999999631385;147;100 mA
69.9234328234603;-0.999755859375;-0.051025390625;1.46999999628861;148;100 mA
69.9334328234351;-0.9991455078125;-0.05078125;1.47999999626336;149;100 mA
69.9434328234098;-0.9991455078125;-0.05072021484375;1.48999999623811;150;100 mA
69.9534328233846;-0.999755859375;-0.0506591796875;1.49999999621286;151;100 mA
69.9634328233593;-0.9991455078125;-0.0506591796875;1.50999999618762;152;100 mA
69.9734328233341;-0.99945068359375;-0.05047607421875;1.51999999616237;153;100 mA
69.9834328233088;-0.9991455078125;-0.050384521484375;1.52999999613712;154;100 mA
69.9934328232836;-0.99945068359375;-0.0504150390625;1.53999999611187;155;100 mA
70.0034328232583;-0.99945068359375;-0.050506591796875;1.54999999608663;156;100 mA
70.0134328232331;-0.999755859375;-0.050384521484375;1.55999999606138;157;100 mA
70.0234328232078;-0.999755859375;-0.05035400390625;1.56999999603613;158;100 mA
70.0334328231826;-0.9991455078125;-0.0504150390625;1.57999999601088;159;100 mA
70.0434328231573;-0.99945068359375;-0.050567626953125;1.58999999598564;160;100 mA
70.0534328231321;-0.99945068359375;-0.05047607421875;1.59999999596039;161;100 mA
70.0634328231068;-0.9991455078125;-0.050628662109375;1.60999999593514;162;100 mA
70.0734328230816;-0.99945068359375;-0.050811767578125;1.61999999590989;163;100 mA
70.0834328230563;-0.9991455078125;-0.051116943359375;1.62999999588465;164;100 mA
70.0934328230311;-0.9991455078125;-0.051116943359375;1.6399999958594;165;100 mA
70.1034328230058;-0.999755859375;-0.0511474609375;1.64999999583415;166;100 mA
70.1134328229806;-0.99945068359375;-0.05126953125;1.6599999958089;167;100 mA
70.1234328229554;-0.99853515625;-0.0513916015625;1.66999999578366;168;100 mA
70.1334328229301;-0.99945068359375;-0.05126953125;1.67999999575841;169;100 mA
70.1434328229049;-0.999755859375;-0.05133056640625;1.68999999573316;170;100 mA
70.1534328228796;-0.999755859375;-0.05145263671875;1.69999999570791;171;100 mA
70.1634328228544;-1.00006103515625;-0.0516357421875;1.70999999568267;172;100 mA
70.1734328228291;-0.99945068359375;-0.051513671875;1.71999999565742;173;100 mA
70.1834328228039;-0.9991455078125;-0.05145263671875;1.72999999563217;174;100 mA
70.1934328227786;-0.99945068359375;-0.051422119140625;1.73999999560692;175;100 mA
70.2034328227534;-0.99945068359375;-0.0513916015625;1.74999999558167;176;100 mA
70.2134328227281;-0.99945068359375;-0.05120849609375;1.75999999555643;177;100 mA
70.2234328227029;-0.999755859375;-0.05108642578125;1.76999999553118;178;100 mA
70.2334328226776;-0.9991455078125;-0.05108642578125;1.77999999550593;179;100 mA
70.2434328226524;-0.99945068359375;-0.051239013671875;1.78999999548068;180;100 mA
70.2534328226271;-0.99945068359375;-0.051055908203125;1.79999999545544;181;100 mA
70.2634328226019;-0.9991455078125;-0.0511474609375;1.80999999543019;182;100 mA
70.2734328225766;-0.9991455078125;-0.051177978515625;1.81999999540494;183;100 mA
70.2834328225514;-0.9991455078125;-0.051361083984375;1.82999999537969;184;100 mA
70.2934328225261;-0.99945068359375;-0.051361083984375;1.83999999535445;185;100 mA
70.3034328225009;-0.9991455078125;-0.051422119140625;1.8499999953292;186;100 mA
70.3134328224756;-0.999755859375;-0.051605224609375;1.85999999530395;187;100 mA
70.3234328224504;-0.9991455078125;-0.05181884765625;1.8699999952787;188;100 mA
70.3334328224252;-0.9991455078125;-0.051788330078125;1.87999999525346;189;100 mA
70.3434328223999;-0.999755859375;-0.051849365234375;1.88999999522821;190;100 mA
70.3534328223747;-0.9991455078125;-0.051910400390625;1.89999999520296;191;100 mA
70.3634328223494;-0.99945068359375;-0.0521240234375;1.90999999517771;192;100 mA
70.3734328223242;-0.99945068359375;-0.052032470703125;1.91999999515247;193;100 mA
70.3834328222989;-0.9991455078125;-0.052154541015625;1.92999999512722;194;100 mA
70.3934328222737;-0.9991455078125;-0.05224609375;1.93999999510197;195;100 mA
70.4034328222484;-0.999755859375;-0.052398681640625;1.94999999507672;196;100 mA
70.4134328222232;-0.999755859375;-0.0523681640625;1.95999999505148;197;100 mA
70.4234328221979;-0.9991455078125;-0.052398681640625;1.96999999502623;198;100 mA
70.4334328221727;-0.99945068359375;-0.052490234375;1.97999999500098;199;100 mA
70.4434328221474;-0.99945068359375;-0.0526123046875;1.98999999497573;200;100 mA
70.4534328221222;-0.999755859375;-0.052490234375;1.99999999495049;201;100 mA
70.4634328220969;-0.9991455078125;-0.052520751953125;2.00999999492524;202;100 mA
70.4734328220717;-0.9991455078125;-0.052459716796875;2.01999999489999;203;100 mA
70.4834328220464;-0.9991455078125;-0.05255126953125;2.02999999487474;204;100 mA
70.4934328220212;-0.999755859375;-0.0523681640625;2.0399999948495;205;100 mA
70.5034328219959;-0.999755859375;-0.052337646484375;2.04999999482425;206;100 mA
70.5134328219707;-0.99945068359375;-0.05242919921875;2.059999994799;207;100 mA
70.5234328219454;-0.99945068359375;-0.05255126953125;2.06999999477375;208;100 mA
70.5334328219202;-0.9991455078125;-0.052520751953125;2.0799999947485;209;100 mA
70.543432821895;-0.99945068359375;-0.05255126953125;2.08999999472326;210;100 mA
70.5534328218697;-0.99884033203125;-0.05255126953125;2.09999999469801;211;100 mA
70.5634328218445;-0.999755859375;-0.052703857421875;2.10999999467276;212;100 mA
70.5734328218192;-0.9991455078125;-0.052490234375;2.11999999464751;213;100 mA
70.583432821794;-0.9991455078125;-0.05255126953125;2.12999999462227;214;100 mA
70.5934328217687;-0.9991455078125;-0.0526123046875;2.13999999459702;215;100 mA
70.6034328217435;-0.9991455078125;-0.052764892578125;2.14999999457177;216;100 mA
70.6134328217182;-0.999755859375;-0.052734375;2.15999999454652;217;100 mA
70.623432821693;-0.99884033203125;-0.052734375;2.16999999452128;218;100 mA
70.6334328216677;-0.99945068359375;-0.052825927734375;2.17999999449603;219;100 mA
70.6434328216425;-0.99945068359375;-0.052947998046875;2.18999999447078;220;100 mA
70.6534328216172;-0.99945068359375;-0.0528564453125;2.19999999444553;221;100 mA
70.663432821592;-0.99945068359375;-0.052947998046875;2.20999999442029;222;100 mA
70.6734328215667;-0.99884033203125;-0.053009033203125;2.21999999439504;223;100 mA
70.6834328215415;-0.99945068359375;-0.05322265625;2.22999999436979;224;100 mA
70.6934328215162;-0.99945068359375;-0.053131103515625;2.23999999434454;225;100 mA
70.703432821491;-0.9991455078125;-0.053192138671875;2.2499999943193;226;100 mA
70.7134328214657;-0.99945068359375;-0.053253173828125;2.25999999429405;227;100 mA
70.7234328214405;-0.99945068359375;-0.053375244140625;2.2699999942688;228;100 mA
70.7334328214152;-1.00006103515625;-0.053314208984375;2.27999999424355;229;100 mA
70.74343282139;-0.99945068359375;-0.053314208984375;2.28999999421831;230;100 mA
70.7534328213648;-0.9991455078125;-0.053314208984375;2.29999999419306;231;100 mA
70.7634328213395;-0.999755859375;-0.053497314453125;2.30999999416781;232;100 mA
70.7734328213143;-1.00006103515625;-0.05328369140625;2.31999999414256;233;100 mA
70.783432821289;-0.99945068359375;-0.053314208984375;2.32999999411732;234;100 mA
70.7934328212638;-0.999755859375;-0.053253173828125;2.33999999409207;235;100 mA
70.8034328212385;-0.99945068359375;-0.053314208984375;2.34999999406682;236;100 mA
70.8134328212133;-0.99945068359375;-0.05316162109375;2.35999999404157;237;100 mA
70.823432821188;-0.9991455078125;-0.0531005859375;2.36999999401633;238;100 mA
70.8334328211628;-0.99945068359375;-0.053131103515625;2.37999999399108;239;100 mA
70.8434328211375;-0.999755859375;-0.05322265625;2.38999999396583;240;100 mA
70.8534328211123;-0.99945068359375;-0.0531005859375;2.39999999394058;241;100 mA
70.863432821087;-0.99945068359375;-0.0531005859375;2.40999999391533;242;100 mA
70.8734328210618;-0.99945068359375;-0.053070068359375;2.41999999389009;243;100 mA
70.8834328210365;-0.999755859375;-0.05322265625;2.42999999386484;244;100 mA
70.8934328210113;-0.9991455078125;-0.053070068359375;2.43999999383959;245;100 mA
70.903432820986;-0.99884033203125;-0.053131103515625;2.44999999381434;246;100 mA
70.9134328209608;-0.999755859375;-0.05316162109375;2.4599999937891;247;100 mA
70.9234328209355;-0.99945068359375;-0.053253173828125;2.46999999376385;248;100 mA
70.9334328209103;-0.9991455078125;-0.05322265625;2.4799999937386;249;100 mA
70.9434328208851;-0.9991455078125;-0.053192138671875;2.48999999371335;250;100 mA
70.9534328208598;-0.9991455078125;-0.05322265625;2.49999999368811;251;100 mA
70.9634328208346;-0.999755859375;-0.053314208984375;2.50999999366286;252;100 mA
70.9734328208093;-1.00006103515625;-0.0531005859375;2.51999999363761;253;100 mA
70.9834328207841;-0.99945068359375;-0.053192138671875;2.52999999361236;254;100 mA
70.9934328207588;-0.999755859375;-0.053192138671875;2.53999999358712;255;100 mA
71.0034328207336;-0.999755859375;-0.053436279296875;2.54999999356187;256;100 mA
71.0134328207083;-0.99945068359375;-0.053436279296875;2.55999999353662;257;100 mA
71.0234328206831;-0.99945068359375;-0.053558349609375;2.56999999351137;258;100 mA
71.0334328206578;-0.999755859375;-0.053741455078125;2.57999999348613;259;100 mA
71.0434328206326;-0.99884033203125;-0.053924560546875;2.58999999346088;260;100 mA
71.0534328206073;-0.999755859375;-0.053924560546875;2.59999999343563;261;100 mA
71.0634328205821;-1.00006103515625;-0.05401611328125;2.60999999341038;262;100 mA
71.0734328205568;-0.999755859375;-0.054107666015625;2.61999999338514;263;100 mA
71.0834328205316;-0.99945068359375;-0.05438232421875;2.62999999335989;264;100 mA
71.0934328205063;-0.999755859375;-0.05426025390625;2.63999999333464;265;100 mA
71.1034328204811;-0.99945068359375;-0.054443359375;2.64999999330939;266;100 mA
71.1134328204558;-0.99945068359375;-0.05450439453125;2.65999999328415;267;100 mA
71.1234328204306;-0.99945068359375;-0.0546875;2.6699999932589;268;100 mA
71.1334328204053;-0.99945068359375;-0.054595947265625;2.67999999323365;269;100 mA
71.1434328203801;-0.99945068359375;-0.0545654296875;2.6899999932084;270;100 mA
71.1534328203549;-0.99945068359375;-0.054595947265625;2.69999999318316;271;100 mA
71.1634328203296;-0.99945068359375;-0.054595947265625;2.70999999315791;272;100 mA
71.1734328203044;-0.99945068359375;-0.05438232421875;2.71999999313266;273;100 mA
71.1834328202791;-0.9991455078125;-0.054412841796875;2.72999999310741;274;100 mA
71.1934328202539;-0.999755859375;-0.054290771484375;2.73999999308217;275;100 mA
71.2034328202286;-0.99945068359375;-0.054412841796875;2.74999999305692;276;100 mA
71.2134328202034;-0.999755859375;-0.054168701171875;2.75999999303167;277;100 mA
71.2234328201781;-0.999755859375;-0.054107666015625;2.76999999300642;278;100 mA
71.2334328201529;-0.9991455078125;-0.054046630859375;2.77999999298117;279;100 mA
71.2434328201276;-0.999755859375;-0.05401611328125;2.78999999295593;280;100 mA
71.2534328201024;-0.99945068359375;-0.0538330078125;2.79999999293068;281;100 mA
71.2634328200771;-0.99945068359375;-0.05377197265625;2.80999999290543;282;100 mA
71.2734328200519;-0.9991455078125;-0.053741455078125;2.81999999288018;283;100 mA
71.2834328200266;-0.9991455078125;-0.05389404296875;2.82999999285494;284;100 mA
71.2934328200014;-0.999755859375;-0.053680419921875;2.83999999282969;285;100 mA
71.3034328199761;-0.9991455078125;-0.053741455078125;2.84999999280444;286;100 mA
71.3134328199509;-0.999755859375;-0.05364990234375;2.85999999277919;287;100 mA
71.3234328199256;-0.9991455078125;-0.05377197265625;2.86999999275395;288;100 mA
71.3334328199004;-1.00006103515625;-0.0535888671875;2.8799999927287;289;100 mA
71.3434328198751;-0.999755859375;-0.053436279296875;2.88999999270345;290;100 mA
71.3534328198499;-0.99945068359375;-0.053497314453125;2.8999999926782;291;100 mA
71.3634328198247;-0.99945068359375;-0.053497314453125;2.90999999265296;292;100 mA
71.3734328197994;-0.9991455078125;-0.05328369140625;2.91999999262771;293;100 mA
71.3834328197742;-0.99945068359375;-0.05328369140625;2.92999999260246;294;100 mA
71.3934328197489;-0.999755859375;-0.05316162109375;2.93999999257721;295;100 mA
71.4034328197237;-0.99945068359375;-0.053375244140625;2.94999999255197;296;100 mA
71.4134328196984;-0.99945068359375;-0.053192138671875;2.95999999252672;297;100 mA
71.4234328196732;-0.999755859375;-0.05322265625;2.96999999250147;298;100 mA
71.4334328196479;-0.999755859375;-0.05328369140625;2.97999999247622;299;100 mA
71.4434328196227;-0.99945068359375;-0.05340576171875;2.98999999245098;300;100 mA
71.4534328195974;-0.99945068359375;-0.0533447265625;2.99999999242573;301;100 mA
71.4634328195722;-0.99945068359375;-0.05328369140625;3.00999999240048;302;100 mA
71.4734328195469;-0.999755859375;-0.05328369140625;3.01999999237523;303;100 mA
71.4834328195217;-0.9991455078125;-0.053375244140625;3.02999999234999;304;100 mA
71.4934328194964;-0.99945068359375;-0.05322265625;3.03999999232474;305;100 mA
71.5034328194712;-0.9991455078125;-0.0533447265625;3.04999999229949;306;100 mA
71.5134328194459;-0.999755859375;-0.053314208984375;3.05999999227424;307;100 mA
71.5234328194207;-1.00006103515625;-0.053558349609375;3.069999992249;308;100 mA
71.5334328193954;-1.00006103515625;-0.053436279296875;3.07999999222375;309;100 mA
71.5434328193702;-0.99945068359375;-0.0533447265625;3.0899999921985;310;100 mA
71.5534328193449;-0.9991455078125;-0.053375244140625;3.09999999217325;311;100 mA
71.5634328193197;-0.9991455078125;-0.053375244140625;3.109999992148;312;100 mA
71.5734328192945;-0.99945068359375;-0.053253173828125;3.11999999212276;313;100 mA
71.5834328192692;-0.99945068359375;-0.053314208984375;3.12999999209751;314;100 mA
71.593432819244;-0.9991455078125;-0.05328369140625;3.13999999207226;315;100 mA
71.6034328192187;-0.99945068359375;-0.053466796875;3.14999999204701;316;100 mA
71.6134328191935;-0.999755859375;-0.053253173828125;3.15999999202177;317;100 mA
71.6234328191682;-0.9991455078125;-0.053253173828125;3.16999999199652;318;100 mA
71.633432819143;-0.999755859375;-0.05322265625;3.17999999197127;319;100 mA
71.6434328191177;-0.99945068359375;-0.053253173828125;3.18999999194602;320;100 mA
71.6534328190925;-1.00006103515625;-0.05316162109375;3.19999999192078;321;100 mA
71.6634328190672;-0.9991455078125;-0.053070068359375;3.20999999189553;322;100 mA
71.673432819042;-0.999755859375;-0.053070068359375;3.21999999187028;323;100 mA
71.6834328190167;-0.99945068359375;-0.0531005859375;3.22999999184503;324;100 mA
71.6934328189915;-0.99945068359375;-0.052825927734375;3.23999999181979;325;100 mA
71.7034328189662;-0.99945068359375;-0.052825927734375;3.24999999179454;326;100 mA
71.713432818941;-0.99945068359375;-0.0526123046875;3.25999999176929;327;100 mA
71.7234328189157;-0.99945068359375;-0.052642822265625;3.26999999174404;328;100 mA
71.7334328188905;-0.999755859375;-0.052398681640625;3.2799999917188;329;100 mA
71.7434328188652;-0.9991455078125;-0.05230712890625;3.28999999169355;330;100 mA
71.75343281884;-0.99945068359375;-0.052276611328125;3.2999999916683;331;100 mA
71.7634328188147;-0.9991455078125;-0.05230712890625;3.30999999164305;332;100 mA
71.7734328187895;-0.99945068359375;-0.0521240234375;3.31999999161781;333;100 mA
71.7834328187643;-0.99945068359375;-0.05206298828125;3.32999999159256;334;100 mA
71.793432818739;-0.99945068359375;-0.05194091796875;3.33999999156731;335;100 mA
71.8034328187138;-0.99945068359375;-0.052032470703125;3.34999999154206;336;100 mA
71.8134328186885;-0.99945068359375;-0.0517578125;3.35999999151682;337;100 mA
71.8234328186633;-0.9991455078125;-0.051788330078125;3.36999999149157;338;100 mA
71.833432818638;-0.999755859375;-0.05169677734375;3.37999999146632;339;100 mA
71.8434328186128;-0.99945068359375;-0.051788330078125;3.38999999144107;340;100 mA
71.8534328185875;-0.99945068359375;-0.05157470703125;3.39999999141583;341;100 mA
71.8634328185623;-0.9991455078125;-0.0513916015625;3.40999999139058;342;100 mA
71.873432818537;-0.9991455078125;-0.051422119140625;3.41999999136533;343;100 mA
71.8834328185118;-0.9991455078125;-0.05133056640625;3.42999999134008;344;100 mA
71.8934328184865;-0.99945068359375;-0.051116943359375;3.43999999131483;345;100 mA
71.9034328184613;-0.99945068359375;-0.051177978515625;3.44999999128959;346;100 mA
71.913432818436;-0.99945068359375;-0.05108642578125;3.45999999126434;347;100 mA
71.9234328184108;-0.99945068359375;-0.05120849609375;3.46999999123909;348;100 mA
71.9334328183855;-1.00006103515625;-0.05096435546875;3.47999999121384;349;100 mA
71.9434328183603;-0.99884033203125;-0.05084228515625;3.4899999911886;350;100 mA
71.953432818335;-0.99945068359375;-0.050811767578125;3.49999999116335;351;100 mA
71.9634328183098;-0.999755859375;-0.05084228515625;3.5099999911381;352;100 mA
71.9734328182846;-0.99945068359375;-0.050750732421875;3.51999999111285;353;100 mA
71.9834328182593;-0.9991455078125;-0.0506591796875;3.52999999108761;354;100 mA
71.9934328182341;-0.999755859375;-0.050628662109375;3.53999999106236;355;100 mA
72.0034328182088;-0.999755859375;-0.050689697265625;3.54999999103711;356;100 mA
72.0134328181836;-0.99945068359375;-0.05035400390625;3.55999999101186;357;100 mA
72.0234328181583;-1.00006103515625;-0.05023193359375;3.56999999098662;358;100 mA
72.0334328181331;-0.9991455078125;-0.050018310546875;3.57999999096137;359;100 mA
72.0434328181078;-0.99945068359375;-0.050048828125;3.58999999093612;360;100 mA
72.0534328180826;-0.9991455078125;-0.0499267578125;3.59999999091087;361;100 mA
72.0634328180573;-0.999755859375;-0.049774169921875;3.60999999088563;362;100 mA
72.0734328180321;-0.9991455078125;-0.049896240234375;3.61999999086038;363;100 mA
72.0834328180068;-0.99945068359375;-0.04986572265625;3.62999999083513;364;100 mA
72.0934328179816;-0.9991455078125;-0.049652099609375;3.63999999080988;365;100 mA
72.1034328179563;-0.99945068359375;-0.049591064453125;3.64999999078464;366;100 mA
72.1134328179311;-0.99945068359375;-0.049468994140625;3.65999999075939;367;100 mA
72.1234328179058;-0.99945068359375;-0.049560546875;3.66999999073414;368;100 mA
72.1334328178806;-0.999755859375;-0.049346923828125;3.67999999070889;369;100 mA
72.1434328178553;-0.9991455078125;-0.049365234375;3.68999999068365;370;100 mA
72.1534328178301;-0.9991455078125;-0.049407958984375;3.6999999906584;371;100 mA
72.1634328178048;-0.99945068359375;-0.0494873046875;3.70999999063315;372;100 mA
72.1734328177796;-0.99945068359375;-0.04937744140625;3.7199999906079;373;100 mA
72.1834328177544;-0.9991455078125;-0.0492431640625;3.72999999058266;374;100 mA
72.1934328177291;-0.99945068359375;-0.049261474609375;3.73999999055741;375;100 mA
72.2034328177039;-0.99945068359375;-0.0493988037109375;3.74999999053216;376;100 mA
72.2134328176786;-0.99945068359375;-0.049224853515625;3.75999999050691;377;100 mA
72.2234328176534;-0.99945068359375;-0.0493408203125;3.76999999048167;378;100 mA
72.2334328176281;-0.9991455078125;-0.0492889404296875;3.77999999045642;379;100 mA
72.2434328176029;-0.9991455078125;-0.049530029296875;3.78999999043117;380;100 mA
72.2534328175776;-0.99945068359375;-0.049468994140625;3.79999999040592;381;100 mA
72.2634328175524;-0.99945068359375;-0.049456787109375;3.80999999038067;382;100 mA
72.2734328175271;-0.99945068359375;-0.049530029296875;3.81999999035543;383;100 mA
72.2834328175019;-0.99945068359375;-0.049713134765625;3.82999999033018;384;100 mA
72.2934328174766;-0.999755859375;-0.049652099609375;3.83999999030493;385;100 mA
72.3034328174514;-0.99945068359375;-0.049652099609375;3.84999999027968;386;100 mA
72.3134328174261;-0.99945068359375;-0.049560546875;3.85999999025444;387;100 mA
72.3234328174009;-0.99945068359375;-0.0496826171875;3.86999999022919;388;100 mA
72.3334328173756;-0.999755859375;-0.04937744140625;3.87999999020394;389;100 mA
72.3434328173504;-0.99945068359375;-0.049334716796875;3.88999999017869;390;100 mA
72.3534328173251;-0.999755859375;-0.049224853515625;3.89999999015345;391;100 mA
72.3634328172999;-0.999755859375;-0.0493560791015625;3.9099999901282;392;100 mA
72.3734328172746;-0.9991455078125;-0.049346923828125;3.91999999010295;393;100 mA
72.3834328172494;-0.99945068359375;-0.049371337890625;3.9299999900777;394;100 mA
72.3934328172242;-0.99945068359375;-0.049560546875;3.93999999005246;395;100 mA
72.4034328171989;-0.9991455078125;-0.049835205078125;3.94999999002721;396;100 mA
72.4134328171737;-0.9991455078125;-0.049774169921875;3.95999999000196;397;100 mA
72.4234328171484;-0.9991455078125;-0.0499267578125;3.96999998997671;398;100 mA
72.4334328171232;-0.99945068359375;-0.049957275390625;3.97999998995147;399;100 mA
72.4434328170979;-0.99945068359375;-0.05029296875;3.98999998992622;400;100 mA
72.4534328170727;-0.9991455078125;-0.050323486328125;3.99999998990097;401;100 mA
72.4634328170474;-0.9991455078125;-0.050445556640625;4.00999998987572;402;100 mA
72.4734328170222;-0.999755859375;-0.050689697265625;4.01999998985048;403;100 mA
72.4834328169969;-0.99884033203125;-0.05096435546875;4.02999998982523;404;100 mA
72.4934328169717;-0.99945068359375;-0.050994873046875;4.03999998979998;405;100 mA
72.5034328169464;-0.99945068359375;-0.05108642578125;4.04999998977473;406;100 mA
72.5134328169212;-0.99945068359375;-0.0511474609375;4.05999998974949;407;100 mA
72.5234328168959;-0.999755859375;-0.0513916015625;4.06999998972424;408;100 mA
72.5334328168707;-0.999755859375;-0.051300048828125;4.07999998969899;409;100 mA
72.5434328168454;-0.99945068359375;-0.051422119140625;4.08999998967374;410;100 mA
72.5534328168202;-0.9991455078125;-0.0513916015625;4.0999999896485;411;100 mA
72.5634328167949;-0.99945068359375;-0.051544189453125;4.10999998962325;412;100 mA
72.5734328167697;-0.999755859375;-0.05145263671875;4.119999989598;413;100 mA
72.5834328167444;-0.999755859375;-0.05133056640625;4.12999998957275;414;100 mA
72.5934328167192;-0.999755859375;-0.05133056640625;4.1399999895475;415;100 mA
72.603432816694;-0.99884033203125;-0.0513916015625;4.14999998952226;416;100 mA
72.6134328166687;-1.0003662109375;-0.051300048828125;4.15999998949701;417;100 mA
72.6234328166435;-1.00006103515625;-0.05133056640625;4.16999998947176;418;100 mA
72.6334328166182;-0.9991455078125;-0.051361083984375;4.17999998944651;419;100 mA
72.643432816593;-0.999755859375;-0.05157470703125;4.18999998942127;420;100 mA
72.6534328165677;-0.99945068359375;-0.051483154296875;4.19999998939602;421;100 mA
72.6634328165425;-0.99945068359375;-0.051483154296875;4.20999998937077;422;100 mA
72.6734328165172;-0.9991455078125;-0.051483154296875;4.21999998934552;423;100 mA
72.683432816492;-0.999755859375;-0.051605224609375;4.22999998932028;424;100 mA
72.6934328164667;-0.9991455078125;-0.051544189453125;4.23999998929503;425;100 mA
72.7034328164415;-0.99945068359375;-0.051513671875;4.24999998926978;426;100 mA
72.7134328164162;-0.99945068359375;-0.051605224609375;4.25999998924453;427;100 mA
72.723432816391;-0.999755859375;-0.05181884765625;4.26999998921929;428;100 mA
72.7334328163657;-0.999755859375;-0.05169677734375;4.27999998919404;429;100 mA
72.7434328163405;-0.9991455078125;-0.051910400390625;4.28999998916879;430;100 mA
72.7534328163152;-0.9991455078125;-0.0518798828125;4.29999998914354;431;100 mA
72.76343281629;-0.99945068359375;-0.05206298828125;4.3099999891183;432;100 mA
72.7734328162647;-0.99945068359375;-0.052001953125;4.31999998909305;433;100 mA
72.7834328162395;-0.99945068359375;-0.051971435546875;4.3299999890678;434;100 mA
72.7934328162142;-0.999755859375;-0.051971435546875;4.33999998904255;435;100 mA
72.803432816189;-0.999755859375;-0.05206298828125;4.34999998901731;436;100 mA
72.8134328161638;-0.999755859375;-0.052001953125;4.35999998899206;437;100 mA
72.8234328161385;-0.999755859375;-0.052001953125;4.36999998896681;438;100 mA
72.8334328161133;-0.99945068359375;-0.0518798828125;4.37999998894156;439;100 mA
72.843432816088;-0.99945068359375;-0.052032470703125;4.38999998891632;440;100 mA
72.8534328160628;-0.99945068359375;-0.05181884765625;4.39999998889107;441;100 mA
72.8634328160375;-0.99945068359375;-0.051849365234375;4.40999998886582;442;100 mA
72.8734328160123;-0.9991455078125;-0.051788330078125;4.41999998884057;443;100 mA
72.883432815987;-0.9991455078125;-0.051910400390625;4.42999998881533;444;100 mA
72.8934328159618;-0.9991455078125;-0.051910400390625;4.43999998879008;445;100 mA
72.9034328159365;-0.999755859375;-0.051910400390625;4.44999998876483;446;100 mA
72.9134328159113;-0.99945068359375;-0.052001953125;4.45999998873958;447;100 mA
72.923432815886;-0.9991455078125;-0.05218505859375;4.46999998871433;448;100 mA
72.9334328158608;-0.999755859375;-0.05206298828125;4.47999998868909;449;100 mA
72.9434328158355;-1.00006103515625;-0.052154541015625;4.48999998866384;450;100 mA
72.9534328158103;-1.0003662109375;-0.05206298828125;4.49999998863859;451;100 mA
72.963432815785;-0.99884033203125;-0.05218505859375;4.50999998861334;452;100 mA
72.9734328157598;-0.9991455078125;-0.05206298828125;4.5199999885881;453;100 mA
72.9834328157345;-0.99945068359375;-0.052001953125;4.52999998856285;454;100 mA
72.9934328157093;-0.99945068359375;-0.051910400390625;4.5399999885376;455;100 mA
73.0034328156841;-0.99945068359375;-0.05194091796875;4.54999998851235;456;100 mA
73.0134328156588;-0.99945068359375;-0.0517578125;4.55999998848711;457;100 mA
73.0234328156336;-0.99945068359375;-0.05169677734375;4.56999998846186;458;100 mA
73.0334328156083;-0.9991455078125;-0.05157470703125;4.57999998843661;459;100 mA
73.0434328155831;-0.9991455078125;-0.051727294921875;4.58999998841136;460;100 mA
73.0534328155578;-0.9991455078125;-0.05145263671875;4.59999998838612;461;100 mA
73.0634328155326;-0.99945068359375;-0.051513671875;4.60999998836087;462;100 mA
73.0734328155073;-0.9991455078125;-0.051422119140625;4.61999998833562;463;100 mA
73.0834328154821;-0.999755859375;-0.051483154296875;4.62999998831037;464;100 mA
73.0934328154568;-0.99945068359375;-0.0513916015625;4.63999998828513;465;100 mA
73.1034328154316;-0.99945068359375;-0.0513916015625;4.64999998825988;466;100 mA
73.1134328154063;-0.9991455078125;-0.05145263671875;4.65999998823463;467;100 mA
73.1234328153811;-0.99884033203125;-0.05157470703125;4.66999998820938;468;100 mA
73.1334328153558;-0.999755859375;-0.051483154296875;4.67999998818414;469;100 mA
73.1434328153306;-0.99945068359375;-0.0516357421875;4.68999998815889;470;100 mA
73.1534328153053;-0.99945068359375;-0.051605224609375;4.69999998813364;471;100 mA
73.1634328152801;-0.9991455078125;-0.051849365234375;4.70999998810839;472;100 mA
73.1734328152548;-0.9991455078125;-0.051727294921875;4.71999998808315;473;100 mA
73.1834328152296;-0.9991455078125;-0.051788330078125;4.7299999880579;474;100 mA
73.1934328152043;-0.9991455078125;-0.051788330078125;4.73999998803265;475;100 mA
73.2034328151791;-0.999755859375;-0.051910400390625;4.7499999880074;476;100 mA
73.2134328151539;-0.99945068359375;-0.051849365234375;4.75999998798216;477;100 mA
73.2234328151286;-1.00006103515625;-0.0518798828125;4.76999998795691;478;100 mA
73.2334328151034;-0.9991455078125;-0.051849365234375;4.77999998793166;479;100 mA
73.2434328150781;-0.9991455078125;-0.052001953125;4.78999998790641;480;100 mA
73.2534328150529;-0.999755859375;-0.051788330078125;4.79999998788116;481;100 mA
73.2634328150276;-0.99945068359375;-0.051849365234375;4.80999998785592;482;100 mA
73.2734328150024;-0.999755859375;-0.0517578125;4.81999998783067;483;100 mA
73.2834328149771;-0.9991455078125;-0.051910400390625;4.82999998780542;484;100 mA
73.2934328149519;-0.99884033203125;-0.051849365234375;4.83999998778017;485;100 mA
73.3034328149266;-0.999755859375;-0.051849365234375;4.84999998775493;486;100 mA
73.3134328149014;-0.999755859375;-0.05194091796875;4.85999998772968;487;100 mA
73.3234328148761;-0.9991455078125;-0.05206298828125;4.86999998770443;488;100 mA
73.3334328148509;-0.99945068359375;-0.052001953125;4.87999998767918;489;100 mA
73.3434328148256;-0.99945068359375;-0.052093505859375;4.88999998765394;490;100 mA
73.3534328148004;-0.99884033203125;-0.052093505859375;4.89999998762869;491;100 mA
73.3634328147751;-0.999755859375;-0.052337646484375;4.90999998760344;492;100 mA
73.3734328147499;-0.9991455078125;-0.05218505859375;4.91999998757819;493;100 mA
73.3834328147246;-0.9991455078125;-0.05224609375;4.92999998755295;494;100 mA
73.3934328146994;-0.9991455078125;-0.05230712890625;4.9399999875277;495;100 mA
73.4034328146741;-0.99884033203125;-0.05242919921875;4.94999998750245;496;100 mA
73.4134328146489;-0.999755859375;-0.0523681640625;4.9599999874772;497;100 mA
73.4234328146237;-0.999755859375;-0.052337646484375;4.96999998745196;498;100 mA
73.4334328145984;-0.99945068359375;-0.052337646484375;4.97999998742671;499;100 mA
73.4434328145732;-0.99945068359375;-0.052490234375;4.98999998740146;500;100 mA
73.4534328145479;-0.99945068359375;-0.0523681640625;4.99999998737621;501;100 mA
73.4634328145227;-0.99945068359375;-0.052459716796875;5.00999998735097;502;100 mA
73.4734328144974;-0.99945068359375;-0.052459716796875;5.01999998732572;503;100 mA
73.4834328144722;-1.00006103515625;-0.052734375;5.02999998730047;504;100 mA
73.4934328144469;-0.999755859375;-0.05267333984375;5.03999998727522;505;100 mA
73.5034328144217;-0.99945068359375;-0.052734375;5.04999998724998;506;100 mA
73.5134328143964;-0.99884033203125;-0.052825927734375;5.05999998722473;507;100 mA
73.5234328143712;-0.9991455078125;-0.05291748046875;5.06999998719948;508;100 mA
73.5334328143459;-0.99945068359375;-0.05279541015625;5.07999998717423;509;100 mA
73.5434328143207;-0.999755859375;-0.052764892578125;5.08999998714899;510;100 mA
73.5534328142954;-0.9991455078125;-0.0526123046875;5.09999998712374;511;100 mA
73.5634328142702;-0.9991455078125;-0.05279541015625;5.10999998709849;512;100 mA
73.5734328142449;-0.99945068359375;-0.052581787109375;5.11999998707324;513;100 mA
73.5834328142197;-0.9991455078125;-0.0526123046875;5.129999987048;514;100 mA
73.5934328141944;-0.99945068359375;-0.05255126953125;5.13999998702275;515;100 mA
73.6034328141692;-0.99945068359375;-0.05267333984375;5.1499999869975;516;100 mA
73.6134328141439;-1.00006103515625;-0.052581787109375;5.15999998697225;517;100 mA
73.6234328141187;-0.99945068359375;-0.05255126953125;5.169999986947;518;100 mA
73.6334328140935;-0.999755859375;-0.052581787109375;5.17999998692176;519;100 mA
73.6434328140682;-0.99945068359375;-0.052642822265625;5.18999998689651;520;100 mA
73.653432814043;-0.99945068359375;-0.052520751953125;5.19999998687126;521;100 mA
73.6634328140177;-0.99945068359375;-0.052581787109375;5.20999998684601;522;100 mA
73.6734328139925;-0.9991455078125;-0.052490234375;5.21999998682077;523;100 mA
73.6834328139672;-0.999755859375;-0.052703857421875;5.22999998679552;524;100 mA
73.693432813942;-0.9991455078125;-0.05255126953125;5.23999998677027;525;100 mA
73.7034328139167;-0.99945068359375;-0.05255126953125;5.24999998674502;526;100 mA
73.7134328138915;-0.9991455078125;-0.052581787109375;5.25999998671978;527;100 mA
73.7234328138662;-0.999755859375;-0.0526123046875;5.26999998669453;528;100 mA
73.733432813841;-0.99945068359375;-0.052520751953125;5.27999998666928;529;100 mA
73.7434328138157;-0.999755859375;-0.052459716796875;5.28999998664403;530;100 mA
73.7534328137905;-0.999755859375;-0.05242919921875;5.29999998661879;531;100 mA
73.7634328137652;-0.99884033203125;-0.052642822265625;5.30999998659354;532;100 mA
73.77343281374;-0.999755859375;-0.052398681640625;5.31999998656829;533;100 mA
73.7834328137147;-0.999755859375;-0.052490234375;5.32999998654304;534;100 mA
73.7934328136895;-0.999755859375;-0.052459716796875;5.3399999865178;535;100 mA
73.8034328136642;-0.9991455078125;-0.052642822265625;5.34999998649255;536;100 mA
73.813432813639;-0.99945068359375;-0.052520751953125;5.3599999864673;537;100 mA
73.8234328136137;-0.99884033203125;-0.05255126953125;5.36999998644205;538;100 mA
73.8334328135885;-0.9991455078125;-0.052642822265625;5.37999998641681;539;100 mA
73.8434328135633;-0.999755859375;-0.05279541015625;5.38999998639156;540;100 mA
73.853432813538;-0.99884033203125;-0.052764892578125;5.39999998636631;541;100 mA
73.8634328135128;-0.99945068359375;-0.05291748046875;5.40999998634106;542;100 mA
73.8734328134875;-0.9991455078125;-0.0528564453125;5.41999998631582;543;100 mA
73.8834328134623;-0.9991455078125;-0.053131103515625;5.42999998629057;544;100 mA
73.893432813437;-0.9991455078125;-0.052947998046875;5.43999998626532;545;100 mA
73.9034328134118;-0.99945068359375;-0.052947998046875;5.44999998624007;546;100 mA
73.9134328133865;-0.99884033203125;-0.052886962890625;5.45999998621483;547;100 mA
73.9234328133613;-0.9991455078125;-0.052978515625;5.46999998618958;548;100 mA
73.933432813336;-0.999755859375;-0.0528564453125;5.47999998616433;549;100 mA
73.9434328133108;-0.999755859375;-0.052734375;5.48999998613908;550;100 mA
73.9534328132855;-0.999755859375;-0.052642822265625;5.49999998611383;551;100 mA
73.9634328132603;-0.999755859375;-0.05267333984375;5.50999998608859;552;100 mA
73.973432813235;-0.9991455078125;-0.052459716796875;5.51999998606334;553;100 mA
73.9834328132098;-0.999755859375;-0.052490234375;5.52999998603809;554;100 mA
73.9934328131845;-0.9991455078125;-0.052337646484375;5.53999998601284;555;100 mA
74.0034328131593;-0.99945068359375;-0.05255126953125;5.5499999859876;556;100 mA
74.013432813134;-0.9991455078125;-0.052398681640625;5.55999998596235;557;100 mA
74.0234328131088;-0.99945068359375;-0.05242919921875;5.5699999859371;558;100 mA
74.0334328130836;-0.9991455078125;-0.052490234375;5.57999998591185;559;100 mA
74.0434328130583;-0.99945068359375;-0.05255126953125;5.58999998588661;560;100 mA
74.0534328130331;-0.9991455078125;-0.052520751953125;5.59999998586136;561;100 mA
74.0634328130078;-0.999755859375;-0.052642822265625;5.60999998583611;562;100 mA
74.0734328129826;-0.99945068359375;-0.052734375;5.61999998581086;563;100 mA
74.0834328129573;-0.99945068359375;-0.053070068359375;5.62999998578562;564;100 mA
74.0934328129321;-0.99945068359375;-0.052947998046875;5.63999998576037;565;100 mA
74.1034328129068;-0.99945068359375;-0.0531005859375;5.64999998573512;566;100 mA
74.1134328128816;-0.99945068359375;-0.05303955078125;5.65999998570987;567;100 mA
74.1234328128563;-1.00006103515625;-0.05316162109375;5.66999998568463;568;100 mA
74.1334328128311;-0.999755859375;-0.053070068359375;5.67999998565938;569;100 mA
74.1434328128058;-0.999755859375;-0.053009033203125;5.68999998563413;570;100 mA
74.1534328127806;-0.99945068359375;-0.053070068359375;5.69999998560888;571;100 mA
74.1634328127553;-0.99884033203125;-0.053131103515625;5.70999998558364;572;100 mA
74.1734328127301;-0.99945068359375;-0.052978515625;5.71999998555839;573;100 mA
74.1834328127048;-0.9991455078125;-0.0531005859375;5.72999998553314;574;100 mA
74.1934328126796;-0.999755859375;-0.052947998046875;5.73999998550789;575;100 mA
74.2034328126543;-0.999755859375;-0.053131103515625;5.74999998548265;576;100 mA
74.2134328126291;-1.00006103515625;-0.05291748046875;5.7599999854574;577;100 mA
74.2234328126038;-0.999755859375;-0.052947998046875;5.76999998543215;578;100 mA
74.2334328125786;-0.999755859375;-0.052978515625;5.7799999854069;579;100 mA
74.2434328125534;-0.9991455078125;-0.05303955078125;5.78999998538166;580;100 mA
74.2534328125281;-0.999755859375;-0.052978515625;5.79999998535641;581;100 mA
74.2634328125029;-0.99945068359375;-0.05303955078125;5.80999998533116;582;100 mA
74.2734328124776;-0.999755859375;-0.053009033203125;5.81999998530591;583;100 mA
74.2834328124524;-0.9991455078125;-0.053253173828125;5.82999998528066;584;100 mA
74.2934328124271;-0.999755859375;-0.053070068359375;5.83999998525542;585;100 mA
74.3034328124019;-0.999755859375;-0.053253173828125;5.84999998523017;586;100 mA
74.3134328123766;-0.9991455078125;-0.05316162109375;5.85999998520492;587;100 mA
74.3234328123514;-0.99945068359375;-0.0533447265625;5.86999998517967;588;100 mA
74.3334328123261;-0.99884033203125;-0.053314208984375;5.87999998515443;589;100 mA
74.3434328123009;-0.99945068359375;-0.05328369140625;5.88999998512918;590;100 mA
74.3534328122756;-0.99945068359375;-0.0533447265625;5.89999998510393;591;100 mA
74.3634328122504;-0.9991455078125;-0.05340576171875;5.90999998507868;592;100 mA
74.3734328122251;-0.999755859375;-0.053192138671875;5.91999998505344;593;100 mA
74.3834328121999;-0.99945068359375;-0.05328369140625;5.92999998502819;594;100 mA
74.3934328121746;-0.99945068359375;-0.053192138671875;5.93999998500294;595;100 mA
74.4034328121494;-0.999755859375;-0.05340576171875;5.94999998497769;596;100 mA
74.4134328121241;-0.99945068359375;-0.05322265625;5.95999998495245;597;100 mA
74.4234328120989;-0.99945068359375;-0.05328369140625;5.9699999849272;598;100 mA
74.4334328120736;-0.999755859375;-0.053314208984375;5.97999998490195;599;100 mA
74.4434328120484;-0.9991455078125;-0.053436279296875;5.9899999848767;600;100 mA
74.4534328120232;-0.99945068359375;-0.053375244140625;5.99999998485146;601;100 mA
74.4634328119979;-0.9991455078125;-0.053314208984375;6.00999998482621;602;100 mA
74.4734328119727;-0.99884033203125;-0.053314208984375;6.01999998480096;603;100 mA
74.4834328119474;-0.999755859375;-0.05340576171875;6.02999998477571;604;100 mA
74.4934328119222;-0.99945068359375;-0.053131103515625;6.03999998475047;605;100 mA
74.5034328118969;-0.99945068359375;-0.053314208984375;6.04999998472522;606;100 mA
74.5134328118717;-0.99945068359375;-0.053192138671875;6.05999998469997;607;100 mA
74.5234328118464;-0.9991455078125;-0.0533447265625;6.06999998467472;608;100 mA
74.5334328118212;-0.999755859375;-0.05316162109375;6.07999998464948;609;100 mA
74.5434328117959;-0.9991455078125;-0.0531005859375;6.08999998462423;610;100 mA
74.5534328117707;-0.99945068359375;-0.053070068359375;6.09999998459898;611;100 mA
74.5634328117454;-0.9991455078125;-0.053070068359375;6.10999998457373;612;100 mA
74.5734328117202;-0.9991455078125;-0.052886962890625;6.11999998454849;613;100 mA
74.5834328116949;-0.99945068359375;-0.052886962890625;6.12999998452324;614;100 mA
74.5934328116697;-0.99945068359375;-0.05279541015625;6.13999998449799;615;100 mA
74.6034328116444;-0.99945068359375;-0.05291748046875;6.14999998447274;616;100 mA
74.6134328116192;-0.9991455078125;-0.0526123046875;6.1599999844475;617;100 mA
74.6234328115939;-0.99945068359375;-0.0526123046875;6.16999998442225;618;100 mA
74.6334328115687;-0.99884033203125;-0.052520751953125;6.179999984397;619;100 mA
74.6434328115434;-0.99945068359375;-0.05255126953125;6.18999998437175;620;100 mA
74.6534328115182;-0.9991455078125;-0.052398681640625;6.1999999843465;621;100 mA
74.663432811493;-0.99884033203125;-0.05224609375;6.20999998432126;622;100 mA
74.6734328114677;-0.99884033203125;-0.05218505859375;6.21999998429601;623;100 mA
74.6834328114425;-0.9991455078125;-0.052215576171875;6.22999998427076;624;100 mA
74.6934328114172;-0.99945068359375;-0.0518798828125;6.23999998424551;625;100 mA
74.703432811392;-0.99884033203125;-0.051788330078125;6.24999998422027;626;100 mA
74.7134328113667;-0.999755859375;-0.051483154296875;6.25999998419502;627;100 mA
74.7234328113415;-0.99945068359375;-0.051513671875;6.26999998416977;628;100 mA
74.7334328113162;-0.9991455078125;-0.051239013671875;6.27999998414452;629;100 mA
74.743432811291;-0.99945068359375;-0.051116943359375;6.28999998411928;630;100 mA
74.7534328112657;-0.99945068359375;-0.051055908203125;6.29999998409403;631;100 mA
74.7634328112405;-0.999755859375;-0.051055908203125;6.30999998406878;632;100 mA
74.7734328112152;-0.9991455078125;-0.050933837890625;6.31999998404353;633;100 mA
74.78343281119;-0.999755859375;-0.05084228515625;6.32999998401829;634;100 mA
74.7934328111647;-0.9991455078125;-0.05072021484375;6.33999998399304;635;100 mA
74.8034328111395;-0.999755859375;-0.050811767578125;6.34999998396779;636;100 mA
74.8134328111142;-0.99945068359375;-0.050506591796875;6.35999998394254;637;100 mA
74.823432811089;-0.9991455078125;-0.05059814453125;6.3699999839173;638;100 mA
74.8334328110637;-0.9991455078125;-0.050506591796875;6.37999998389205;639;100 mA
74.8434328110385;-0.99945068359375;-0.0506591796875;6.3899999838668;640;100 mA
74.8534328110132;-0.99945068359375;-0.050628662109375;6.39999998384155;641;100 mA
74.863432810988;-0.999755859375;-0.050506591796875;6.40999998381631;642;100 mA
74.8734328109628;-0.9991455078125;-0.050506591796875;6.41999998379106;643;100 mA
74.8834328109375;-0.99945068359375;-0.05059814453125;6.42999998376581;644;100 mA
74.8934328109123;-0.99884033203125;-0.0504150390625;6.43999998374056;645;100 mA
74.903432810887;-0.99945068359375;-0.05047607421875;6.44999998371532;646;100 mA
74.9134328108618;-0.99945068359375;-0.050445556640625;6.45999998369007;647;100 mA
74.9234328108365;-0.9991455078125;-0.05072021484375;6.46999998366482;648;100 mA
74.9334328108113;-0.99945068359375;-0.0506591796875;6.47999998363957;649;100 mA
74.943432810786;-0.99945068359375;-0.05078125;6.48999998361433;650;100 mA
74.9534328107608;-0.9991455078125;-0.050872802734375;6.49999998358908;651;100 mA
74.9634328107355;-0.999755859375;-0.051055908203125;6.50999998356383;652;100 mA
74.9734328107103;-0.99884033203125;-0.0511474609375;6.51999998353858;653;100 mA
74.983432810685;-0.9991455078125;-0.051177978515625;6.52999998351333;654;100 mA
74.9934328106598;-0.999755859375;-0.05120849609375;6.53999998348809;655;100 mA
75.0034328106345;-0.999755859375;-0.05145263671875;6.54999998346284;656;100 mA
75.0134328106093;-1.00006103515625;-0.05126953125;6.55999998343759;657;100 mA
75.023432810584;-0.999755859375;-0.051361083984375;6.56999998341234;658;100 mA
75.0334328105588;-0.99945068359375;-0.051300048828125;6.5799999833871;659;100 mA
75.0434328105335;-0.99945068359375;-0.051422119140625;6.58999998336185;660;100 mA
75.0534328105083;-1.00006103515625;-0.0513916015625;6.5999999833366;661;100 mA
75.0634328104831;-1.0003662109375;-0.051361083984375;6.60999998331135;662;100 mA
75.0734328104578;-0.9991455078125;-0.0513916015625;6.61999998328611;663;100 mA
75.0834328104326;-0.99884033203125;-0.051544189453125;6.62999998326086;664;100 mA
75.0934328104073;-0.9991455078125;-0.051513671875;6.63999998323561;665;100 mA
75.1034328103821;-0.99945068359375;-0.051605224609375;6.64999998321036;666;100 mA
75.1134328103568;-0.99884033203125;-0.051544189453125;6.65999998318512;667;100 mA
75.1234328103316;-0.99945068359375;-0.051910400390625;6.66999998315987;668;100 mA
75.1334328103063;-0.99945068359375;-0.0517578125;6.67999998313462;669;100 mA
75.1434328102811;-0.9991455078125;-0.05194091796875;6.68999998310937;670;100 mA
75.1534328102558;-0.99945068359375;-0.052001953125;6.69999998308413;671;100 mA
75.1634328102306;-0.999755859375;-0.052215576171875;6.70999998305888;672;100 mA
75.1734328102053;-0.999755859375;-0.05230712890625;6.71999998303363;673;100 mA
75.1834328101801;-0.9991455078125;-0.0523681640625;6.72999998300838;674;100 mA
75.1934328101548;-0.99945068359375;-0.052459716796875;6.73999998298314;675;100 mA
75.2034328101296;-0.99945068359375;-0.052734375;6.74999998295789;676;100 mA
75.2134328101043;-0.99945068359375;-0.052490234375;6.75999998293264;677;100 mA
75.2234328100791;-0.9991455078125;-0.052581787109375;6.76999998290739;678;100 mA
75.2334328100538;-0.9991455078125;-0.052490234375;6.77999998288215;679;100 mA
75.2434328100286;-0.99945068359375;-0.05267333984375;6.7899999828569;680;100 mA
75.2534328100033;-0.99945068359375;-0.0526123046875;6.79999998283165;681;100 mA
75.2634328099781;-0.99945068359375;-0.052642822265625;6.8099999828064;682;100 mA
75.2734328099529;-0.999755859375;-0.05267333984375;6.81999998278116;683;100 mA
75.2834328099276;-0.9991455078125;-0.052764892578125;6.82999998275591;684;100 mA
75.2934328099024;-0.99945068359375;-0.05267333984375;6.83999998273066;685;100 mA
75.3034328098771;-0.99945068359375;-0.052703857421875;6.84999998270541;686;100 mA
75.3134328098519;-0.99945068359375;-0.0526123046875;6.85999998268016;687;100 mA
75.3234328098266;-0.9991455078125;-0.05279541015625;6.86999998265492;688;100 mA
75.3334328098014;-0.99945068359375;-0.05255126953125;6.87999998262967;689;100 mA
75.3434328097761;-0.9991455078125;-0.0526123046875;6.88999998260442;690;100 mA
75.3534328097509;-0.9991455078125;-0.05255126953125;6.89999998257917;691;100 mA
75.3634328097256;-0.999755859375;-0.052642822265625;6.90999998255393;692;100 mA
75.3734328097004;-0.99945068359375;-0.0526123046875;6.91999998252868;693;100 mA
75.3834328096751;-0.99884033203125;-0.05255126953125;6.92999998250343;694;100 mA
75.3934328096499;-0.999755859375;-0.05255126953125;6.93999998247818;695;100 mA
75.4034328096246;-0.999755859375;-0.05267333984375;6.94999998245294;696;100 mA
75.4134328095994;-0.99945068359375;-0.05255126953125;6.95999998242769;697;100 mA
75.4234328095741;-0.999755859375;-0.0526123046875;6.96999998240244;698;100 mA
75.4334328095489;-0.999755859375;-0.05255126953125;6.97999998237719;699;100 mA
75.4434328095236;-0.99884033203125;-0.052734375;6.98999998235195;700;100 mA
