Time (s);WE(1).Potential (V);WE(1).Current (A);Corrected time (s);Index;Current range
0.486221998772407;-0.399749755859375;-0.0182769775390625;0;1;1 A
0.49622199874716;-0.39971923828125;-0.0154327392578125;0.00999999997475243;2;1 A
0.506221998721912;-0.399810791015625;-0.0135772705078125;0.0199999999495049;3;1 A
0.516221998696665;-0.399749755859375;-0.012274169921875;0.0299999999242573;4;1 A
0.526221998671417;-0.39971923828125;-0.011285400390625;0.0399999998990097;5;1 A
0.53622199864617;-0.3997802734375;-0.0105010986328125;0.0499999998737621;6;1 A
0.546221998620922;-0.399688720703125;-0.00986633300781251;0.0599999998485146;7;1 A
0.556221998595674;-0.399749755859375;-0.009326171875;0.069999999823267;8;1 A
0.566221998570427;-0.3997802734375;-0.0088775634765625;0.0799999997980194;9;1 A
0.576221998545179;-0.3997802734375;-0.0084869384765625;0.0899999997727718;10;1 A
0.586221998519932;-0.3997802734375;-0.008148193359375;0.0999999997475243;11;1 A
0.596221998494684;-0.399749755859375;-0.0078582763671875;0.109999999722277;12;1 A
0.606221998469437;-0.39971923828125;-0.007586669921875;0.119999999697029;13;1 A
0.616221998444189;-0.39971923828125;-0.0073516845703125;0.129999999671782;14;1 A
0.626221998418941;-0.399749755859375;-0.00714111328125;0.139999999646534;15;1 A
0.636221998393694;-0.3997802734375;-0.0069427490234375;0.149999999621286;16;1 A
0.646221998368446;-0.399749755859375;-0.00676879882812501;0.159999999596039;17;1 A
0.656221998343199;-0.3997802734375;-0.0065948486328125;0.169999999570791;18;1 A
0.666221998317951;-0.39971923828125;-0.00644836425781251;0.179999999545544;19;1 A
0.676221998292704;-0.399688720703125;-0.006317138671875;0.189999999520296;20;1 A
0.686221998267456;-0.39971923828125;-0.00618896484375001;0.199999999495049;21;1 A
0.696221998242208;-0.39971923828125;-0.00607910156249999;0.209999999469801;22;1 A
0.706221998216961;-0.39984130859375;-0.005963134765625;0.219999999444553;23;1 A
0.716221998191713;-0.39971923828125;-0.00586547851562499;0.229999999419306;24;1 A
0.726221998166466;-0.3997802734375;-0.00577697753906251;0.239999999394058;25;1 A
0.736221998141218;-0.39971923828125;-0.0056915283203125;0.249999999368811;26;1 A
0.746221998115971;-0.3997802734375;-0.0056182861328125;0.259999999343563;27;1 A
0.756221998090723;-0.39971923828125;-0.0055389404296875;0.269999999318316;28;1 A
0.766221998065475;-0.39971923828125;-0.005474853515625;0.279999999293068;29;1 A
0.776221998040228;-0.3997802734375;-0.0054168701171875;0.28999999926782;30;1 A
0.78622199801498;-0.399688720703125;-0.00534973144531251;0.299999999242573;31;1 A
0.796221997989733;-0.399749755859375;-0.0052978515625;0.309999999217325;32;1 A
0.806221997964485;-0.399749755859375;-0.0052337646484375;0.319999999192078;33;1 A
0.816221997939238;-0.39971923828125;-0.00518188476562501;0.32999999916683;34;1 A
0.82622199791399;-0.39984130859375;-0.00513916015625;0.339999999141583;35;1 A
0.836221997888742;-0.39971923828125;-0.00509033203125001;0.349999999116335;36;1 A
0.846221997863495;-0.399749755859375;-0.00505981445312501;0.359999999091087;37;1 A
0.856221997838247;-0.399749755859375;-0.00501403808593751;0.36999999906584;38;1 A
0.866221997813;-0.399688720703125;-0.004986572265625;0.379999999040592;39;1 A
0.876221997787752;-0.399810791015625;-0.0049560546875;0.389999999015345;40;1 A
0.886221997762505;-0.3997802734375;-0.004925537109375;0.399999998990097;41;1 A
0.896221997737257;-0.3997802734375;-0.00490722656250001;0.40999999896485;42;1 A
0.906221997712009;-0.3997802734375;-0.00487365722656249;0.419999998939602;43;1 A
0.916221997686762;-0.39971923828125;-0.00484619140625001;0.429999998914354;44;1 A
0.926221997661514;-0.3997802734375;-0.0048248291015625;0.439999998889107;45;1 A
0.936221997636267;-0.39971923828125;-0.0047943115234375;0.449999998863859;46;1 A
0.946221997611019;-0.399749755859375;-0.00476989746093751;0.459999998838612;47;1 A
0.956221997585772;-0.3997802734375;-0.004742431640625;0.469999998813364;48;1 A
0.966221997560524;-0.39971923828125;-0.004718017578125;0.479999998788116;49;1 A
0.976221997535276;-0.3997802734375;-0.0046966552734375;0.489999998762869;50;1 A
0.986221997510029;-0.39971923828125;-0.00467529296874999;0.499999998737621;51;1 A
0.996221997484781;-0.399749755859375;-0.00466003417968749;0.509999998712374;52;1 A
1.00622199745953;-0.399749755859375;-0.00461730957031251;0.519999998687126;53;1 A
1.01622199743429;-0.39971923828125;-0.00461730957031251;0.529999998661879;54;1 A
1.02622199740904;-0.39971923828125;-0.00459899902343749;0.539999998636631;55;1 A
1.03622199738379;-0.399749755859375;-0.00458374023437499;0.549999998611383;56;1 A
1.04622199735854;-0.399749755859375;-0.0045654296875;0.559999998586136;57;1 A
1.0562219973333;-0.39971923828125;-0.0045440673828125;0.569999998560888;58;1 A
1.06622199730805;-0.399688720703125;-0.00453796386718749;0.579999998535641;59;1 A
1.0762219972828;-0.399810791015625;-0.00452270507812499;0.589999998510393;60;1 A
1.08622199725755;-0.399749755859375;-0.0045166015625;0.599999998485146;61;1 A
1.09622199723231;-0.39971923828125;-0.00450744628906249;0.609999998459898;62;1 A
1.10622199720706;-0.39971923828125;-0.0044891357421875;0.61999999843465;63;1 A
1.11622199718181;-0.399688720703125;-0.00447998046875001;0.629999998409403;64;1 A
1.12622199715656;-0.3997802734375;-0.004473876953125;0.639999998384155;65;1 A
1.13622199713132;-0.3997802734375;-0.00445556640625;0.649999998358908;66;1 A
1.14622199710607;-0.399749755859375;-0.00444946289062501;0.65999999833366;67;1 A
1.15622199708082;-0.399688720703125;-0.00443420410156251;0.669999998308413;68;1 A
1.16622199705557;-0.399749755859375;-0.0044281005859375;0.679999998283165;69;1 A
1.17622199703032;-0.399658203125;-0.00441589355468749;0.689999998257917;70;1 A
1.18622199700508;-0.39971923828125;-0.00440673828125;0.69999999823267;71;1 A
1.19622199697983;-0.3997802734375;-0.00440063476562499;0.709999998207422;72;1 A
1.20622199695458;-0.399749755859375;-0.00438232421875;0.719999998182175;73;1 A
1.21622199692933;-0.399810791015625;-0.0043792724609375;0.729999998156927;74;1 A
1.22622199690409;-0.399749755859375;-0.0043792724609375;0.73999999813168;75;1 A
1.23622199687884;-0.39971923828125;-0.004364013671875;0.749999998106432;76;1 A
1.24622199685359;-0.399810791015625;-0.0043670654296875;0.759999998081184;77;1 A
1.25622199682834;-0.39971923828125;-0.0043487548828125;0.769999998055937;78;1 A
1.2662219968031;-0.399749755859375;-0.004345703125;0.779999998030689;79;1 A
1.27622199677785;-0.3997802734375;-0.00434265136718751;0.789999998005442;80;1 A
1.2862219967526;-0.39971923828125;-0.00432739257812501;0.799999997980194;81;1 A
1.29622199672735;-0.39971923828125;-0.00432434082031249;0.809999997954947;82;1 A
1.30622199670211;-0.399749755859375;-0.00432434082031249;0.819999997929699;83;1 A
1.31622199667686;-0.399749755859375;-0.0043212890625;0.829999997904451;84;1 A
1.32622199665161;-0.399749755859375;-0.00432739257812501;0.839999997879204;85;1 A
1.33622199662636;-0.39971923828125;-0.00432739257812501;0.849999997853956;86;1 A
1.34622199660112;-0.39971923828125;-0.0043304443359375;0.859999997828709;87;1 A
1.35622199657587;-0.399749755859375;-0.0043212890625;0.869999997803461;88;1 A
1.36622199655062;-0.39971923828125;-0.00432739257812501;0.879999997778214;89;1 A
1.37622199652537;-0.399658203125;-0.0043304443359375;0.889999997752966;90;1 A
1.38622199650013;-0.3997802734375;-0.00432739257812501;0.899999997727718;91;1 A
1.39622199647488;-0.399749755859375;-0.0043304443359375;0.909999997702471;92;1 A
1.40622199644963;-0.3997802734375;-0.0043182373046875;0.919999997677223;93;1 A
1.41622199642438;-0.399688720703125;-0.004315185546875;0.929999997651976;94;1 A
1.42622199639914;-0.39971923828125;-0.0043212890625;0.939999997626728;95;1 A
1.43622199637389;-0.3997802734375;-0.00431213378906251;0.949999997601481;96;1 A
1.44622199634864;-0.39971923828125;-0.00430908203124999;0.959999997576233;97;1 A
1.45622199632339;-0.399810791015625;-0.00429687500000001;0.969999997550985;98;1 A
1.46622199629815;-0.39971923828125;-0.004302978515625;0.979999997525738;99;1 A
1.4762219962729;-0.39971923828125;-0.00429687500000001;0.98999999750049;100;1 A
1.48622199624765;-0.39971923828125;-0.00429687500000001;0.999999997475243;101;1 A
1.4962219962224;-0.399749755859375;-0.00429687500000001;1.00999999745;102;1 A
1.50622199619716;-0.399810791015625;-0.00429382324218749;1.01999999742475;103;1 A
1.51622199617191;-0.3997802734375;-0.00429687500000001;1.0299999973995;104;1 A
1.52622199614666;-0.3997802734375;-0.00429687500000001;1.03999999737425;105;1 A
1.53622199612141;-0.3997802734375;-0.00428466796875;1.049999997349;106;1 A
1.54622199609616;-0.399749755859375;-0.00429687500000001;1.05999999732376;107;1 A
1.55622199607092;-0.399688720703125;-0.00428466796875;1.06999999729851;108;1 A
1.56622199604567;-0.3997802734375;-0.0042877197265625;1.07999999727326;109;1 A
1.57622199602042;-0.39971923828125;-0.00428466796875;1.08999999724801;110;1 A
1.58622199599517;-0.3997802734375;-0.0042724609375;1.09999999722277;111;1 A
1.59622199596993;-0.399658203125;-0.00427856445312499;1.10999999719752;112;1 A
1.60622199594468;-0.399810791015625;-0.00426635742187501;1.11999999717227;113;1 A
1.61622199591943;-0.39971923828125;-0.0042694091796875;1.12999999714702;114;1 A
1.62622199589418;-0.39971923828125;-0.0042724609375;1.13999999712178;115;1 A
1.63622199586894;-0.3997802734375;-0.0042694091796875;1.14999999709653;116;1 A
1.64622199584369;-0.3997802734375;-0.00428466796875;1.15999999707128;117;1 A
1.65622199581844;-0.399810791015625;-0.00428161621093751;1.16999999704603;118;1 A
1.66622199579319;-0.399688720703125;-0.004290771484375;1.17999999702079;119;1 A
1.67622199576795;-0.399749755859375;-0.0042999267578125;1.18999999699554;120;1 A
1.6862219957427;-0.3997802734375;-0.0043060302734375;1.19999999697029;121;1 A
1.69622199571745;-0.399749755859375;-0.00431213378906251;1.20999999694504;122;1 A
1.7062219956922;-0.3997802734375;-0.00430908203124999;1.2199999969198;123;1 A
1.71622199566696;-0.399810791015625;-0.00430908203124999;1.22999999689455;124;1 A
1.72622199564171;-0.39971923828125;-0.0043182373046875;1.2399999968693;125;1 A
1.73622199561646;-0.39971923828125;-0.00431213378906251;1.24999999684405;126;1 A
1.74622199559121;-0.39971923828125;-0.0043182373046875;1.25999999681881;127;1 A
1.75622199556597;-0.3997802734375;-0.00431213378906251;1.26999999679356;128;1 A
1.76622199554072;-0.399810791015625;-0.00430908203124999;1.27999999676831;129;1 A
1.77622199551547;-0.399749755859375;-0.004315185546875;1.28999999674306;130;1 A
1.78622199549022;-0.39984130859375;-0.0043182373046875;1.29999999671782;131;1 A
1.79622199546498;-0.399749755859375;-0.0043212890625;1.30999999669257;132;1 A
1.80622199543973;-0.399749755859375;-0.0043212890625;1.31999999666732;133;1 A
1.81622199541448;-0.399749755859375;-0.004315185546875;1.32999999664207;134;1 A
1.82622199538923;-0.3997802734375;-0.00431213378906251;1.33999999661683;135;1 A
1.83622199536399;-0.3997802734375;-0.004302978515625;1.34999999659158;136;1 A
1.84622199533874;-0.3997802734375;-0.0043060302734375;1.35999999656633;137;1 A
1.85622199531349;-0.3997802734375;-0.00428161621093751;1.36999999654108;138;1 A
1.86622199528824;-0.399688720703125;-0.00428161621093751;1.37999999651583;139;1 A
1.87622199526299;-0.399688720703125;-0.0042755126953125;1.38999999649059;140;1 A
1.88622199523775;-0.399749755859375;-0.0042694091796875;1.39999999646534;141;1 A
1.8962219952125;-0.39971923828125;-0.00426635742187501;1.40999999644009;142;1 A
1.90622199518725;-0.3997802734375;-0.0042572021484375;1.41999999641484;143;1 A
1.916221995162;-0.3997802734375;-0.004254150390625;1.4299999963896;144;1 A
1.92622199513676;-0.39971923828125;-0.0042572021484375;1.43999999636435;145;1 A
1.93622199511151;-0.39971923828125;-0.00424804687499999;1.4499999963391;146;1 A
1.94622199508626;-0.39971923828125;-0.00426635742187501;1.45999999631385;147;1 A
1.95622199506101;-0.3997802734375;-0.00426330566406249;1.46999999628861;148;1 A
1.96622199503577;-0.3997802734375;-0.0042694091796875;1.47999999626336;149;1 A
1.97622199501052;-0.3997802734375;-0.00427856445312499;1.48999999623811;150;1 A
1.98622199498527;-0.399658203125;-0.0042755126953125;1.49999999621286;151;1 A
1.99622199496002;-0.39971923828125;-0.00428161621093751;1.50999999618762;152;1 A
2.00622199493478;-0.3997802734375;-0.0042755126953125;1.51999999616237;153;1 A
2.01622199490953;-0.3997802734375;-0.0042724609375;1.52999999613712;154;1 A
2.02622199488428;-0.399810791015625;-0.00427856445312499;1.53999999611187;155;1 A
2.03622199485903;-0.399749755859375;-0.0042694091796875;1.54999999608663;156;1 A
2.04622199483379;-0.399749755859375;-0.0042755126953125;1.55999999606138;157;1 A
2.05622199480854;-0.399749755859375;-0.0042694091796875;1.56999999603613;158;1 A
2.06622199478329;-0.39971923828125;-0.0042694091796875;1.57999999601088;159;1 A
2.07622199475804;-0.399749755859375;-0.0042694091796875;1.58999999598564;160;1 A
2.0862219947328;-0.39971923828125;-0.0042724609375;1.59999999596039;161;1 A
2.09622199470755;-0.399810791015625;-0.00428161621093751;1.60999999593514;162;1 A
2.1062219946823;-0.399810791015625;-0.00428466796875;1.61999999590989;163;1 A
2.11622199465705;-0.39971923828125;-0.004290771484375;1.62999999588465;164;1 A
2.12622199463181;-0.39971923828125;-0.0043060302734375;1.6399999958594;165;1 A
2.13622199460656;-0.39971923828125;-0.0043060302734375;1.64999999583415;166;1 A
2.14622199458131;-0.399688720703125;-0.00431213378906251;1.6599999958089;167;1 A
2.15622199455606;-0.3997802734375;-0.004315185546875;1.66999999578366;168;1 A
2.16622199453082;-0.399749755859375;-0.0043182373046875;1.67999999575841;169;1 A
2.17622199450557;-0.399749755859375;-0.0043212890625;1.68999999573316;170;1 A
2.18622199448032;-0.399658203125;-0.0043182373046875;1.69999999570791;171;1 A
2.19622199445507;-0.399749755859375;-0.00432739257812501;1.70999999568267;172;1 A
2.20622199442982;-0.3997802734375;-0.00432434082031249;1.71999999565742;173;1 A
2.21622199440458;-0.399749755859375;-0.0043304443359375;1.72999999563217;174;1 A
2.22622199437933;-0.399749755859375;-0.00433959960937499;1.73999999560692;175;1 A
2.23622199435408;-0.39971923828125;-0.00434265136718751;1.74999999558167;176;1 A
2.24622199432883;-0.399749755859375;-0.00435485839843749;1.75999999555643;177;1 A
2.25622199430359;-0.399688720703125;-0.004351806640625;1.76999999553118;178;1 A
2.26622199427834;-0.3997802734375;-0.0043609619140625;1.77999999550593;179;1 A
2.27622199425309;-0.399749755859375;-0.004345703125;1.78999999548068;180;1 A
2.28622199422784;-0.3997802734375;-0.004376220703125;1.79999999545544;181;1 A
2.2962219942026;-0.3997802734375;-0.00437316894531251;1.80999999543019;182;1 A
2.30622199417735;-0.399688720703125;-0.0043670654296875;1.81999999540494;183;1 A
2.3162219941521;-0.399749755859375;-0.00438537597656249;1.82999999537969;184;1 A
2.32622199412685;-0.39971923828125;-0.00438537597656249;1.83999999535445;185;1 A
2.33622199410161;-0.399749755859375;-0.00438842773437501;1.8499999953292;186;1 A
2.34622199407636;-0.399749755859375;-0.0044097900390625;1.85999999530395;187;1 A
2.35622199405111;-0.399749755859375;-0.00441894531250001;1.8699999952787;188;1 A
2.36622199402586;-0.399749755859375;-0.00443115234374999;1.87999999525346;189;1 A
2.37622199400062;-0.39971923828125;-0.004437255859375;1.88999999522821;190;1 A
2.38622199397537;-0.399658203125;-0.00443420410156251;1.89999999520296;191;1 A
2.39622199395012;-0.3997802734375;-0.004443359375;1.90999999517771;192;1 A
2.40622199392487;-0.399810791015625;-0.0044403076171875;1.91999999515247;193;1 A
2.41622199389963;-0.3997802734375;-0.00444641113281249;1.92999999512722;194;1 A
2.42622199387438;-0.399688720703125;-0.0044525146484375;1.93999999510197;195;1 A
2.43622199384913;-0.399688720703125;-0.00444641113281249;1.94999999507672;196;1 A
2.44622199382388;-0.39971923828125;-0.0044525146484375;1.95999999505148;197;1 A
2.45622199379864;-0.399749755859375;-0.004443359375;1.96999999502623;198;1 A
2.46622199377339;-0.3997802734375;-0.004443359375;1.97999999500098;199;1 A
2.47622199374814;-0.399749755859375;-0.0044403076171875;1.98999999497573;200;1 A
2.48622199372289;-0.3997802734375;-0.00443115234374999;1.99999999495049;201;1 A
2.49622199369765;-0.39971923828125;-0.004437255859375;2.00999999492524;202;1 A
2.5062219936724;-0.399688720703125;-0.0044281005859375;2.01999999489999;203;1 A
2.51622199364715;-0.3997802734375;-0.0044281005859375;2.02999999487474;204;1 A
2.5262219936219;-0.3997802734375;-0.00443420410156251;2.0399999948495;205;1 A
2.53622199359666;-0.3997802734375;-0.0044281005859375;2.04999999482425;206;1 A
2.54622199357141;-0.39971923828125;-0.00443420410156251;2.059999994799;207;1 A
2.55622199354616;-0.399749755859375;-0.0044281005859375;2.06999999477375;208;1 A
2.56622199352091;-0.399688720703125;-0.004437255859375;2.0799999947485;209;1 A
2.57622199349566;-0.399688720703125;-0.0044403076171875;2.08999999472326;210;1 A
2.58622199347042;-0.39984130859375;-0.0044403076171875;2.09999999469801;211;1 A
2.59622199344517;-0.39971923828125;-0.00444946289062501;2.10999999467276;212;1 A
2.60622199341992;-0.399749755859375;-0.00444946289062501;2.11999999464751;213;1 A
2.61622199339467;-0.399749755859375;-0.0044525146484375;2.12999999462227;214;1 A
2.62622199336943;-0.39971923828125;-0.00446472167968751;2.13999999459702;215;1 A
2.63622199334418;-0.399810791015625;-0.00445556640625;2.14999999457177;216;1 A
2.64622199331893;-0.399749755859375;-0.0044677734375;2.15999999454652;217;1 A
2.65622199329368;-0.399749755859375;-0.00445556640625;2.16999999452128;218;1 A
2.66622199326844;-0.3997802734375;-0.0044677734375;2.17999999449603;219;1 A
2.67622199324319;-0.399688720703125;-0.0044677734375;2.18999999447078;220;1 A
2.68622199321794;-0.399749755859375;-0.00446472167968751;2.19999999444553;221;1 A
2.69622199319269;-0.39971923828125;-0.0044708251953125;2.20999999442029;222;1 A
2.70622199316745;-0.39971923828125;-0.00446166992187499;2.21999999439504;223;1 A
2.7162219931422;-0.3997802734375;-0.00446166992187499;2.22999999436979;224;1 A
2.72622199311695;-0.39971923828125;-0.00445556640625;2.23999999434454;225;1 A
2.7362219930917;-0.39984130859375;-0.004443359375;2.2499999943193;226;1 A
2.74622199306646;-0.39971923828125;-0.00444641113281249;2.25999999429405;227;1 A
2.75622199304121;-0.399749755859375;-0.00443420410156251;2.2699999942688;228;1 A
2.76622199301596;-0.399749755859375;-0.0044281005859375;2.27999999424355;229;1 A
2.77622199299071;-0.3997802734375;-0.004425048828125;2.28999999421831;230;1 A
2.78622199296547;-0.399749755859375;-0.004412841796875;2.29999999419306;231;1 A
2.79622199294022;-0.39971923828125;-0.00441589355468749;2.30999999416781;232;1 A
2.80622199291497;-0.399749755859375;-0.00440673828125;2.31999999414256;233;1 A
2.81622199288972;-0.399749755859375;-0.00440063476562499;2.32999999411732;234;1 A
2.82622199286448;-0.3997802734375;-0.00440368652343751;2.33999999409207;235;1 A
2.83622199283923;-0.399810791015625;-0.00440063476562499;2.34999999406682;236;1 A
2.84622199281398;-0.39984130859375;-0.00440673828125;2.35999999404157;237;1 A
2.85622199278873;-0.3997802734375;-0.0043975830078125;2.36999999401633;238;1 A
2.86622199276349;-0.399688720703125;-0.00440063476562499;2.37999999399108;239;1 A
2.87622199273824;-0.399749755859375;-0.00440063476562499;2.38999999396583;240;1 A
2.88622199271299;-0.399749755859375;-0.00440368652343751;2.39999999394058;241;1 A
2.89622199268774;-0.39971923828125;-0.0044097900390625;2.40999999391533;242;1 A
2.90622199266249;-0.399810791015625;-0.00440368652343751;2.41999999389009;243;1 A
2.91622199263725;-0.399749755859375;-0.00440063476562499;2.42999999386484;244;1 A
2.926221992612;-0.399749755859375;-0.004412841796875;2.43999999383959;245;1 A
2.93622199258675;-0.399749755859375;-0.00440673828125;2.44999999381434;246;1 A
2.9462219925615;-0.39971923828125;-0.00440673828125;2.4599999937891;247;1 A
2.95622199253626;-0.399749755859375;-0.0043975830078125;2.46999999376385;248;1 A
2.96622199251101;-0.399749755859375;-0.00439453125;2.4799999937386;249;1 A
2.97622199248576;-0.3997802734375;-0.00439453125;2.48999999371335;250;1 A
2.98622199246051;-0.39971923828125;-0.00438537597656249;2.49999999368811;251;1 A
2.99622199243527;-0.39971923828125;-0.00438232421875;2.50999999366286;252;1 A
3.00622199241002;-0.399749755859375;-0.004376220703125;2.51999999363761;253;1 A
3.01622199238477;-0.39971923828125;-0.00437316894531251;2.52999999361236;254;1 A
3.02622199235952;-0.3997802734375;-0.004376220703125;2.53999999358712;255;1 A
3.03622199233428;-0.3997802734375;-0.0043670654296875;2.54999999356187;256;1 A
3.04622199230903;-0.399749755859375;-0.004376220703125;2.55999999353662;257;1 A
3.05622199228378;-0.399749755859375;-0.004364013671875;2.56999999351137;258;1 A
3.06622199225853;-0.399688720703125;-0.0043609619140625;2.57999999348613;259;1 A
3.07622199223329;-0.399749755859375;-0.004364013671875;2.58999999346088;260;1 A
3.08622199220804;-0.399749755859375;-0.00435485839843749;2.59999999343563;261;1 A
3.09622199218279;-0.399749755859375;-0.004351806640625;2.60999999341038;262;1 A
3.10622199215754;-0.399749755859375;-0.0043365478515625;2.61999999338514;263;1 A
3.1162219921323;-0.399749755859375;-0.00432739257812501;2.62999999335989;264;1 A
3.12622199210705;-0.39971923828125;-0.00432434082031249;2.63999999333464;265;1 A
3.1362219920818;-0.399749755859375;-0.0043060302734375;2.64999999330939;266;1 A
3.14622199205655;-0.399749755859375;-0.00430908203124999;2.65999999328415;267;1 A
3.15622199203131;-0.3997802734375;-0.004302978515625;2.6699999932589;268;1 A
3.16622199200606;-0.3997802734375;-0.0042999267578125;2.67999999323365;269;1 A
3.17622199198081;-0.3997802734375;-0.004302978515625;2.6899999932084;270;1 A
3.18622199195556;-0.399749755859375;-0.00429382324218749;2.69999999318316;271;1 A
3.19622199193032;-0.399749755859375;-0.00429687500000001;2.70999999315791;272;1 A
3.20622199190507;-0.399658203125;-0.0042877197265625;2.71999999313266;273;1 A
3.21622199187982;-0.3997802734375;-0.00428466796875;2.72999999310741;274;1 A
3.22622199185457;-0.399749755859375;-0.0042877197265625;2.73999999308217;275;1 A
3.23622199182932;-0.3997802734375;-0.00428161621093751;2.74999999305692;276;1 A
3.24622199180408;-0.399749755859375;-0.0042877197265625;2.75999999303167;277;1 A
3.25622199177883;-0.3997802734375;-0.00428161621093751;2.76999999300642;278;1 A
3.26622199175358;-0.399749755859375;-0.0042877197265625;2.77999999298117;279;1 A
3.27622199172833;-0.3997802734375;-0.00428466796875;2.78999999295593;280;1 A
3.28622199170309;-0.399749755859375;-0.00427856445312499;2.79999999293068;281;1 A
3.29622199167784;-0.3997802734375;-0.00427856445312499;2.80999999290543;282;1 A
3.30622199165259;-0.399749755859375;-0.0042755126953125;2.81999999288018;283;1 A
3.31622199162734;-0.3997802734375;-0.0042724609375;2.82999999285494;284;1 A
3.3262219916021;-0.3997802734375;-0.00428161621093751;2.83999999282969;285;1 A
3.33622199157685;-0.3997802734375;-0.0042694091796875;2.84999999280444;286;1 A
3.3462219915516;-0.399749755859375;-0.00427856445312499;2.85999999277919;287;1 A
3.35622199152635;-0.39971923828125;-0.0042755126953125;2.86999999275395;288;1 A
3.36622199150111;-0.3997802734375;-0.00427856445312499;2.8799999927287;289;1 A
3.37622199147586;-0.399688720703125;-0.00428161621093751;2.88999999270345;290;1 A
3.38622199145061;-0.39971923828125;-0.00428161621093751;2.8999999926782;291;1 A
3.39622199142536;-0.399749755859375;-0.00428161621093751;2.90999999265296;292;1 A
3.40622199140012;-0.3997802734375;-0.00428466796875;2.91999999262771;293;1 A
3.41622199137487;-0.3997802734375;-0.00428466796875;2.92999999260246;294;1 A
3.42622199134962;-0.399688720703125;-0.004290771484375;2.93999999257721;295;1 A
3.43622199132437;-0.399688720703125;-0.00428466796875;2.94999999255197;296;1 A
3.44622199129913;-0.399749755859375;-0.00429687500000001;2.95999999252672;297;1 A
3.45622199127388;-0.399658203125;-0.00428466796875;2.96999999250147;298;1 A
3.46622199124863;-0.399810791015625;-0.00428466796875;2.97999999247622;299;1 A
3.47622199122338;-0.399749755859375;-0.00428466796875;2.98999999245098;300;1 A
3.48622199119814;-0.399749755859375;-0.00428161621093751;2.99999999242573;301;1 A
3.49622199117289;-0.39971923828125;-0.00428466796875;3.00999999240048;302;1 A
3.50622199114764;-0.39971923828125;-0.00427856445312499;3.01999999237523;303;1 A
3.51622199112239;-0.399749755859375;-0.00428161621093751;3.02999999234999;304;1 A
3.52622199109715;-0.399749755859375;-0.00428466796875;3.03999999232474;305;1 A
3.5362219910719;-0.399749755859375;-0.0042755126953125;3.04999999229949;306;1 A
3.54622199104665;-0.399749755859375;-0.0042755126953125;3.05999999227424;307;1 A
3.5562219910214;-0.399749755859375;-0.0042694091796875;3.069999992249;308;1 A
3.56622199099616;-0.399749755859375;-0.0042724609375;3.07999999222375;309;1 A
3.57622199097091;-0.399688720703125;-0.0042694091796875;3.0899999921985;310;1 A
3.58622199094566;-0.399749755859375;-0.00426330566406249;3.09999999217325;311;1 A
3.59622199092041;-0.3997802734375;-0.0042694091796875;3.109999992148;312;1 A
3.60622199089516;-0.39971923828125;-0.00426025390625;3.11999999212276;313;1 A
3.61622199086992;-0.399749755859375;-0.004254150390625;3.12999999209751;314;1 A
3.62622199084467;-0.39971923828125;-0.00426025390625;3.13999999207226;315;1 A
3.63622199081942;-0.3997802734375;-0.00424804687499999;3.14999999204701;316;1 A
3.64622199079417;-0.39971923828125;-0.0042572021484375;3.15999999202177;317;1 A
3.65622199076893;-0.39971923828125;-0.0042388916015625;3.16999999199652;318;1 A
3.66622199074368;-0.399810791015625;-0.004241943359375;3.17999999197127;319;1 A
3.67622199071843;-0.399688720703125;-0.0042388916015625;3.18999999194602;320;1 A
3.68622199069318;-0.3997802734375;-0.004229736328125;3.19999999192078;321;1 A
3.69622199066794;-0.399688720703125;-0.004229736328125;3.20999999189553;322;1 A
3.70622199064269;-0.3997802734375;-0.004229736328125;3.21999999187028;323;1 A
3.71622199061744;-0.399749755859375;-0.00422058105468751;3.22999999184503;324;1 A
3.72622199059219;-0.39971923828125;-0.004229736328125;3.23999999181979;325;1 A
3.73622199056695;-0.399749755859375;-0.0042236328125;3.24999999179454;326;1 A
3.7462219905417;-0.399749755859375;-0.004229736328125;3.25999999176929;327;1 A
3.75622199051645;-0.3997802734375;-0.0042266845703125;3.26999999174404;328;1 A
3.7662219904912;-0.399749755859375;-0.00423278808593749;3.2799999917188;329;1 A
3.77622199046596;-0.399749755859375;-0.00423278808593749;3.28999999169355;330;1 A
3.78622199044071;-0.3997802734375;-0.004229736328125;3.2999999916683;331;1 A
3.79622199041546;-0.399749755859375;-0.00423278808593749;3.30999999164305;332;1 A
3.80622199039021;-0.3997802734375;-0.00422058105468751;3.31999999161781;333;1 A
3.81622199036497;-0.399627685546875;-0.00422058105468751;3.32999999159256;334;1 A
3.82622199033972;-0.3997802734375;-0.0042236328125;3.33999999156731;335;1 A
3.83622199031447;-0.399810791015625;-0.0042144775390625;3.34999999154206;336;1 A
3.84622199028922;-0.3997802734375;-0.00422058105468751;3.35999999151682;337;1 A
3.85622199026398;-0.3997802734375;-0.00421142578125;3.36999999149157;338;1 A
3.86622199023873;-0.399749755859375;-0.00422058105468751;3.37999999146632;339;1 A
3.87622199021348;-0.39971923828125;-0.0042236328125;3.38999999144107;340;1 A
3.88622199018823;-0.399749755859375;-0.0042236328125;3.39999999141583;341;1 A
3.89622199016299;-0.3997802734375;-0.00423583984375001;3.40999999139058;342;1 A
3.90622199013774;-0.3997802734375;-0.004229736328125;3.41999999136533;343;1 A
3.91622199011249;-0.3997802734375;-0.00423583984375001;3.42999999134008;344;1 A
3.92622199008724;-0.39971923828125;-0.00423583984375001;3.43999999131483;345;1 A
3.93622199006199;-0.399749755859375;-0.004229736328125;3.44999999128959;346;1 A
3.94622199003675;-0.39971923828125;-0.00423278808593749;3.45999999126434;347;1 A
3.9562219900115;-0.399749755859375;-0.00423278808593749;3.46999999123909;348;1 A
3.96622198998625;-0.39971923828125;-0.0042236328125;3.47999999121384;349;1 A
3.976221989961;-0.39971923828125;-0.0042266845703125;3.4899999911886;350;1 A
3.98622198993576;-0.3997802734375;-0.0042083740234375;3.49999999116335;351;1 A
3.99622198991051;-0.399688720703125;-0.00421752929687499;3.5099999911381;352;1 A
4.00622198988526;-0.399749755859375;-0.00421142578125;3.51999999111285;353;1 A
4.01622198986001;-0.39971923828125;-0.0042144775390625;3.52999999108761;354;1 A
4.02622198983477;-0.3997802734375;-0.00421752929687499;3.53999999106236;355;1 A
4.03622198980952;-0.399749755859375;-0.0042144775390625;3.54999999103711;356;1 A
4.04622198978427;-0.399749755859375;-0.00423278808593749;3.55999999101186;357;1 A
4.05622198975902;-0.39971923828125;-0.004229736328125;3.56999999098662;358;1 A
4.06622198973378;-0.39971923828125;-0.0042388916015625;3.57999999096137;359;1 A
4.07622198970853;-0.39971923828125;-0.00424804687499999;3.58999999093612;360;1 A
4.08622198968328;-0.399749755859375;-0.004254150390625;3.59999999091087;361;1 A
4.09622198965803;-0.399810791015625;-0.00426635742187501;3.60999999088563;362;1 A
4.10622198963279;-0.3997802734375;-0.0042694091796875;3.61999999086038;363;1 A
4.11622198960754;-0.399749755859375;-0.0042755126953125;3.62999999083513;364;1 A
4.12622198958229;-0.3997802734375;-0.00428466796875;3.63999999080988;365;1 A
4.13622198955704;-0.3997802734375;-0.00428161621093751;3.64999999078464;366;1 A
4.1462219895318;-0.39971923828125;-0.0042877197265625;3.65999999075939;367;1 A
4.15622198950655;-0.399749755859375;-0.00428161621093751;3.66999999073414;368;1 A
4.1662219894813;-0.3997802734375;-0.00428161621093751;3.67999999070889;369;1 A
4.17622198945605;-0.399749755859375;-0.00427856445312499;3.68999999068365;370;1 A
4.18622198943081;-0.399749755859375;-0.00428466796875;3.6999999906584;371;1 A
4.19622198940556;-0.399688720703125;-0.0042877197265625;3.70999999063315;372;1 A
4.20622198938031;-0.39971923828125;-0.00428466796875;3.7199999906079;373;1 A
4.21622198935506;-0.3997802734375;-0.0042877197265625;3.72999999058266;374;1 A
4.22622198932982;-0.3997802734375;-0.004290771484375;3.73999999055741;375;1 A
4.23622198930457;-0.399749755859375;-0.0042877197265625;3.74999999053216;376;1 A
4.24622198927932;-0.399749755859375;-0.00429382324218749;3.75999999050691;377;1 A
4.25622198925407;-0.399749755859375;-0.004290771484375;3.76999999048167;378;1 A
4.26622198922882;-0.39971923828125;-0.0042877197265625;3.77999999045642;379;1 A
4.27622198920358;-0.399749755859375;-0.0042999267578125;3.78999999043117;380;1 A
4.28622198917833;-0.399749755859375;-0.0042877197265625;3.79999999040592;381;1 A
4.29622198915308;-0.3997802734375;-0.004302978515625;3.80999999038067;382;1 A
4.30622198912783;-0.399749755859375;-0.00429382324218749;3.81999999035543;383;1 A
4.31622198910259;-0.399749755859375;-0.0042999267578125;3.82999999033018;384;1 A
4.32622198907734;-0.399749755859375;-0.00429687500000001;3.83999999030493;385;1 A
4.33622198905209;-0.399749755859375;-0.0042877197265625;3.84999999027968;386;1 A
4.34622198902684;-0.3997802734375;-0.00429687500000001;3.85999999025444;387;1 A
4.3562219890016;-0.399749755859375;-0.0042877197265625;3.86999999022919;388;1 A
4.36622198897635;-0.39971923828125;-0.004290771484375;3.87999999020394;389;1 A
4.3762219889511;-0.399749755859375;-0.0042999267578125;3.88999999017869;390;1 A
4.38622198892585;-0.39971923828125;-0.00429382324218749;3.89999999015345;391;1 A
4.39622198890061;-0.3997802734375;-0.0043060302734375;3.9099999901282;392;1 A
4.40622198887536;-0.3997802734375;-0.0042999267578125;3.91999999010295;393;1 A
4.41622198885011;-0.39971923828125;-0.004302978515625;3.9299999900777;394;1 A
4.42622198882486;-0.3997802734375;-0.00430908203124999;3.93999999005246;395;1 A
4.43622198879962;-0.399749755859375;-0.004302978515625;3.94999999002721;396;1 A
4.44622198877437;-0.39971923828125;-0.00431213378906251;3.95999999000196;397;1 A
4.45622198874912;-0.39971923828125;-0.004302978515625;3.96999998997671;398;1 A
4.46622198872387;-0.3997802734375;-0.0043060302734375;3.97999998995147;399;1 A
4.47622198869863;-0.3997802734375;-0.0043060302734375;3.98999998992622;400;1 A
4.48622198867338;-0.399658203125;-0.004302978515625;3.99999998990097;401;1 A
4.49622198864813;-0.39971923828125;-0.0043060302734375;4.00999998987572;402;1 A
4.50622198862288;-0.399658203125;-0.0042999267578125;4.01999998985048;403;1 A
4.51622198859764;-0.399810791015625;-0.0042999267578125;4.02999998982523;404;1 A
4.52622198857239;-0.399810791015625;-0.004315185546875;4.03999998979998;405;1 A
4.53622198854714;-0.3997802734375;-0.00431213378906251;4.04999998977473;406;1 A
4.54622198852189;-0.3997802734375;-0.00432434082031249;4.05999998974949;407;1 A
4.55622198849665;-0.399749755859375;-0.00432434082031249;4.06999998972424;408;1 A
4.5662219884714;-0.399749755859375;-0.0043304443359375;4.07999998969899;409;1 A
4.57622198844615;-0.39971923828125;-0.0043365478515625;4.08999998967374;410;1 A
4.5862219884209;-0.39971923828125;-0.00433349609375;4.0999999896485;411;1 A
4.59622198839565;-0.39971923828125;-0.00434265136718751;4.10999998962325;412;1 A
4.60622198837041;-0.399749755859375;-0.00433959960937499;4.119999989598;413;1 A
4.61622198834516;-0.39971923828125;-0.004345703125;4.12999998957275;414;1 A
4.62622198831991;-0.39971923828125;-0.0043487548828125;4.1399999895475;415;1 A
4.63622198829466;-0.39971923828125;-0.00433959960937499;4.14999998952226;416;1 A
4.64622198826942;-0.399688720703125;-0.0043487548828125;4.15999998949701;417;1 A
4.65622198824417;-0.399810791015625;-0.00434265136718751;4.16999998947176;418;1 A
4.66622198821892;-0.3997802734375;-0.0043487548828125;4.17999998944651;419;1 A
4.67622198819367;-0.3997802734375;-0.00435791015625001;4.18999998942127;420;1 A
4.68622198816843;-0.39971923828125;-0.00435485839843749;4.19999998939602;421;1 A
4.69622198814318;-0.399749755859375;-0.0043670654296875;4.20999998937077;422;1 A
4.70622198811793;-0.3997802734375;-0.00437316894531251;4.21999998934552;423;1 A
4.71622198809268;-0.399749755859375;-0.00438232421875;4.22999998932028;424;1 A
4.72622198806744;-0.39971923828125;-0.0043914794921875;4.23999998929503;425;1 A
4.73622198804219;-0.3997802734375;-0.0043914794921875;4.24999998926978;426;1 A
4.74622198801694;-0.399688720703125;-0.0044097900390625;4.25999998924453;427;1 A
4.75622198799169;-0.399749755859375;-0.00440673828125;4.26999998921929;428;1 A
4.76622198796645;-0.399749755859375;-0.00441589355468749;4.27999998919404;429;1 A
4.7762219879412;-0.3997802734375;-0.0044219970703125;4.28999998916879;430;1 A
4.78622198791595;-0.399749755859375;-0.00441894531250001;4.29999998914354;431;1 A
4.7962219878907;-0.39971923828125;-0.0044281005859375;4.3099999891183;432;1 A
4.80622198786546;-0.399810791015625;-0.0044219970703125;4.31999998909305;433;1 A
4.81622198784021;-0.399810791015625;-0.0044219970703125;4.3299999890678;434;1 A
4.82622198781496;-0.39971923828125;-0.0044281005859375;4.33999998904255;435;1 A
4.83622198778971;-0.3997802734375;-0.0044281005859375;4.34999998901731;436;1 A
4.84622198776447;-0.399810791015625;-0.0044403076171875;4.35999998899206;437;1 A
4.85622198773922;-0.3997802734375;-0.00443420410156251;4.36999998896681;438;1 A
4.86622198771397;-0.399688720703125;-0.00444946289062501;4.37999998894156;439;1 A
4.87622198768872;-0.39971923828125;-0.0044525146484375;4.38999998891632;440;1 A
4.88622198766348;-0.399688720703125;-0.0044586181640625;4.39999998889107;441;1 A
4.89622198763823;-0.39971923828125;-0.0044708251953125;4.40999998886582;442;1 A
4.90622198761298;-0.39971923828125;-0.00447692871093749;4.41999998884057;443;1 A
4.91622198758773;-0.399810791015625;-0.00447998046875001;4.42999998881533;444;1 A
4.92622198756249;-0.399688720703125;-0.00449523925781251;4.43999998879008;445;1 A
4.93622198753724;-0.3997802734375;-0.00449523925781251;4.44999998876483;446;1 A
4.94622198751199;-0.3997802734375;-0.00450439453125;4.45999998873958;447;1 A
4.95622198748674;-0.3997802734375;-0.00450439453125;4.46999998871433;448;1 A
4.96622198746149;-0.3997802734375;-0.00451049804687501;4.47999998868909;449;1 A
4.97622198743625;-0.39984130859375;-0.0045166015625;4.48999998866384;450;1 A
4.986221987411;-0.399749755859375;-0.0045166015625;4.49999998863859;451;1 A
4.99622198738575;-0.399688720703125;-0.0045196533203125;4.50999998861334;452;1 A
5.0062219873605;-0.3997802734375;-0.0045196533203125;4.5199999885881;453;1 A
5.01622198733526;-0.3997802734375;-0.00452880859375;4.52999998856285;454;1 A
5.02622198731001;-0.399749755859375;-0.00453796386718749;4.5399999885376;455;1 A
5.03622198728476;-0.399749755859375;-0.00453796386718749;4.54999998851235;456;1 A
5.04622198725951;-0.399749755859375;-0.004547119140625;4.55999998848711;457;1 A
5.05622198723427;-0.399749755859375;-0.0045501708984375;4.56999998846186;458;1 A
5.06622198720902;-0.39971923828125;-0.00455627441406251;4.57999998843661;459;1 A
5.07622198718377;-0.399688720703125;-0.00456848144531249;4.58999998841136;460;1 A
5.08622198715852;-0.399749755859375;-0.0045745849609375;4.59999998838612;461;1 A
5.09622198713328;-0.39971923828125;-0.004595947265625;4.60999998836087;462;1 A
5.10622198710803;-0.399749755859375;-0.0045928955078125;4.61999998833562;463;1 A
5.11622198708278;-0.3997802734375;-0.00460205078125001;4.62999998831037;464;1 A
5.12622198705753;-0.399749755859375;-0.004608154296875;4.63999998828513;465;1 A
5.13622198703229;-0.399688720703125;-0.00460205078125001;4.64999998825988;466;1 A
5.14622198700704;-0.3997802734375;-0.00461425781249999;4.65999998823463;467;1 A
5.15622198698179;-0.399749755859375;-0.00459899902343749;4.66999998820938;468;1 A
5.16622198695654;-0.3997802734375;-0.00459899902343749;4.67999998818414;469;1 A
5.1762219869313;-0.399749755859375;-0.00459899902343749;4.68999998815889;470;1 A
5.18622198690605;-0.399688720703125;-0.00458374023437499;4.69999998813364;471;1 A
5.1962219868808;-0.39971923828125;-0.00458984375;4.70999998810839;472;1 A
5.20622198685555;-0.399749755859375;-0.0045745849609375;4.71999998808315;473;1 A
5.21622198683031;-0.399688720703125;-0.0045654296875;4.7299999880579;474;1 A
5.22622198680506;-0.3997802734375;-0.0045623779296875;4.73999998803265;475;1 A
5.23622198677981;-0.3997802734375;-0.00455322265624999;4.7499999880074;476;1 A
5.24622198675456;-0.39971923828125;-0.00455627441406251;4.75999998798216;477;1 A
5.25622198672932;-0.3997802734375;-0.0045501708984375;4.76999998795691;478;1 A
5.26622198670407;-0.399749755859375;-0.0045501708984375;4.77999998793166;479;1 A
5.27622198667882;-0.3997802734375;-0.00455627441406251;4.78999998790641;480;1 A
5.28622198665357;-0.399688720703125;-0.00455627441406251;4.79999998788116;481;1 A
5.29622198662832;-0.3997802734375;-0.0045623779296875;4.80999998785592;482;1 A
5.30622198660308;-0.3997802734375;-0.0045623779296875;4.81999998783067;483;1 A
5.31622198657783;-0.399749755859375;-0.004559326171875;4.82999998780542;484;1 A
5.32622198655258;-0.3997802734375;-0.0045623779296875;4.83999998778017;485;1 A
5.33622198652733;-0.399749755859375;-0.00455322265624999;4.84999998775493;486;1 A
5.34622198650209;-0.39984130859375;-0.004547119140625;4.85999998772968;487;1 A
5.35622198647684;-0.399749755859375;-0.0045318603515625;4.86999998770443;488;1 A
5.36622198645159;-0.399749755859375;-0.00452575683593751;4.87999998767918;489;1 A
5.37622198642634;-0.399749755859375;-0.00452575683593751;4.88999998765394;490;1 A
5.3862219864011;-0.399688720703125;-0.0045135498046875;4.89999998762869;491;1 A
5.39622198637585;-0.39971923828125;-0.0045135498046875;4.90999998760344;492;1 A
5.4062219863506;-0.399810791015625;-0.0045013427734375;4.91999998757819;493;1 A
5.41622198632535;-0.399749755859375;-0.004498291015625;4.92999998755295;494;1 A
5.42622198630011;-0.3997802734375;-0.00449523925781251;4.9399999875277;495;1 A
5.43622198627486;-0.39971923828125;-0.00447998046875001;4.94999998750245;496;1 A
5.44622198624961;-0.399688720703125;-0.00447998046875001;4.9599999874772;497;1 A
5.45622198622436;-0.39971923828125;-0.0044677734375;4.96999998745196;498;1 A
5.46622198619912;-0.399749755859375;-0.00446166992187499;4.97999998742671;499;1 A
5.47622198617387;-0.39971923828125;-0.0044586181640625;4.98999998740146;500;1 A
5.48622198614862;-0.399749755859375;-0.0044525146484375;4.99999998737621;501;1 A
5.49622198612337;-0.39971923828125;-0.0044525146484375;5.00999998735097;502;1 A
5.50622198609813;-0.399688720703125;-0.00444641113281249;5.01999998732572;503;1 A
5.51622198607288;-0.399749755859375;-0.00444641113281249;5.02999998730047;504;1 A
5.52622198604763;-0.399749755859375;-0.0044403076171875;5.03999998727522;505;1 A
5.53622198602238;-0.3997802734375;-0.00443115234374999;5.04999998724998;506;1 A
5.54622198599714;-0.39971923828125;-0.004443359375;5.05999998722473;507;1 A
5.55622198597189;-0.399749755859375;-0.00443115234374999;5.06999998719948;508;1 A
5.56622198594664;-0.3997802734375;-0.00443420410156251;5.07999998717423;509;1 A
5.57622198592139;-0.399658203125;-0.004437255859375;5.08999998714899;510;1 A
5.58622198589615;-0.399810791015625;-0.00443420410156251;5.09999998712374;511;1 A
5.5962219858709;-0.3997802734375;-0.004443359375;5.10999998709849;512;1 A
5.60622198584565;-0.3997802734375;-0.0044403076171875;5.11999998707324;513;1 A
5.6162219858204;-0.39971923828125;-0.0044403076171875;5.129999987048;514;1 A
5.62622198579515;-0.399749755859375;-0.00444641113281249;5.13999998702275;515;1 A
5.63622198576991;-0.399749755859375;-0.00444946289062501;5.1499999869975;516;1 A
5.64622198574466;-0.399749755859375;-0.0044586181640625;5.15999998697225;517;1 A
5.65622198571941;-0.3997802734375;-0.00445556640625;5.169999986947;518;1 A
5.66622198569416;-0.39971923828125;-0.00444946289062501;5.17999998692176;519;1 A
5.67622198566892;-0.39971923828125;-0.0044586181640625;5.18999998689651;520;1 A
5.68622198564367;-0.399749755859375;-0.0044586181640625;5.19999998687126;521;1 A
5.69622198561842;-0.39971923828125;-0.00446472167968751;5.20999998684601;522;1 A
5.70622198559317;-0.39971923828125;-0.00446166992187499;5.21999998682077;523;1 A
5.71622198556793;-0.399810791015625;-0.0044586181640625;5.22999998679552;524;1 A
5.72622198554268;-0.3997802734375;-0.0044677734375;5.23999998677027;525;1 A
5.73622198551743;-0.3997802734375;-0.00445556640625;5.24999998674502;526;1 A
5.74622198549218;-0.39971923828125;-0.00445556640625;5.25999998671978;527;1 A
5.75622198546694;-0.39971923828125;-0.00444946289062501;5.26999998669453;528;1 A
5.76622198544169;-0.39971923828125;-0.004443359375;5.27999998666928;529;1 A
5.77622198541644;-0.3997802734375;-0.004437255859375;5.28999998664403;530;1 A
5.78622198539119;-0.3997802734375;-0.0044281005859375;5.29999998661879;531;1 A
5.79622198536595;-0.39971923828125;-0.0044281005859375;5.30999998659354;532;1 A
5.8062219853407;-0.399749755859375;-0.00441894531250001;5.31999998656829;533;1 A
5.81622198531545;-0.39971923828125;-0.00441894531250001;5.32999998654304;534;1 A
5.8262219852902;-0.399810791015625;-0.00441589355468749;5.3399999865178;535;1 A
5.83622198526496;-0.399810791015625;-0.0044097900390625;5.34999998649255;536;1 A
5.84622198523971;-0.39971923828125;-0.00441589355468749;5.3599999864673;537;1 A
5.85622198521446;-0.399749755859375;-0.0044097900390625;5.36999998644205;538;1 A
5.86622198518921;-0.39971923828125;-0.0044097900390625;5.37999998641681;539;1 A
5.87622198516397;-0.39971923828125;-0.0044097900390625;5.38999998639156;540;1 A
5.88622198513872;-0.3997802734375;-0.00440673828125;5.39999998636631;541;1 A
5.89622198511347;-0.39971923828125;-0.0044097900390625;5.40999998634106;542;1 A
5.90622198508822;-0.3997802734375;-0.0044097900390625;5.41999998631582;543;1 A
5.91622198506298;-0.3997802734375;-0.0044097900390625;5.42999998629057;544;1 A
5.92622198503773;-0.3997802734375;-0.00440673828125;5.43999998626532;545;1 A
5.93622198501248;-0.399749755859375;-0.00440673828125;5.44999998624007;546;1 A
5.94622198498723;-0.399688720703125;-0.004412841796875;5.45999998621483;547;1 A
5.95622198496199;-0.399749755859375;-0.00440368652343751;5.46999998618958;548;1 A
5.96622198493674;-0.39971923828125;-0.00440673828125;5.47999998616433;549;1 A
5.97622198491149;-0.3997802734375;-0.00441589355468749;5.48999998613908;550;1 A
5.98622198488624;-0.399688720703125;-0.004412841796875;5.49999998611383;551;1 A
5.99622198486099;-0.3997802734375;-0.00441894531250001;5.50999998608859;552;1 A
6.00622198483575;-0.39971923828125;-0.00441894531250001;5.51999998606334;553;1 A
6.0162219848105;-0.39971923828125;-0.00441894531250001;5.52999998603809;554;1 A
6.02622198478525;-0.399749755859375;-0.00443115234374999;5.53999998601284;555;1 A
6.03622198476;-0.399749755859375;-0.0044281005859375;5.5499999859876;556;1 A
6.04622198473476;-0.399749755859375;-0.0044403076171875;5.55999998596235;557;1 A
6.05622198470951;-0.3997802734375;-0.00443420410156251;5.5699999859371;558;1 A
6.06622198468426;-0.399749755859375;-0.00443420410156251;5.57999998591185;559;1 A
6.07622198465901;-0.399749755859375;-0.00443420410156251;5.58999998588661;560;1 A
6.08622198463377;-0.399749755859375;-0.00443115234374999;5.59999998586136;561;1 A
6.09622198460852;-0.399810791015625;-0.004437255859375;5.60999998583611;562;1 A
6.10622198458327;-0.39971923828125;-0.00443420410156251;5.61999998581086;563;1 A
6.11622198455802;-0.399688720703125;-0.00443115234374999;5.62999998578562;564;1 A
6.12622198453278;-0.399749755859375;-0.004437255859375;5.63999998576037;565;1 A
6.13622198450753;-0.39971923828125;-0.0044219970703125;5.64999998573512;566;1 A
6.14622198448228;-0.399749755859375;-0.004425048828125;5.65999998570987;567;1 A
6.15622198445703;-0.399749755859375;-0.00441589355468749;5.66999998568463;568;1 A
6.16622198443179;-0.3997802734375;-0.0044097900390625;5.67999998565938;569;1 A
6.17622198440654;-0.399749755859375;-0.0044097900390625;5.68999998563413;570;1 A
6.18622198438129;-0.39971923828125;-0.0044097900390625;5.69999998560888;571;1 A
6.19622198435604;-0.399749755859375;-0.004412841796875;5.70999998558364;572;1 A
6.2062219843308;-0.39971923828125;-0.00440673828125;5.71999998555839;573;1 A
6.21622198430555;-0.399749755859375;-0.00440368652343751;5.72999998553314;574;1 A
6.2262219842803;-0.39971923828125;-0.00440673828125;5.73999998550789;575;1 A
6.23622198425505;-0.399749755859375;-0.0044097900390625;5.74999998548265;576;1 A
6.24622198422981;-0.399810791015625;-0.00441894531250001;5.7599999854574;577;1 A
6.25622198420456;-0.399749755859375;-0.0044097900390625;5.76999998543215;578;1 A
6.26622198417931;-0.399749755859375;-0.004412841796875;5.7799999854069;579;1 A
6.27622198415406;-0.399749755859375;-0.00441589355468749;5.78999998538166;580;1 A
6.28622198412882;-0.399749755859375;-0.00441894531250001;5.79999998535641;581;1 A
6.29622198410357;-0.3997802734375;-0.0044219970703125;5.80999998533116;582;1 A
6.30622198407832;-0.3997802734375;-0.00441894531250001;5.81999998530591;583;1 A
6.31622198405307;-0.39971923828125;-0.0044219970703125;5.82999998528066;584;1 A
6.32622198402782;-0.399749755859375;-0.0044281005859375;5.83999998525542;585;1 A
6.33622198400258;-0.3997802734375;-0.0044281005859375;5.84999998523017;586;1 A
6.34622198397733;-0.399749755859375;-0.0044403076171875;5.85999998520492;587;1 A
6.35622198395208;-0.3997802734375;-0.00443115234374999;5.86999998517967;588;1 A
6.36622198392683;-0.3997802734375;-0.00443420410156251;5.87999998515443;589;1 A
6.37622198390159;-0.399749755859375;-0.004437255859375;5.88999998512918;590;1 A
6.38622198387634;-0.399749755859375;-0.00443115234374999;5.89999998510393;591;1 A
6.39622198385109;-0.399810791015625;-0.00443420410156251;5.90999998507868;592;1 A
6.40622198382584;-0.39971923828125;-0.0044281005859375;5.91999998505344;593;1 A
6.4162219838006;-0.399749755859375;-0.0042999267578125;5.92999998502819;594;1 A
6.42622198377535;-0.399749755859375;-0.00439453125;5.93999998500294;595;1 A
6.4362219837501;-0.399749755859375;-0.00440673828125;5.94999998497769;596;1 A
6.44622198372485;-0.399749755859375;-0.0044097900390625;5.95999998495245;597;1 A
6.45622198369961;-0.399749755859375;-0.00440063476562499;5.9699999849272;598;1 A
6.46622198367436;-0.399749755859375;-0.0043975830078125;5.97999998490195;599;1 A
6.47622198364911;-0.39971923828125;-0.00440063476562499;5.9899999848767;600;1 A
6.48622198362386;-0.399749755859375;-0.0043914794921875;5.99999998485146;601;1 A
6.49622198359862;-0.399749755859375;-0.0043914794921875;6.00999998482621;602;1 A
6.50622198357337;-0.39971923828125;-0.004376220703125;6.01999998480096;603;1 A
6.51622198354812;-0.399749755859375;-0.00437011718749999;6.02999998477571;604;1 A
6.52622198352287;-0.39971923828125;-0.00437316894531251;6.03999998475047;605;1 A
6.53622198349763;-0.39971923828125;-0.00435791015625001;6.04999998472522;606;1 A
6.54622198347238;-0.399688720703125;-0.00435791015625001;6.05999998469997;607;1 A
6.55622198344713;-0.399749755859375;-0.004345703125;6.06999998467472;608;1 A
6.56622198342188;-0.399688720703125;-0.00433959960937499;6.07999998464948;609;1 A
6.57622198339664;-0.399749755859375;-0.0043365478515625;6.08999998462423;610;1 A
6.58622198337139;-0.399810791015625;-0.0043365478515625;6.09999998459898;611;1 A
6.59622198334614;-0.399749755859375;-0.0043365478515625;6.10999998457373;612;1 A
6.60622198332089;-0.399749755859375;-0.0043365478515625;6.11999998454849;613;1 A
6.61622198329565;-0.399749755859375;-0.00432434082031249;6.12999998452324;614;1 A
6.6262219832704;-0.399749755859375;-0.0043212890625;6.13999998449799;615;1 A
6.63622198324515;-0.399749755859375;-0.004315185546875;6.14999998447274;616;1 A
6.6462219832199;-0.399810791015625;-0.00431213378906251;6.1599999844475;617;1 A
6.65622198319465;-0.3997802734375;-0.0042999267578125;6.16999998442225;618;1 A
6.66622198316941;-0.399749755859375;-0.00429382324218749;6.179999984397;619;1 A
6.67622198314416;-0.399688720703125;-0.004290771484375;6.18999998437175;620;1 A
6.68622198311891;-0.39984130859375;-0.00426330566406249;6.1999999843465;621;1 A
6.69622198309366;-0.399688720703125;-0.00427856445312499;6.20999998432126;622;1 A
6.70622198306842;-0.3997802734375;-0.0042755126953125;6.21999998429601;623;1 A
6.71622198304317;-0.3997802734375;-0.00426025390625;6.22999998427076;624;1 A
6.72622198301792;-0.39971923828125;-0.004229736328125;6.23999998424551;625;1 A
6.73622198299267;-0.399749755859375;-0.00426330566406249;6.24999998422027;626;1 A
6.74622198296743;-0.399688720703125;-0.00426635742187501;6.25999998419502;627;1 A
6.75622198294218;-0.3997802734375;-0.00423583984375001;6.26999998416977;628;1 A
6.76622198291693;-0.3997802734375;-0.0042572021484375;6.27999998414452;629;1 A
6.77622198289168;-0.399749755859375;-0.004254150390625;6.28999998411928;630;1 A
6.78622198286644;-0.3997802734375;-0.004241943359375;6.29999998409403;631;1 A
6.79622198284119;-0.399749755859375;-0.00424804687499999;6.30999998406878;632;1 A
6.80622198281594;-0.399749755859375;-0.00423278808593749;6.31999998404353;633;1 A
6.81622198279069;-0.39971923828125;-0.00422058105468751;6.32999998401829;634;1 A
6.82622198276545;-0.399749755859375;-0.0042236328125;6.33999998399304;635;1 A
6.8362219827402;-0.399749755859375;-0.0042083740234375;6.34999998396779;636;1 A
6.84622198271495;-0.399749755859375;-0.0042144775390625;6.35999998394254;637;1 A
6.8562219826897;-0.399749755859375;-0.0042083740234375;6.3699999839173;638;1 A
6.86622198266446;-0.399749755859375;-0.0042083740234375;6.37999998389205;639;1 A
6.87622198263921;-0.399749755859375;-0.0042144775390625;6.3899999838668;640;1 A
6.88622198261396;-0.399688720703125;-0.00421142578125;6.39999998384155;641;1 A
6.89622198258871;-0.399810791015625;-0.00422058105468751;6.40999998381631;642;1 A
6.90622198256347;-0.399749755859375;-0.00422058105468751;6.41999998379106;643;1 A
6.91622198253822;-0.399749755859375;-0.0042266845703125;6.42999998376581;644;1 A
6.92622198251297;-0.3997802734375;-0.0042388916015625;6.43999998374056;645;1 A
6.93622198248772;-0.39971923828125;-0.00423278808593749;6.44999998371532;646;1 A
6.94622198246248;-0.3997802734375;-0.0042388916015625;6.45999998369007;647;1 A
6.95622198243723;-0.399749755859375;-0.00423583984375001;6.46999998366482;648;1 A
6.96622198241198;-0.3997802734375;-0.00423278808593749;6.47999998363957;649;1 A
6.97622198238673;-0.399810791015625;-0.00423583984375001;6.48999998361433;650;1 A
6.98622198236149;-0.399688720703125;-0.00423278808593749;6.49999998358908;651;1 A
6.99622198233624;-0.39971923828125;-0.004241943359375;6.50999998356383;652;1 A
7.00622198231099;-0.399749755859375;-0.004241943359375;6.51999998353858;653;1 A
7.01622198228574;-0.399749755859375;-0.004241943359375;6.52999998351333;654;1 A
7.02622198226049;-0.39971923828125;-0.00425109863281251;6.53999998348809;655;1 A
7.03622198223525;-0.399749755859375;-0.00425109863281251;6.54999998346284;656;1 A
7.04622198221;-0.3997802734375;-0.0041473388671875;6.55999998343759;657;1 A
7.05622198218475;-0.399658203125;-0.00415954589843751;6.56999998341234;658;1 A
7.0662219821595;-0.39971923828125;-0.004241943359375;6.5799999833871;659;1 A
7.07622198213426;-0.399749755859375;-0.0042449951171875;6.58999998336185;660;1 A
7.08622198210901;-0.399688720703125;-0.0042388916015625;6.5999999833366;661;1 A
7.09622198208376;-0.39971923828125;-0.0042449951171875;6.60999998331135;662;1 A
7.10622198205851;-0.399749755859375;-0.00423583984375001;6.61999998328611;663;1 A
7.11622198203327;-0.399749755859375;-0.004229736328125;6.62999998326086;664;1 A
7.12622198200802;-0.39971923828125;-0.004229736328125;6.63999998323561;665;1 A
7.13622198198277;-0.399810791015625;-0.00422058105468751;6.64999998321036;666;1 A
7.14622198195752;-0.399749755859375;-0.0042266845703125;6.65999998318512;667;1 A
7.15622198193228;-0.399749755859375;-0.00421752929687499;6.66999998315987;668;1 A
7.16622198190703;-0.399749755859375;-0.0042236328125;6.67999998313462;669;1 A
7.17622198188178;-0.399688720703125;-0.0042236328125;6.68999998310937;670;1 A
7.18622198185653;-0.399749755859375;-0.0042083740234375;6.69999998308413;671;1 A
7.19622198183129;-0.3997802734375;-0.0042236328125;6.70999998305888;672;1 A
7.20622198180604;-0.3997802734375;-0.00421752929687499;6.71999998303363;673;1 A
7.21622198178079;-0.3997802734375;-0.0042083740234375;6.72999998300838;674;1 A
7.22622198175554;-0.399688720703125;-0.00421142578125;6.73999998298314;675;1 A
7.2362219817303;-0.39971923828125;-0.0041961669921875;6.74999998295789;676;1 A
7.24622198170505;-0.399810791015625;-0.0041961669921875;6.75999998293264;677;1 A
7.2562219816798;-0.399749755859375;-0.00418701171874999;6.76999998290739;678;1 A
7.26622198165455;-0.3997802734375;-0.0041839599609375;6.77999998288215;679;1 A
7.27622198162931;-0.399688720703125;-0.004193115234375;6.7899999828569;680;1 A
7.28622198160406;-0.399658203125;-0.00418701171874999;6.79999998283165;681;1 A
7.29622198157881;-0.3997802734375;-0.00419006347656251;6.8099999828064;682;1 A
7.30622198155356;-0.39971923828125;-0.00419006347656251;6.81999998278116;683;1 A
7.31622198152832;-0.39984130859375;-0.00419006347656251;6.82999998275591;684;1 A
7.32622198150307;-0.399749755859375;-0.00420227050781249;6.83999998273066;685;1 A
7.33622198147782;-0.3997802734375;-0.00420227050781249;6.84999998270541;686;1 A
7.34622198145257;-0.399749755859375;-0.00420532226562501;6.85999998268016;687;1 A
7.35622198142732;-0.399688720703125;-0.00420532226562501;6.86999998265492;688;1 A
7.36622198140208;-0.399688720703125;-0.00419921875;6.87999998262967;689;1 A
7.37622198137683;-0.399749755859375;-0.00420532226562501;6.88999998260442;690;1 A
7.38622198135158;-0.3997802734375;-0.0041961669921875;6.89999998257917;691;1 A
7.39622198132633;-0.399810791015625;-0.004193115234375;6.90999998255393;692;1 A
7.40622198130109;-0.39971923828125;-0.00419006347656251;6.91999998252868;693;1 A
7.41622198127584;-0.399688720703125;-0.0041839599609375;6.92999998250343;694;1 A
7.42622198125059;-0.399627685546875;-0.00418701171874999;6.93999998247818;695;1 A
7.43622198122534;-0.399749755859375;-0.00419006347656251;6.94999998245294;696;1 A
7.4462219812001;-0.39971923828125;-0.004193115234375;6.95999998242769;697;1 A
7.45622198117485;-0.39971923828125;-0.00419006347656251;6.96999998240244;698;1 A
7.4662219811496;-0.39971923828125;-0.00419006347656251;6.97999998237719;699;1 A
7.47622198112435;-0.399688720703125;-0.00419921875;6.98999998235195;700;1 A
7.48622198109911;-0.39971923828125;-0.00420227050781249;6.9999999823267;701;1 A
7.49622198107386;-0.399749755859375;-0.0042083740234375;7.00999998230145;702;1 A
7.50622198104861;-0.399749755859375;-0.0042083740234375;7.0199999822762;703;1 A
7.51622198102336;-0.399749755859375;-0.00420532226562501;7.02999998225096;704;1 A
7.52622198099812;-0.399749755859375;-0.00421752929687499;7.03999998222571;705;1 A
7.53622198097287;-0.399688720703125;-0.0042144775390625;7.04999998220046;706;1 A
7.54622198094762;-0.39971923828125;-0.00423278808593749;7.05999998217521;707;1 A
7.55622198092237;-0.399749755859375;-0.00423278808593749;7.06999998214997;708;1 A
7.56622198089713;-0.399749755859375;-0.0042449951171875;7.07999998212472;709;1 A
7.57622198087188;-0.399749755859375;-0.00424804687499999;7.08999998209947;710;1 A
7.58622198084663;-0.3997802734375;-0.004254150390625;7.09999998207422;711;1 A
7.59622198082138;-0.39971923828125;-0.00426025390625;7.10999998204898;712;1 A
7.60622198079614;-0.3997802734375;-0.004254150390625;7.11999998202373;713;1 A
7.61622198077089;-0.39971923828125;-0.00425109863281251;7.12999998199848;714;1 A
7.62622198074564;-0.39971923828125;-0.00426025390625;7.13999998197323;715;1 A
7.63622198072039;-0.3997802734375;-0.00425109863281251;7.14999998194799;716;1 A
7.64622198069515;-0.3997802734375;-0.0042572021484375;7.15999998192274;717;1 A
7.6562219806699;-0.3997802734375;-0.0042572021484375;7.16999998189749;718;1 A
7.66622198064465;-0.39971923828125;-0.00426025390625;7.17999998187224;719;1 A
7.6762219806194;-0.39971923828125;-0.0042694091796875;7.189999981847;720;1 A
7.68622198059415;-0.39971923828125;-0.00426635742187501;7.19999998182175;721;1 A
7.69622198056891;-0.3997802734375;-0.0042724609375;7.2099999817965;722;1 A
7.70622198054366;-0.39971923828125;-0.0042694091796875;7.21999998177125;723;1 A
7.71622198051841;-0.39971923828125;-0.0042694091796875;7.229999981746;724;1 A
7.72622198049316;-0.399749755859375;-0.0042755126953125;7.23999998172076;725;1 A
7.73622198046792;-0.399749755859375;-0.0042755126953125;7.24999998169551;726;1 A
7.74622198044267;-0.399688720703125;-0.00428466796875;7.25999998167026;727;1 A
7.75622198041742;-0.39984130859375;-0.00428161621093751;7.26999998164501;728;1 A
7.76622198039217;-0.3997802734375;-0.00428161621093751;7.27999998161977;729;1 A
7.77622198036693;-0.3997802734375;-0.00428466796875;7.28999998159452;730;1 A
7.78622198034168;-0.3997802734375;-0.00428466796875;7.29999998156927;731;1 A
7.79622198031643;-0.3997802734375;-0.00428161621093751;7.30999998154402;732;1 A
7.80622198029118;-0.399658203125;-0.00428466796875;7.31999998151878;733;1 A
7.81622198026594;-0.3997802734375;-0.00428466796875;7.32999998149353;734;1 A
7.82622198024069;-0.399749755859375;-0.004290771484375;7.33999998146828;735;1 A
7.83622198021544;-0.39971923828125;-0.004290771484375;7.34999998144303;736;1 A
7.84622198019019;-0.3997802734375;-0.00429687500000001;7.35999998141779;737;1 A
7.85622198016495;-0.3997802734375;-0.0042877197265625;7.36999998139254;738;1 A
7.8662219801397;-0.39971923828125;-0.00428161621093751;7.37999998136729;739;1 A
7.87622198011445;-0.399749755859375;-0.00428161621093751;7.38999998134204;740;1 A
7.8862219800892;-0.3997802734375;-0.0042755126953125;7.3999999813168;741;1 A
7.89622198006396;-0.399810791015625;-0.0042755126953125;7.40999998129155;742;1 A
7.90622198003871;-0.399749755859375;-0.00426635742187501;7.4199999812663;743;1 A
7.91622198001346;-0.39984130859375;-0.00426330566406249;7.42999998124105;744;1 A
7.92622197998821;-0.39971923828125;-0.00426330566406249;7.43999998121581;745;1 A
7.93622197996297;-0.39971923828125;-0.004254150390625;7.44999998119056;746;1 A
7.94622197993772;-0.3997802734375;-0.0042572021484375;7.45999998116531;747;1 A
7.95622197991247;-0.39971923828125;-0.004254150390625;7.46999998114006;748;1 A
7.96622197988722;-0.3997802734375;-0.004254150390625;7.47999998111482;749;1 A
7.97622197986198;-0.399688720703125;-0.004254150390625;7.48999998108957;750;1 A
7.98622197983673;-0.399749755859375;-0.0042449951171875;7.49999998106432;751;1 A
7.99622197981148;-0.3997802734375;-0.00425109863281251;7.50999998103907;752;1 A
8.00622197978623;-0.399749755859375;-0.004241943359375;7.51999998101383;753;1 A
8.01622197976099;-0.3997802734375;-0.004241943359375;7.52999998098858;754;1 A
8.02622197973574;-0.399749755859375;-0.00424804687499999;7.53999998096333;755;1 A
8.03622197971049;-0.39971923828125;-0.00423278808593749;7.54999998093808;756;1 A
8.04622197968524;-0.399749755859375;-0.00424804687499999;7.55999998091283;757;1 A
8.05622197965999;-0.3997802734375;-0.004241943359375;7.56999998088759;758;1 A
8.06622197963475;-0.3997802734375;-0.004241943359375;7.57999998086234;759;1 A
8.0762219796095;-0.399749755859375;-0.004254150390625;7.58999998083709;760;1 A
8.08622197958425;-0.399688720703125;-0.00425109863281251;7.59999998081184;761;1 A
8.096221979559;-0.39971923828125;-0.004254150390625;7.6099999807866;762;1 A
8.10622197953376;-0.39971923828125;-0.004254150390625;7.61999998076135;763;1 A
8.11622197950851;-0.399749755859375;-0.00425109863281251;7.6299999807361;764;1 A
8.12622197948326;-0.399749755859375;-0.00426025390625;7.63999998071085;765;1 A
8.13622197945801;-0.399810791015625;-0.00426330566406249;7.64999998068561;766;1 A
8.14622197943277;-0.399749755859375;-0.0042755126953125;7.65999998066036;767;1 A
8.15622197940752;-0.399749755859375;-0.0042755126953125;7.66999998063511;768;1 A
8.16622197938227;-0.39971923828125;-0.00427856445312499;7.67999998060986;769;1 A
8.17622197935702;-0.39971923828125;-0.0042877197265625;7.68999998058462;770;1 A
8.18622197933178;-0.399688720703125;-0.0042877197265625;7.69999998055937;771;1 A
8.19622197930653;-0.39971923828125;-0.00429687500000001;7.70999998053412;772;1 A
8.20622197928128;-0.399749755859375;-0.00429382324218749;7.71999998050887;773;1 A
8.21622197925603;-0.399749755859375;-0.00429382324218749;7.72999998048363;774;1 A
8.22622197923079;-0.399688720703125;-0.00429382324218749;7.73999998045838;775;1 A
8.23622197920554;-0.399749755859375;-0.0042877197265625;7.74999998043313;776;1 A
8.24622197918029;-0.399749755859375;-0.00428466796875;7.75999998040788;777;1 A
8.25622197915504;-0.39971923828125;-0.00426635742187501;7.76999998038264;778;1 A
8.2662219791298;-0.399810791015625;-0.00426635742187501;7.77999998035739;779;1 A
8.27622197910455;-0.399688720703125;-0.00426025390625;7.78999998033214;780;1 A
8.2862219790793;-0.3997802734375;-0.004254150390625;7.79999998030689;781;1 A
8.29622197905405;-0.39971923828125;-0.00425109863281251;7.80999998028165;782;1 A
8.30622197902881;-0.39971923828125;-0.00424804687499999;7.8199999802564;783;1 A
8.31622197900356;-0.39971923828125;-0.0042449951171875;7.82999998023115;784;1 A
8.32622197897831;-0.399749755859375;-0.0042388916015625;7.8399999802059;785;1 A
8.33622197895306;-0.399749755859375;-0.004229736328125;7.84999998018066;786;1 A
8.34622197892782;-0.399658203125;-0.00423583984375001;7.85999998015541;787;1 A
8.35622197890257;-0.399749755859375;-0.00422058105468751;7.86999998013016;788;1 A
8.36622197887732;-0.3997802734375;-0.0042236328125;7.87999998010491;789;1 A
8.37622197885207;-0.399688720703125;-0.0042236328125;7.88999998007966;790;1 A
8.38622197882682;-0.3997802734375;-0.00421142578125;7.89999998005442;791;1 A
8.39622197880158;-0.399749755859375;-0.0042144775390625;7.90999998002917;792;1 A
8.40622197877633;-0.399749755859375;-0.00420227050781249;7.91999998000392;793;1 A
8.41622197875108;-0.39971923828125;-0.00419006347656251;7.92999997997867;794;1 A
8.42622197872583;-0.399749755859375;-0.0041839599609375;7.93999997995343;795;1 A
8.43622197870059;-0.3997802734375;-0.004168701171875;7.94999997992818;796;1 A
8.44622197867534;-0.3997802734375;-0.004168701171875;7.95999997990293;797;1 A
8.45622197865009;-0.39971923828125;-0.00415649414062499;7.96999997987768;798;1 A
8.46622197862484;-0.39971923828125;-0.00415649414062499;7.97999997985244;799;1 A
8.4762219785996;-0.399749755859375;-0.00416259765625;7.98999997982719;800;1 A
8.48622197857435;-0.39971923828125;-0.0041534423828125;7.99999997980194;801;1 A
8.4962219785491;-0.399688720703125;-0.0041534423828125;8.00999997977669;802;1 A
8.50622197852385;-0.399688720703125;-0.00414123535156249;8.01999997975145;803;1 A
8.51622197849861;-0.39971923828125;-0.00413818359375;8.0299999797262;804;1 A
8.52622197847336;-0.3997802734375;-0.00414428710937501;8.03999997970095;805;1 A
8.53622197844811;-0.399749755859375;-0.00414123535156249;8.0499999796757;806;1 A
8.54622197842286;-0.3997802734375;-0.004150390625;8.05999997965046;807;1 A
8.55622197839762;-0.3997802734375;-0.004150390625;8.06999997962521;808;1 A
8.56622197837237;-0.399749755859375;-0.0041534423828125;8.07999997959996;809;1 A
8.57622197834712;-0.399749755859375;-0.00416259765625;8.08999997957471;810;1 A
8.58622197832187;-0.399749755859375;-0.004168701171875;8.09999997954947;811;1 A
8.59622197829663;-0.399688720703125;-0.00417175292968749;8.10999997952422;812;1 A
8.60622197827138;-0.39971923828125;-0.00417480468750001;8.11999997949897;813;1 A
8.61622197824613;-0.399749755859375;-0.004168701171875;8.12999997947372;814;1 A
8.62622197822088;-0.399749755859375;-0.004180908203125;8.13999997944848;815;1 A
8.63622197819564;-0.399749755859375;-0.0041839599609375;8.14999997942323;816;1 A
8.64622197817039;-0.399749755859375;-0.0041961669921875;8.15999997939798;817;1 A
8.65622197814514;-0.399688720703125;-0.004193115234375;8.16999997937273;818;1 A
8.66622197811989;-0.399688720703125;-0.0041961669921875;8.17999997934749;819;1 A
8.67622197809465;-0.3997802734375;-0.00420227050781249;8.18999997932224;820;1 A
8.6862219780694;-0.39971923828125;-0.00420532226562501;8.19999997929699;821;1 A
8.69622197804415;-0.399810791015625;-0.0042144775390625;8.20999997927174;822;1 A
8.7062219780189;-0.39971923828125;-0.00421752929687499;8.2199999792465;823;1 A
8.71622197799365;-0.39971923828125;-0.0042266845703125;8.22999997922125;824;1 A
8.72622197796841;-0.399749755859375;-0.00423583984375001;8.239999979196;825;1 A
8.73622197794316;-0.399749755859375;-0.0042449951171875;8.24999997917075;826;1 A
8.74622197791791;-0.399810791015625;-0.00426025390625;8.2599999791455;827;1 A
8.75622197789266;-0.399810791015625;-0.00426635742187501;8.26999997912026;828;1 A
8.76622197786742;-0.3997802734375;-0.00427856445312499;8.27999997909501;829;1 A
8.77622197784217;-0.399749755859375;-0.00429382324218749;8.28999997906976;830;1 A
8.78622197781692;-0.39971923828125;-0.004302978515625;8.29999997904451;831;1 A
8.79622197779167;-0.399810791015625;-0.0043182373046875;8.30999997901927;832;1 A
8.80622197776643;-0.399749755859375;-0.0043212890625;8.31999997899402;833;1 A
8.81622197774118;-0.399749755859375;-0.00432434082031249;8.32999997896877;834;1 A
8.82622197771593;-0.399749755859375;-0.0043365478515625;8.33999997894352;835;1 A
8.83622197769068;-0.399658203125;-0.0043304443359375;8.34999997891828;836;1 A
8.84622197766544;-0.39971923828125;-0.00433959960937499;8.35999997889303;837;1 A
8.85622197764019;-0.39971923828125;-0.0043304443359375;8.36999997886778;838;1 A
8.86622197761494;-0.3997802734375;-0.0043304443359375;8.37999997884253;839;1 A
8.87622197758969;-0.3997802734375;-0.00433349609375;8.38999997881729;840;1 A
8.88622197756445;-0.3997802734375;-0.00432739257812501;8.39999997879204;841;1 A
8.8962219775392;-0.39971923828125;-0.00432434082031249;8.40999997876679;842;1 A
8.90622197751395;-0.39971923828125;-0.0043182373046875;8.41999997874154;843;1 A
8.9162219774887;-0.399749755859375;-0.004315185546875;8.4299999787163;844;1 A
8.92622197746346;-0.3997802734375;-0.0043212890625;8.43999997869105;845;1 A
8.93622197743821;-0.399749755859375;-0.004315185546875;8.4499999786658;846;1 A
8.94622197741296;-0.39984130859375;-0.00432739257812501;8.45999997864055;847;1 A
8.95622197738771;-0.399688720703125;-0.0043212890625;8.46999997861531;848;1 A
8.96622197736247;-0.399749755859375;-0.0043212890625;8.47999997859006;849;1 A
8.97622197733722;-0.399688720703125;-0.00432434082031249;8.48999997856481;850;1 A
8.98622197731197;-0.3997802734375;-0.0043182373046875;8.49999997853956;851;1 A
8.99622197728672;-0.399749755859375;-0.0043182373046875;8.50999997851432;852;1 A
9.00622197726148;-0.399688720703125;-0.004315185546875;8.51999997848907;853;1 A
9.01622197723623;-0.3997802734375;-0.0043060302734375;8.52999997846382;854;1 A
9.02622197721098;-0.39971923828125;-0.00431213378906251;8.53999997843857;855;1 A
9.03622197718573;-0.3997802734375;-0.00430908203124999;8.54999997841333;856;1 A
9.04622197716049;-0.399749755859375;-0.004315185546875;8.55999997838808;857;1 A
9.05622197713524;-0.39971923828125;-0.0043060302734375;8.56999997836283;858;1 A
9.06622197710999;-0.399749755859375;-0.004302978515625;8.57999997833758;859;1 A
9.07622197708474;-0.39971923828125;-0.00430908203124999;8.58999997831233;860;1 A
9.08622197705949;-0.399749755859375;-0.004302978515625;8.59999997828709;861;1 A
9.09622197703425;-0.399749755859375;-0.0043060302734375;8.60999997826184;862;1 A
9.106221977009;-0.399749755859375;-0.0042999267578125;8.61999997823659;863;1 A
9.11622197698375;-0.399749755859375;-0.004290771484375;8.62999997821134;864;1 A
9.1262219769585;-0.39971923828125;-0.00429382324218749;8.6399999781861;865;1 A
9.13622197693326;-0.39971923828125;-0.00428466796875;8.64999997816085;866;1 A
9.14622197690801;-0.39971923828125;-0.0042877197265625;8.6599999781356;867;1 A
9.15622197688276;-0.399749755859375;-0.00427856445312499;8.66999997811035;868;1 A
9.16622197685751;-0.39971923828125;-0.00427856445312499;8.67999997808511;869;1 A
9.17622197683227;-0.399688720703125;-0.00428466796875;8.68999997805986;870;1 A
9.18622197680702;-0.399749755859375;-0.00428161621093751;8.69999997803461;871;1 A
9.19622197678177;-0.39971923828125;-0.0042877197265625;8.70999997800936;872;1 A
9.20622197675652;-0.39971923828125;-0.0042755126953125;8.71999997798412;873;1 A
9.21622197673128;-0.39971923828125;-0.0042755126953125;8.72999997795887;874;1 A
9.22622197670603;-0.399749755859375;-0.00428466796875;8.73999997793362;875;1 A
9.23622197668078;-0.399749755859375;-0.0042724609375;8.74999997790837;876;1 A
9.24622197665553;-0.399749755859375;-0.0042755126953125;8.75999997788313;877;1 A
9.25622197663029;-0.3997802734375;-0.00426635742187501;8.76999997785788;878;1 A
9.26622197660504;-0.399749755859375;-0.00426025390625;8.77999997783263;879;1 A
9.27622197657979;-0.3997802734375;-0.00426635742187501;8.78999997780738;880;1 A
9.28622197655454;-0.3997802734375;-0.00426025390625;8.79999997778214;881;1 A
9.2962219765293;-0.399749755859375;-0.00426330566406249;8.80999997775689;882;1 A
9.30622197650405;-0.399749755859375;-0.00426025390625;8.81999997773164;883;1 A
9.3162219764788;-0.39971923828125;-0.0042572021484375;8.82999997770639;884;1 A
9.32622197645355;-0.39971923828125;-0.00426330566406249;8.83999997768115;885;1 A
9.33622197642831;-0.399658203125;-0.0042572021484375;8.8499999776559;886;1 A
9.34622197640306;-0.399749755859375;-0.0042694091796875;8.85999997763065;887;1 A
9.35622197637781;-0.399749755859375;-0.00426025390625;8.8699999776054;888;1 A
9.36622197635256;-0.39971923828125;-0.00426025390625;8.87999997758016;889;1 A
9.37622197632732;-0.399749755859375;-0.00426635742187501;8.88999997755491;890;1 A
9.38622197630207;-0.3997802734375;-0.00426330566406249;8.89999997752966;891;1 A
9.39622197627682;-0.399749755859375;-0.00426635742187501;8.90999997750441;892;1 A
9.40622197625157;-0.39971923828125;-0.00426635742187501;8.91999997747916;893;1 A
9.41622197622632;-0.399658203125;-0.00426635742187501;8.92999997745392;894;1 A
9.42622197620108;-0.3997802734375;-0.0042755126953125;8.93999997742867;895;1 A
9.43622197617583;-0.39971923828125;-0.0042724609375;8.94999997740342;896;1 A
9.44622197615058;-0.399749755859375;-0.00428161621093751;8.95999997737817;897;1 A
9.45622197612533;-0.39971923828125;-0.00428161621093751;8.96999997735293;898;1 A
9.46622197610009;-0.399688720703125;-0.00428466796875;8.97999997732768;899;1 A
9.47622197607484;-0.3997802734375;-0.00429382324218749;8.98999997730243;900;1 A
9.48622197604959;-0.399688720703125;-0.00429687500000001;8.99999997727718;901;1 A
9.49622197602434;-0.39971923828125;-0.004302978515625;9.00999997725194;902;1 A
9.5062219759991;-0.399688720703125;-0.00429687500000001;9.01999997722669;903;1 A
9.51622197597385;-0.399688720703125;-0.00429687500000001;9.02999997720144;904;1 A
9.5262219759486;-0.399688720703125;-0.004302978515625;9.03999997717619;905;1 A
9.53622197592335;-0.39971923828125;-0.0042999267578125;9.04999997715095;906;1 A
9.54622197589811;-0.3997802734375;-0.004302978515625;9.0599999771257;907;1 A
9.55622197587286;-0.399749755859375;-0.00429382324218749;9.06999997710045;908;1 A
9.56622197584761;-0.399749755859375;-0.00429687500000001;9.0799999770752;909;1 A
9.57622197582236;-0.399749755859375;-0.004302978515625;9.08999997704996;910;1 A
9.58622197579712;-0.39971923828125;-0.0042999267578125;9.09999997702471;911;1 A
9.59622197577187;-0.3997802734375;-0.004302978515625;9.10999997699946;912;1 A
9.60622197574662;-0.399749755859375;-0.0042999267578125;9.11999997697421;913;1 A
9.61622197572137;-0.399810791015625;-0.004302978515625;9.12999997694897;914;1 A
9.62622197569613;-0.399749755859375;-0.00430908203124999;9.13999997692372;915;1 A
9.63622197567088;-0.399749755859375;-0.00430908203124999;9.14999997689847;916;1 A
9.64622197564563;-0.399749755859375;-0.004315185546875;9.15999997687322;917;1 A
9.65622197562038;-0.399688720703125;-0.004302978515625;9.16999997684798;918;1 A
9.66622197559514;-0.399749755859375;-0.0042999267578125;9.17999997682273;919;1 A
9.67622197556989;-0.39971923828125;-0.0043060302734375;9.18999997679748;920;1 A
9.68622197554464;-0.399749755859375;-0.0042999267578125;9.19999997677223;921;1 A
9.69622197551939;-0.39971923828125;-0.004302978515625;9.20999997674699;922;1 A
9.70622197549415;-0.399658203125;-0.00429687500000001;9.21999997672174;923;1 A
9.7162219754689;-0.3997802734375;-0.00429382324218749;9.22999997669649;924;1 A
9.72622197544365;-0.399688720703125;-0.0042999267578125;9.23999997667124;925;1 A
9.7362219754184;-0.399749755859375;-0.004290771484375;9.249999976646;926;1 A
9.74622197539315;-0.3997802734375;-0.004302978515625;9.25999997662075;927;1 A
9.75622197536791;-0.39971923828125;-0.00429687500000001;9.2699999765955;928;1 A
9.76622197534266;-0.3997802734375;-0.00429687500000001;9.27999997657025;929;1 A
9.77622197531741;-0.399688720703125;-0.0043060302734375;9.289999976545;930;1 A
9.78622197529216;-0.399749755859375;-0.0043060302734375;9.29999997651976;931;1 A
9.79622197526692;-0.399749755859375;-0.00431213378906251;9.30999997649451;932;1 A
9.80622197524167;-0.3997802734375;-0.00430908203124999;9.31999997646926;933;1 A
9.81622197521642;-0.39971923828125;-0.004302978515625;9.32999997644401;934;1 A
9.82622197519117;-0.39971923828125;-0.00430908203124999;9.33999997641877;935;1 A
9.83622197516593;-0.39971923828125;-0.004302978515625;9.34999997639352;936;1 A
9.84622197514068;-0.39971923828125;-0.004302978515625;9.35999997636827;937;1 A
9.85622197511543;-0.3997802734375;-0.0042999267578125;9.36999997634302;938;1 A
9.86622197509018;-0.399749755859375;-0.00429687500000001;9.37999997631778;939;1 A
9.87622197506494;-0.399749755859375;-0.0042999267578125;9.38999997629253;940;1 A
9.88622197503969;-0.399749755859375;-0.00429687500000001;9.39999997626728;941;1 A
9.89622197501444;-0.39971923828125;-0.00429382324218749;9.40999997624203;942;1 A
9.90622197498919;-0.3997802734375;-0.00428466796875;9.41999997621679;943;1 A
9.91622197496395;-0.399749755859375;-0.00427856445312499;9.42999997619154;944;1 A
9.9262219749387;-0.399749755859375;-0.0042755126953125;9.43999997616629;945;1 A
9.93622197491345;-0.399749755859375;-0.00426025390625;9.44999997614104;946;1 A
9.9462219748882;-0.399688720703125;-0.00426330566406249;9.4599999761158;947;1 A
9.95622197486296;-0.39971923828125;-0.00425109863281251;9.46999997609055;948;1 A
9.96622197483771;-0.399749755859375;-0.00424804687499999;9.4799999760653;949;1 A
9.97622197481246;-0.399749755859375;-0.00425109863281251;9.48999997604005;950;1 A
9.98622197478721;-0.39971923828125;-0.00425109863281251;9.49999997601481;951;1 A
9.99622197476197;-0.3997802734375;-0.0042572021484375;9.50999997598956;952;1 A
10.0062219747367;-0.3997802734375;-0.004254150390625;9.51999997596431;953;1 A
10.0162219747115;-0.399688720703125;-0.004254150390625;9.52999997593906;954;1 A
10.0262219746862;-0.399810791015625;-0.00426025390625;9.53999997591382;955;1 A
10.036221974661;-0.399688720703125;-0.004254150390625;9.54999997588857;956;1 A
10.0462219746357;-0.3997802734375;-0.00426025390625;9.55999997586332;957;1 A
10.0562219746105;-0.39971923828125;-0.004254150390625;9.56999997583807;958;1 A
10.0662219745852;-0.399749755859375;-0.00425109863281251;9.57999997581283;959;1 A
10.07622197456;-0.399688720703125;-0.004254150390625;9.58999997578758;960;1 A
10.0862219745347;-0.399749755859375;-0.00424804687499999;9.59999997576233;961;1 A
10.0962219745095;-0.399810791015625;-0.00424804687499999;9.60999997573708;962;1 A
10.1062219744842;-0.3997802734375;-0.0042388916015625;9.61999997571183;963;1 A
10.116221974459;-0.39971923828125;-0.00423583984375001;9.62999997568659;964;1 A
10.1262219744337;-0.399749755859375;-0.004241943359375;9.63999997566134;965;1 A
10.1362219744085;-0.39971923828125;-0.00423583984375001;9.64999997563609;966;1 A
10.1462219743833;-0.399749755859375;-0.004241943359375;9.65999997561084;967;1 A
10.156221974358;-0.39984130859375;-0.0042388916015625;9.6699999755856;968;1 A
10.1662219743328;-0.3997802734375;-0.0042388916015625;9.67999997556035;969;1 A
10.1762219743075;-0.399749755859375;-0.00425109863281251;9.6899999755351;970;1 A
10.1862219742823;-0.399627685546875;-0.0042572021484375;9.69999997550985;971;1 A
10.196221974257;-0.399749755859375;-0.00426635742187501;9.70999997548461;972;1 A
10.2062219742318;-0.399749755859375;-0.0042724609375;9.71999997545936;973;1 A
10.2162219742065;-0.399749755859375;-0.0042724609375;9.72999997543411;974;1 A
10.2262219741813;-0.399749755859375;-0.00428466796875;9.73999997540886;975;1 A
10.236221974156;-0.3997802734375;-0.0042877197265625;9.74999997538362;976;1 A
10.2462219741308;-0.39971923828125;-0.004290771484375;9.75999997535837;977;1 A
10.2562219741055;-0.39971923828125;-0.004290771484375;9.76999997533312;978;1 A
10.2662219740803;-0.39971923828125;-0.00428466796875;9.77999997530787;979;1 A
10.276221974055;-0.399810791015625;-0.00428466796875;9.78999997528263;980;1 A
10.2862219740298;-0.39971923828125;-0.0042724609375;9.79999997525738;981;1 A
10.2962219740045;-0.399749755859375;-0.0042724609375;9.80999997523213;982;1 A
10.3062219739793;-0.399749755859375;-0.0042572021484375;9.81999997520688;983;1 A
10.316221973954;-0.399749755859375;-0.00425109863281251;9.82999997518164;984;1 A
10.3262219739288;-0.39971923828125;-0.00425109863281251;9.83999997515639;985;1 A
10.3362219739035;-0.399688720703125;-0.0042449951171875;9.84999997513114;986;1 A
10.3462219738783;-0.399810791015625;-0.0042449951171875;9.85999997510589;987;1 A
10.3562219738531;-0.399749755859375;-0.0042388916015625;9.86999997508065;988;1 A
10.3662219738278;-0.399749755859375;-0.004241943359375;9.8799999750554;989;1 A
10.3762219738026;-0.39971923828125;-0.00424804687499999;9.88999997503015;990;1 A
10.3862219737773;-0.399688720703125;-0.00424804687499999;9.8999999750049;991;1 A
10.3962219737521;-0.399749755859375;-0.00425109863281251;9.90999997497966;992;1 A
10.4062219737268;-0.399749755859375;-0.0042449951171875;9.91999997495441;993;1 A
10.4162219737016;-0.39984130859375;-0.0042449951171875;9.92999997492916;994;1 A
10.4262219736763;-0.399749755859375;-0.00425109863281251;9.93999997490391;995;1 A
10.4362219736511;-0.39971923828125;-0.004241943359375;9.94999997487866;996;1 A
10.4462219736258;-0.3997802734375;-0.0042449951171875;9.95999997485342;997;1 A
10.4562219736006;-0.399749755859375;-0.00423583984375001;9.96999997482817;998;1 A
10.4662219735753;-0.399749755859375;-0.004229736328125;9.97999997480292;999;1 A
10.4762219735501;-0.39971923828125;-0.004229736328125;9.98999997477767;1000;1 A
