Time (s);WE(1).Potential (V);WE(1).Current (A);Corrected time (s);Index;Current range
11.1764249717822;-0.299774169921875;-0.00325927734375001;0;1;1 A
11.186424971757;-0.2998046875;-0.003497314453125;0.00999999997475243;2;1 A
11.1964249717317;-0.2998046875;-0.00360107421875;0.0199999999495049;3;1 A
11.2064249717065;-0.299774169921875;-0.0036651611328125;0.0299999999242573;4;1 A
11.2164249716812;-0.299835205078125;-0.00371704101562501;0.0399999998990097;5;1 A
11.226424971656;-0.2998046875;-0.00374450683593749;0.0499999998737621;6;1 A
11.2364249716308;-0.299835205078125;-0.00377807617187501;0.0599999998485146;7;1 A
11.2464249716055;-0.299774169921875;-0.00379638671875;0.069999999823267;8;1 A
11.2564249715803;-0.2998046875;-0.00382385253906251;0.0799999997980194;9;1 A
11.266424971555;-0.29986572265625;-0.0038482666015625;0.0899999997727718;10;1 A
11.2764249715298;-0.299835205078125;-0.00386657714843749;0.0999999997475243;11;1 A
11.2864249715045;-0.29986572265625;-0.0038787841796875;0.109999999722277;12;1 A
11.2964249714793;-0.299835205078125;-0.00389404296875;0.119999999697029;13;1 A
11.306424971454;-0.2998046875;-0.00390625;0.129999999671782;14;1 A
11.3164249714288;-0.2998046875;-0.00392761230468749;0.139999999646534;15;1 A
11.3264249714035;-0.299774169921875;-0.00392761230468749;0.149999999621286;16;1 A
11.3364249713783;-0.299835205078125;-0.0039337158203125;0.159999999596039;17;1 A
11.346424971353;-0.2998046875;-0.00393066406250001;0.169999999570791;18;1 A
11.3564249713278;-0.299835205078125;-0.00392761230468749;0.179999999545544;19;1 A
11.3664249713025;-0.2998046875;-0.00393066406250001;0.189999999520296;20;1 A
11.3764249712773;-0.2998046875;-0.0039215087890625;0.199999999495049;21;1 A
11.386424971252;-0.299896240234375;-0.00391845703125;0.209999999469801;22;1 A
11.3964249712268;-0.2998046875;-0.0039093017578125;0.219999999444553;23;1 A
11.4064249712015;-0.299774169921875;-0.0039093017578125;0.229999999419306;24;1 A
11.4164249711763;-0.299896240234375;-0.00391235351562499;0.239999999394058;25;1 A
11.4264249711511;-0.29974365234375;-0.00391540527343751;0.249999999368811;26;1 A
11.4364249711258;-0.299774169921875;-0.003924560546875;0.259999999343563;27;1 A
11.4464249711006;-0.2998046875;-0.0039215087890625;0.269999999318316;28;1 A
11.4564249710753;-0.299774169921875;-0.00394287109374999;0.279999999293068;29;1 A
11.4664249710501;-0.299896240234375;-0.00395812988281249;0.28999999926782;30;1 A
11.4764249710248;-0.299835205078125;-0.0039642333984375;0.299999999242573;31;1 A
11.4864249709996;-0.299835205078125;-0.00397338867187499;0.309999999217325;32;1 A
11.4964249709743;-0.2998046875;-0.0039703369140625;0.319999999192078;33;1 A
11.5064249709491;-0.299774169921875;-0.0039794921875;0.32999999916683;34;1 A
11.5164249709238;-0.299774169921875;-0.0039825439453125;0.339999999141583;35;1 A
11.5264249708986;-0.299896240234375;-0.00397644042968751;0.349999999116335;36;1 A
11.5364249708733;-0.2998046875;-0.00397644042968751;0.359999999091087;37;1 A
11.5464249708481;-0.299835205078125;-0.00396728515625;0.36999999906584;38;1 A
11.5564249708228;-0.299835205078125;-0.00396728515625;0.379999999040592;39;1 A
11.5664249707976;-0.2998046875;-0.00396728515625;0.389999999015345;40;1 A
11.5764249707723;-0.2998046875;-0.00397644042968751;0.399999998990097;41;1 A
11.5864249707471;-0.299835205078125;-0.003985595703125;0.40999999896485;42;1 A
11.5964249707218;-0.2998046875;-0.00399169921875001;0.419999998939602;43;1 A
11.6064249706966;-0.2998046875;-0.0040008544921875;0.429999998914354;44;1 A
11.6164249706713;-0.2998046875;-0.00401916503906249;0.439999998889107;45;1 A
11.6264249706461;-0.29986572265625;-0.0040252685546875;0.449999998863859;46;1 A
11.6364249706209;-0.299835205078125;-0.00404052734375;0.459999998838612;47;1 A
11.6464249705956;-0.299835205078125;-0.00403747558593751;0.469999998813364;48;1 A
11.6564249705704;-0.2998046875;-0.004046630859375;0.479999998788116;49;1 A
11.6664249705451;-0.2998046875;-0.0040435791015625;0.489999998762869;50;1 A
11.6764249705199;-0.299774169921875;-0.00404052734375;0.499999998737621;51;1 A
11.6864249704946;-0.2998046875;-0.00403747558593751;0.509999998712374;52;1 A
11.6964249704694;-0.2998046875;-0.0040252685546875;0.519999998687126;53;1 A
11.7064249704441;-0.299835205078125;-0.0040283203125;0.529999998661879;54;1 A
11.7164249704189;-0.299774169921875;-0.0040252685546875;0.539999998636631;55;1 A
11.7264249703936;-0.29986572265625;-0.00401611328125;0.549999998611383;56;1 A
11.7364249703684;-0.2998046875;-0.00401916503906249;0.559999998586136;57;1 A
11.7464249703431;-0.29986572265625;-0.00401916503906249;0.569999998560888;58;1 A
11.7564249703179;-0.299774169921875;-0.00402221679687501;0.579999998535641;59;1 A
11.7664249702926;-0.29986572265625;-0.0040283203125;0.589999998510393;60;1 A
11.7764249702674;-0.2998046875;-0.00403442382812499;0.599999998485146;61;1 A
11.7864249702421;-0.29986572265625;-0.0040435791015625;0.609999998459898;62;1 A
11.7964249702169;-0.299835205078125;-0.004046630859375;0.61999999843465;63;1 A
11.8064249701916;-0.299774169921875;-0.00404052734375;0.629999998409403;64;1 A
11.8164249701664;-0.299835205078125;-0.0040435791015625;0.639999998384155;65;1 A
11.8264249701411;-0.2998046875;-0.00404052734375;0.649999998358908;66;1 A
11.8364249701159;-0.2998046875;-0.00403442382812499;0.65999999833366;67;1 A
11.8464249700907;-0.2998046875;-0.00401916503906249;0.669999998308413;68;1 A
11.8564249700654;-0.299774169921875;-0.00401611328125;0.679999998283165;69;1 A
11.8664249700402;-0.299835205078125;-0.0040130615234375;0.689999998257917;70;1 A
11.8764249700149;-0.299774169921875;-0.00400695800781251;0.69999999823267;71;1 A
11.8864249699897;-0.29986572265625;-0.00400390624999999;0.709999998207422;72;1 A
11.8964249699644;-0.299774169921875;-0.003997802734375;0.719999998182175;73;1 A
11.9064249699392;-0.2998046875;-0.0040008544921875;0.729999998156927;74;1 A
11.9164249699139;-0.2998046875;-0.00400390624999999;0.73999999813168;75;1 A
11.9264249698887;-0.299774169921875;-0.003997802734375;0.749999998106432;76;1 A
11.9364249698634;-0.299896240234375;-0.00400390624999999;0.759999998081184;77;1 A
11.9464249698382;-0.29986572265625;-0.0039947509765625;0.769999998055937;78;1 A
11.9564249698129;-0.299774169921875;-0.00400695800781251;0.779999998030689;79;1 A
11.9664249697877;-0.2998046875;-0.00400695800781251;0.789999998005442;80;1 A
11.9764249697624;-0.2998046875;-0.00400695800781251;0.799999997980194;81;1 A
11.9864249697372;-0.299835205078125;-0.00400695800781251;0.809999997954947;82;1 A
11.9964249697119;-0.29974365234375;-0.00400390624999999;0.819999997929699;83;1 A
12.0064249696867;-0.299835205078125;-0.00400390624999999;0.829999997904451;84;1 A
12.0164249696614;-0.2998046875;-0.00401611328125;0.839999997879204;85;1 A
12.0264249696362;-0.2998046875;-0.0040130615234375;0.849999997853956;86;1 A
12.0364249696109;-0.299774169921875;-0.00402221679687501;0.859999997828709;87;1 A
12.0464249695857;-0.29986572265625;-0.00401916503906249;0.869999997803461;88;1 A
12.0564249695605;-0.299774169921875;-0.0040313720703125;0.879999997778214;89;1 A
12.0664249695352;-0.29986572265625;-0.00404052734375;0.889999997752966;90;1 A
12.07642496951;-0.299835205078125;-0.004046630859375;0.899999997727718;91;1 A
12.0864249694847;-0.299835205078125;-0.0040557861328125;0.909999997702471;92;1 A
12.0964249694595;-0.2998046875;-0.0040557861328125;0.919999997677223;93;1 A
12.1064249694342;-0.299774169921875;-0.00406494140624999;0.929999997651976;94;1 A
12.116424969409;-0.299835205078125;-0.00408020019531249;0.939999997626728;95;1 A
12.1264249693837;-0.299835205078125;-0.00408020019531249;0.949999997601481;96;1 A
12.1364249693585;-0.299835205078125;-0.00408325195312501;0.959999997576233;97;1 A
12.1464249693332;-0.299835205078125;-0.00408325195312501;0.969999997550985;98;1 A
12.156424969308;-0.299774169921875;-0.00408935546875;0.979999997525738;99;1 A
12.1664249692827;-0.299774169921875;-0.0040924072265625;0.98999999750049;100;1 A
12.1764249692575;-0.2998046875;-0.00409851074218751;0.999999997475243;101;1 A
12.1864249692322;-0.2998046875;-0.0041046142578125;1.00999999745;102;1 A
12.196424969207;-0.299774169921875;-0.0041015625;1.01999999742475;103;1 A
12.2064249691817;-0.299774169921875;-0.004107666015625;1.0299999973995;104;1 A
12.2164249691565;-0.299774169921875;-0.00411071777343749;1.03999999737425;105;1 A
12.2264249691312;-0.29974365234375;-0.0041168212890625;1.049999997349;106;1 A
12.236424969106;-0.299774169921875;-0.0041229248046875;1.05999999732376;107;1 A
12.2464249690807;-0.299774169921875;-0.004119873046875;1.06999999729851;108;1 A
12.2564249690555;-0.299896240234375;-0.00412597656249999;1.07999999727326;109;1 A
12.2664249690303;-0.2998046875;-0.004132080078125;1.08999999724801;110;1 A
12.276424969005;-0.299774169921875;-0.0041351318359375;1.09999999722277;111;1 A
12.2864249689798;-0.299774169921875;-0.00414123535156249;1.10999999719752;112;1 A
12.2964249689545;-0.2998046875;-0.0041351318359375;1.11999999717227;113;1 A
12.3064249689293;-0.299835205078125;-0.00414123535156249;1.12999999714702;114;1 A
12.316424968904;-0.299774169921875;-0.00414123535156249;1.13999999712178;115;1 A
12.3264249688788;-0.299835205078125;-0.004119873046875;1.14999999709653;116;1 A
12.3364249688535;-0.299835205078125;-0.004150390625;1.15999999707128;117;1 A
12.3464249688283;-0.299774169921875;-0.004150390625;1.16999999704603;118;1 A
12.356424968803;-0.2998046875;-0.00415954589843751;1.17999999702079;119;1 A
12.3664249687778;-0.299774169921875;-0.0041656494140625;1.18999999699554;120;1 A
12.3764249687525;-0.29986572265625;-0.00417175292968749;1.19999999697029;121;1 A
12.3864249687273;-0.2998046875;-0.00417480468750001;1.20999999694504;122;1 A
12.396424968702;-0.299774169921875;-0.0041839599609375;1.2199999969198;123;1 A
12.4064249686768;-0.299774169921875;-0.00418701171874999;1.22999999689455;124;1 A
12.4164249686515;-0.29974365234375;-0.004193115234375;1.2399999968693;125;1 A
12.4264249686263;-0.29986572265625;-0.00418701171874999;1.24999999684405;126;1 A
12.436424968601;-0.29986572265625;-0.00420227050781249;1.25999999681881;127;1 A
12.4464249685758;-0.299835205078125;-0.0041961669921875;1.26999999679356;128;1 A
12.4564249685506;-0.29974365234375;-0.00420227050781249;1.27999999676831;129;1 A
12.4664249685253;-0.2998046875;-0.00420532226562501;1.28999999674306;130;1 A
12.4764249685001;-0.2998046875;-0.0042083740234375;1.29999999671782;131;1 A
12.4864249684748;-0.29974365234375;-0.00421142578125;1.30999999669257;132;1 A
12.4964249684496;-0.299774169921875;-0.0042144775390625;1.31999999666732;133;1 A
12.5064249684243;-0.2998046875;-0.00421142578125;1.32999999664207;134;1 A
12.5164249683991;-0.2998046875;-0.00422058105468751;1.33999999661683;135;1 A
12.5264249683738;-0.299774169921875;-0.00422058105468751;1.34999999659158;136;1 A
12.5364249683486;-0.2998046875;-0.0042266845703125;1.35999999656633;137;1 A
12.5464249683233;-0.299835205078125;-0.0042266845703125;1.36999999654108;138;1 A
12.5564249682981;-0.29986572265625;-0.00423278808593749;1.37999999651583;139;1 A
12.5664249682728;-0.299896240234375;-0.004241943359375;1.38999999649059;140;1 A
12.5764249682476;-0.2998046875;-0.00424804687499999;1.39999999646534;141;1 A
12.5864249682223;-0.299774169921875;-0.0042572021484375;1.40999999644009;142;1 A
12.5964249681971;-0.299835205078125;-0.00426025390625;1.41999999641484;143;1 A
12.6064249681718;-0.2998046875;-0.00426025390625;1.4299999963896;144;1 A
12.6164249681466;-0.299835205078125;-0.00426330566406249;1.43999999636435;145;1 A
12.6264249681213;-0.299774169921875;-0.00426330566406249;1.4499999963391;146;1 A
12.6364249680961;-0.29986572265625;-0.00426635742187501;1.45999999631385;147;1 A
12.6464249680708;-0.299835205078125;-0.0042572021484375;1.46999999628861;148;1 A
12.6564249680456;-0.299774169921875;-0.0042572021484375;1.47999999626336;149;1 A
12.6664249680204;-0.29986572265625;-0.00425109863281251;1.48999999623811;150;1 A
12.6764249679951;-0.299835205078125;-0.0042449951171875;1.49999999621286;151;1 A
12.6864249679699;-0.299835205078125;-0.0042449951171875;1.50999999618762;152;1 A
12.6964249679446;-0.2998046875;-0.00423583984375001;1.51999999616237;153;1 A
12.7064249679194;-0.299835205078125;-0.00423583984375001;1.52999999613712;154;1 A
12.7164249678941;-0.299774169921875;-0.00423278808593749;1.53999999611187;155;1 A
12.7264249678689;-0.2998046875;-0.00422058105468751;1.54999999608663;156;1 A
12.7364249678436;-0.299774169921875;-0.0042236328125;1.55999999606138;157;1 A
12.7464249678184;-0.299835205078125;-0.0042083740234375;1.56999999603613;158;1 A
12.7564249677931;-0.299835205078125;-0.00421142578125;1.57999999601088;159;1 A
12.7664249677679;-0.2998046875;-0.00420532226562501;1.58999999598564;160;1 A
12.7764249677426;-0.299835205078125;-0.00420227050781249;1.59999999596039;161;1 A
12.7864249677174;-0.2998046875;-0.00420227050781249;1.60999999593514;162;1 A
12.7964249676921;-0.299835205078125;-0.00420227050781249;1.61999999590989;163;1 A
12.8064249676669;-0.29986572265625;-0.00420227050781249;1.62999999588465;164;1 A
12.8164249676416;-0.299774169921875;-0.00421142578125;1.6399999958594;165;1 A
12.8264249676164;-0.299835205078125;-0.00421142578125;1.64999999583415;166;1 A
12.8364249675911;-0.299835205078125;-0.00422058105468751;1.6599999958089;167;1 A
12.8464249675659;-0.29974365234375;-0.00421752929687499;1.66999999578366;168;1 A
12.8564249675406;-0.299835205078125;-0.00422058105468751;1.67999999575841;169;1 A
12.8664249675154;-0.299835205078125;-0.0042266845703125;1.68999999573316;170;1 A
12.8764249674902;-0.2998046875;-0.0042083740234375;1.69999999570791;171;1 A
12.8864249674649;-0.299835205078125;-0.0042266845703125;1.70999999568267;172;1 A
12.8964249674397;-0.29974365234375;-0.0042266845703125;1.71999999565742;173;1 A
12.9064249674144;-0.299835205078125;-0.0042266845703125;1.72999999563217;174;1 A
12.9164249673892;-0.29986572265625;-0.00423278808593749;1.73999999560692;175;1 A
12.9264249673639;-0.299835205078125;-0.004229736328125;1.74999999558167;176;1 A
12.9364249673387;-0.2998046875;-0.00423278808593749;1.75999999555643;177;1 A
12.9464249673134;-0.2998046875;-0.00423278808593749;1.76999999553118;178;1 A
12.9564249672882;-0.299774169921875;-0.0042388916015625;1.77999999550593;179;1 A
12.9664249672629;-0.29986572265625;-0.0042449951171875;1.78999999548068;180;1 A
12.9764249672377;-0.299835205078125;-0.0042449951171875;1.79999999545544;181;1 A
12.9864249672124;-0.299835205078125;-0.00424804687499999;1.80999999543019;182;1 A
12.9964249671872;-0.299774169921875;-0.00423583984375001;1.81999999540494;183;1 A
13.0064249671619;-0.2998046875;-0.00425109863281251;1.82999999537969;184;1 A
13.0164249671367;-0.29986572265625;-0.0042572021484375;1.83999999535445;185;1 A
13.0264249671114;-0.2998046875;-0.004254150390625;1.8499999953292;186;1 A
13.0364249670862;-0.2998046875;-0.00425109863281251;1.85999999530395;187;1 A
13.0464249670609;-0.29986572265625;-0.00424804687499999;1.8699999952787;188;1 A
13.0564249670357;-0.29974365234375;-0.00424804687499999;1.87999999525346;189;1 A
13.0664249670104;-0.299774169921875;-0.0042449951171875;1.88999999522821;190;1 A
13.0764249669852;-0.299774169921875;-0.0042449951171875;1.89999999520296;191;1 A
13.08642496696;-0.29974365234375;-0.0042449951171875;1.90999999517771;192;1 A
13.0964249669347;-0.299835205078125;-0.00423583984375001;1.91999999515247;193;1 A
13.1064249669095;-0.2998046875;-0.004229736328125;1.92999999512722;194;1 A
13.1164249668842;-0.299835205078125;-0.00423583984375001;1.93999999510197;195;1 A
13.126424966859;-0.299835205078125;-0.004229736328125;1.94999999507672;196;1 A
13.1364249668337;-0.299774169921875;-0.00423278808593749;1.95999999505148;197;1 A
13.1464249668085;-0.299835205078125;-0.0042266845703125;1.96999999502623;198;1 A
13.1564249667832;-0.2998046875;-0.00423278808593749;1.97999999500098;199;1 A
13.166424966758;-0.2998046875;-0.00423583984375001;1.98999999497573;200;1 A
13.1764249667327;-0.29974365234375;-0.0042266845703125;1.99999999495049;201;1 A
13.1864249667075;-0.299774169921875;-0.0042266845703125;2.00999999492524;202;1 A
13.1964249666822;-0.299774169921875;-0.00422058105468751;2.01999999489999;203;1 A
13.206424966657;-0.299774169921875;-0.0042144775390625;2.02999999487474;204;1 A
13.2164249666317;-0.299835205078125;-0.00421752929687499;2.0399999948495;205;1 A
13.2264249666065;-0.299835205078125;-0.00421142578125;2.04999999482425;206;1 A
13.2364249665812;-0.2998046875;-0.00422058105468751;2.059999994799;207;1 A
13.246424966556;-0.299835205078125;-0.00421142578125;2.06999999477375;208;1 A
13.2564249665307;-0.299774169921875;-0.0042144775390625;2.0799999947485;209;1 A
13.2664249665055;-0.29986572265625;-0.0042144775390625;2.08999999472326;210;1 A
13.2764249664802;-0.299835205078125;-0.00421142578125;2.09999999469801;211;1 A
13.286424966455;-0.29986572265625;-0.0042144775390625;2.10999999467276;212;1 A
13.2964249664298;-0.2998046875;-0.00421752929687499;2.11999999464751;213;1 A
13.3064249664045;-0.2998046875;-0.00422058105468751;2.12999999462227;214;1 A
13.3164249663793;-0.299774169921875;-0.004229736328125;2.13999999459702;215;1 A
13.326424966354;-0.29986572265625;-0.004229736328125;2.14999999457177;216;1 A
13.3364249663288;-0.299774169921875;-0.00423583984375001;2.15999999454652;217;1 A
13.3464249663035;-0.29986572265625;-0.00423583984375001;2.16999999452128;218;1 A
13.3564249662783;-0.299835205078125;-0.0042388916015625;2.17999999449603;219;1 A
13.366424966253;-0.299835205078125;-0.0042449951171875;2.18999999447078;220;1 A
13.3764249662278;-0.29974365234375;-0.00424804687499999;2.19999999444553;221;1 A
13.3864249662025;-0.2998046875;-0.00426025390625;2.20999999442029;222;1 A
13.3964249661773;-0.299835205078125;-0.00426025390625;2.21999999439504;223;1 A
13.406424966152;-0.299835205078125;-0.00426635742187501;2.22999999436979;224;1 A
13.4164249661268;-0.299835205078125;-0.0042724609375;2.23999999434454;225;1 A
13.4264249661015;-0.299835205078125;-0.0042724609375;2.2499999943193;226;1 A
13.4364249660763;-0.299835205078125;-0.0042724609375;2.25999999429405;227;1 A
13.446424966051;-0.299774169921875;-0.00426635742187501;2.2699999942688;228;1 A
13.4564249660258;-0.299835205078125;-0.0042694091796875;2.27999999424355;229;1 A
13.4664249660005;-0.29986572265625;-0.00426635742187501;2.28999999421831;230;1 A
13.4764249659753;-0.2998046875;-0.00426330566406249;2.29999999419306;231;1 A
13.4864249659501;-0.2998046875;-0.00426025390625;2.30999999416781;232;1 A
13.4964249659248;-0.299835205078125;-0.004254150390625;2.31999999414256;233;1 A
13.5064249658996;-0.2998046875;-0.004254150390625;2.32999999411732;234;1 A
13.5164249658743;-0.299835205078125;-0.00425109863281251;2.33999999409207;235;1 A
13.5264249658491;-0.2998046875;-0.00423583984375001;2.34999999406682;236;1 A
13.5364249658238;-0.29986572265625;-0.00423583984375001;2.35999999404157;237;1 A
13.5464249657986;-0.299835205078125;-0.00422058105468751;2.36999999401633;238;1 A
13.5564249657733;-0.2998046875;-0.0042266845703125;2.37999999399108;239;1 A
13.5664249657481;-0.299774169921875;-0.0042266845703125;2.38999999396583;240;1 A
13.5764249657228;-0.2998046875;-0.00422058105468751;2.39999999394058;241;1 A
13.5864249656976;-0.299835205078125;-0.0042236328125;2.40999999391533;242;1 A
13.5964249656723;-0.299774169921875;-0.00422058105468751;2.41999999389009;243;1 A
13.6064249656471;-0.299896240234375;-0.0042266845703125;2.42999999386484;244;1 A
13.6164249656218;-0.299774169921875;-0.00423583984375001;2.43999999383959;245;1 A
13.6264249655966;-0.299835205078125;-0.00423278808593749;2.44999999381434;246;1 A
13.6364249655713;-0.29986572265625;-0.004241943359375;2.4599999937891;247;1 A
13.6464249655461;-0.2998046875;-0.00423583984375001;2.46999999376385;248;1 A
13.6564249655208;-0.29986572265625;-0.00423583984375001;2.4799999937386;249;1 A
13.6664249654956;-0.2998046875;-0.00423583984375001;2.48999999371335;250;1 A
13.6764249654703;-0.299774169921875;-0.004229736328125;2.49999999368811;251;1 A
13.6864249654451;-0.2998046875;-0.0042266845703125;2.50999999366286;252;1 A
13.6964249654199;-0.299774169921875;-0.00422058105468751;2.51999999363761;253;1 A
13.7064249653946;-0.29986572265625;-0.0042144775390625;2.52999999361236;254;1 A
13.7164249653694;-0.2998046875;-0.0042144775390625;2.53999999358712;255;1 A
13.7264249653441;-0.299835205078125;-0.0042083740234375;2.54999999356187;256;1 A
13.7364249653189;-0.2998046875;-0.00420227050781249;2.55999999353662;257;1 A
13.7464249652936;-0.2998046875;-0.00419921875;2.56999999351137;258;1 A
13.7564249652684;-0.2998046875;-0.00419006347656251;2.57999999348613;259;1 A
13.7664249652431;-0.299835205078125;-0.00418701171874999;2.58999999346088;260;1 A
13.7764249652179;-0.299835205078125;-0.00418701171874999;2.59999999343563;261;1 A
13.7864249651926;-0.299835205078125;-0.00418701171874999;2.60999999341038;262;1 A
13.7964249651674;-0.2998046875;-0.00418701171874999;2.61999999338514;263;1 A
13.8064249651421;-0.299774169921875;-0.00418701171874999;2.62999999335989;264;1 A
13.8164249651169;-0.299835205078125;-0.00418701171874999;2.63999999333464;265;1 A
13.8264249650916;-0.29986572265625;-0.0041839599609375;2.64999999330939;266;1 A
13.8364249650664;-0.299774169921875;-0.0041839599609375;2.65999999328415;267;1 A
13.8464249650411;-0.299835205078125;-0.00417480468750001;2.6699999932589;268;1 A
13.8564249650159;-0.299835205078125;-0.0041778564453125;2.67999999323365;269;1 A
13.8664249649906;-0.299774169921875;-0.0041778564453125;2.6899999932084;270;1 A
13.8764249649654;-0.29986572265625;-0.00417480468750001;2.69999999318316;271;1 A
13.8864249649401;-0.2998046875;-0.00417175292968749;2.70999999315791;272;1 A
13.8964249649149;-0.299835205078125;-0.00417175292968749;2.71999999313266;273;1 A
13.9064249648897;-0.299774169921875;-0.00417175292968749;2.72999999310741;274;1 A
13.9164249648644;-0.29986572265625;-0.0041778564453125;2.73999999308217;275;1 A
13.9264249648392;-0.2998046875;-0.00417175292968749;2.74999999305692;276;1 A
13.9364249648139;-0.299774169921875;-0.00417480468750001;2.75999999303167;277;1 A
13.9464249647887;-0.29986572265625;-0.00417175292968749;2.76999999300642;278;1 A
13.9564249647634;-0.299835205078125;-0.0041778564453125;2.77999999298117;279;1 A
13.9664249647382;-0.299835205078125;-0.004180908203125;2.78999999295593;280;1 A
13.9764249647129;-0.2998046875;-0.0041839599609375;2.79999999293068;281;1 A
13.9864249646877;-0.29974365234375;-0.0041839599609375;2.80999999290543;282;1 A
13.9964249646624;-0.299774169921875;-0.004180908203125;2.81999999288018;283;1 A
14.0064249646372;-0.299774169921875;-0.004180908203125;2.82999999285494;284;1 A
14.0164249646119;-0.299774169921875;-0.004180908203125;2.83999999282969;285;1 A
14.0264249645867;-0.299835205078125;-0.00417175292968749;2.84999999280444;286;1 A
14.0364249645614;-0.299774169921875;-0.0041778564453125;2.85999999277919;287;1 A
14.0464249645362;-0.29986572265625;-0.0041656494140625;2.86999999275395;288;1 A
14.0564249645109;-0.29974365234375;-0.004168701171875;2.8799999927287;289;1 A
14.0664249644857;-0.299835205078125;-0.004168701171875;2.88999999270345;290;1 A
14.0764249644604;-0.299835205078125;-0.004168701171875;2.8999999926782;291;1 A
14.0864249644352;-0.2998046875;-0.00417175292968749;2.90999999265296;292;1 A
14.0964249644099;-0.299835205078125;-0.0041778564453125;2.91999999262771;293;1 A
14.1064249643847;-0.2998046875;-0.0041839599609375;2.92999999260246;294;1 A
14.1164249643595;-0.299835205078125;-0.0041961669921875;2.93999999257721;295;1 A
14.1264249643342;-0.299835205078125;-0.004193115234375;2.94999999255197;296;1 A
14.136424964309;-0.2998046875;-0.00420227050781249;2.95999999252672;297;1 A
14.1464249642837;-0.29986572265625;-0.00419921875;2.96999999250147;298;1 A
14.1564249642585;-0.2998046875;-0.00420227050781249;2.97999999247622;299;1 A
14.1664249642332;-0.299835205078125;-0.00420227050781249;2.98999999245098;300;1 A
14.176424964208;-0.29986572265625;-0.00419921875;2.99999999242573;301;1 A
14.1864249641827;-0.2998046875;-0.00419921875;3.00999999240048;302;1 A
14.1964249641575;-0.299774169921875;-0.00419006347656251;3.01999999237523;303;1 A
14.2064249641322;-0.2998046875;-0.00419006347656251;3.02999999234999;304;1 A
14.216424964107;-0.299835205078125;-0.004193115234375;3.03999999232474;305;1 A
14.2264249640817;-0.299835205078125;-0.00419006347656251;3.04999999229949;306;1 A
14.2364249640565;-0.299835205078125;-0.00419006347656251;3.05999999227424;307;1 A
14.2464249640312;-0.2998046875;-0.00418701171874999;3.069999992249;308;1 A
14.256424964006;-0.299774169921875;-0.00419006347656251;3.07999999222375;309;1 A
14.2664249639807;-0.299835205078125;-0.00419006347656251;3.0899999921985;310;1 A
14.2764249639555;-0.2998046875;-0.00419006347656251;3.09999999217325;311;1 A
14.2864249639302;-0.299835205078125;-0.00419006347656251;3.109999992148;312;1 A
14.296424963905;-0.2998046875;-0.004193115234375;3.11999999212276;313;1 A
14.3064249638797;-0.299774169921875;-0.00419921875;3.12999999209751;314;1 A
14.3164249638545;-0.29974365234375;-0.00420227050781249;3.13999999207226;315;1 A
14.3264249638293;-0.299713134765625;-0.00419006347656251;3.14999999204701;316;1 A
14.336424963804;-0.2998046875;-0.0041961669921875;3.15999999202177;317;1 A
14.3464249637788;-0.29986572265625;-0.004193115234375;3.16999999199652;318;1 A
14.3564249637535;-0.299774169921875;-0.0041961669921875;3.17999999197127;319;1 A
14.3664249637283;-0.2998046875;-0.00420227050781249;3.18999999194602;320;1 A
14.376424963703;-0.2998046875;-0.00420227050781249;3.19999999192078;321;1 A
14.3864249636778;-0.299835205078125;-0.0042144775390625;3.20999999189553;322;1 A
14.3964249636525;-0.2998046875;-0.00421142578125;3.21999999187028;323;1 A
14.4064249636273;-0.2998046875;-0.00421752929687499;3.22999999184503;324;1 A
14.416424963602;-0.2998046875;-0.0042266845703125;3.23999999181979;325;1 A
14.4264249635768;-0.299713134765625;-0.0042236328125;3.24999999179454;326;1 A
14.4364249635515;-0.299774169921875;-0.00423583984375001;3.25999999176929;327;1 A
14.4464249635263;-0.2998046875;-0.004229736328125;3.26999999174404;328;1 A
14.456424963501;-0.29986572265625;-0.00423278808593749;3.2799999917188;329;1 A
14.4664249634758;-0.299835205078125;-0.00423278808593749;3.28999999169355;330;1 A
14.4764249634505;-0.299835205078125;-0.0042236328125;3.2999999916683;331;1 A
14.4864249634253;-0.299835205078125;-0.00422058105468751;3.30999999164305;332;1 A
14.4964249634;-0.299774169921875;-0.00422058105468751;3.31999999161781;333;1 A
14.5064249633748;-0.2998046875;-0.0042236328125;3.32999999159256;334;1 A
14.5164249633496;-0.2998046875;-0.0042266845703125;3.33999999156731;335;1 A
14.5264249633243;-0.2998046875;-0.00422058105468751;3.34999999154206;336;1 A
14.5364249632991;-0.29986572265625;-0.00422058105468751;3.35999999151682;337;1 A
14.5464249632738;-0.2998046875;-0.0042144775390625;3.36999999149157;338;1 A
14.5564249632486;-0.2998046875;-0.00421142578125;3.37999999146632;339;1 A
14.5664249632233;-0.2998046875;-0.00420532226562501;3.38999999144107;340;1 A
14.5764249631981;-0.2998046875;-0.00419921875;3.39999999141583;341;1 A
14.5864249631728;-0.29986572265625;-0.0041961669921875;3.40999999139058;342;1 A
14.5964249631476;-0.299774169921875;-0.00418701171874999;3.41999999136533;343;1 A
14.6064249631223;-0.2998046875;-0.004180908203125;3.42999999134008;344;1 A
14.6164249630971;-0.2998046875;-0.00417175292968749;3.43999999131483;345;1 A
14.6264249630718;-0.299774169921875;-0.00415954589843751;3.44999999128959;346;1 A
14.6364249630466;-0.299774169921875;-0.00415954589843751;3.45999999126434;347;1 A
14.6464249630213;-0.299835205078125;-0.0041473388671875;3.46999999123909;348;1 A
14.6564249629961;-0.2999267578125;-0.0041473388671875;3.47999999121384;349;1 A
14.6664249629708;-0.29986572265625;-0.0041473388671875;3.4899999911886;350;1 A
14.6764249629456;-0.299835205078125;-0.00414428710937501;3.49999999116335;351;1 A
14.6864249629203;-0.2998046875;-0.00414428710937501;3.5099999911381;352;1 A
14.6964249628951;-0.2998046875;-0.00414123535156249;3.51999999111285;353;1 A
14.7064249628698;-0.299774169921875;-0.00414123535156249;3.52999999108761;354;1 A
14.7164249628446;-0.299774169921875;-0.0041473388671875;3.53999999106236;355;1 A
14.7264249628194;-0.2998046875;-0.0041351318359375;3.54999999103711;356;1 A
14.7364249627941;-0.2998046875;-0.0041473388671875;3.55999999101186;357;1 A
14.7464249627689;-0.2998046875;-0.00414428710937501;3.56999999098662;358;1 A
14.7564249627436;-0.299835205078125;-0.004150390625;3.57999999096137;359;1 A
14.7664249627184;-0.299774169921875;-0.00415954589843751;3.58999999093612;360;1 A
14.7764249626931;-0.29986572265625;-0.00415649414062499;3.59999999091087;361;1 A
14.7864249626679;-0.299774169921875;-0.0041656494140625;3.60999999088563;362;1 A
14.7964249626426;-0.299835205078125;-0.00415954589843751;3.61999999086038;363;1 A
14.8064249626174;-0.299835205078125;-0.00415649414062499;3.62999999083513;364;1 A
14.8164249625921;-0.299835205078125;-0.00415649414062499;3.63999999080988;365;1 A
14.8264249625669;-0.299713134765625;-0.004150390625;3.64999999078464;366;1 A
14.8364249625416;-0.2998046875;-0.0041534423828125;3.65999999075939;367;1 A
14.8464249625164;-0.29986572265625;-0.004150390625;3.66999999073414;368;1 A
14.8564249624911;-0.299835205078125;-0.004150390625;3.67999999070889;369;1 A
14.8664249624659;-0.299774169921875;-0.004150390625;3.68999999068365;370;1 A
14.8764249624406;-0.299835205078125;-0.0041473388671875;3.6999999906584;371;1 A
14.8864249624154;-0.299774169921875;-0.0041534423828125;3.70999999063315;372;1 A
14.8964249623901;-0.2998046875;-0.0041534423828125;3.7199999906079;373;1 A
14.9064249623649;-0.299835205078125;-0.004150390625;3.72999999058266;374;1 A
14.9164249623396;-0.299774169921875;-0.00415649414062499;3.73999999055741;375;1 A
14.9264249623144;-0.29986572265625;-0.004150390625;3.74999999053216;376;1 A
14.9364249622892;-0.2998046875;-0.004150390625;3.75999999050691;377;1 A
14.9464249622639;-0.299774169921875;-0.00414428710937501;3.76999999048167;378;1 A
14.9564249622387;-0.2998046875;-0.00414123535156249;3.77999999045642;379;1 A
14.9664249622134;-0.299774169921875;-0.0041351318359375;3.78999999043117;380;1 A
14.9764249621882;-0.2998046875;-0.004132080078125;3.79999999040592;381;1 A
14.9864249621629;-0.299835205078125;-0.004132080078125;3.80999999038067;382;1 A
14.9964249621377;-0.29986572265625;-0.004132080078125;3.81999999035543;383;1 A
15.0064249621124;-0.29974365234375;-0.00412902832031251;3.82999999033018;384;1 A
15.0164249620872;-0.2998046875;-0.0041351318359375;3.83999999030493;385;1 A
15.0264249620619;-0.2998046875;-0.00412902832031251;3.84999999027968;386;1 A
15.0364249620367;-0.29986572265625;-0.00412902832031251;3.85999999025444;387;1 A
15.0464249620114;-0.299835205078125;-0.0041229248046875;3.86999999022919;388;1 A
15.0564249619862;-0.299835205078125;-0.00412902832031251;3.87999999020394;389;1 A
15.0664249619609;-0.299774169921875;-0.00412902832031251;3.88999999017869;390;1 A
15.0764249619357;-0.29986572265625;-0.0041351318359375;3.89999999015345;391;1 A
15.0864249619104;-0.2998046875;-0.00413818359375;3.9099999901282;392;1 A
15.0964249618852;-0.2998046875;-0.00414123535156249;3.91999999010295;393;1 A
15.1064249618599;-0.299835205078125;-0.0041473388671875;3.9299999900777;394;1 A
15.1164249618347;-0.299835205078125;-0.0041473388671875;3.93999999005246;395;1 A
15.1264249618094;-0.2998046875;-0.00414428710937501;3.94999999002721;396;1 A
15.1364249617842;-0.2998046875;-0.0041534423828125;3.95999999000196;397;1 A
15.146424961759;-0.299835205078125;-0.004150390625;3.96999998997671;398;1 A
15.1564249617337;-0.29974365234375;-0.00415954589843751;3.97999998995147;399;1 A
15.1664249617085;-0.299774169921875;-0.0041656494140625;3.98999998992622;400;1 A
15.1764249616832;-0.2998046875;-0.00415954589843751;3.99999998990097;401;1 A
15.186424961658;-0.29986572265625;-0.00416259765625;4.00999998987572;402;1 A
15.1964249616327;-0.299774169921875;-0.00416259765625;4.01999998985048;403;1 A
15.2064249616075;-0.299774169921875;-0.00416259765625;4.02999998982523;404;1 A
15.2164249615822;-0.2998046875;-0.004168701171875;4.03999998979998;405;1 A
15.226424961557;-0.2999267578125;-0.00415954589843751;4.04999998977473;406;1 A
15.2364249615317;-0.2998046875;-0.0041656494140625;4.05999998974949;407;1 A
15.2464249615065;-0.29986572265625;-0.00415649414062499;4.06999998972424;408;1 A
15.2564249614812;-0.2998046875;-0.00415649414062499;4.07999998969899;409;1 A
15.266424961456;-0.299774169921875;-0.00415649414062499;4.08999998967374;410;1 A
15.2764249614307;-0.299774169921875;-0.0041473388671875;4.0999999896485;411;1 A
15.2864249614055;-0.299774169921875;-0.004150390625;4.10999998962325;412;1 A
15.2964249613802;-0.29986572265625;-0.00414428710937501;4.119999989598;413;1 A
15.306424961355;-0.299835205078125;-0.00414123535156249;4.12999998957275;414;1 A
15.3164249613297;-0.29986572265625;-0.00414123535156249;4.1399999895475;415;1 A
15.3264249613045;-0.299835205078125;-0.0041351318359375;4.14999998952226;416;1 A
15.3364249612792;-0.299774169921875;-0.00414123535156249;4.15999998949701;417;1 A
15.346424961254;-0.299774169921875;-0.0041351318359375;4.16999998947176;418;1 A
15.3564249612288;-0.2998046875;-0.00413818359375;4.17999998944651;419;1 A
15.3664249612035;-0.299896240234375;-0.0041351318359375;4.18999998942127;420;1 A
15.3764249611783;-0.2998046875;-0.0041351318359375;4.19999998939602;421;1 A
15.386424961153;-0.29986572265625;-0.0041351318359375;4.20999998937077;422;1 A
15.3964249611278;-0.299835205078125;-0.004132080078125;4.21999998934552;423;1 A
15.4064249611025;-0.29986572265625;-0.00412902832031251;4.22999998932028;424;1 A
15.4164249610773;-0.2998046875;-0.00412902832031251;4.23999998929503;425;1 A
15.426424961052;-0.2998046875;-0.004119873046875;4.24999998926978;426;1 A
15.4364249610268;-0.299835205078125;-0.0041229248046875;4.25999998924453;427;1 A
15.4464249610015;-0.299835205078125;-0.00411071777343749;4.26999998921929;428;1 A
15.4564249609763;-0.299774169921875;-0.00411071777343749;4.27999998919404;429;1 A
15.466424960951;-0.2998046875;-0.004107666015625;4.28999998916879;430;1 A
15.4764249609258;-0.2998046875;-0.00411071777343749;4.29999998914354;431;1 A
15.4864249609005;-0.299774169921875;-0.0041046142578125;4.3099999891183;432;1 A
15.4964249608753;-0.29986572265625;-0.0041015625;4.31999998909305;433;1 A
15.50642496085;-0.299774169921875;-0.0041046142578125;4.3299999890678;434;1 A
15.5164249608248;-0.2998046875;-0.004107666015625;4.33999998904255;435;1 A
15.5264249607995;-0.299835205078125;-0.0041046142578125;4.34999998901731;436;1 A
15.5364249607743;-0.29986572265625;-0.004107666015625;4.35999998899206;437;1 A
15.5464249607491;-0.299896240234375;-0.00409851074218751;4.36999998896681;438;1 A
15.5564249607238;-0.29986572265625;-0.00409545898437499;4.37999998894156;439;1 A
15.5664249606986;-0.2998046875;-0.0041015625;4.38999998891632;440;1 A
15.5764249606733;-0.299774169921875;-0.00409545898437499;4.39999998889107;441;1 A
15.5864249606481;-0.299774169921875;-0.00409851074218751;4.40999998886582;442;1 A
15.5964249606228;-0.299835205078125;-0.0040924072265625;4.41999998884057;443;1 A
15.6064249605976;-0.29986572265625;-0.00409545898437499;4.42999998881533;444;1 A
15.6164249605723;-0.299896240234375;-0.00409545898437499;4.43999998879008;445;1 A
15.6264249605471;-0.2998046875;-0.00408325195312501;4.44999998876483;446;1 A
15.6364249605218;-0.29974365234375;-0.00408935546875;4.45999998873958;447;1 A
15.6464249604966;-0.29986572265625;-0.0040740966796875;4.46999998871433;448;1 A
15.6564249604713;-0.299774169921875;-0.004071044921875;4.47999998868909;449;1 A
15.6664249604461;-0.299835205078125;-0.00406799316406251;4.48999998866384;450;1 A
15.6764249604208;-0.299896240234375;-0.004058837890625;4.49999998863859;451;1 A
15.6864249603956;-0.2998046875;-0.0040557861328125;4.50999998861334;452;1 A
15.6964249603703;-0.2998046875;-0.004046630859375;4.5199999885881;453;1 A
15.7064249603451;-0.299835205078125;-0.00403747558593751;4.52999998856285;454;1 A
15.7164249603198;-0.299835205078125;-0.00404052734375;4.5399999885376;455;1 A
15.7264249602946;-0.299835205078125;-0.0040313720703125;4.54999998851235;456;1 A
15.7364249602693;-0.2998046875;-0.00403747558593751;4.55999998848711;457;1 A
15.7464249602441;-0.299896240234375;-0.0040313720703125;4.56999998846186;458;1 A
15.7564249602189;-0.299774169921875;-0.00403747558593751;4.57999998843661;459;1 A
15.7664249601936;-0.299896240234375;-0.0040283203125;4.58999998841136;460;1 A
15.7764249601684;-0.299835205078125;-0.0040283203125;4.59999998838612;461;1 A
15.7864249601431;-0.2998046875;-0.0040313720703125;4.60999998836087;462;1 A
15.7964249601179;-0.29986572265625;-0.0040283203125;4.61999998833562;463;1 A
15.8064249600926;-0.299835205078125;-0.0040313720703125;4.62999998831037;464;1 A
15.8164249600674;-0.2998046875;-0.0040313720703125;4.63999998828513;465;1 A
15.8264249600421;-0.299774169921875;-0.0040283203125;4.64999998825988;466;1 A
15.8364249600169;-0.2998046875;-0.00403747558593751;4.65999998823463;467;1 A
15.8464249599916;-0.29974365234375;-0.00403747558593751;4.66999998820938;468;1 A
15.8564249599664;-0.299774169921875;-0.00404052734375;4.67999998818414;469;1 A
15.8664249599411;-0.299835205078125;-0.00404052734375;4.68999998815889;470;1 A
15.8764249599159;-0.2998046875;-0.0040435791015625;4.69999998813364;471;1 A
15.8864249598906;-0.299835205078125;-0.004046630859375;4.70999998810839;472;1 A
15.8964249598654;-0.2998046875;-0.0040435791015625;4.71999998808315;473;1 A
15.9064249598401;-0.2998046875;-0.004046630859375;4.7299999880579;474;1 A
15.9164249598149;-0.299774169921875;-0.0040435791015625;4.73999998803265;475;1 A
15.9264249597896;-0.299896240234375;-0.00403442382812499;4.7499999880074;476;1 A
15.9364249597644;-0.2999267578125;-0.004046630859375;4.75999998798216;477;1 A
15.9464249597391;-0.299774169921875;-0.0040435791015625;4.76999998795691;478;1 A
15.9564249597139;-0.29974365234375;-0.0040557861328125;4.77999998793166;479;1 A
15.9664249596887;-0.29974365234375;-0.004058837890625;4.78999998790641;480;1 A
15.9764249596634;-0.2998046875;-0.0040618896484375;4.79999998788116;481;1 A
15.9864249596382;-0.2998046875;-0.0040740966796875;4.80999998785592;482;1 A
15.9964249596129;-0.2998046875;-0.0040771484375;4.81999998783067;483;1 A
16.0064249595877;-0.299835205078125;-0.00408325195312501;4.82999998780542;484;1 A
16.0164249595624;-0.29974365234375;-0.0040924072265625;4.83999998778017;485;1 A
16.0264249595372;-0.299774169921875;-0.0040924072265625;4.84999998775493;486;1 A
16.0364249595119;-0.2998046875;-0.00409851074218751;4.85999998772968;487;1 A
16.0464249594867;-0.2998046875;-0.0040740966796875;4.86999998770443;488;1 A
16.0564249594614;-0.29986572265625;-0.00409851074218751;4.87999998767918;489;1 A
16.0664249594362;-0.2998046875;-0.00409851074218751;4.88999998765394;490;1 A
16.0764249594109;-0.299774169921875;-0.0040924072265625;4.89999998762869;491;1 A
16.0864249593857;-0.2998046875;-0.00408935546875;4.90999998760344;492;1 A
16.0964249593604;-0.2998046875;-0.00408325195312501;4.91999998757819;493;1 A
16.1064249593352;-0.2998046875;-0.00406799316406251;4.92999998755295;494;1 A
16.1164249593099;-0.2998046875;-0.0040771484375;4.9399999875277;495;1 A
16.1264249592847;-0.2998046875;-0.00406494140624999;4.94999998750245;496;1 A
16.1364249592594;-0.2998046875;-0.004071044921875;4.9599999874772;497;1 A
16.1464249592342;-0.299835205078125;-0.00406799316406251;4.96999998745196;498;1 A
16.1564249592089;-0.2998046875;-0.0040740966796875;4.97999998742671;499;1 A
16.1664249591837;-0.299774169921875;-0.004071044921875;4.98999998740146;500;1 A
16.1764249591585;-0.299835205078125;-0.0040740966796875;4.99999998737621;501;1 A
16.1864249591332;-0.299835205078125;-0.004071044921875;5.00999998735097;502;1 A
16.196424959108;-0.2998046875;-0.00406799316406251;5.01999998732572;503;1 A
16.2064249590827;-0.299835205078125;-0.004071044921875;5.02999998730047;504;1 A
16.2164249590575;-0.2998046875;-0.00406494140624999;5.03999998727522;505;1 A
16.2264249590322;-0.299835205078125;-0.004058837890625;5.04999998724998;506;1 A
16.236424959007;-0.2998046875;-0.0040618896484375;5.05999998722473;507;1 A
16.2464249589817;-0.2998046875;-0.00405273437500001;5.06999998719948;508;1 A
16.2564249589565;-0.29986572265625;-0.0040557861328125;5.07999998717423;509;1 A
16.2664249589312;-0.299774169921875;-0.0040618896484375;5.08999998714899;510;1 A
16.276424958906;-0.299774169921875;-0.00406494140624999;5.09999998712374;511;1 A
16.2864249588807;-0.29986572265625;-0.0040740966796875;5.10999998709849;512;1 A
16.2964249588555;-0.299835205078125;-0.0040771484375;5.11999998707324;513;1 A
16.3064249588302;-0.299835205078125;-0.00408325195312501;5.129999987048;514;1 A
16.316424958805;-0.2998046875;-0.0040924072265625;5.13999998702275;515;1 A
16.3264249587797;-0.2998046875;-0.00409851074218751;5.1499999869975;516;1 A
16.3364249587545;-0.2998046875;-0.004107666015625;5.15999998697225;517;1 A
16.3464249587292;-0.299774169921875;-0.0041015625;5.169999986947;518;1 A
16.356424958704;-0.299835205078125;-0.0041046142578125;5.17999998692176;519;1 A
16.3664249586787;-0.2998046875;-0.00411071777343749;5.18999998689651;520;1 A
16.3764249586535;-0.299835205078125;-0.00409545898437499;5.19999998687126;521;1 A
16.3864249586283;-0.299835205078125;-0.004107666015625;5.20999998684601;522;1 A
16.396424958603;-0.299835205078125;-0.00409545898437499;5.21999998682077;523;1 A
16.4064249585778;-0.299774169921875;-0.0040924072265625;5.22999998679552;524;1 A
16.4164249585525;-0.299835205078125;-0.00409545898437499;5.23999998677027;525;1 A
16.4264249585273;-0.299835205078125;-0.0040924072265625;5.24999998674502;526;1 A
16.436424958502;-0.299774169921875;-0.0041015625;5.25999998671978;527;1 A
16.4464249584768;-0.2998046875;-0.0041015625;5.26999998669453;528;1 A
16.4564249584515;-0.299835205078125;-0.00411071777343749;5.27999998666928;529;1 A
16.4664249584263;-0.299774169921875;-0.00411376953125001;5.28999998664403;530;1 A
16.476424958401;-0.299835205078125;-0.0041168212890625;5.29999998661879;531;1 A
16.4864249583758;-0.299774169921875;-0.00412902832031251;5.30999998659354;532;1 A
16.4964249583505;-0.299835205078125;-0.00412902832031251;5.31999998656829;533;1 A
16.5064249583253;-0.299835205078125;-0.0041351318359375;5.32999998654304;534;1 A
16.5164249583;-0.299774169921875;-0.00414123535156249;5.3399999865178;535;1 A
16.5264249582748;-0.299835205078125;-0.0041351318359375;5.34999998649255;536;1 A
16.5364249582495;-0.299774169921875;-0.00414428710937501;5.3599999864673;537;1 A
16.5464249582243;-0.2998046875;-0.00413818359375;5.36999998644205;538;1 A
16.556424958199;-0.299774169921875;-0.00413818359375;5.37999998641681;539;1 A
16.5664249581738;-0.2998046875;-0.0041351318359375;5.38999998639156;540;1 A
16.5764249581486;-0.299835205078125;-0.00412597656249999;5.39999998636631;541;1 A
16.5864249581233;-0.299774169921875;-0.00412902832031251;5.40999998634106;542;1 A
16.5964249580981;-0.299774169921875;-0.00412597656249999;5.41999998631582;543;1 A
16.6064249580728;-0.299774169921875;-0.00412902832031251;5.42999998629057;544;1 A
16.6164249580476;-0.299835205078125;-0.00412902832031251;5.43999998626532;545;1 A
16.6264249580223;-0.299835205078125;-0.004132080078125;5.44999998624007;546;1 A
16.6364249579971;-0.2998046875;-0.0041351318359375;5.45999998621483;547;1 A
16.6464249579718;-0.299835205078125;-0.004132080078125;5.46999998618958;548;1 A
16.6564249579466;-0.299835205078125;-0.004132080078125;5.47999998616433;549;1 A
16.6664249579213;-0.299774169921875;-0.004132080078125;5.48999998613908;550;1 A
16.6764249578961;-0.2998046875;-0.00412902832031251;5.49999998611383;551;1 A
16.6864249578708;-0.2998046875;-0.00412902832031251;5.50999998608859;552;1 A
16.6964249578456;-0.2998046875;-0.0041229248046875;5.51999998606334;553;1 A
16.7064249578203;-0.299774169921875;-0.0041229248046875;5.52999998603809;554;1 A
16.7164249577951;-0.299835205078125;-0.0041168212890625;5.53999998601284;555;1 A
16.7264249577698;-0.299774169921875;-0.00411071777343749;5.5499999859876;556;1 A
16.7364249577446;-0.299774169921875;-0.004119873046875;5.55999998596235;557;1 A
16.7464249577193;-0.29986572265625;-0.0041168212890625;5.5699999859371;558;1 A
16.7564249576941;-0.299835205078125;-0.0041229248046875;5.57999998591185;559;1 A
16.7664249576688;-0.2998046875;-0.0041229248046875;5.58999998588661;560;1 A
16.7764249576436;-0.2998046875;-0.004119873046875;5.59999998586136;561;1 A
16.7864249576184;-0.299774169921875;-0.00412597656249999;5.60999998583611;562;1 A
16.7964249575931;-0.299896240234375;-0.0041168212890625;5.61999998581086;563;1 A
16.8064249575679;-0.299713134765625;-0.0041168212890625;5.62999998578562;564;1 A
16.8164249575426;-0.299835205078125;-0.00411376953125001;5.63999998576037;565;1 A
16.8264249575174;-0.299835205078125;-0.0041046142578125;5.64999998573512;566;1 A
16.8364249574921;-0.299835205078125;-0.00411376953125001;5.65999998570987;567;1 A
16.8464249574669;-0.299774169921875;-0.0041046142578125;5.66999998568463;568;1 A
16.8564249574416;-0.2998046875;-0.00411376953125001;5.67999998565938;569;1 A
16.8664249574164;-0.2998046875;-0.0041168212890625;5.68999998563413;570;1 A
16.8764249573911;-0.2998046875;-0.004119873046875;5.69999998560888;571;1 A
16.8864249573659;-0.29986572265625;-0.00412597656249999;5.70999998558364;572;1 A
16.8964249573406;-0.2998046875;-0.00412902832031251;5.71999998555839;573;1 A
16.9064249573154;-0.299774169921875;-0.00412902832031251;5.72999998553314;574;1 A
16.9164249572901;-0.299774169921875;-0.0041351318359375;5.73999998550789;575;1 A
16.9264249572649;-0.299835205078125;-0.00412597656249999;5.74999998548265;576;1 A
16.9364249572396;-0.29986572265625;-0.00412902832031251;5.7599999854574;577;1 A
16.9464249572144;-0.299835205078125;-0.004119873046875;5.76999998543215;578;1 A
16.9564249571891;-0.299774169921875;-0.0041168212890625;5.7799999854069;579;1 A
16.9664249571639;-0.299835205078125;-0.00411071777343749;5.78999998538166;580;1 A
16.9764249571386;-0.299774169921875;-0.0041015625;5.79999998535641;581;1 A
16.9864249571134;-0.29974365234375;-0.00409851074218751;5.80999998533116;582;1 A
16.9964249570882;-0.29986572265625;-0.0040863037109375;5.81999998530591;583;1 A
17.0064249570629;-0.299835205078125;-0.00408020019531249;5.82999998528066;584;1 A
17.0164249570377;-0.299896240234375;-0.00406799316406251;5.83999998525542;585;1 A
17.0264249570124;-0.299835205078125;-0.0040618896484375;5.84999998523017;586;1 A
17.0364249569872;-0.299835205078125;-0.004058837890625;5.85999998520492;587;1 A
17.0464249569619;-0.299774169921875;-0.00405273437500001;5.86999998517967;588;1 A
17.0564249569367;-0.29974365234375;-0.00405273437500001;5.87999998515443;589;1 A
17.0664249569114;-0.2998046875;-0.00405273437500001;5.88999998512918;590;1 A
17.0764249568862;-0.29974365234375;-0.00404968261718749;5.89999998510393;591;1 A
17.0864249568609;-0.29986572265625;-0.00404968261718749;5.90999998507868;592;1 A
17.0964249568357;-0.2998046875;-0.0040313720703125;5.91999998505344;593;1 A
17.1064249568104;-0.299774169921875;-0.0040313720703125;5.92999998502819;594;1 A
17.1164249567852;-0.2998046875;-0.0040252685546875;5.93999998500294;595;1 A
17.1264249567599;-0.2998046875;-0.004010009765625;5.94999998497769;596;1 A
17.1364249567347;-0.29986572265625;-0.0040130615234375;5.95999998495245;597;1 A
17.1464249567094;-0.299835205078125;-0.0040008544921875;5.9699999849272;598;1 A
17.1564249566842;-0.2998046875;-0.0040008544921875;5.97999998490195;599;1 A
17.1664249566589;-0.29974365234375;-0.003997802734375;5.9899999848767;600;1 A
17.1764249566337;-0.29974365234375;-0.0039947509765625;5.99999998485146;601;1 A
17.1864249566084;-0.299774169921875;-0.0040008544921875;6.00999998482621;602;1 A
17.1964249565832;-0.29986572265625;-0.003985595703125;6.01999998480096;603;1 A
17.206424956558;-0.2999267578125;-0.003985595703125;6.02999998477571;604;1 A
17.2164249565327;-0.299835205078125;-0.00398864746093749;6.03999998475047;605;1 A
17.2264249565075;-0.299774169921875;-0.003985595703125;6.04999998472522;606;1 A
17.2364249564822;-0.2998046875;-0.0039947509765625;6.05999998469997;607;1 A
17.246424956457;-0.29974365234375;-0.00399169921875001;6.06999998467472;608;1 A
17.2564249564317;-0.299774169921875;-0.00398864746093749;6.07999998464948;609;1 A
17.2664249564065;-0.299835205078125;-0.00399169921875001;6.08999998462423;610;1 A
17.2764249563812;-0.299774169921875;-0.00398864746093749;6.09999998459898;611;1 A
17.286424956356;-0.2998046875;-0.00398864746093749;6.10999998457373;612;1 A
17.2964249563307;-0.2998046875;-0.0039825439453125;6.11999998454849;613;1 A
17.3064249563055;-0.2998046875;-0.0039794921875;6.12999998452324;614;1 A
17.3164249562802;-0.299835205078125;-0.003985595703125;6.13999998449799;615;1 A
17.326424956255;-0.29986572265625;-0.003985595703125;6.14999998447274;616;1 A
17.3364249562297;-0.2998046875;-0.0040008544921875;6.1599999844475;617;1 A
17.3464249562045;-0.2998046875;-0.0040008544921875;6.16999998442225;618;1 A
17.3564249561792;-0.29986572265625;-0.004010009765625;6.179999984397;619;1 A
17.366424956154;-0.299774169921875;-0.00401916503906249;6.18999998437175;620;1 A
17.3764249561287;-0.299774169921875;-0.0040283203125;6.1999999843465;621;1 A
17.3864249561035;-0.299896240234375;-0.0040435791015625;6.20999998432126;622;1 A
17.3964249560782;-0.299835205078125;-0.00404968261718749;6.21999998429601;623;1 A
17.406424956053;-0.299835205078125;-0.004058837890625;6.22999998427076;624;1 A
17.4164249560278;-0.2998046875;-0.0040618896484375;6.23999998424551;625;1 A
17.4264249560025;-0.299774169921875;-0.00406494140624999;6.24999998422027;626;1 A
17.4364249559773;-0.29986572265625;-0.00406799316406251;6.25999998419502;627;1 A
17.446424955952;-0.299774169921875;-0.00406494140624999;6.26999998416977;628;1 A
17.4564249559268;-0.299896240234375;-0.0040618896484375;6.27999998414452;629;1 A
17.4664249559015;-0.2998046875;-0.00406494140624999;6.28999998411928;630;1 A
17.4764249558763;-0.29986572265625;-0.00406799316406251;6.29999998409403;631;1 A
17.486424955851;-0.29974365234375;-0.0040740966796875;6.30999998406878;632;1 A
17.4964249558258;-0.299835205078125;-0.0040740966796875;6.31999998404353;633;1 A
17.5064249558005;-0.2998046875;-0.00408325195312501;6.32999998401829;634;1 A
17.5164249557753;-0.299835205078125;-0.0040924072265625;6.33999998399304;635;1 A
17.52642495575;-0.29986572265625;-0.00409545898437499;6.34999998396779;636;1 A
17.5364249557248;-0.2998046875;-0.00411376953125001;6.35999998394254;637;1 A
17.5464249556995;-0.299774169921875;-0.00411376953125001;6.3699999839173;638;1 A
17.5564249556743;-0.299774169921875;-0.004119873046875;6.37999998389205;639;1 A
17.566424955649;-0.29974365234375;-0.004119873046875;6.3899999838668;640;1 A
17.5764249556238;-0.2998046875;-0.00411376953125001;6.39999998384155;641;1 A
17.5864249555985;-0.29986572265625;-0.004119873046875;6.40999998381631;642;1 A
17.5964249555733;-0.299774169921875;-0.00411376953125001;6.41999998379106;643;1 A
17.6064249555481;-0.299835205078125;-0.00411071777343749;6.42999998376581;644;1 A
17.6164249555228;-0.29974365234375;-0.00411376953125001;6.43999998374056;645;1 A
17.6264249554976;-0.29986572265625;-0.0041046142578125;6.44999998371532;646;1 A
17.6364249554723;-0.299774169921875;-0.00411071777343749;6.45999998369007;647;1 A
17.6464249554471;-0.2998046875;-0.0041015625;6.46999998366482;648;1 A
17.6564249554218;-0.299835205078125;-0.00409851074218751;6.47999998363957;649;1 A
17.6664249553966;-0.299774169921875;-0.00409545898437499;6.48999998361433;650;1 A
17.6764249553713;-0.299896240234375;-0.00408325195312501;6.49999998358908;651;1 A
17.6864249553461;-0.299835205078125;-0.0040863037109375;6.50999998356383;652;1 A
17.6964249553208;-0.2998046875;-0.0040771484375;6.51999998353858;653;1 A
17.7064249552956;-0.2998046875;-0.004071044921875;6.52999998351333;654;1 A
17.7164249552703;-0.299835205078125;-0.00406799316406251;6.53999998348809;655;1 A
17.7264249552451;-0.299835205078125;-0.004058837890625;6.54999998346284;656;1 A
17.7364249552198;-0.29974365234375;-0.0040557861328125;6.55999998343759;657;1 A
17.7464249551946;-0.299774169921875;-0.004046630859375;6.56999998341234;658;1 A
17.7564249551693;-0.2998046875;-0.00403747558593751;6.5799999833871;659;1 A
17.7664249551441;-0.2998046875;-0.0040283203125;6.58999998336185;660;1 A
17.7764249551188;-0.299835205078125;-0.00401916503906249;6.5999999833366;661;1 A
17.7864249550936;-0.2998046875;-0.00401916503906249;6.60999998331135;662;1 A
17.7964249550683;-0.2998046875;-0.00401916503906249;6.61999998328611;663;1 A
17.8064249550431;-0.299774169921875;-0.00402221679687501;6.62999998326086;664;1 A
17.8164249550179;-0.29974365234375;-0.0040252685546875;6.63999998323561;665;1 A
17.8264249549926;-0.299835205078125;-0.0040313720703125;6.64999998321036;666;1 A
17.8364249549674;-0.29986572265625;-0.00403747558593751;6.65999998318512;667;1 A
17.8464249549421;-0.299896240234375;-0.00403747558593751;6.66999998315987;668;1 A
17.8564249549169;-0.2998046875;-0.0040435791015625;6.67999998313462;669;1 A
17.8664249548916;-0.29974365234375;-0.00404968261718749;6.68999998310937;670;1 A
17.8764249548664;-0.2998046875;-0.004046630859375;6.69999998308413;671;1 A
17.8864249548411;-0.2998046875;-0.004046630859375;6.70999998305888;672;1 A
17.8964249548159;-0.29986572265625;-0.0040435791015625;6.71999998303363;673;1 A
17.9064249547906;-0.2998046875;-0.0040435791015625;6.72999998300838;674;1 A
17.9164249547654;-0.29974365234375;-0.004046630859375;6.73999998298314;675;1 A
17.9264249547401;-0.299774169921875;-0.004046630859375;6.74999998295789;676;1 A
17.9364249547149;-0.2998046875;-0.0040557861328125;6.75999998293264;677;1 A
17.9464249546896;-0.299896240234375;-0.00404968261718749;6.76999998290739;678;1 A
17.9564249546644;-0.299835205078125;-0.00406799316406251;6.77999998288215;679;1 A
17.9664249546391;-0.29986572265625;-0.00406799316406251;6.7899999828569;680;1 A
17.9764249546139;-0.29986572265625;-0.004071044921875;6.79999998283165;681;1 A
17.9864249545886;-0.299774169921875;-0.0040863037109375;6.8099999828064;682;1 A
17.9964249545634;-0.2998046875;-0.00408325195312501;6.81999998278116;683;1 A
18.0064249545381;-0.2998046875;-0.00408935546875;6.82999998275591;684;1 A
18.0164249545129;-0.299835205078125;-0.00409545898437499;6.83999998273066;685;1 A
18.0264249544877;-0.2998046875;-0.00409851074218751;6.84999998270541;686;1 A
18.0364249544624;-0.299835205078125;-0.00411071777343749;6.85999998268016;687;1 A
18.0464249544372;-0.299896240234375;-0.0041015625;6.86999998265492;688;1 A
18.0564249544119;-0.299774169921875;-0.004107666015625;6.87999998262967;689;1 A
18.0664249543867;-0.2998046875;-0.00411071777343749;6.88999998260442;690;1 A
18.0764249543614;-0.2998046875;-0.004107666015625;6.89999998257917;691;1 A
18.0864249543362;-0.29986572265625;-0.004107666015625;6.90999998255393;692;1 A
18.0964249543109;-0.299835205078125;-0.004107666015625;6.91999998252868;693;1 A
18.1064249542857;-0.2998046875;-0.00411071777343749;6.92999998250343;694;1 A
18.1164249542604;-0.299774169921875;-0.004119873046875;6.93999998247818;695;1 A
18.1264249542352;-0.299774169921875;-0.0041168212890625;6.94999998245294;696;1 A
18.1364249542099;-0.299774169921875;-0.004119873046875;6.95999998242769;697;1 A
18.1464249541847;-0.299896240234375;-0.0041229248046875;6.96999998240244;698;1 A
18.1564249541594;-0.2998046875;-0.00412597656249999;6.97999998237719;699;1 A
18.1664249541342;-0.299835205078125;-0.00412597656249999;6.98999998235195;700;1 A
18.1764249541089;-0.299774169921875;-0.00412902832031251;6.9999999823267;701;1 A
18.1864249540837;-0.299774169921875;-0.00412902832031251;7.00999998230145;702;1 A
18.1964249540584;-0.2998046875;-0.00412902832031251;7.0199999822762;703;1 A
18.2064249540332;-0.2998046875;-0.004132080078125;7.02999998225096;704;1 A
18.2164249540079;-0.299835205078125;-0.00413818359375;7.03999998222571;705;1 A
18.2264249539827;-0.29986572265625;-0.00414428710937501;7.04999998220046;706;1 A
18.2364249539575;-0.2998046875;-0.00415954589843751;7.05999998217521;707;1 A
18.2464249539322;-0.2998046875;-0.00416259765625;7.06999998214997;708;1 A
18.256424953907;-0.299774169921875;-0.00417480468750001;7.07999998212472;709;1 A
18.2664249538817;-0.299835205078125;-0.00418701171874999;7.08999998209947;710;1 A
18.2764249538565;-0.2998046875;-0.00419921875;7.09999998207422;711;1 A
18.2864249538312;-0.29986572265625;-0.0042144775390625;7.10999998204898;712;1 A
18.296424953806;-0.2998046875;-0.0042236328125;7.11999998202373;713;1 A
18.3064249537807;-0.299774169921875;-0.00423278808593749;7.12999998199848;714;1 A
18.3164249537555;-0.29986572265625;-0.004254150390625;7.13999998197323;715;1 A
18.3264249537302;-0.2998046875;-0.00426025390625;7.14999998194799;716;1 A
18.336424953705;-0.29986572265625;-0.0042724609375;7.15999998192274;717;1 A
18.3464249536797;-0.29986572265625;-0.00426635742187501;7.16999998189749;718;1 A
18.3564249536545;-0.299835205078125;-0.00426635742187501;7.17999998187224;719;1 A
18.3664249536292;-0.299835205078125;-0.00426330566406249;7.189999981847;720;1 A
18.376424953604;-0.299835205078125;-0.00426330566406249;7.19999998182175;721;1 A
18.3864249535787;-0.299835205078125;-0.00426330566406249;7.2099999817965;722;1 A
18.3964249535535;-0.29986572265625;-0.00425109863281251;7.21999998177125;723;1 A
18.4064249535282;-0.29986572265625;-0.0042449951171875;7.229999981746;724;1 A
18.416424953503;-0.299896240234375;-0.0042388916015625;7.23999998172076;725;1 A
18.4264249534777;-0.299774169921875;-0.0042266845703125;7.24999998169551;726;1 A
18.4364249534525;-0.29986572265625;-0.0042266845703125;7.25999998167026;727;1 A
18.4464249534273;-0.29974365234375;-0.00421752929687499;7.26999998164501;728;1 A
18.456424953402;-0.2998046875;-0.00421142578125;7.27999998161977;729;1 A
18.4664249533768;-0.299896240234375;-0.00421142578125;7.28999998159452;730;1 A
18.4764249533515;-0.299835205078125;-0.00420532226562501;7.29999998156927;731;1 A
18.4864249533263;-0.299835205078125;-0.00420227050781249;7.30999998154402;732;1 A
18.496424953301;-0.299774169921875;-0.004193115234375;7.31999998151878;733;1 A
18.5064249532758;-0.299774169921875;-0.00419006347656251;7.32999998149353;734;1 A
18.5164249532505;-0.2998046875;-0.00419006347656251;7.33999998146828;735;1 A
18.5264249532253;-0.2998046875;-0.0041778564453125;7.34999998144303;736;1 A
18.5364249532;-0.299774169921875;-0.0041778564453125;7.35999998141779;737;1 A
18.5464249531748;-0.299774169921875;-0.004168701171875;7.36999998139254;738;1 A
18.5564249531495;-0.2998046875;-0.00416259765625;7.37999998136729;739;1 A
18.5664249531243;-0.2998046875;-0.00415649414062499;7.38999998134204;740;1 A
18.576424953099;-0.2998046875;-0.004150390625;7.3999999813168;741;1 A
18.5864249530738;-0.2998046875;-0.0041473388671875;7.40999998129155;742;1 A
18.5964249530485;-0.299835205078125;-0.00414123535156249;7.4199999812663;743;1 A
18.6064249530233;-0.299835205078125;-0.00413818359375;7.42999998124105;744;1 A
18.616424952998;-0.299774169921875;-0.00414123535156249;7.43999998121581;745;1 A
18.6264249529728;-0.2998046875;-0.00414123535156249;7.44999998119056;746;1 A
18.6364249529476;-0.299774169921875;-0.00414428710937501;7.45999998116531;747;1 A
18.6464249529223;-0.2998046875;-0.00413818359375;7.46999998114006;748;1 A
18.6564249528971;-0.29986572265625;-0.00413818359375;7.47999998111482;749;1 A
18.6664249528718;-0.29986572265625;-0.004132080078125;7.48999998108957;750;1 A
18.6764249528466;-0.299774169921875;-0.004132080078125;7.49999998106432;751;1 A
18.6864249528213;-0.2998046875;-0.004132080078125;7.50999998103907;752;1 A
18.6964249527961;-0.299835205078125;-0.0041229248046875;7.51999998101383;753;1 A
18.7064249527708;-0.299774169921875;-0.0041168212890625;7.52999998098858;754;1 A
18.7164249527456;-0.29974365234375;-0.004119873046875;7.53999998096333;755;1 A
18.7264249527203;-0.29986572265625;-0.00411071777343749;7.54999998093808;756;1 A
18.7364249526951;-0.2998046875;-0.00411071777343749;7.55999998091283;757;1 A
18.7464249526698;-0.299774169921875;-0.00409851074218751;7.56999998088759;758;1 A
18.7564249526446;-0.299835205078125;-0.0041046142578125;7.57999998086234;759;1 A
18.7664249526193;-0.2998046875;-0.004107666015625;7.58999998083709;760;1 A
18.7764249525941;-0.299835205078125;-0.0041015625;7.59999998081184;761;1 A
18.7864249525688;-0.299835205078125;-0.0041046142578125;7.6099999807866;762;1 A
18.7964249525436;-0.299835205078125;-0.0041046142578125;7.61999998076135;763;1 A
18.8064249525183;-0.299774169921875;-0.00411071777343749;7.6299999807361;764;1 A
18.8164249524931;-0.299774169921875;-0.0041168212890625;7.63999998071085;765;1 A
18.8264249524678;-0.2998046875;-0.00411376953125001;7.64999998068561;766;1 A
18.8364249524426;-0.299835205078125;-0.00412597656249999;7.65999998066036;767;1 A
18.8464249524174;-0.2998046875;-0.0041168212890625;7.66999998063511;768;1 A
18.8564249523921;-0.29974365234375;-0.004119873046875;7.67999998060986;769;1 A
18.8664249523669;-0.29986572265625;-0.00412902832031251;7.68999998058462;770;1 A
18.8764249523416;-0.299835205078125;-0.00412902832031251;7.69999998055937;771;1 A
18.8864249523164;-0.299713134765625;-0.0041351318359375;7.70999998053412;772;1 A
18.8964249522911;-0.29986572265625;-0.0041351318359375;7.71999998050887;773;1 A
18.9064249522659;-0.29986572265625;-0.00414123535156249;7.72999998048363;774;1 A
18.9164249522406;-0.299835205078125;-0.00414428710937501;7.73999998045838;775;1 A
18.9264249522154;-0.299896240234375;-0.0041473388671875;7.74999998043313;776;1 A
18.9364249521901;-0.29974365234375;-0.0041473388671875;7.75999998040788;777;1 A
18.9464249521649;-0.299774169921875;-0.00414428710937501;7.76999998038264;778;1 A
18.9564249521396;-0.29986572265625;-0.00414123535156249;7.77999998035739;779;1 A
18.9664249521144;-0.2998046875;-0.00414428710937501;7.78999998033214;780;1 A
18.9764249520891;-0.299896240234375;-0.00414428710937501;7.79999998030689;781;1 A
18.9864249520639;-0.2998046875;-0.00414428710937501;7.80999998028165;782;1 A
18.9964249520386;-0.299835205078125;-0.0041351318359375;7.8199999802564;783;1 A
19.0064249520134;-0.299774169921875;-0.00413818359375;7.82999998023115;784;1 A
19.0164249519881;-0.299835205078125;-0.00414123535156249;7.8399999802059;785;1 A
19.0264249519629;-0.299835205078125;-0.00413818359375;7.84999998018066;786;1 A
19.0364249519376;-0.299835205078125;-0.00414428710937501;7.85999998015541;787;1 A
19.0464249519124;-0.299835205078125;-0.0041351318359375;7.86999998013016;788;1 A
19.0564249518872;-0.299835205078125;-0.0041351318359375;7.87999998010491;789;1 A
19.0664249518619;-0.2998046875;-0.004132080078125;7.88999998007966;790;1 A
19.0764249518367;-0.299835205078125;-0.0041351318359375;7.89999998005442;791;1 A
19.0864249518114;-0.299774169921875;-0.004132080078125;7.90999998002917;792;1 A
19.0964249517862;-0.299896240234375;-0.00412597656249999;7.91999998000392;793;1 A
19.1064249517609;-0.29986572265625;-0.004119873046875;7.92999997997867;794;1 A
19.1164249517357;-0.299835205078125;-0.0041229248046875;7.93999997995343;795;1 A
19.1264249517104;-0.299835205078125;-0.0041229248046875;7.94999997992818;796;1 A
19.1364249516852;-0.299774169921875;-0.00413818359375;7.95999997990293;797;1 A
19.1464249516599;-0.29986572265625;-0.0041351318359375;7.96999997987768;798;1 A
19.1564249516347;-0.2998046875;-0.004150390625;7.97999997985244;799;1 A
19.1664249516094;-0.299835205078125;-0.00415649414062499;7.98999997982719;800;1 A
19.1764249515842;-0.29986572265625;-0.00415954589843751;7.99999997980194;801;1 A
19.1864249515589;-0.2998046875;-0.0041656494140625;8.00999997977669;802;1 A
19.1964249515337;-0.2998046875;-0.0041656494140625;8.01999997975145;803;1 A
19.2064249515084;-0.2998046875;-0.004168701171875;8.0299999797262;804;1 A
19.2164249514832;-0.29986572265625;-0.0041778564453125;8.03999997970095;805;1 A
19.2264249514579;-0.29986572265625;-0.0041778564453125;8.0499999796757;806;1 A
19.2364249514327;-0.29974365234375;-0.00419006347656251;8.05999997965046;807;1 A
19.2464249514074;-0.29986572265625;-0.00418701171874999;8.06999997962521;808;1 A
19.2564249513822;-0.299774169921875;-0.0041961669921875;8.07999997959996;809;1 A
19.266424951357;-0.299835205078125;-0.0042083740234375;8.08999997957471;810;1 A
19.2764249513317;-0.299774169921875;-0.00420532226562501;8.09999997954947;811;1 A
19.2864249513065;-0.29986572265625;-0.00421142578125;8.10999997952422;812;1 A
19.2964249512812;-0.299774169921875;-0.00421142578125;8.11999997949897;813;1 A
19.306424951256;-0.299774169921875;-0.00421142578125;8.12999997947372;814;1 A
19.3164249512307;-0.299774169921875;-0.0042236328125;8.13999997944848;815;1 A
19.3264249512055;-0.2998046875;-0.0042266845703125;8.14999997942323;816;1 A
19.3364249511802;-0.29986572265625;-0.00423278808593749;8.15999997939798;817;1 A
19.346424951155;-0.2999267578125;-0.0042266845703125;8.16999997937273;818;1 A
19.3564249511297;-0.2998046875;-0.00423278808593749;8.17999997934749;819;1 A
19.3664249511045;-0.2998046875;-0.00423583984375001;8.18999997932224;820;1 A
19.3764249510792;-0.299835205078125;-0.00423583984375001;8.19999997929699;821;1 A
19.386424951054;-0.299774169921875;-0.0042388916015625;8.20999997927174;822;1 A
19.3964249510287;-0.299835205078125;-0.00423583984375001;8.2199999792465;823;1 A
19.4064249510035;-0.2998046875;-0.0042388916015625;8.22999997922125;824;1 A
19.4164249509782;-0.2998046875;-0.0042449951171875;8.239999979196;825;1 A
19.426424950953;-0.299835205078125;-0.00424804687499999;8.24999997917075;826;1 A
19.4364249509277;-0.2998046875;-0.004254150390625;8.2599999791455;827;1 A
19.4464249509025;-0.2998046875;-0.004254150390625;8.26999997912026;828;1 A
19.4564249508772;-0.299774169921875;-0.00426330566406249;8.27999997909501;829;1 A
19.466424950852;-0.299774169921875;-0.0042724609375;8.28999997906976;830;1 A
19.4764249508268;-0.29974365234375;-0.00427856445312499;8.29999997904451;831;1 A
19.4864249508015;-0.2998046875;-0.00428161621093751;8.30999997901927;832;1 A
19.4964249507763;-0.2998046875;-0.0042877197265625;8.31999997899402;833;1 A
19.506424950751;-0.29974365234375;-0.004290771484375;8.32999997896877;834;1 A
19.5164249507258;-0.2998046875;-0.004302978515625;8.33999997894352;835;1 A
19.5264249507005;-0.299835205078125;-0.004302978515625;8.34999997891828;836;1 A
19.5364249506753;-0.299896240234375;-0.0043182373046875;8.35999997889303;837;1 A
19.54642495065;-0.299835205078125;-0.0043182373046875;8.36999997886778;838;1 A
19.5564249506248;-0.299774169921875;-0.0043304443359375;8.37999997884253;839;1 A
19.5664249505995;-0.299835205078125;-0.00433959960937499;8.38999997881729;840;1 A
19.5764249505743;-0.29986572265625;-0.004345703125;8.39999997879204;841;1 A
19.586424950549;-0.2998046875;-0.004364013671875;8.40999997876679;842;1 A
19.5964249505238;-0.299896240234375;-0.004364013671875;8.41999997874154;843;1 A
19.6064249504985;-0.2998046875;-0.0043670654296875;8.4299999787163;844;1 A
19.6164249504733;-0.29986572265625;-0.004376220703125;8.43999997869105;845;1 A
19.626424950448;-0.29986572265625;-0.00437316894531251;8.4499999786658;846;1 A
19.6364249504228;-0.299835205078125;-0.00438537597656249;8.45999997864055;847;1 A
19.6464249503975;-0.2998046875;-0.0043792724609375;8.46999997861531;848;1 A
19.6564249503723;-0.299774169921875;-0.0043792724609375;8.47999997859006;849;1 A
19.6664249503471;-0.29986572265625;-0.00438537597656249;8.48999997856481;850;1 A
19.6764249503218;-0.2998046875;-0.0043792724609375;8.49999997853956;851;1 A
19.6864249502966;-0.299835205078125;-0.00438537597656249;8.50999997851432;852;1 A
19.6964249502713;-0.29974365234375;-0.0043792724609375;8.51999997848907;853;1 A
19.7064249502461;-0.299835205078125;-0.00438232421875;8.52999997846382;854;1 A
19.7164249502208;-0.299774169921875;-0.00438537597656249;8.53999997843857;855;1 A
19.7264249501956;-0.29986572265625;-0.004376220703125;8.54999997841333;856;1 A
19.7364249501703;-0.2998046875;-0.004376220703125;8.55999997838808;857;1 A
19.7464249501451;-0.299774169921875;-0.00437316894531251;8.56999997836283;858;1 A
19.7564249501198;-0.299774169921875;-0.00437316894531251;8.57999997833758;859;1 A
19.7664249500946;-0.29974365234375;-0.00437011718749999;8.58999997831233;860;1 A
19.7764249500693;-0.2998046875;-0.004364013671875;8.59999997828709;861;1 A
19.7864249500441;-0.299774169921875;-0.004364013671875;8.60999997826184;862;1 A
19.7964249500188;-0.2998046875;-0.0043609619140625;8.61999997823659;863;1 A
19.8064249499936;-0.299835205078125;-0.00435485839843749;8.62999997821134;864;1 A
19.8164249499683;-0.299774169921875;-0.0043609619140625;8.6399999781861;865;1 A
19.8264249499431;-0.299835205078125;-0.00435791015625001;8.64999997816085;866;1 A
19.8364249499178;-0.299835205078125;-0.00437011718749999;8.6599999781356;867;1 A
19.8464249498926;-0.29986572265625;-0.0043609619140625;8.66999997811035;868;1 A
19.8564249498673;-0.29986572265625;-0.00437011718749999;8.67999997808511;869;1 A
19.8664249498421;-0.2998046875;-0.00437316894531251;8.68999997805986;870;1 A
19.8764249498169;-0.299774169921875;-0.00437316894531251;8.69999997803461;871;1 A
19.8864249497916;-0.299774169921875;-0.0043792724609375;8.70999997800936;872;1 A
19.8964249497664;-0.299835205078125;-0.004376220703125;8.71999997798412;873;1 A
19.9064249497411;-0.29986572265625;-0.00437316894531251;8.72999997795887;874;1 A
19.9164249497159;-0.299774169921875;-0.00437011718749999;8.73999997793362;875;1 A
19.9264249496906;-0.29986572265625;-0.00437011718749999;8.74999997790837;876;1 A
19.9364249496654;-0.299774169921875;-0.0043792724609375;8.75999997788313;877;1 A
19.9464249496401;-0.29974365234375;-0.00437011718749999;8.76999997785788;878;1 A
19.9564249496149;-0.29974365234375;-0.004376220703125;8.77999997783263;879;1 A
19.9664249495896;-0.299774169921875;-0.0043792724609375;8.78999997780738;880;1 A
19.9764249495644;-0.299896240234375;-0.004376220703125;8.79999997778214;881;1 A
19.9864249495391;-0.2998046875;-0.0043792724609375;8.80999997775689;882;1 A
19.9964249495139;-0.299774169921875;-0.004376220703125;8.81999997773164;883;1 A
20.0064249494886;-0.299774169921875;-0.004376220703125;8.82999997770639;884;1 A
20.0164249494634;-0.29974365234375;-0.004376220703125;8.83999997768115;885;1 A
20.0264249494381;-0.2998046875;-0.004376220703125;8.8499999776559;886;1 A
20.0364249494129;-0.29986572265625;-0.00438537597656249;8.85999997763065;887;1 A
20.0464249493876;-0.299835205078125;-0.00438537597656249;8.8699999776054;888;1 A
20.0564249493624;-0.299835205078125;-0.00438232421875;8.87999997758016;889;1 A
20.0664249493371;-0.299713134765625;-0.00439453125;8.88999997755491;890;1 A
20.0764249493119;-0.2998046875;-0.0043914794921875;8.89999997752966;891;1 A
20.0864249492867;-0.299774169921875;-0.00440063476562499;8.90999997750441;892;1 A
20.0964249492614;-0.299896240234375;-0.0043975830078125;8.91999997747916;893;1 A
20.1064249492362;-0.299835205078125;-0.0043975830078125;8.92999997745392;894;1 A
20.1164249492109;-0.299835205078125;-0.00440368652343751;8.93999997742867;895;1 A
20.1264249491857;-0.299835205078125;-0.0043975830078125;8.94999997740342;896;1 A
20.1364249491604;-0.299774169921875;-0.0043975830078125;8.95999997737817;897;1 A
20.1464249491352;-0.2998046875;-0.0043914794921875;8.96999997735293;898;1 A
20.1564249491099;-0.29974365234375;-0.00438842773437501;8.97999997732768;899;1 A
20.1664249490847;-0.299835205078125;-0.00438537597656249;8.98999997730243;900;1 A
20.1764249490594;-0.299835205078125;-0.00437316894531251;8.99999997727718;901;1 A
20.1864249490342;-0.2998046875;-0.00437011718749999;9.00999997725194;902;1 A
20.1964249490089;-0.29974365234375;-0.004364013671875;9.01999997722669;903;1 A
20.2064249489837;-0.299774169921875;-0.0043609619140625;9.02999997720144;904;1 A
20.2164249489584;-0.299896240234375;-0.0043609619140625;9.03999997717619;905;1 A
20.2264249489332;-0.29986572265625;-0.00435485839843749;9.04999997715095;906;1 A
20.2364249489079;-0.29986572265625;-0.00435791015625001;9.0599999771257;907;1 A
20.2464249488827;-0.2998046875;-0.0043487548828125;9.06999997710045;908;1 A
20.2564249488574;-0.299774169921875;-0.00435485839843749;9.0799999770752;909;1 A
20.2664249488322;-0.29986572265625;-0.004351806640625;9.08999997704996;910;1 A
20.2764249488069;-0.299835205078125;-0.0043487548828125;9.09999997702471;911;1 A
20.2864249487817;-0.299774169921875;-0.004345703125;9.10999997699946;912;1 A
20.2964249487565;-0.299774169921875;-0.0043304443359375;9.11999997697421;913;1 A
20.3064249487312;-0.299774169921875;-0.00432739257812501;9.12999997694897;914;1 A
20.316424948706;-0.2998046875;-0.0043212890625;9.13999997692372;915;1 A
20.3264249486807;-0.2998046875;-0.00430908203124999;9.14999997689847;916;1 A
20.3364249486555;-0.29986572265625;-0.00430908203124999;9.15999997687322;917;1 A
20.3464249486302;-0.2998046875;-0.0042999267578125;9.16999997684798;918;1 A
20.356424948605;-0.2998046875;-0.004302978515625;9.17999997682273;919;1 A
20.3664249485797;-0.29986572265625;-0.00430908203124999;9.18999997679748;920;1 A
20.3764249485545;-0.2998046875;-0.0043060302734375;9.19999997677223;921;1 A
20.3864249485292;-0.2998046875;-0.004315185546875;9.20999997674699;922;1 A
20.396424948504;-0.29986572265625;-0.00430908203124999;9.21999997672174;923;1 A
20.4064249484787;-0.2998046875;-0.00430908203124999;9.22999997669649;924;1 A
20.4164249484535;-0.299835205078125;-0.00431213378906251;9.23999997667124;925;1 A
20.4264249484282;-0.299774169921875;-0.00431213378906251;9.249999976646;926;1 A
20.436424948403;-0.29986572265625;-0.0043182373046875;9.25999997662075;927;1 A
20.4464249483777;-0.299835205078125;-0.00430908203124999;9.2699999765955;928;1 A
20.4564249483525;-0.299774169921875;-0.0043060302734375;9.27999997657025;929;1 A
20.4664249483272;-0.299835205078125;-0.004302978515625;9.289999976545;930;1 A
20.476424948302;-0.299774169921875;-0.00429687500000001;9.29999997651976;931;1 A
20.4864249482767;-0.299835205078125;-0.00429687500000001;9.30999997649451;932;1 A
20.4964249482515;-0.299774169921875;-0.004290771484375;9.31999997646926;933;1 A
20.5064249482263;-0.299774169921875;-0.00428161621093751;9.32999997644401;934;1 A
20.516424948201;-0.29974365234375;-0.00428161621093751;9.33999997641877;935;1 A
20.5264249481758;-0.29974365234375;-0.00426635742187501;9.34999997639352;936;1 A
20.5364249481505;-0.2998046875;-0.00426330566406249;9.35999997636827;937;1 A
20.5464249481253;-0.299774169921875;-0.00424804687499999;9.36999997634302;938;1 A
20.5564249481;-0.2998046875;-0.004241943359375;9.37999997631778;939;1 A
20.5664249480748;-0.299774169921875;-0.00423278808593749;9.38999997629253;940;1 A
20.5764249480495;-0.299774169921875;-0.004229736328125;9.39999997626728;941;1 A
20.5864249480243;-0.29986572265625;-0.00422058105468751;9.40999997624203;942;1 A
20.596424947999;-0.2998046875;-0.0042144775390625;9.41999997621679;943;1 A
20.6064249479738;-0.299774169921875;-0.0042083740234375;9.42999997619154;944;1 A
20.6164249479485;-0.299835205078125;-0.00421142578125;9.43999997616629;945;1 A
20.6264249479233;-0.299774169921875;-0.004193115234375;9.44999997614104;946;1 A
20.636424947898;-0.2998046875;-0.00421142578125;9.4599999761158;947;1 A
20.6464249478728;-0.299835205078125;-0.00420227050781249;9.46999997609055;948;1 A
20.6564249478475;-0.299835205078125;-0.00419921875;9.4799999760653;949;1 A
20.6664249478223;-0.299896240234375;-0.00420227050781249;9.48999997604005;950;1 A
20.676424947797;-0.299835205078125;-0.00419921875;9.49999997601481;951;1 A
20.6864249477718;-0.2998046875;-0.00420532226562501;9.50999997598956;952;1 A
20.6964249477466;-0.2998046875;-0.004193115234375;9.51999997596431;953;1 A
20.7064249477213;-0.2998046875;-0.004193115234375;9.52999997593906;954;1 A
20.7164249476961;-0.29986572265625;-0.0041961669921875;9.53999997591382;955;1 A
20.7264249476708;-0.299835205078125;-0.0041839599609375;9.54999997588857;956;1 A
20.7364249476456;-0.299774169921875;-0.00418701171874999;9.55999997586332;957;1 A
20.7464249476203;-0.2998046875;-0.0041778564453125;9.56999997583807;958;1 A
20.7564249475951;-0.2998046875;-0.004180908203125;9.57999997581283;959;1 A
20.7664249475698;-0.2998046875;-0.004180908203125;9.58999997578758;960;1 A
20.7764249475446;-0.2998046875;-0.00417480468750001;9.59999997576233;961;1 A
20.7864249475193;-0.299835205078125;-0.00417480468750001;9.60999997573708;962;1 A
20.7964249474941;-0.299774169921875;-0.00416259765625;9.61999997571183;963;1 A
20.8064249474688;-0.2998046875;-0.00415954589843751;9.62999997568659;964;1 A
20.8164249474436;-0.2998046875;-0.00415649414062499;9.63999997566134;965;1 A
20.8264249474183;-0.299774169921875;-0.0041473388671875;9.64999997563609;966;1 A
20.8364249473931;-0.299774169921875;-0.004150390625;9.65999997561084;967;1 A
20.8464249473678;-0.299774169921875;-0.00414428710937501;9.6699999755856;968;1 A
20.8564249473426;-0.299835205078125;-0.00414123535156249;9.67999997556035;969;1 A
20.8664249473173;-0.29974365234375;-0.00414428710937501;9.6899999755351;970;1 A
20.8764249472921;-0.2998046875;-0.00414123535156249;9.69999997550985;971;1 A
20.8864249472668;-0.299774169921875;-0.00414428710937501;9.70999997548461;972;1 A
20.8964249472416;-0.299774169921875;-0.0041351318359375;9.71999997545936;973;1 A
20.9064249472164;-0.29986572265625;-0.0041351318359375;9.72999997543411;974;1 A
20.9164249471911;-0.2998046875;-0.00413818359375;9.73999997540886;975;1 A
20.9264249471659;-0.29986572265625;-0.00412597656249999;9.74999997538362;976;1 A
20.9364249471406;-0.29974365234375;-0.0041351318359375;9.75999997535837;977;1 A
20.9464249471154;-0.299774169921875;-0.0041229248046875;9.76999997533312;978;1 A
20.9564249470901;-0.2998046875;-0.00412597656249999;9.77999997530787;979;1 A
20.9664249470649;-0.29986572265625;-0.00412597656249999;9.78999997528263;980;1 A
20.9764249470396;-0.29986572265625;-0.00412597656249999;9.79999997525738;981;1 A
20.9864249470144;-0.299774169921875;-0.00412597656249999;9.80999997523213;982;1 A
20.9964249469891;-0.2998046875;-0.00406799316406251;9.81999997520688;983;1 A
21.0064249469639;-0.2998046875;-0.0041168212890625;9.82999997518164;984;1 A
21.0164249469386;-0.2998046875;-0.00412597656249999;9.83999997515639;985;1 A
21.0264249469134;-0.299835205078125;-0.0041229248046875;9.84999997513114;986;1 A
21.0364249468881;-0.29986572265625;-0.0041229248046875;9.85999997510589;987;1 A
21.0464249468629;-0.299835205078125;-0.00411376953125001;9.86999997508065;988;1 A
21.0564249468376;-0.299835205078125;-0.0041168212890625;9.8799999750554;989;1 A
21.0664249468124;-0.29974365234375;-0.00411376953125001;9.88999997503015;990;1 A
21.0764249467871;-0.299774169921875;-0.004107666015625;9.8999999750049;991;1 A
21.0864249467619;-0.299835205078125;-0.0041015625;9.90999997497966;992;1 A
21.0964249467366;-0.299835205078125;-0.00408935546875;9.91999997495441;993;1 A
21.1064249467114;-0.2998046875;-0.00408325195312501;9.92999997492916;994;1 A
21.1164249466862;-0.299774169921875;-0.0040771484375;9.93999997490391;995;1 A
21.1264249466609;-0.299835205078125;-0.004071044921875;9.94999997487866;996;1 A
21.1364249466357;-0.299774169921875;-0.0040740966796875;9.95999997485342;997;1 A
21.1464249466104;-0.29974365234375;-0.0040618896484375;9.96999997482817;998;1 A
21.1564249465852;-0.2998046875;-0.00406494140624999;9.97999997480292;999;1 A
21.1664249465599;-0.299835205078125;-0.00406799316406251;9.98999997477767;1000;1 A
