Time (s);WE(1).Potential (V);WE(1).Current (A);Corrected time (s);Index;Current range
21.7577109450671;-0.199920654296875;-0.002520751953125;0;1;1 A
21.7677109450418;-0.199859619140625;-0.00293579101562499;0.00999999997475243;2;1 A
21.7777109450166;-0.19989013671875;-0.003143310546875;0.0199999999495049;3;1 A
21.7877109449913;-0.199920654296875;-0.0032684326171875;0.0299999999242573;4;1 A
21.7977109449661;-0.199951171875;-0.00335693359375;0.0399999998990097;5;1 A
21.8077109449408;-0.199920654296875;-0.00343017578125;0.0499999998737621;6;1 A
21.8177109449156;-0.19989013671875;-0.0034820556640625;0.0599999998485146;7;1 A
21.8277109448903;-0.19989013671875;-0.00352783203125;0.069999999823267;8;1 A
21.8377109448651;-0.199859619140625;-0.0035552978515625;0.0799999997980194;9;1 A
21.8477109448398;-0.199859619140625;-0.0035888671875;0.0899999997727718;10;1 A
21.8577109448146;-0.199981689453125;-0.003619384765625;0.0999999997475243;11;1 A
21.8677109447893;-0.199920654296875;-0.003643798828125;0.109999999722277;12;1 A
21.8777109447641;-0.19989013671875;-0.00367431640625;0.119999999697029;13;1 A
21.8877109447388;-0.19989013671875;-0.00368347167968749;0.129999999671782;14;1 A
21.8977109447136;-0.199859619140625;-0.00369873046874999;0.139999999646534;15;1 A
21.9077109446883;-0.19989013671875;-0.0037109375;0.149999999621286;16;1 A
21.9177109446631;-0.19989013671875;-0.0037200927734375;0.159999999596039;17;1 A
21.9277109446379;-0.19989013671875;-0.00372924804687499;0.169999999570791;18;1 A
21.9377109446126;-0.199951171875;-0.00373229980468751;0.179999999545544;19;1 A
21.9477109445874;-0.19989013671875;-0.0037384033203125;0.189999999520296;20;1 A
21.9577109445621;-0.199951171875;-0.00374755859375001;0.199999999495049;21;1 A
21.9677109445369;-0.199920654296875;-0.003741455078125;0.209999999469801;22;1 A
21.9777109445116;-0.199920654296875;-0.00374755859375001;0.219999999444553;23;1 A
21.9877109444864;-0.1998291015625;-0.00374450683593749;0.229999999419306;24;1 A
21.9977109444611;-0.19989013671875;-0.00374450683593749;0.239999999394058;25;1 A
22.0077109444359;-0.199920654296875;-0.003753662109375;0.249999999368811;26;1 A
22.0177109444106;-0.199859619140625;-0.00374755859375001;0.259999999343563;27;1 A
22.0277109443854;-0.199951171875;-0.0037567138671875;0.269999999318316;28;1 A
22.0377109443601;-0.199920654296875;-0.0037506103515625;0.279999999293068;29;1 A
22.0477109443349;-0.199920654296875;-0.00375976562499999;0.28999999926782;30;1 A
22.0577109443096;-0.199859619140625;-0.00376281738281251;0.299999999242573;31;1 A
22.0677109442844;-0.199920654296875;-0.00375976562499999;0.309999999217325;32;1 A
22.0777109442591;-0.199920654296875;-0.00375976562499999;0.319999999192078;33;1 A
22.0877109442339;-0.19989013671875;-0.003753662109375;0.32999999916683;34;1 A
22.0977109442086;-0.19989013671875;-0.0037506103515625;0.339999999141583;35;1 A
22.1077109441834;-0.199920654296875;-0.0037567138671875;0.349999999116335;36;1 A
22.1177109441581;-0.199920654296875;-0.003753662109375;0.359999999091087;37;1 A
22.1277109441329;-0.199981689453125;-0.00375976562499999;0.36999999906584;38;1 A
22.1377109441077;-0.19989013671875;-0.003753662109375;0.379999999040592;39;1 A
22.1477109440824;-0.19989013671875;-0.003753662109375;0.389999999015345;40;1 A
22.1577109440572;-0.19989013671875;-0.003753662109375;0.399999998990097;41;1 A
22.1677109440319;-0.199859619140625;-0.0037567138671875;0.40999999896485;42;1 A
22.1777109440067;-0.199951171875;-0.00375976562499999;0.419999998939602;43;1 A
22.1877109439814;-0.199951171875;-0.003765869140625;0.429999998914354;44;1 A
22.1977109439562;-0.199981689453125;-0.00377197265625;0.439999998889107;45;1 A
22.2077109439309;-0.199920654296875;-0.0037811279296875;0.449999998863859;46;1 A
22.2177109439057;-0.199859619140625;-0.0037841796875;0.459999998838612;47;1 A
22.2277109438804;-0.1998291015625;-0.00379028320312499;0.469999998813364;48;1 A
22.2377109438552;-0.19989013671875;-0.0037811279296875;0.479999998788116;49;1 A
22.2477109438299;-0.199920654296875;-0.0037841796875;0.489999998762869;50;1 A
22.2577109438047;-0.19964599609375;-0.00377807617187501;0.499999998737621;51;1 A
22.2677109437794;-0.19989013671875;-0.00379028320312499;0.509999998712374;52;1 A
22.2777109437542;-0.199951171875;-0.00379638671875;0.519999998687126;53;1 A
22.2877109437289;-0.19989013671875;-0.003802490234375;0.529999998661879;54;1 A
22.2977109437037;-0.199920654296875;-0.0038177490234375;0.539999998636631;55;1 A
22.3077109436784;-0.199859619140625;-0.003826904296875;0.549999998611383;56;1 A
22.3177109436532;-0.199920654296875;-0.0038299560546875;0.559999998586136;57;1 A
22.3277109436279;-0.199859619140625;-0.00384521484375;0.569999998560888;58;1 A
22.3377109436027;-0.199859619140625;-0.00384521484375;0.579999998535641;59;1 A
22.3477109435775;-0.199951171875;-0.003857421875;0.589999998510393;60;1 A
22.3577109435522;-0.19989013671875;-0.00386657714843749;0.599999998485146;61;1 A
22.367710943527;-0.199951171875;-0.0038726806640625;0.609999998459898;62;1 A
22.3777109435017;-0.199951171875;-0.00388488769531251;0.61999999843465;63;1 A
22.3877109434765;-0.199920654296875;-0.00388488769531251;0.629999998409403;64;1 A
22.3977109434512;-0.199951171875;-0.003887939453125;0.639999998384155;65;1 A
22.407710943426;-0.199859619140625;-0.00389709472656249;0.649999998358908;66;1 A
22.4177109434007;-0.199920654296875;-0.0038909912109375;0.65999999833366;67;1 A
22.4277109433755;-0.19989013671875;-0.00390625;0.669999998308413;68;1 A
22.4377109433502;-0.199920654296875;-0.00390014648437501;0.679999998283165;69;1 A
22.447710943325;-0.19989013671875;-0.00390625;0.689999998257917;70;1 A
22.4577109432997;-0.19989013671875;-0.00391235351562499;0.69999999823267;71;1 A
22.4677109432745;-0.19989013671875;-0.00391540527343751;0.709999998207422;72;1 A
22.4777109432492;-0.199859619140625;-0.00391845703125;0.719999998182175;73;1 A
22.487710943224;-0.199981689453125;-0.00391540527343751;0.729999998156927;74;1 A
22.4977109431987;-0.199951171875;-0.00391540527343751;0.73999999813168;75;1 A
22.5077109431735;-0.199920654296875;-0.003924560546875;0.749999998106432;76;1 A
22.5177109431482;-0.199951171875;-0.00391845703125;0.759999998081184;77;1 A
22.527710943123;-0.19989013671875;-0.003924560546875;0.769999998055937;78;1 A
22.5377109430977;-0.19989013671875;-0.00391845703125;0.779999998030689;79;1 A
22.5477109430725;-0.19989013671875;-0.0039215087890625;0.789999998005442;80;1 A
22.5577109430473;-0.199981689453125;-0.00391540527343751;0.799999997980194;81;1 A
22.567710943022;-0.20001220703125;-0.00391235351562499;0.809999997954947;82;1 A
22.5777109429968;-0.199920654296875;-0.00391235351562499;0.819999997929699;83;1 A
22.5877109429715;-0.199951171875;-0.0039031982421875;0.829999997904451;84;1 A
22.5977109429463;-0.19989013671875;-0.00390625;0.839999997879204;85;1 A
22.607710942921;-0.19989013671875;-0.0039093017578125;0.849999997853956;86;1 A
22.6177109428958;-0.199920654296875;-0.0039093017578125;0.859999997828709;87;1 A
22.6277109428705;-0.19989013671875;-0.0039093017578125;0.869999997803461;88;1 A
22.6377109428453;-0.199920654296875;-0.00390625;0.879999997778214;89;1 A
22.64771094282;-0.199920654296875;-0.00391235351562499;0.889999997752966;90;1 A
22.6577109427948;-0.19989013671875;-0.00391540527343751;0.899999997727718;91;1 A
22.6677109427695;-0.199920654296875;-0.00391540527343751;0.909999997702471;92;1 A
22.6777109427443;-0.199951171875;-0.00391845703125;0.919999997677223;93;1 A
22.687710942719;-0.199951171875;-0.00391540527343751;0.929999997651976;94;1 A
22.6977109426938;-0.1998291015625;-0.00391540527343751;0.939999997626728;95;1 A
22.7077109426685;-0.199920654296875;-0.00391540527343751;0.949999997601481;96;1 A
22.7177109426433;-0.199859619140625;-0.0039031982421875;0.959999997576233;97;1 A
22.727710942618;-0.199920654296875;-0.0039031982421875;0.969999997550985;98;1 A
22.7377109425928;-0.199615478515625;-0.003887939453125;0.979999997525738;99;1 A
22.7477109425676;-0.199920654296875;-0.00389404296875;0.98999999750049;100;1 A
22.7577109425423;-0.199951171875;-0.0038909912109375;0.999999997475243;101;1 A
22.7677109425171;-0.199859619140625;-0.0038909912109375;1.00999999745;102;1 A
22.7777109424918;-0.199859619140625;-0.00389709472656249;1.01999999742475;103;1 A
22.7877109424666;-0.199920654296875;-0.00389404296875;1.0299999973995;104;1 A
22.7977109424413;-0.199951171875;-0.00389709472656249;1.03999999737425;105;1 A
22.8077109424161;-0.199920654296875;-0.0039031982421875;1.049999997349;106;1 A
22.8177109423908;-0.199859619140625;-0.00389709472656249;1.05999999732376;107;1 A
22.8277109423656;-0.1998291015625;-0.0039093017578125;1.06999999729851;108;1 A
22.8377109423403;-0.199951171875;-0.00389709472656249;1.07999999727326;109;1 A
22.8477109423151;-0.19989013671875;-0.0039031982421875;1.08999999724801;110;1 A
22.8577109422898;-0.199951171875;-0.00390625;1.09999999722277;111;1 A
22.8677109422646;-0.199981689453125;-0.0039031982421875;1.10999999719752;112;1 A
22.8777109422393;-0.199920654296875;-0.00390014648437501;1.11999999717227;113;1 A
22.8877109422141;-0.19989013671875;-0.00389709472656249;1.12999999714702;114;1 A
22.8977109421888;-0.19989013671875;-0.00389709472656249;1.13999999712178;115;1 A
22.9077109421636;-0.199920654296875;-0.00389709472656249;1.14999999709653;116;1 A
22.9177109421383;-0.19989013671875;-0.00389404296875;1.15999999707128;117;1 A
22.9277109421131;-0.199951171875;-0.00389709472656249;1.16999999704603;118;1 A
22.9377109420878;-0.199951171875;-0.0038909912109375;1.17999999702079;119;1 A
22.9477109420626;-0.19989013671875;-0.0038909912109375;1.18999999699554;120;1 A
22.9577109420374;-0.199920654296875;-0.003887939453125;1.19999999697029;121;1 A
22.9677109420121;-0.1998291015625;-0.00388488769531251;1.20999999694504;122;1 A
22.9777109419869;-0.199951171875;-0.00388183593749999;1.2199999969198;123;1 A
22.9877109419616;-0.19989013671875;-0.00388183593749999;1.22999999689455;124;1 A
22.9977109419364;-0.19989013671875;-0.00388183593749999;1.2399999968693;125;1 A
23.0077109419111;-0.199920654296875;-0.00388183593749999;1.24999999684405;126;1 A
23.0177109418859;-0.19989013671875;-0.0038726806640625;1.25999999681881;127;1 A
23.0277109418606;-0.199951171875;-0.0038726806640625;1.26999999679356;128;1 A
23.0377109418354;-0.1998291015625;-0.00385437011718751;1.27999999676831;129;1 A
23.0477109418101;-0.19989013671875;-0.003857421875;1.28999999674306;130;1 A
23.0577109417849;-0.199951171875;-0.00385131835937499;1.29999999671782;131;1 A
23.0677109417596;-0.199920654296875;-0.0038482666015625;1.30999999669257;132;1 A
23.0777109417344;-0.199981689453125;-0.00385131835937499;1.31999999666732;133;1 A
23.0877109417091;-0.1998291015625;-0.00384521484375;1.32999999664207;134;1 A
23.0977109416839;-0.199920654296875;-0.0038482666015625;1.33999999661683;135;1 A
23.1077109416586;-0.199920654296875;-0.0038482666015625;1.34999999659158;136;1 A
23.1177109416334;-0.199920654296875;-0.00383911132812501;1.35999999656633;137;1 A
23.1277109416081;-0.199920654296875;-0.00384521484375;1.36999999654108;138;1 A
23.1377109415829;-0.19989013671875;-0.00383605957031249;1.37999999651583;139;1 A
23.1477109415576;-0.199920654296875;-0.00384521484375;1.38999999649059;140;1 A
23.1577109415324;-0.199920654296875;-0.00385437011718751;1.39999999646534;141;1 A
23.1677109415072;-0.199859619140625;-0.003857421875;1.40999999644009;142;1 A
23.1777109414819;-0.19989013671875;-0.003863525390625;1.41999999641484;143;1 A
23.1877109414567;-0.19989013671875;-0.003863525390625;1.4299999963896;144;1 A
23.1977109414314;-0.19989013671875;-0.0038726806640625;1.43999999636435;145;1 A
23.2077109414062;-0.19989013671875;-0.00388488769531251;1.4499999963391;146;1 A
23.2177109413809;-0.199859619140625;-0.0038909912109375;1.45999999631385;147;1 A
23.2277109413557;-0.199859619140625;-0.00391235351562499;1.46999999628861;148;1 A
23.2377109413304;-0.199920654296875;-0.0039093017578125;1.47999999626336;149;1 A
23.2477109413052;-0.199920654296875;-0.00391845703125;1.48999999623811;150;1 A
23.2577109412799;-0.199859619140625;-0.003924560546875;1.49999999621286;151;1 A
23.2677109412547;-0.19989013671875;-0.0039215087890625;1.50999999618762;152;1 A
23.2777109412294;-0.199920654296875;-0.0039093017578125;1.51999999616237;153;1 A
23.2877109412042;-0.199859619140625;-0.00389709472656249;1.52999999613712;154;1 A
23.2977109411789;-0.199920654296875;-0.00388488769531251;1.53999999611187;155;1 A
23.3077109411537;-0.199951171875;-0.003875732421875;1.54999999608663;156;1 A
23.3177109411284;-0.199981689453125;-0.003863525390625;1.55999999606138;157;1 A
23.3277109411032;-0.19989013671875;-0.0038604736328125;1.56999999603613;158;1 A
23.3377109410779;-0.199920654296875;-0.00384521484375;1.57999999601088;159;1 A
23.3477109410527;-0.199920654296875;-0.0038421630859375;1.58999999598564;160;1 A
23.3577109410274;-0.199859619140625;-0.00383605957031249;1.59999999596039;161;1 A
23.3677109410022;-0.199920654296875;-0.003826904296875;1.60999999593514;162;1 A
23.377710940977;-0.19964599609375;-0.0038177490234375;1.61999999590989;163;1 A
23.3877109409517;-0.19989013671875;-0.0038116455078125;1.62999999588465;164;1 A
23.3977109409265;-0.199951171875;-0.00380859375000001;1.6399999958594;165;1 A
23.4077109409012;-0.199920654296875;-0.00380554199218749;1.64999999583415;166;1 A
23.417710940876;-0.200042724609375;-0.003802490234375;1.6599999958089;167;1 A
23.4277109408507;-0.199859619140625;-0.0037994384765625;1.66999999578366;168;1 A
23.4377109408255;-0.199951171875;-0.0037872314453125;1.67999999575841;169;1 A
23.4477109408002;-0.199920654296875;-0.00379028320312499;1.68999999573316;170;1 A
23.457710940775;-0.199981689453125;-0.0037841796875;1.69999999570791;171;1 A
23.4677109407497;-0.19989013671875;-0.00379333496093751;1.70999999568267;172;1 A
23.4777109407245;-0.19989013671875;-0.00379638671875;1.71999999565742;173;1 A
23.4877109406992;-0.199981689453125;-0.0037872314453125;1.72999999563217;174;1 A
23.497710940674;-0.199951171875;-0.0037994384765625;1.73999999560692;175;1 A
23.5077109406487;-0.19989013671875;-0.0037994384765625;1.74999999558167;176;1 A
23.5177109406235;-0.19989013671875;-0.0037994384765625;1.75999999555643;177;1 A
23.5277109405982;-0.199859619140625;-0.0038116455078125;1.76999999553118;178;1 A
23.537710940573;-0.20001220703125;-0.003802490234375;1.77999999550593;179;1 A
23.5477109405477;-0.199981689453125;-0.00382385253906251;1.78999999548068;180;1 A
23.5577109405225;-0.199920654296875;-0.0038299560546875;1.79999999545544;181;1 A
23.5677109404972;-0.199920654296875;-0.0038421630859375;1.80999999543019;182;1 A
23.577710940472;-0.20001220703125;-0.00385437011718751;1.81999999540494;183;1 A
23.5877109404468;-0.199859619140625;-0.0038482666015625;1.82999999537969;184;1 A
23.5977109404215;-0.199859619140625;-0.00385131835937499;1.83999999535445;185;1 A
23.6077109403963;-0.199920654296875;-0.0038604736328125;1.8499999953292;186;1 A
23.617710940371;-0.20001220703125;-0.0038482666015625;1.85999999530395;187;1 A
23.6277109403458;-0.199920654296875;-0.00386657714843749;1.8699999952787;188;1 A
23.6377109403205;-0.199951171875;-0.00386657714843749;1.87999999525346;189;1 A
23.6477109402953;-0.199859619140625;-0.003875732421875;1.88999999522821;190;1 A
23.65771094027;-0.2000732421875;-0.00388488769531251;1.89999999520296;191;1 A
23.6677109402448;-0.19989013671875;-0.003875732421875;1.90999999517771;192;1 A
23.6777109402195;-0.199951171875;-0.003875732421875;1.91999999515247;193;1 A
23.6877109401943;-0.199920654296875;-0.00386962890625001;1.92999999512722;194;1 A
23.697710940169;-0.199951171875;-0.003863525390625;1.93999999510197;195;1 A
23.7077109401438;-0.19989013671875;-0.003875732421875;1.94999999507672;196;1 A
23.7177109401185;-0.199859619140625;-0.00386962890625001;1.95999999505148;197;1 A
23.7277109400933;-0.20001220703125;-0.0038726806640625;1.96999999502623;198;1 A
23.737710940068;-0.199981689453125;-0.003863525390625;1.97999999500098;199;1 A
23.7477109400428;-0.199859619140625;-0.0038604736328125;1.98999999497573;200;1 A
23.7577109400175;-0.19989013671875;-0.00385437011718751;1.99999999495049;201;1 A
23.7677109399923;-0.199859619140625;-0.00384521484375;2.00999999492524;202;1 A
23.7777109399671;-0.199951171875;-0.00383605957031249;2.01999999489999;203;1 A
23.7877109399418;-0.199981689453125;-0.0038421630859375;2.02999999487474;204;1 A
23.7977109399166;-0.19989013671875;-0.0038421630859375;2.0399999948495;205;1 A
23.8077109398913;-0.199951171875;-0.00384521484375;2.04999999482425;206;1 A
23.8177109398661;-0.2000732421875;-0.0038482666015625;2.059999994799;207;1 A
23.8277109398408;-0.199859619140625;-0.00385131835937499;2.06999999477375;208;1 A
23.8377109398156;-0.19989013671875;-0.00385131835937499;2.0799999947485;209;1 A
23.8477109397903;-0.19989013671875;-0.003863525390625;2.08999999472326;210;1 A
23.8577109397651;-0.199951171875;-0.0038604736328125;2.09999999469801;211;1 A
23.8677109397398;-0.199920654296875;-0.00386962890625001;2.10999999467276;212;1 A
23.8777109397146;-0.199920654296875;-0.003875732421875;2.11999999464751;213;1 A
23.8877109396893;-0.199859619140625;-0.0038726806640625;2.12999999462227;214;1 A
23.8977109396641;-0.2000732421875;-0.00388183593749999;2.13999999459702;215;1 A
23.9077109396388;-0.199920654296875;-0.00388183593749999;2.14999999457177;216;1 A
23.9177109396136;-0.199951171875;-0.003875732421875;2.15999999454652;217;1 A
23.9277109395883;-0.199951171875;-0.0038787841796875;2.16999999452128;218;1 A
23.9377109395631;-0.20001220703125;-0.003863525390625;2.17999999449603;219;1 A
23.9477109395378;-0.1998291015625;-0.0038787841796875;2.18999999447078;220;1 A
23.9577109395126;-0.199920654296875;-0.0038787841796875;2.19999999444553;221;1 A
23.9677109394873;-0.19989013671875;-0.003875732421875;2.20999999442029;222;1 A
23.9777109394621;-0.20001220703125;-0.00388183593749999;2.21999999439504;223;1 A
23.9877109394369;-0.199920654296875;-0.0038726806640625;2.22999999436979;224;1 A
23.9977109394116;-0.19989013671875;-0.003875732421875;2.23999999434454;225;1 A
24.0077109393864;-0.199920654296875;-0.00388488769531251;2.2499999943193;226;1 A
24.0177109393611;-0.1998291015625;-0.0038787841796875;2.25999999429405;227;1 A
24.0277109393359;-0.199920654296875;-0.00390014648437501;2.2699999942688;228;1 A
24.0377109393106;-0.19989013671875;-0.00389404296875;2.27999999424355;229;1 A
24.0477109392854;-0.199920654296875;-0.0039031982421875;2.28999999421831;230;1 A
24.0577109392601;-0.19989013671875;-0.0039093017578125;2.29999999419306;231;1 A
24.0677109392349;-0.199981689453125;-0.00390014648437501;2.30999999416781;232;1 A
24.0777109392096;-0.199920654296875;-0.00390014648437501;2.31999999414256;233;1 A
24.0877109391844;-0.19989013671875;-0.0038909912109375;2.32999999411732;234;1 A
24.0977109391591;-0.19952392578125;-0.00388488769531251;2.33999999409207;235;1 A
24.1077109391339;-0.19989013671875;-0.0038909912109375;2.34999999406682;236;1 A
24.1177109391086;-0.19989013671875;-0.0038787841796875;2.35999999404157;237;1 A
24.1277109390834;-0.199920654296875;-0.00388183593749999;2.36999999401633;238;1 A
24.1377109390581;-0.20013427734375;-0.0038787841796875;2.37999999399108;239;1 A
24.1477109390329;-0.199920654296875;-0.0038787841796875;2.38999999396583;240;1 A
24.1577109390076;-0.199859619140625;-0.00388488769531251;2.39999999394058;241;1 A
24.1677109389824;-0.199951171875;-0.0038787841796875;2.40999999391533;242;1 A
24.1777109389571;-0.19976806640625;-0.0038787841796875;2.41999999389009;243;1 A
24.1877109389319;-0.199859619140625;-0.00388488769531251;2.42999999386484;244;1 A
24.1977109389067;-0.199951171875;-0.00388488769531251;2.43999999383959;245;1 A
24.2077109388814;-0.199859619140625;-0.003887939453125;2.44999999381434;246;1 A
24.2177109388562;-0.19989013671875;-0.00388183593749999;2.4599999937891;247;1 A
24.2277109388309;-0.199859619140625;-0.003875732421875;2.46999999376385;248;1 A
24.2377109388057;-0.19989013671875;-0.00386657714843749;2.4799999937386;249;1 A
24.2477109387804;-0.19989013671875;-0.00386962890625001;2.48999999371335;250;1 A
24.2577109387552;-0.20001220703125;-0.00385437011718751;2.49999999368811;251;1 A
24.2677109387299;-0.199951171875;-0.0038604736328125;2.50999999366286;252;1 A
24.2777109387047;-0.199920654296875;-0.00385437011718751;2.51999999363761;253;1 A
24.2877109386794;-0.199920654296875;-0.00385131835937499;2.52999999361236;254;1 A
24.2977109386542;-0.199951171875;-0.00385437011718751;2.53999999358712;255;1 A
24.3077109386289;-0.20001220703125;-0.0038482666015625;2.54999999356187;256;1 A
24.3177109386037;-0.19989013671875;-0.00383911132812501;2.55999999353662;257;1 A
24.3277109385784;-0.199859619140625;-0.0038421630859375;2.56999999351137;258;1 A
24.3377109385532;-0.20001220703125;-0.003826904296875;2.57999999348613;259;1 A
24.3477109385279;-0.199920654296875;-0.00384521484375;2.58999999346088;260;1 A
24.3577109385027;-0.199951171875;-0.0038482666015625;2.59999999343563;261;1 A
24.3677109384774;-0.19989013671875;-0.00384521484375;2.60999999341038;262;1 A
24.3777109384522;-0.2000732421875;-0.003857421875;2.61999999338514;263;1 A
24.3877109384269;-0.1998291015625;-0.0038482666015625;2.62999999335989;264;1 A
24.3977109384017;-0.1998291015625;-0.0038482666015625;2.63999999333464;265;1 A
24.4077109383765;-0.19989013671875;-0.0038482666015625;2.64999999330939;266;1 A
24.4177109383512;-0.199920654296875;-0.00383605957031249;2.65999999328415;267;1 A
24.427710938326;-0.19989013671875;-0.0038482666015625;2.6699999932589;268;1 A
24.4377109383007;-0.199920654296875;-0.00383605957031249;2.67999999323365;269;1 A
24.4477109382755;-0.199920654296875;-0.0038330078125;2.6899999932084;270;1 A
24.4577109382502;-0.199920654296875;-0.00383911132812501;2.69999999318316;271;1 A
24.467710938225;-0.199951171875;-0.0038330078125;2.70999999315791;272;1 A
24.4777109381997;-0.199981689453125;-0.00383605957031249;2.71999999313266;273;1 A
24.4877109381745;-0.199981689453125;-0.0038299560546875;2.72999999310741;274;1 A
24.4977109381492;-0.199737548828125;-0.00382385253906251;2.73999999308217;275;1 A
24.507710938124;-0.199920654296875;-0.0038330078125;2.74999999305692;276;1 A
24.5177109380987;-0.19989013671875;-0.003826904296875;2.75999999303167;277;1 A
24.5277109380735;-0.19989013671875;-0.003826904296875;2.76999999300642;278;1 A
24.5377109380482;-0.199951171875;-0.00382385253906251;2.77999999298117;279;1 A
24.547710938023;-0.199981689453125;-0.0038177490234375;2.78999999295593;280;1 A
24.5577109379977;-0.19989013671875;-0.003814697265625;2.79999999293068;281;1 A
24.5677109379725;-0.199920654296875;-0.00380859375000001;2.80999999290543;282;1 A
24.5777109379472;-0.199737548828125;-0.00380554199218749;2.81999999288018;283;1 A
24.587710937922;-0.199920654296875;-0.00380859375000001;2.82999999285494;284;1 A
24.5977109378967;-0.199951171875;-0.00380554199218749;2.83999999282969;285;1 A
24.6077109378715;-0.19989013671875;-0.00380554199218749;2.84999999280444;286;1 A
24.6177109378463;-0.200042724609375;-0.0037994384765625;2.85999999277919;287;1 A
24.627710937821;-0.199920654296875;-0.0037994384765625;2.86999999275395;288;1 A
24.6377109377958;-0.199981689453125;-0.00379333496093751;2.8799999927287;289;1 A
24.6477109377705;-0.199951171875;-0.003802490234375;2.88999999270345;290;1 A
24.6577109377453;-0.199920654296875;-0.003802490234375;2.8999999926782;291;1 A
24.66771093772;-0.199951171875;-0.0038116455078125;2.90999999265296;292;1 A
24.6777109376948;-0.199920654296875;-0.003814697265625;2.91999999262771;293;1 A
24.6877109376695;-0.19989013671875;-0.003814697265625;2.92999999260246;294;1 A
24.6977109376443;-0.200042724609375;-0.00382385253906251;2.93999999257721;295;1 A
24.707710937619;-0.19989013671875;-0.00382385253906251;2.94999999255197;296;1 A
24.7177109375938;-0.199920654296875;-0.00382080078124999;2.95999999252672;297;1 A
24.7277109375685;-0.199920654296875;-0.003826904296875;2.96999999250147;298;1 A
24.7377109375433;-0.200042724609375;-0.00382080078124999;2.97999999247622;299;1 A
24.747710937518;-0.199920654296875;-0.00383605957031249;2.98999999245098;300;1 A
24.7577109374928;-0.199920654296875;-0.00384521484375;2.99999999242573;301;1 A
24.7677109374675;-0.199920654296875;-0.00384521484375;3.00999999240048;302;1 A
24.7777109374423;-0.200042724609375;-0.003857421875;3.01999999237523;303;1 A
24.787710937417;-0.19989013671875;-0.003857421875;3.02999999234999;304;1 A
24.7977109373918;-0.19989013671875;-0.00386657714843749;3.03999999232474;305;1 A
24.8077109373666;-0.19989013671875;-0.0038787841796875;3.04999999229949;306;1 A
24.8177109373413;-0.199951171875;-0.0038726806640625;3.05999999227424;307;1 A
24.8277109373161;-0.199859619140625;-0.00390014648437501;3.069999992249;308;1 A
24.8377109372908;-0.19989013671875;-0.00389709472656249;3.07999999222375;309;1 A
24.8477109372656;-0.199920654296875;-0.00391235351562499;3.0899999921985;310;1 A
24.8577109372403;-0.200103759765625;-0.003924560546875;3.09999999217325;311;1 A
24.8677109372151;-0.199951171875;-0.00391845703125;3.109999992148;312;1 A
24.8777109371898;-0.19989013671875;-0.003924560546875;3.11999999212276;313;1 A
24.8877109371646;-0.199859619140625;-0.00392761230468749;3.12999999209751;314;1 A
24.8977109371393;-0.199981689453125;-0.003924560546875;3.13999999207226;315;1 A
24.9077109371141;-0.19989013671875;-0.003936767578125;3.14999999204701;316;1 A
24.9177109370888;-0.19989013671875;-0.0039337158203125;3.15999999202177;317;1 A
24.9277109370636;-0.199920654296875;-0.00394287109374999;3.16999999199652;318;1 A
24.9377109370383;-0.20001220703125;-0.0039398193359375;3.17999999197127;319;1 A
24.9477109370131;-0.19989013671875;-0.0039337158203125;3.18999999194602;320;1 A
24.9577109369878;-0.19989013671875;-0.0039398193359375;3.19999999192078;321;1 A
24.9677109369626;-0.199951171875;-0.0039337158203125;3.20999999189553;322;1 A
24.9777109369373;-0.20001220703125;-0.00393066406250001;3.21999999187028;323;1 A
24.9877109369121;-0.19989013671875;-0.003936767578125;3.22999999184503;324;1 A
24.9977109368868;-0.199859619140625;-0.00394287109374999;3.23999999181979;325;1 A
25.0077109368616;-0.199920654296875;-0.003955078125;3.24999999179454;326;1 A
25.0177109368364;-0.199951171875;-0.003955078125;3.25999999176929;327;1 A
25.0277109368111;-0.19989013671875;-0.00396118164062501;3.26999999174404;328;1 A
25.0377109367859;-0.199981689453125;-0.0039642333984375;3.2799999917188;329;1 A
25.0477109367606;-0.199951171875;-0.0039703369140625;3.28999999169355;330;1 A
25.0577109367354;-0.199981689453125;-0.0039703369140625;3.2999999916683;331;1 A
25.0677109367101;-0.199920654296875;-0.00397644042968751;3.30999999164305;332;1 A
25.0777109366849;-0.199859619140625;-0.003985595703125;3.31999999161781;333;1 A
25.0877109366596;-0.199951171875;-0.003985595703125;3.32999999159256;334;1 A
25.0977109366344;-0.199920654296875;-0.003997802734375;3.33999999156731;335;1 A
25.1077109366091;-0.199981689453125;-0.0040008544921875;3.34999999154206;336;1 A
25.1177109365839;-0.199920654296875;-0.0040008544921875;3.35999999151682;337;1 A
25.1277109365586;-0.19989013671875;-0.0040130615234375;3.36999999149157;338;1 A
25.1377109365334;-0.200042724609375;-0.00400695800781251;3.37999999146632;339;1 A
25.1477109365081;-0.199920654296875;-0.0040252685546875;3.38999999144107;340;1 A
25.1577109364829;-0.199920654296875;-0.0040283203125;3.39999999141583;341;1 A
25.1677109364576;-0.199951171875;-0.0040313720703125;3.40999999139058;342;1 A
25.1777109364324;-0.199920654296875;-0.004046630859375;3.41999999136533;343;1 A
25.1877109364071;-0.199859619140625;-0.00403747558593751;3.42999999134008;344;1 A
25.1977109363819;-0.1998291015625;-0.004046630859375;3.43999999131483;345;1 A
25.2077109363566;-0.199951171875;-0.0040557861328125;3.44999999128959;346;1 A
25.2177109363314;-0.20001220703125;-0.00405273437500001;3.45999999126434;347;1 A
25.2277109363062;-0.199920654296875;-0.0040740966796875;3.46999999123909;348;1 A
25.2377109362809;-0.199920654296875;-0.004071044921875;3.47999999121384;349;1 A
25.2477109362557;-0.1998291015625;-0.00408020019531249;3.4899999911886;350;1 A
25.2577109362304;-0.199981689453125;-0.0040863037109375;3.49999999116335;351;1 A
25.2677109362052;-0.19989013671875;-0.0040863037109375;3.5099999911381;352;1 A
25.2777109361799;-0.199920654296875;-0.0040863037109375;3.51999999111285;353;1 A
25.2877109361547;-0.199920654296875;-0.00408325195312501;3.52999999108761;354;1 A
25.2977109361294;-0.20001220703125;-0.0040740966796875;3.53999999106236;355;1 A
25.3077109361042;-0.199859619140625;-0.00408935546875;3.54999999103711;356;1 A
25.3177109360789;-0.199859619140625;-0.00408935546875;3.55999999101186;357;1 A
25.3277109360537;-0.19989013671875;-0.00409545898437499;3.56999999098662;358;1 A
25.3377109360284;-0.199920654296875;-0.00409851074218751;3.57999999096137;359;1 A
25.3477109360032;-0.199920654296875;-0.0041015625;3.58999999093612;360;1 A
25.3577109359779;-0.19989013671875;-0.004107666015625;3.59999999091087;361;1 A
25.3677109359527;-0.19989013671875;-0.0041015625;3.60999999088563;362;1 A
25.3777109359274;-0.20001220703125;-0.004107666015625;3.61999999086038;363;1 A
25.3877109359022;-0.19989013671875;-0.0041168212890625;3.62999999083513;364;1 A
25.3977109358769;-0.199920654296875;-0.00412597656249999;3.63999999080988;365;1 A
25.4077109358517;-0.199951171875;-0.0041351318359375;3.64999999078464;366;1 A
25.4177109358264;-0.19989013671875;-0.00413818359375;3.65999999075939;367;1 A
25.4277109358012;-0.199859619140625;-0.0041351318359375;3.66999999073414;368;1 A
25.437710935776;-0.199951171875;-0.00412597656249999;3.67999999070889;369;1 A
25.4477109357507;-0.19989013671875;-0.0041351318359375;3.68999999068365;370;1 A
25.4577109357255;-0.199981689453125;-0.0041229248046875;3.6999999906584;371;1 A
25.4677109357002;-0.199951171875;-0.004132080078125;3.70999999063315;372;1 A
25.477710935675;-0.199951171875;-0.004132080078125;3.7199999906079;373;1 A
25.4877109356497;-0.19989013671875;-0.00412902832031251;3.72999999058266;374;1 A
25.4977109356245;-0.19989013671875;-0.00412902832031251;3.73999999055741;375;1 A
25.5077109355992;-0.19989013671875;-0.00412597656249999;3.74999999053216;376;1 A
25.517710935574;-0.19989013671875;-0.004119873046875;3.75999999050691;377;1 A
25.5277109355487;-0.199951171875;-0.0041229248046875;3.76999999048167;378;1 A
25.5377109355235;-0.20001220703125;-0.00411376953125001;3.77999999045642;379;1 A
25.5477109354982;-0.19989013671875;-0.0041229248046875;3.78999999043117;380;1 A
25.557710935473;-0.199951171875;-0.00412597656249999;3.79999999040592;381;1 A
25.5677109354477;-0.199859619140625;-0.00412597656249999;3.80999999038067;382;1 A
25.5777109354225;-0.20001220703125;-0.004132080078125;3.81999999035543;383;1 A
25.5877109353972;-0.199951171875;-0.0041229248046875;3.82999999033018;384;1 A
25.597710935372;-0.199951171875;-0.0041229248046875;3.83999999030493;385;1 A
25.6077109353467;-0.199859619140625;-0.00412597656249999;3.84999999027968;386;1 A
25.6177109353215;-0.20001220703125;-0.00411071777343749;3.85999999025444;387;1 A
25.6277109352962;-0.199951171875;-0.00412597656249999;3.86999999022919;388;1 A
25.637710935271;-0.19989013671875;-0.004119873046875;3.87999999020394;389;1 A
25.6477109352458;-0.199951171875;-0.00412597656249999;3.88999999017869;390;1 A
25.6577109352205;-0.199859619140625;-0.0041351318359375;3.89999999015345;391;1 A
25.6677109351953;-0.199951171875;-0.00412597656249999;3.9099999901282;392;1 A
25.67771093517;-0.199920654296875;-0.00412902832031251;3.91999999010295;393;1 A
25.6877109351448;-0.199859619140625;-0.004132080078125;3.9299999900777;394;1 A
25.6977109351195;-0.20001220703125;-0.00412597656249999;3.93999999005246;395;1 A
25.7077109350943;-0.19989013671875;-0.004132080078125;3.94999999002721;396;1 A
25.717710935069;-0.199859619140625;-0.0041229248046875;3.95999999000196;397;1 A
25.7277109350438;-0.199920654296875;-0.0041229248046875;3.96999998997671;398;1 A
25.7377109350185;-0.1998291015625;-0.0041168212890625;3.97999998995147;399;1 A
25.7477109349933;-0.199859619140625;-0.00409851074218751;3.98999998992622;400;1 A
25.757710934968;-0.199920654296875;-0.0040863037109375;3.99999998990097;401;1 A
25.7677109349428;-0.199920654296875;-0.00406494140624999;4.00999998987572;402;1 A
25.7777109349175;-0.200042724609375;-0.00404968261718749;4.01999998985048;403;1 A
25.7877109348923;-0.19989013671875;-0.0040435791015625;4.02999998982523;404;1 A
25.797710934867;-0.19989013671875;-0.00403442382812499;4.03999998979998;405;1 A
25.8077109348418;-0.19989013671875;-0.0040283203125;4.04999998977473;406;1 A
25.8177109348165;-0.1998291015625;-0.00402221679687501;4.05999998974949;407;1 A
25.8277109347913;-0.199859619140625;-0.00401916503906249;4.06999998972424;408;1 A
25.8377109347661;-0.19989013671875;-0.004010009765625;4.07999998969899;409;1 A
25.8477109347408;-0.199920654296875;-0.00400695800781251;4.08999998967374;410;1 A
25.8577109347156;-0.2000732421875;-0.00399169921875001;4.0999999896485;411;1 A
25.8677109346903;-0.199920654296875;-0.003985595703125;4.10999998962325;412;1 A
25.8777109346651;-0.199859619140625;-0.00397644042968751;4.119999989598;413;1 A
25.8877109346398;-0.199951171875;-0.00396728515625;4.12999998957275;414;1 A
25.8977109346146;-0.19976806640625;-0.00396118164062501;4.1399999895475;415;1 A
25.9077109345893;-0.199951171875;-0.00394592285156251;4.14999998952226;416;1 A
25.9177109345641;-0.199951171875;-0.0039337158203125;4.15999998949701;417;1 A
25.9277109345388;-0.19989013671875;-0.00393066406250001;4.16999998947176;418;1 A
25.9377109345136;-0.200042724609375;-0.00391235351562499;4.17999998944651;419;1 A
25.9477109344883;-0.199920654296875;-0.0039093017578125;4.18999998942127;420;1 A
25.9577109344631;-0.199981689453125;-0.00390625;4.19999998939602;421;1 A
25.9677109344378;-0.199920654296875;-0.00390014648437501;4.20999998937077;422;1 A
25.9777109344126;-0.199859619140625;-0.0039031982421875;4.21999998934552;423;1 A
25.9877109343873;-0.199920654296875;-0.00388488769531251;4.22999998932028;424;1 A
25.9977109343621;-0.199859619140625;-0.0038787841796875;4.23999998929503;425;1 A
26.0077109343368;-0.199981689453125;-0.003875732421875;4.24999998926978;426;1 A
26.0177109343116;-0.2000732421875;-0.003857421875;4.25999998924453;427;1 A
26.0277109342863;-0.199951171875;-0.0038604736328125;4.26999998921929;428;1 A
26.0377109342611;-0.199981689453125;-0.00385131835937499;4.27999998919404;429;1 A
26.0477109342359;-0.19989013671875;-0.00385131835937499;4.28999998916879;430;1 A
26.0577109342106;-0.199798583984375;-0.003857421875;4.29999998914354;431;1 A
26.0677109341854;-0.199920654296875;-0.0038421630859375;4.3099999891183;432;1 A
26.0777109341601;-0.199920654296875;-0.00384521484375;4.31999998909305;433;1 A
26.0877109341349;-0.199920654296875;-0.0038421630859375;4.3299999890678;434;1 A
26.0977109341096;-0.20001220703125;-0.0038330078125;4.33999998904255;435;1 A
26.1077109340844;-0.19989013671875;-0.0038482666015625;4.34999998901731;436;1 A
26.1177109340591;-0.199920654296875;-0.0038421630859375;4.35999998899206;437;1 A
26.1277109340339;-0.199920654296875;-0.0038482666015625;4.36999998896681;438;1 A
26.1377109340086;-0.199798583984375;-0.0038482666015625;4.37999998894156;439;1 A
26.1477109339834;-0.199920654296875;-0.0038482666015625;4.38999998891632;440;1 A
26.1577109339581;-0.19989013671875;-0.00385131835937499;4.39999998889107;441;1 A
26.1677109339329;-0.199859619140625;-0.0038482666015625;4.40999998886582;442;1 A
26.1777109339076;-0.20001220703125;-0.0038482666015625;4.41999998884057;443;1 A
26.1877109338824;-0.19989013671875;-0.003857421875;4.42999998881533;444;1 A
26.1977109338571;-0.199920654296875;-0.003863525390625;4.43999998879008;445;1 A
26.2077109338319;-0.199981689453125;-0.00386962890625001;4.44999998876483;446;1 A
26.2177109338066;-0.199798583984375;-0.00386962890625001;4.45999998873958;447;1 A
26.2277109337814;-0.199920654296875;-0.0038787841796875;4.46999998871433;448;1 A
26.2377109337561;-0.199920654296875;-0.003875732421875;4.47999998868909;449;1 A
26.2477109337309;-0.199920654296875;-0.00388488769531251;4.48999998866384;450;1 A
26.2577109337057;-0.20001220703125;-0.00388183593749999;4.49999998863859;451;1 A
26.2677109336804;-0.199920654296875;-0.00389404296875;4.50999998861334;452;1 A
26.2777109336552;-0.199920654296875;-0.0039031982421875;4.5199999885881;453;1 A
26.2877109336299;-0.199920654296875;-0.00390625;4.52999998856285;454;1 A
26.2977109336047;-0.199798583984375;-0.0039215087890625;4.5399999885376;455;1 A
26.3077109335794;-0.19989013671875;-0.0039215087890625;4.54999998851235;456;1 A
26.3177109335542;-0.19989013671875;-0.00391540527343751;4.55999998848711;457;1 A
26.3277109335289;-0.199920654296875;-0.003924560546875;4.56999998846186;458;1 A
26.3377109335037;-0.200042724609375;-0.00391540527343751;4.57999998843661;459;1 A
26.3477109334784;-0.199920654296875;-0.0039215087890625;4.58999998841136;460;1 A
26.3577109334532;-0.199951171875;-0.0039215087890625;4.59999998838612;461;1 A
26.3677109334279;-0.199859619140625;-0.00391540527343751;4.60999998836087;462;1 A
26.3777109334027;-0.199798583984375;-0.0039215087890625;4.61999998833562;463;1 A
26.3877109333774;-0.199859619140625;-0.0039031982421875;4.62999998831037;464;1 A
26.3977109333522;-0.199920654296875;-0.00389709472656249;4.63999998828513;465;1 A
26.4077109333269;-0.199920654296875;-0.00390014648437501;4.64999998825988;466;1 A
26.4177109333017;-0.2000732421875;-0.00388183593749999;4.65999998823463;467;1 A
26.4277109332764;-0.199920654296875;-0.00389709472656249;4.66999998820938;468;1 A
26.4377109332512;-0.199859619140625;-0.0038909912109375;4.67999998818414;469;1 A
26.4477109332259;-0.199920654296875;-0.0038909912109375;4.68999998815889;470;1 A
26.4577109332007;-0.1998291015625;-0.00390014648437501;4.69999998813364;471;1 A
26.4677109331755;-0.199859619140625;-0.003887939453125;4.70999998810839;472;1 A
26.4777109331502;-0.199920654296875;-0.003887939453125;4.71999998808315;473;1 A
26.487710933125;-0.199920654296875;-0.00388183593749999;4.7299999880579;474;1 A
26.4977109330997;-0.20001220703125;-0.003875732421875;4.73999998803265;475;1 A
26.5077109330745;-0.19989013671875;-0.00388183593749999;4.7499999880074;476;1 A
26.5177109330492;-0.199951171875;-0.0038787841796875;4.75999998798216;477;1 A
26.527710933024;-0.199859619140625;-0.00388488769531251;4.76999998795691;478;1 A
26.5377109329987;-0.19976806640625;-0.00389404296875;4.77999998793166;479;1 A
26.5477109329735;-0.199920654296875;-0.003887939453125;4.78999998790641;480;1 A
26.5577109329482;-0.19989013671875;-0.0038909912109375;4.79999998788116;481;1 A
26.567710932923;-0.199951171875;-0.003887939453125;4.80999998785592;482;1 A
26.5777109328977;-0.20001220703125;-0.0038909912109375;4.81999998783067;483;1 A
26.5877109328725;-0.19989013671875;-0.00389709472656249;4.82999998780542;484;1 A
26.5977109328472;-0.199859619140625;-0.00389709472656249;4.83999998778017;485;1 A
26.607710932822;-0.199951171875;-0.0039031982421875;4.84999998775493;486;1 A
26.6177109327967;-0.199859619140625;-0.0039031982421875;4.85999998772968;487;1 A
26.6277109327715;-0.19989013671875;-0.00390625;4.86999998770443;488;1 A
26.6377109327462;-0.199920654296875;-0.00389404296875;4.87999998767918;489;1 A
26.647710932721;-0.199859619140625;-0.00389709472656249;4.88999998765394;490;1 A
26.6577109326957;-0.200042724609375;-0.003887939453125;4.89999998762869;491;1 A
26.6677109326705;-0.20001220703125;-0.00389709472656249;4.90999998760344;492;1 A
26.6777109326453;-0.199920654296875;-0.0038909912109375;4.91999998757819;493;1 A
26.68771093262;-0.19989013671875;-0.003887939453125;4.92999998755295;494;1 A
26.6977109325948;-0.19976806640625;-0.0038909912109375;4.9399999875277;495;1 A
26.7077109325695;-0.199951171875;-0.003887939453125;4.94999998750245;496;1 A
26.7177109325443;-0.199859619140625;-0.00388183593749999;4.9599999874772;497;1 A
26.727710932519;-0.199920654296875;-0.003887939453125;4.96999998745196;498;1 A
26.7377109324938;-0.200042724609375;-0.0038726806640625;4.97999998742671;499;1 A
26.7477109324685;-0.199920654296875;-0.003875732421875;4.98999998740146;500;1 A
26.7577109324433;-0.199951171875;-0.00388183593749999;4.99999998737621;501;1 A
26.767710932418;-0.199859619140625;-0.00386962890625001;5.00999998735097;502;1 A
26.7777109323928;-0.199798583984375;-0.00388488769531251;5.01999998732572;503;1 A
26.7877109323675;-0.199920654296875;-0.00386657714843749;5.02999998730047;504;1 A
26.7977109323423;-0.1998291015625;-0.00386657714843749;5.03999998727522;505;1 A
26.807710932317;-0.199981689453125;-0.0038604736328125;5.04999998724998;506;1 A
26.8177109322918;-0.20001220703125;-0.00384521484375;5.05999998722473;507;1 A
26.8277109322665;-0.199920654296875;-0.00385437011718751;5.06999998719948;508;1 A
26.8377109322413;-0.199951171875;-0.00383605957031249;5.07999998717423;509;1 A
26.847710932216;-0.199920654296875;-0.0038421630859375;5.08999998714899;510;1 A
26.8577109321908;-0.199798583984375;-0.00384521484375;5.09999998712374;511;1 A
26.8677109321656;-0.19989013671875;-0.0038330078125;5.10999998709849;512;1 A
26.8777109321403;-0.199920654296875;-0.0038421630859375;5.11999998707324;513;1 A
26.8877109321151;-0.199951171875;-0.00383605957031249;5.129999987048;514;1 A
26.8977109320898;-0.199981689453125;-0.0038330078125;5.13999998702275;515;1 A
26.9077109320646;-0.199859619140625;-0.0038421630859375;5.1499999869975;516;1 A
26.9177109320393;-0.199920654296875;-0.00383605957031249;5.15999998697225;517;1 A
26.9277109320141;-0.199951171875;-0.0038482666015625;5.169999986947;518;1 A
26.9377109319888;-0.1998291015625;-0.00385131835937499;5.17999998692176;519;1 A
26.9477109319636;-0.19989013671875;-0.0038604736328125;5.18999998689651;520;1 A
26.9577109319383;-0.199951171875;-0.003863525390625;5.19999998687126;521;1 A
26.9677109319131;-0.199920654296875;-0.00386657714843749;5.20999998684601;522;1 A
26.9777109318878;-0.199981689453125;-0.003863525390625;5.21999998682077;523;1 A
26.9877109318626;-0.199920654296875;-0.00386962890625001;5.22999998679552;524;1 A
26.9977109318373;-0.199920654296875;-0.00386962890625001;5.23999998677027;525;1 A
27.0077109318121;-0.199951171875;-0.0038726806640625;5.24999998674502;526;1 A
27.0177109317868;-0.199798583984375;-0.0038726806640625;5.25999998671978;527;1 A
27.0277109317616;-0.199859619140625;-0.0038726806640625;5.26999998669453;528;1 A
27.0377109317363;-0.199920654296875;-0.003863525390625;5.27999998666928;529;1 A
27.0477109317111;-0.199920654296875;-0.0038604736328125;5.28999998664403;530;1 A
27.0577109316858;-0.20001220703125;-0.00385131835937499;5.29999998661879;531;1 A
27.0677109316606;-0.19989013671875;-0.0038482666015625;5.30999998659354;532;1 A
27.0777109316354;-0.199951171875;-0.0038482666015625;5.31999998656829;533;1 A
27.0877109316101;-0.19989013671875;-0.00383605957031249;5.32999998654304;534;1 A
27.0977109315849;-0.1998291015625;-0.00383911132812501;5.3399999865178;535;1 A
27.1077109315596;-0.199920654296875;-0.003826904296875;5.34999998649255;536;1 A
27.1177109315344;-0.199920654296875;-0.003814697265625;5.3599999864673;537;1 A
27.1277109315091;-0.199920654296875;-0.0038116455078125;5.36999998644205;538;1 A
27.1377109314839;-0.199981689453125;-0.00379333496093751;5.37999998641681;539;1 A
27.1477109314586;-0.199920654296875;-0.0037841796875;5.38999998639156;540;1 A
27.1577109314334;-0.199859619140625;-0.0037872314453125;5.39999998636631;541;1 A
27.1677109314081;-0.19989013671875;-0.00377807617187501;5.40999998634106;542;1 A
27.1777109313829;-0.199798583984375;-0.0037872314453125;5.41999998631582;543;1 A
27.1877109313576;-0.20001220703125;-0.00377502441406249;5.42999998629057;544;1 A
27.1977109313324;-0.199951171875;-0.00377197265625;5.43999998626532;545;1 A
27.2077109313071;-0.199920654296875;-0.00377197265625;5.44999998624007;546;1 A
27.2177109312819;-0.20001220703125;-0.00376281738281251;5.45999998621483;547;1 A
27.2277109312566;-0.19989013671875;-0.0037689208984375;5.46999998618958;548;1 A
27.2377109312314;-0.199920654296875;-0.003765869140625;5.47999998616433;549;1 A
27.2477109312061;-0.19989013671875;-0.0037689208984375;5.48999998613908;550;1 A
27.2577109311809;-0.19976806640625;-0.00377502441406249;5.49999998611383;551;1 A
27.2677109311556;-0.19989013671875;-0.003765869140625;5.50999998608859;552;1 A
27.2777109311304;-0.19989013671875;-0.00377197265625;5.51999998606334;553;1 A
27.2877109311052;-0.199920654296875;-0.00377502441406249;5.52999998603809;554;1 A
27.2977109310799;-0.20001220703125;-0.00377502441406249;5.53999998601284;555;1 A
27.3077109310547;-0.19989013671875;-0.0037841796875;5.5499999859876;556;1 A
27.3177109310294;-0.199951171875;-0.00377807617187501;5.55999998596235;557;1 A
27.3277109310042;-0.199920654296875;-0.0037872314453125;5.5699999859371;558;1 A
27.3377109309789;-0.199859619140625;-0.0037811279296875;5.57999998591185;559;1 A
27.3477109309537;-0.19989013671875;-0.0037841796875;5.58999998588661;560;1 A
27.3577109309284;-0.199951171875;-0.00377807617187501;5.59999998586136;561;1 A
27.3677109309032;-0.199920654296875;-0.00377197265625;5.60999998583611;562;1 A
27.3777109308779;-0.199981689453125;-0.00377502441406249;5.61999998581086;563;1 A
27.3877109308527;-0.199920654296875;-0.00377197265625;5.62999998578562;564;1 A
27.3977109308274;-0.199920654296875;-0.00377502441406249;5.63999998576037;565;1 A
27.4077109308022;-0.19989013671875;-0.00377807617187501;5.64999998573512;566;1 A
27.4177109307769;-0.1998291015625;-0.0037811279296875;5.65999998570987;567;1 A
27.4277109307517;-0.199920654296875;-0.0037841796875;5.66999998568463;568;1 A
27.4377109307264;-0.199920654296875;-0.0037872314453125;5.67999998565938;569;1 A
27.4477109307012;-0.19989013671875;-0.00379028320312499;5.68999998563413;570;1 A
27.4577109306759;-0.199981689453125;-0.00379638671875;5.69999998560888;571;1 A
27.4677109306507;-0.19989013671875;-0.00380554199218749;5.70999998558364;572;1 A
27.4777109306254;-0.19989013671875;-0.0038116455078125;5.71999998555839;573;1 A
27.4877109306002;-0.19989013671875;-0.0038116455078125;5.72999998553314;574;1 A
27.497710930575;-0.199798583984375;-0.00382385253906251;5.73999998550789;575;1 A
27.5077109305497;-0.199859619140625;-0.00382385253906251;5.74999998548265;576;1 A
27.5177109305245;-0.199920654296875;-0.00382385253906251;5.7599999854574;577;1 A
27.5277109304992;-0.199920654296875;-0.0038299560546875;5.76999998543215;578;1 A
27.537710930474;-0.199951171875;-0.0038177490234375;5.7799999854069;579;1 A
27.5477109304487;-0.199859619140625;-0.0038177490234375;5.78999998538166;580;1 A
27.5577109304235;-0.199981689453125;-0.0038177490234375;5.79999998535641;581;1 A
27.5677109303982;-0.199920654296875;-0.0038177490234375;5.80999998533116;582;1 A
27.577710930373;-0.19976806640625;-0.003826904296875;5.81999998530591;583;1 A
27.5877109303477;-0.199920654296875;-0.0038116455078125;5.82999998528066;584;1 A
27.5977109303225;-0.199859619140625;-0.0038116455078125;5.83999998525542;585;1 A
27.6077109302972;-0.199951171875;-0.00380859375000001;5.84999998523017;586;1 A
27.617710930272;-0.199920654296875;-0.0037994384765625;5.85999998520492;587;1 A
27.6277109302467;-0.199859619140625;-0.003814697265625;5.86999998517967;588;1 A
27.6377109302215;-0.199920654296875;-0.00380554199218749;5.87999998515443;589;1 A
27.6477109301962;-0.19989013671875;-0.00380554199218749;5.88999998512918;590;1 A
27.657710930171;-0.199798583984375;-0.003814697265625;5.89999998510393;591;1 A
27.6677109301457;-0.199859619140625;-0.0038116455078125;5.90999998507868;592;1 A
27.6777109301205;-0.199920654296875;-0.003814697265625;5.91999998505344;593;1 A
27.6877109300952;-0.199981689453125;-0.003814697265625;5.92999998502819;594;1 A
27.69771093007;-0.199920654296875;-0.0038177490234375;5.93999998500294;595;1 A
27.7077109300448;-0.199951171875;-0.003826904296875;5.94999998497769;596;1 A
27.7177109300195;-0.19989013671875;-0.00382385253906251;5.95999998495245;597;1 A
27.7277109299943;-0.19989013671875;-0.00383605957031249;5.9699999849272;598;1 A
27.737710929969;-0.19989013671875;-0.00383605957031249;5.97999998490195;599;1 A
27.7477109299438;-0.19989013671875;-0.00383605957031249;5.9899999848767;600;1 A
27.7577109299185;-0.199920654296875;-0.0038421630859375;5.99999998485146;601;1 A
27.7677109298933;-0.199859619140625;-0.0038482666015625;6.00999998482621;602;1 A
27.777710929868;-0.20001220703125;-0.00385131835937499;6.01999998480096;603;1 A
27.7877109298428;-0.199951171875;-0.00385437011718751;6.02999998477571;604;1 A
27.7977109298175;-0.199951171875;-0.003857421875;6.03999998475047;605;1 A
27.8077109297923;-0.20001220703125;-0.003857421875;6.04999998472522;606;1 A
27.817710929767;-0.1998291015625;-0.003863525390625;6.05999998469997;607;1 A
27.8277109297418;-0.19989013671875;-0.00386657714843749;6.06999998467472;608;1 A
27.8377109297165;-0.19989013671875;-0.0038604736328125;6.07999998464948;609;1 A
27.8477109296913;-0.199920654296875;-0.003863525390625;6.08999998462423;610;1 A
27.857710929666;-0.199951171875;-0.0038604736328125;6.09999998459898;611;1 A
27.8677109296408;-0.19989013671875;-0.0038604736328125;6.10999998457373;612;1 A
27.8777109296155;-0.199951171875;-0.0038604736328125;6.11999998454849;613;1 A
27.8877109295903;-0.19989013671875;-0.00385437011718751;6.12999998452324;614;1 A
27.8977109295651;-0.19989013671875;-0.003863525390625;6.13999998449799;615;1 A
27.9077109295398;-0.19989013671875;-0.0038421630859375;6.14999998447274;616;1 A
27.9177109295146;-0.19989013671875;-0.003863525390625;6.1599999844475;617;1 A
27.9277109294893;-0.19989013671875;-0.003875732421875;6.16999998442225;618;1 A
27.9377109294641;-0.19989013671875;-0.0038787841796875;6.179999984397;619;1 A
27.9477109294388;-0.199920654296875;-0.003887939453125;6.18999998437175;620;1 A
27.9577109294136;-0.199951171875;-0.0039031982421875;6.1999999843465;621;1 A
27.9677109293883;-0.199951171875;-0.0039093017578125;6.20999998432126;622;1 A
27.9777109293631;-0.199859619140625;-0.003924560546875;6.21999998429601;623;1 A
27.9877109293378;-0.19989013671875;-0.003924560546875;6.22999998427076;624;1 A
27.9977109293126;-0.199951171875;-0.00392761230468749;6.23999998424551;625;1 A
28.0077109292873;-0.1998291015625;-0.003936767578125;6.24999998422027;626;1 A
28.0177109292621;-0.199951171875;-0.0039337158203125;6.25999998419502;627;1 A
28.0277109292368;-0.19989013671875;-0.003948974609375;6.26999998416977;628;1 A
28.0377109292116;-0.199920654296875;-0.0039398193359375;6.27999998414452;629;1 A
28.0477109291863;-0.199951171875;-0.003948974609375;6.28999998411928;630;1 A
28.0577109291611;-0.199798583984375;-0.0039520263671875;6.29999998409403;631;1 A
28.0677109291358;-0.199920654296875;-0.003948974609375;6.30999998406878;632;1 A
28.0777109291106;-0.199859619140625;-0.003948974609375;6.31999998404353;633;1 A
28.0877109290853;-0.199859619140625;-0.00394287109374999;6.32999998401829;634;1 A
28.0977109290601;-0.199981689453125;-0.0039398193359375;6.33999998399304;635;1 A
28.1077109290349;-0.199920654296875;-0.00394287109374999;6.34999998396779;636;1 A
28.1177109290096;-0.199920654296875;-0.00393066406250001;6.35999998394254;637;1 A
28.1277109289844;-0.19989013671875;-0.0039398193359375;6.3699999839173;638;1 A
28.1377109289591;-0.199859619140625;-0.003936767578125;6.37999998389205;639;1 A
28.1477109289339;-0.199920654296875;-0.0039337158203125;6.3899999838668;640;1 A
28.1577109289086;-0.199920654296875;-0.0039337158203125;6.39999998384155;641;1 A
28.1677109288834;-0.199981689453125;-0.00392761230468749;6.40999998381631;642;1 A
28.1777109288581;-0.199951171875;-0.00393066406250001;6.41999998379106;643;1 A
28.1877109288329;-0.199920654296875;-0.00393066406250001;6.42999998376581;644;1 A
28.1977109288076;-0.19989013671875;-0.003924560546875;6.43999998374056;645;1 A
28.2077109287824;-0.19989013671875;-0.003924560546875;6.44999998371532;646;1 A
28.2177109287571;-0.1998291015625;-0.00391845703125;6.45999998369007;647;1 A
28.2277109287319;-0.199951171875;-0.00391845703125;6.46999998366482;648;1 A
28.2377109287066;-0.19989013671875;-0.0039031982421875;6.47999998363957;649;1 A
28.2477109286814;-0.199951171875;-0.0038909912109375;6.48999998361433;650;1 A
28.2577109286561;-0.199920654296875;-0.0038909912109375;6.49999998358908;651;1 A
28.2677109286309;-0.19989013671875;-0.0038787841796875;6.50999998356383;652;1 A
28.2777109286056;-0.19989013671875;-0.003875732421875;6.51999998353858;653;1 A
28.2877109285804;-0.199920654296875;-0.00386962890625001;6.52999998351333;654;1 A
28.2977109285551;-0.1998291015625;-0.00386962890625001;6.53999998348809;655;1 A
28.3077109285299;-0.19989013671875;-0.00386657714843749;6.54999998346284;656;1 A
28.3177109285047;-0.199859619140625;-0.003857421875;6.55999998343759;657;1 A
28.3277109284794;-0.199920654296875;-0.00386657714843749;6.56999998341234;658;1 A
28.3377109284542;-0.199951171875;-0.003863525390625;6.5799999833871;659;1 A
28.3477109284289;-0.19989013671875;-0.00386962890625001;6.58999998336185;660;1 A
28.3577109284037;-0.19989013671875;-0.00386962890625001;6.5999999833366;661;1 A
28.3677109283784;-0.19989013671875;-0.0038726806640625;6.60999998331135;662;1 A
28.3777109283532;-0.19989013671875;-0.00388183593749999;6.61999998328611;663;1 A
28.3877109283279;-0.19989013671875;-0.0038787841796875;6.62999998326086;664;1 A
28.3977109283027;-0.199951171875;-0.00384521484375;6.63999998323561;665;1 A
28.4077109282774;-0.199951171875;-0.0038787841796875;6.64999998321036;666;1 A
28.4177109282522;-0.199920654296875;-0.00388183593749999;6.65999998318512;667;1 A
28.4277109282269;-0.199951171875;-0.00389709472656249;6.66999998315987;668;1 A
28.4377109282017;-0.19989013671875;-0.00389709472656249;6.67999998313462;669;1 A
28.4477109281764;-0.19989013671875;-0.0039031982421875;6.68999998310937;670;1 A
28.4577109281512;-0.1998291015625;-0.0039031982421875;6.69999998308413;671;1 A
28.4677109281259;-0.199951171875;-0.0039031982421875;6.70999998305888;672;1 A
28.4777109281007;-0.199951171875;-0.00390625;6.71999998303363;673;1 A
28.4877109280754;-0.199951171875;-0.00390014648437501;6.72999998300838;674;1 A
28.4977109280502;-0.19989013671875;-0.0039031982421875;6.73999998298314;675;1 A
28.5077109280249;-0.199859619140625;-0.00391540527343751;6.74999998295789;676;1 A
28.5177109279997;-0.199920654296875;-0.0039031982421875;6.75999998293264;677;1 A
28.5277109279745;-0.199920654296875;-0.0039093017578125;6.76999998290739;678;1 A
28.5377109279492;-0.199859619140625;-0.00390625;6.77999998288215;679;1 A
28.547710927924;-0.19989013671875;-0.00390014648437501;6.7899999828569;680;1 A
28.5577109278987;-0.199920654296875;-0.00390014648437501;6.79999998283165;681;1 A
28.5677109278735;-0.199859619140625;-0.00389404296875;6.8099999828064;682;1 A
28.5777109278482;-0.199859619140625;-0.0038909912109375;6.81999998278116;683;1 A
28.587710927823;-0.199920654296875;-0.00388183593749999;6.82999998275591;684;1 A
28.5977109277977;-0.199920654296875;-0.00388488769531251;6.83999998273066;685;1 A
28.6077109277725;-0.199859619140625;-0.00388183593749999;6.84999998270541;686;1 A
28.6177109277472;-0.19976806640625;-0.00388183593749999;6.85999998268016;687;1 A
28.627710927722;-0.199920654296875;-0.00388183593749999;6.86999998265492;688;1 A
28.6377109276967;-0.199951171875;-0.0038787841796875;6.87999998262967;689;1 A
28.6477109276715;-0.19989013671875;-0.003875732421875;6.88999998260442;690;1 A
28.6577109276462;-0.19989013671875;-0.003875732421875;6.89999998257917;691;1 A
28.667710927621;-0.19989013671875;-0.0038726806640625;6.90999998255393;692;1 A
28.6777109275957;-0.199920654296875;-0.00388183593749999;6.91999998252868;693;1 A
28.6877109275705;-0.1998291015625;-0.0038787841796875;6.92999998250343;694;1 A
28.6977109275452;-0.199951171875;-0.0038787841796875;6.93999998247818;695;1 A
28.70771092752;-0.199951171875;-0.003875732421875;6.94999998245294;696;1 A
28.7177109274947;-0.199981689453125;-0.00386962890625001;6.95999998242769;697;1 A
28.7277109274695;-0.199920654296875;-0.0038787841796875;6.96999998240244;698;1 A
28.7377109274443;-0.199859619140625;-0.0038726806640625;6.97999998237719;699;1 A
28.747710927419;-0.19989013671875;-0.00386962890625001;6.98999998235195;700;1 A
28.7577109273938;-0.19989013671875;-0.0038726806640625;6.9999999823267;701;1 A
28.7677109273685;-0.199859619140625;-0.00386962890625001;7.00999998230145;702;1 A
28.7777109273433;-0.199859619140625;-0.00388183593749999;7.0199999822762;703;1 A
28.787710927318;-0.199951171875;-0.0038787841796875;7.02999998225096;704;1 A
28.7977109272928;-0.199920654296875;-0.003875732421875;7.03999998222571;705;1 A
28.8077109272675;-0.199859619140625;-0.00388183593749999;7.04999998220046;706;1 A
28.8177109272423;-0.19989013671875;-0.00388183593749999;7.05999998217521;707;1 A
28.827710927217;-0.199951171875;-0.0038909912109375;7.06999998214997;708;1 A
28.8377109271918;-0.19989013671875;-0.0038787841796875;7.07999998212472;709;1 A
28.8477109271665;-0.19989013671875;-0.0038787841796875;7.08999998209947;710;1 A
28.8577109271413;-0.19989013671875;-0.003875732421875;7.09999998207422;711;1 A
28.867710927116;-0.19989013671875;-0.0038726806640625;7.10999998204898;712;1 A
28.8777109270908;-0.199859619140625;-0.003875732421875;7.11999998202373;713;1 A
28.8877109270655;-0.199951171875;-0.003875732421875;7.12999998199848;714;1 A
28.8977109270403;-0.199859619140625;-0.003875732421875;7.13999998197323;715;1 A
28.907710927015;-0.19989013671875;-0.0038787841796875;7.14999998194799;716;1 A
28.9177109269898;-0.199920654296875;-0.0038726806640625;7.15999998192274;717;1 A
28.9277109269646;-0.199920654296875;-0.00388488769531251;7.16999998189749;718;1 A
28.9377109269393;-0.199920654296875;-0.003875732421875;7.17999998187224;719;1 A
28.9477109269141;-0.199951171875;-0.0038787841796875;7.189999981847;720;1 A
28.9577109268888;-0.199951171875;-0.0038787841796875;7.19999998182175;721;1 A
28.9677109268636;-0.199920654296875;-0.0038787841796875;7.2099999817965;722;1 A
28.9777109268383;-0.19989013671875;-0.00388183593749999;7.21999998177125;723;1 A
28.9877109268131;-0.199951171875;-0.0038726806640625;7.229999981746;724;1 A
28.9977109267878;-0.199920654296875;-0.00386962890625001;7.23999998172076;725;1 A
29.0077109267626;-0.199981689453125;-0.003863525390625;7.24999998169551;726;1 A
29.0177109267373;-0.199859619140625;-0.00385131835937499;7.25999998167026;727;1 A
29.0277109267121;-0.199920654296875;-0.00384521484375;7.26999998164501;728;1 A
29.0377109266868;-0.19989013671875;-0.00383605957031249;7.27999998161977;729;1 A
29.0477109266616;-0.199859619140625;-0.00382385253906251;7.28999998159452;730;1 A
29.0577109266363;-0.199859619140625;-0.00382385253906251;7.29999998156927;731;1 A
29.0677109266111;-0.199859619140625;-0.003814697265625;7.30999998154402;732;1 A
29.0777109265858;-0.199859619140625;-0.003814697265625;7.31999998151878;733;1 A
29.0877109265606;-0.199920654296875;-0.00380554199218749;7.32999998149353;734;1 A
29.0977109265353;-0.199920654296875;-0.00379638671875;7.33999998146828;735;1 A
29.1077109265101;-0.19989013671875;-0.00379028320312499;7.34999998144303;736;1 A
29.1177109264848;-0.19989013671875;-0.00377502441406249;7.35999998141779;737;1 A
29.1277109264596;-0.199951171875;-0.00377807617187501;7.36999998139254;738;1 A
29.1377109264344;-0.1998291015625;-0.003765869140625;7.37999998136729;739;1 A
29.1477109264091;-0.199920654296875;-0.00376281738281251;7.38999998134204;740;1 A
29.1577109263839;-0.199920654296875;-0.00375976562499999;7.3999999813168;741;1 A
29.1677109263586;-0.19989013671875;-0.0037567138671875;7.40999998129155;742;1 A
29.1777109263334;-0.199951171875;-0.0037567138671875;7.4199999812663;743;1 A
29.1877109263081;-0.19989013671875;-0.00374755859375001;7.42999998124105;744;1 A
29.1977109262829;-0.199951171875;-0.00374755859375001;7.43999998121581;745;1 A
29.2077109262576;-0.19989013671875;-0.0037384033203125;7.44999998119056;746;1 A
29.2177109262324;-0.199859619140625;-0.0037200927734375;7.45999998116531;747;1 A
29.2277109262071;-0.19989013671875;-0.00372924804687499;7.46999998114006;748;1 A
29.2377109261819;-0.199920654296875;-0.0037078857421875;7.47999998111482;749;1 A
29.2477109261566;-0.199951171875;-0.003741455078125;7.48999998108957;750;1 A
29.2577109261314;-0.199951171875;-0.00374450683593749;7.49999998106432;751;1 A
29.2677109261061;-0.199920654296875;-0.0037384033203125;7.50999998103907;752;1 A
29.2777109260809;-0.199920654296875;-0.00374450683593749;7.51999998101383;753;1 A
29.2877109260556;-0.199859619140625;-0.00374450683593749;7.52999998098858;754;1 A
29.2977109260304;-0.199798583984375;-0.0037353515625;7.53999998096333;755;1 A
29.3077109260051;-0.199951171875;-0.0037384033203125;7.54999998093808;756;1 A
29.3177109259799;-0.199920654296875;-0.0037567138671875;7.55999998091283;757;1 A
29.3277109259546;-0.199920654296875;-0.00377502441406249;7.56999998088759;758;1 A
29.3377109259294;-0.199951171875;-0.00377197265625;7.57999998086234;759;1 A
29.3477109259042;-0.199859619140625;-0.0037811279296875;7.58999998083709;760;1 A
29.3577109258789;-0.19989013671875;-0.00379333496093751;7.59999998081184;761;1 A
29.3677109258537;-0.199951171875;-0.0037994384765625;7.6099999807866;762;1 A
29.3777109258284;-0.199859619140625;-0.00382385253906251;7.61999998076135;763;1 A
29.3877109258032;-0.19989013671875;-0.0038299560546875;7.6299999807361;764;1 A
29.3977109257779;-0.199920654296875;-0.00384521484375;7.63999998071085;765;1 A
29.4077109257527;-0.199951171875;-0.003857421875;7.64999998068561;766;1 A
29.4177109257274;-0.199920654296875;-0.00386962890625001;7.65999998066036;767;1 A
29.4277109257022;-0.19989013671875;-0.003887939453125;7.66999998063511;768;1 A
29.4377109256769;-0.199920654296875;-0.00389709472656249;7.67999998060986;769;1 A
29.4477109256517;-0.199951171875;-0.00390625;7.68999998058462;770;1 A
29.4577109256264;-0.199798583984375;-0.00391845703125;7.69999998055937;771;1 A
29.4677109256012;-0.199951171875;-0.00392761230468749;7.70999998053412;772;1 A
29.4777109255759;-0.19989013671875;-0.00394287109374999;7.71999998050887;773;1 A
29.4877109255507;-0.199951171875;-0.00394592285156251;7.72999998048363;774;1 A
29.4977109255254;-0.199951171875;-0.00394287109374999;7.73999998045838;775;1 A
29.5077109255002;-0.199920654296875;-0.003955078125;7.74999998043313;776;1 A
29.5177109254749;-0.199859619140625;-0.003955078125;7.75999998040788;777;1 A
29.5277109254497;-0.199920654296875;-0.0039642333984375;7.76999998038264;778;1 A
29.5377109254244;-0.199859619140625;-0.0039703369140625;7.77999998035739;779;1 A
29.5477109253992;-0.199920654296875;-0.00396728515625;7.78999998033214;780;1 A
29.557710925374;-0.199920654296875;-0.00397338867187499;7.79999998030689;781;1 A
29.5677109253487;-0.199920654296875;-0.00397338867187499;7.80999998028165;782;1 A
29.5777109253235;-0.199951171875;-0.0039794921875;7.8199999802564;783;1 A
29.5877109252982;-0.19989013671875;-0.0039794921875;7.82999998023115;784;1 A
29.597710925273;-0.199859619140625;-0.00397644042968751;7.8399999802059;785;1 A
29.6077109252477;-0.199920654296875;-0.003985595703125;7.84999998018066;786;1 A
29.6177109252225;-0.199859619140625;-0.003985595703125;7.85999998015541;787;1 A
29.6277109251972;-0.199951171875;-0.00399169921875001;7.86999998013016;788;1 A
29.637710925172;-0.199951171875;-0.003985595703125;7.87999998010491;789;1 A
29.6477109251467;-0.19989013671875;-0.003985595703125;7.88999998007966;790;1 A
29.6577109251215;-0.199951171875;-0.00398864746093749;7.89999998005442;791;1 A
29.6677109250962;-0.199920654296875;-0.003985595703125;7.90999998002917;792;1 A
29.677710925071;-0.199951171875;-0.003985595703125;7.91999998000392;793;1 A
29.6877109250457;-0.199920654296875;-0.003985595703125;7.92999997997867;794;1 A
29.6977109250205;-0.199859619140625;-0.0039794921875;7.93999997995343;795;1 A
29.7077109249952;-0.199920654296875;-0.003985595703125;7.94999997992818;796;1 A
29.71771092497;-0.19989013671875;-0.00397644042968751;7.95999997990293;797;1 A
29.7277109249447;-0.199859619140625;-0.0039825439453125;7.96999997987768;798;1 A
29.7377109249195;-0.199951171875;-0.00397644042968751;7.97999997985244;799;1 A
29.7477109248942;-0.199920654296875;-0.00397644042968751;7.98999997982719;800;1 A
29.757710924869;-0.199920654296875;-0.0039794921875;7.99999997980194;801;1 A
29.7677109248438;-0.19989013671875;-0.00397644042968751;8.00999997977669;802;1 A
29.7777109248185;-0.199859619140625;-0.003985595703125;8.01999997975145;803;1 A
29.7877109247933;-0.199951171875;-0.0039825439453125;8.0299999797262;804;1 A
29.797710924768;-0.199920654296875;-0.0039825439453125;8.03999997970095;805;1 A
29.8077109247428;-0.199951171875;-0.00397644042968751;8.0499999796757;806;1 A
29.8177109247175;-0.199981689453125;-0.00397338867187499;8.05999997965046;807;1 A
29.8277109246923;-0.199951171875;-0.00397338867187499;8.06999997962521;808;1 A
29.837710924667;-0.19989013671875;-0.00396728515625;8.07999997959996;809;1 A
29.8477109246418;-0.199920654296875;-0.00396118164062501;8.08999997957471;810;1 A
29.8577109246165;-0.199798583984375;-0.00396728515625;8.09999997954947;811;1 A
29.8677109245913;-0.199981689453125;-0.0039642333984375;8.10999997952422;812;1 A
29.877710924566;-0.19989013671875;-0.0039642333984375;8.11999997949897;813;1 A
29.8877109245408;-0.199859619140625;-0.00395812988281249;8.12999997947372;814;1 A
29.8977109245155;-0.199981689453125;-0.0039520263671875;8.13999997944848;815;1 A
29.9077109244903;-0.199859619140625;-0.00395812988281249;8.14999997942323;816;1 A
29.917710924465;-0.199920654296875;-0.00394592285156251;8.15999997939798;817;1 A
29.9277109244398;-0.199920654296875;-0.0039520263671875;8.16999997937273;818;1 A
29.9377109244145;-0.1998291015625;-0.003948974609375;8.17999997934749;819;1 A
29.9477109243893;-0.199920654296875;-0.003948974609375;8.18999997932224;820;1 A
29.9577109243641;-0.199951171875;-0.0039520263671875;8.19999997929699;821;1 A
29.9677109243388;-0.199920654296875;-0.003948974609375;8.20999997927174;822;1 A
29.9777109243136;-0.20001220703125;-0.003955078125;8.2199999792465;823;1 A
29.9877109242883;-0.19989013671875;-0.0039520263671875;8.22999997922125;824;1 A
29.9977109242631;-0.199981689453125;-0.003955078125;8.239999979196;825;1 A
30.0077109242378;-0.199920654296875;-0.00395812988281249;8.24999997917075;826;1 A
30.0177109242126;-0.199859619140625;-0.00395812988281249;8.2599999791455;827;1 A
30.0277109241873;-0.199951171875;-0.0039642333984375;8.26999997912026;828;1 A
30.0377109241621;-0.199951171875;-0.00396118164062501;8.27999997909501;829;1 A
30.0477109241368;-0.199920654296875;-0.0039642333984375;8.28999997906976;830;1 A
30.0577109241116;-0.199981689453125;-0.0039642333984375;8.29999997904451;831;1 A
30.0677109240863;-0.19989013671875;-0.00396118164062501;8.30999997901927;832;1 A
30.0777109240611;-0.199951171875;-0.0039703369140625;8.31999997899402;833;1 A
30.0877109240358;-0.19989013671875;-0.00396728515625;8.32999997896877;834;1 A
30.0977109240106;-0.199859619140625;-0.00397338867187499;8.33999997894352;835;1 A
30.1077109239853;-0.199920654296875;-0.00397644042968751;8.34999997891828;836;1 A
30.1177109239601;-0.19989013671875;-0.0039703369140625;8.35999997889303;837;1 A
30.1277109239348;-0.19989013671875;-0.00397644042968751;8.36999997886778;838;1 A
30.1377109239096;-0.199981689453125;-0.0039703369140625;8.37999997884253;839;1 A
30.1477109238843;-0.199920654296875;-0.00396728515625;8.38999997881729;840;1 A
30.1577109238591;-0.199920654296875;-0.00396728515625;8.39999997879204;841;1 A
30.1677109238339;-0.199981689453125;-0.00396728515625;8.40999997876679;842;1 A
30.1777109238086;-0.199798583984375;-0.00397338867187499;8.41999997874154;843;1 A
30.1877109237834;-0.19989013671875;-0.00396728515625;8.4299999787163;844;1 A
30.1977109237581;-0.199920654296875;-0.00396728515625;8.43999997869105;845;1 A
30.2077109237329;-0.19989013671875;-0.00396728515625;8.4499999786658;846;1 A
30.2177109237076;-0.199951171875;-0.0039642333984375;8.45999997864055;847;1 A
30.2277109236824;-0.199920654296875;-0.0039703369140625;8.46999997861531;848;1 A
30.2377109236571;-0.199981689453125;-0.0039642333984375;8.47999997859006;849;1 A
30.2477109236319;-0.199920654296875;-0.00396118164062501;8.48999997856481;850;1 A
30.2577109236066;-0.199798583984375;-0.0039703369140625;8.49999997853956;851;1 A
30.2677109235814;-0.19989013671875;-0.0039703369140625;8.50999997851432;852;1 A
30.2777109235561;-0.199920654296875;-0.0039794921875;8.51999997848907;853;1 A
30.2877109235309;-0.199920654296875;-0.0039794921875;8.52999997846382;854;1 A
30.2977109235056;-0.199920654296875;-0.0039794921875;8.53999997843857;855;1 A
30.3077109234804;-0.199920654296875;-0.003985595703125;8.54999997841333;856;1 A
30.3177109234551;-0.199920654296875;-0.0039794921875;8.55999997838808;857;1 A
30.3277109234299;-0.1998291015625;-0.00398864746093749;8.56999997836283;858;1 A
30.3377109234046;-0.1998291015625;-0.0039825439453125;8.57999997833758;859;1 A
30.3477109233794;-0.19989013671875;-0.00398864746093749;8.58999997831233;860;1 A
30.3577109233541;-0.199951171875;-0.00399169921875001;8.59999997828709;861;1 A
30.3677109233289;-0.199951171875;-0.0039947509765625;8.60999997826184;862;1 A
30.3777109233037;-0.199981689453125;-0.003997802734375;8.61999997823659;863;1 A
30.3877109232784;-0.19989013671875;-0.0040008544921875;8.62999997821134;864;1 A
30.3977109232532;-0.19989013671875;-0.003997802734375;8.6399999781861;865;1 A
30.4077109232279;-0.199951171875;-0.003997802734375;8.64999997816085;866;1 A
30.4177109232027;-0.1998291015625;-0.0040008544921875;8.6599999781356;867;1 A
30.4277109231774;-0.199920654296875;-0.00400695800781251;8.66999997811035;868;1 A
30.4377109231522;-0.199951171875;-0.00400695800781251;8.67999997808511;869;1 A
30.4477109231269;-0.199920654296875;-0.004010009765625;8.68999997805986;870;1 A
30.4577109231017;-0.20001220703125;-0.004010009765625;8.69999997803461;871;1 A
30.4677109230764;-0.199920654296875;-0.0040130615234375;8.70999997800936;872;1 A
30.4777109230512;-0.199951171875;-0.00401916503906249;8.71999997798412;873;1 A
30.4877109230259;-0.199920654296875;-0.00401611328125;8.72999997795887;874;1 A
30.4977109230007;-0.19976806640625;-0.00401916503906249;8.73999997793362;875;1 A
30.5077109229754;-0.199920654296875;-0.00401611328125;8.74999997790837;876;1 A
30.5177109229502;-0.199920654296875;-0.0040130615234375;8.75999997788313;877;1 A
30.5277109229249;-0.199951171875;-0.00402221679687501;8.76999997785788;878;1 A
30.5377109228997;-0.200042724609375;-0.0040130615234375;8.77999997783263;879;1 A
30.5477109228744;-0.19989013671875;-0.0040130615234375;8.78999997780738;880;1 A
30.5577109228492;-0.19989013671875;-0.00401611328125;8.79999997778214;881;1 A
30.5677109228239;-0.199859619140625;-0.004010009765625;8.80999997775689;882;1 A
30.5777109227987;-0.199798583984375;-0.004010009765625;8.81999997773164;883;1 A
30.5877109227735;-0.199920654296875;-0.00400390624999999;8.82999997770639;884;1 A
30.5977109227482;-0.199951171875;-0.0040008544921875;8.83999997768115;885;1 A
30.607710922723;-0.19989013671875;-0.0040008544921875;8.8499999776559;886;1 A
30.6177109226977;-0.199981689453125;-0.00399169921875001;8.85999997763065;887;1 A
30.6277109226725;-0.19989013671875;-0.00400390624999999;8.8699999776054;888;1 A
30.6377109226472;-0.199920654296875;-0.0040008544921875;8.87999997758016;889;1 A
30.647710922622;-0.199920654296875;-0.0040008544921875;8.88999997755491;890;1 A
30.6577109225967;-0.1998291015625;-0.00400695800781251;8.89999997752966;891;1 A
30.6677109225715;-0.199951171875;-0.00400695800781251;8.90999997750441;892;1 A
30.6777109225462;-0.199859619140625;-0.00400695800781251;8.91999997747916;893;1 A
30.687710922521;-0.199951171875;-0.00400390624999999;8.92999997745392;894;1 A
30.6977109224957;-0.200042724609375;-0.003997802734375;8.93999997742867;895;1 A
30.7077109224705;-0.199920654296875;-0.00400390624999999;8.94999997740342;896;1 A
30.7177109224452;-0.199951171875;-0.0040008544921875;8.95999997737817;897;1 A
30.72771092242;-0.199859619140625;-0.00400695800781251;8.96999997735293;898;1 A
30.7377109223947;-0.199859619140625;-0.0040008544921875;8.97999997732768;899;1 A
30.7477109223695;-0.199920654296875;-0.0039947509765625;8.98999997730243;900;1 A
30.7577109223442;-0.199920654296875;-0.0039947509765625;8.99999997727718;901;1 A
30.767710922319;-0.199920654296875;-0.00398864746093749;9.00999997725194;902;1 A
30.7777109222937;-0.199981689453125;-0.00399169921875001;9.01999997722669;903;1 A
30.7877109222685;-0.19989013671875;-0.003985595703125;9.02999997720144;904;1 A
30.7977109222433;-0.199920654296875;-0.0039825439453125;9.03999997717619;905;1 A
30.807710922218;-0.19989013671875;-0.003985595703125;9.04999997715095;906;1 A
30.8177109221928;-0.1998291015625;-0.0039794921875;9.0599999771257;907;1 A
30.8277109221675;-0.19989013671875;-0.0039794921875;9.06999997710045;908;1 A
30.8377109221423;-0.19989013671875;-0.00397338867187499;9.0799999770752;909;1 A
30.847710922117;-0.199920654296875;-0.0039703369140625;9.08999997704996;910;1 A
30.8577109220918;-0.199951171875;-0.0039642333984375;9.09999997702471;911;1 A
30.8677109220665;-0.199951171875;-0.00395812988281249;9.10999997699946;912;1 A
30.8777109220413;-0.1998291015625;-0.0039642333984375;9.11999997697421;913;1 A
30.887710922016;-0.199951171875;-0.003955078125;9.12999997694897;914;1 A
30.8977109219908;-0.199859619140625;-0.00395812988281249;9.13999997692372;915;1 A
30.9077109219655;-0.19989013671875;-0.00396118164062501;9.14999997689847;916;1 A
30.9177109219403;-0.199859619140625;-0.00396118164062501;9.15999997687322;917;1 A
30.927710921915;-0.1998291015625;-0.00396728515625;9.16999997684798;918;1 A
30.9377109218898;-0.199920654296875;-0.0039642333984375;9.17999997682273;919;1 A
30.9477109218645;-0.19989013671875;-0.0039642333984375;9.18999997679748;920;1 A
30.9577109218393;-0.199920654296875;-0.0039642333984375;9.19999997677223;921;1 A
30.967710921814;-0.199920654296875;-0.00396728515625;9.20999997674699;922;1 A
30.9777109217888;-0.1998291015625;-0.00397338867187499;9.21999997672174;923;1 A
30.9877109217636;-0.19989013671875;-0.00396728515625;9.22999997669649;924;1 A
30.9977109217383;-0.199859619140625;-0.00396118164062501;9.23999997667124;925;1 A
31.0077109217131;-0.199951171875;-0.00396118164062501;9.249999976646;926;1 A
31.0177109216878;-0.199951171875;-0.003948974609375;9.25999997662075;927;1 A
31.0277109216626;-0.199920654296875;-0.0039520263671875;9.2699999765955;928;1 A
31.0377109216373;-0.199920654296875;-0.00394287109374999;9.27999997657025;929;1 A
31.0477109216121;-0.19989013671875;-0.00394287109374999;9.289999976545;930;1 A
31.0577109215868;-0.199859619140625;-0.00394287109374999;9.29999997651976;931;1 A
31.0677109215616;-0.199920654296875;-0.003936767578125;9.30999997649451;932;1 A
31.0777109215363;-0.19989013671875;-0.003936767578125;9.31999997646926;933;1 A
31.0877109215111;-0.199951171875;-0.00392761230468749;9.32999997644401;934;1 A
31.0977109214858;-0.199981689453125;-0.00391845703125;9.33999997641877;935;1 A
31.1077109214606;-0.199920654296875;-0.0039215087890625;9.34999997639352;936;1 A
31.1177109214353;-0.19989013671875;-0.00391235351562499;9.35999997636827;937;1 A
31.1277109214101;-0.20001220703125;-0.0039215087890625;9.36999997634302;938;1 A
31.1377109213848;-0.19989013671875;-0.00391235351562499;9.37999997631778;939;1 A
31.1477109213596;-0.199920654296875;-0.00391235351562499;9.38999997629253;940;1 A
31.1577109213343;-0.199920654296875;-0.00390625;9.39999997626728;941;1 A
31.1677109213091;-0.19989013671875;-0.00389404296875;9.40999997624203;942;1 A
31.1777109212838;-0.199981689453125;-0.00389404296875;9.41999997621679;943;1 A
31.1877109212586;-0.199920654296875;-0.003887939453125;9.42999997619154;944;1 A
31.1977109212334;-0.199920654296875;-0.003875732421875;9.43999997616629;945;1 A
31.2077109212081;-0.199951171875;-0.0038787841796875;9.44999997614104;946;1 A
31.2177109211829;-0.19989013671875;-0.0038726806640625;9.4599999761158;947;1 A
31.2277109211576;-0.20001220703125;-0.0038787841796875;9.46999997609055;948;1 A
31.2377109211324;-0.19989013671875;-0.003875732421875;9.4799999760653;949;1 A
31.2477109211071;-0.199920654296875;-0.00386962890625001;9.48999997604005;950;1 A
31.2577109210819;-0.199951171875;-0.00386962890625001;9.49999997601481;951;1 A
31.2677109210566;-0.199951171875;-0.003863525390625;9.50999997598956;952;1 A
31.2777109210314;-0.19989013671875;-0.003863525390625;9.51999997596431;953;1 A
31.2877109210061;-0.19989013671875;-0.0038604736328125;9.52999997593906;954;1 A
31.2977109209809;-0.199859619140625;-0.003857421875;9.53999997591382;955;1 A
31.3077109209556;-0.199951171875;-0.0038604736328125;9.54999997588857;956;1 A
31.3177109209304;-0.199981689453125;-0.00385437011718751;9.55999997586332;957;1 A
31.3277109209051;-0.19989013671875;-0.003857421875;9.56999997583807;958;1 A
31.3377109208799;-0.199920654296875;-0.00385131835937499;9.57999997581283;959;1 A
31.3477109208546;-0.199920654296875;-0.0038421630859375;9.58999997578758;960;1 A
31.3577109208294;-0.1998291015625;-0.00383911132812501;9.59999997576233;961;1 A
31.3677109208041;-0.199920654296875;-0.0038330078125;9.60999997573708;962;1 A
31.3777109207789;-0.199859619140625;-0.003826904296875;9.61999997571183;963;1 A
31.3877109207536;-0.19989013671875;-0.003826904296875;9.62999997568659;964;1 A
31.3977109207284;-0.199951171875;-0.00382080078124999;9.63999997566134;965;1 A
31.4077109207032;-0.19989013671875;-0.003826904296875;9.64999997563609;966;1 A
31.4177109206779;-0.199981689453125;-0.0038177490234375;9.65999997561084;967;1 A
31.4277109206527;-0.19989013671875;-0.0038299560546875;9.6699999755856;968;1 A
31.4377109206274;-0.19989013671875;-0.00382385253906251;9.67999997556035;969;1 A
31.4477109206022;-0.199920654296875;-0.00382080078124999;9.6899999755351;970;1 A
31.4577109205769;-0.1998291015625;-0.0038177490234375;9.69999997550985;971;1 A
31.4677109205517;-0.19989013671875;-0.003814697265625;9.70999997548461;972;1 A
31.4777109205264;-0.199920654296875;-0.003814697265625;9.71999997545936;973;1 A
31.4877109205012;-0.19989013671875;-0.0038116455078125;9.72999997543411;974;1 A
31.4977109204759;-0.199981689453125;-0.00380859375000001;9.73999997540886;975;1 A
31.5077109204507;-0.19989013671875;-0.0038116455078125;9.74999997538362;976;1 A
31.5177109204254;-0.199951171875;-0.00380554199218749;9.75999997535837;977;1 A
31.5277109204002;-0.199951171875;-0.0038116455078125;9.76999997533312;978;1 A
31.5377109203749;-0.199859619140625;-0.00380859375000001;9.77999997530787;979;1 A
31.5477109203497;-0.199920654296875;-0.0038116455078125;9.78999997528263;980;1 A
31.5577109203244;-0.199859619140625;-0.003814697265625;9.79999997525738;981;1 A
31.5677109202992;-0.199920654296875;-0.003814697265625;9.80999997523213;982;1 A
31.5777109202739;-0.199981689453125;-0.00382080078124999;9.81999997520688;983;1 A
31.5877109202487;-0.19989013671875;-0.00382385253906251;9.82999997518164;984;1 A
31.5977109202234;-0.199920654296875;-0.003826904296875;9.83999997515639;985;1 A
31.6077109201982;-0.19989013671875;-0.0038421630859375;9.84999997513114;986;1 A
31.617710920173;-0.199951171875;-0.00383911132812501;9.85999997510589;987;1 A
31.6277109201477;-0.199951171875;-0.00385131835937499;9.86999997508065;988;1 A
31.6377109201225;-0.19989013671875;-0.00385131835937499;9.8799999750554;989;1 A
31.6477109200972;-0.199981689453125;-0.00385131835937499;9.88999997503015;990;1 A
31.657710920072;-0.199981689453125;-0.00385437011718751;9.8999999750049;991;1 A
31.6677109200467;-0.19989013671875;-0.00385437011718751;9.90999997497966;992;1 A
31.6777109200215;-0.199920654296875;-0.003863525390625;9.91999997495441;993;1 A
31.6877109199962;-0.19989013671875;-0.003863525390625;9.92999997492916;994;1 A
31.697710919971;-0.199859619140625;-0.0038604736328125;9.93999997490391;995;1 A
31.7077109199457;-0.199920654296875;-0.0038726806640625;9.94999997487866;996;1 A
31.7177109199205;-0.199920654296875;-0.0038726806640625;9.95999997485342;997;1 A
31.7277109198952;-0.199951171875;-0.003887939453125;9.96999997482817;998;1 A
31.73771091987;-0.199981689453125;-0.00388488769531251;9.97999997480292;999;1 A
31.7477109198447;-0.199920654296875;-0.003887939453125;9.98999997477767;1000;1 A
