Time (s);WE(1).Potential (V);WE(1).Current (A);Corrected time (s);Index;Current range
32.3569969183064;0.6009521484375;1.05499267578125;0;1;1 A
32.3669969182812;0.5999755859375;0.75408935546875;0.00999999997475243;2;1 A
32.3769969182559;0.599822998046875;0.62042236328125;0.0199999999495049;3;1 A
32.3869969182307;0.599639892578125;0.53955078125;0.0299999999242573;4;1 A
32.3969969182054;0.59967041015625;0.48431396484375;0.0399999998990097;5;1 A
32.4069969181802;0.599578857421875;0.44329833984375;0.0499999998737621;6;1 A
32.416996918155;0.599578857421875;0.4112548828125;0.0599999998485146;7;1 A
32.4269969181297;0.599578857421875;0.385498046875;0.069999999823267;8;1 A
32.4369969181045;0.59954833984375;0.364227294921875;0.0799999997980194;9;1 A
32.4469969180792;0.599609375;0.346343994140625;0.0899999997727718;10;1 A
32.456996918054;0.599609375;0.3310546875;0.0999999997475243;11;1 A
32.4669969180287;0.59954833984375;0.317840576171875;0.109999999722277;12;1 A
32.4769969180035;0.599578857421875;0.30633544921875;0.119999999697029;13;1 A
32.4869969179782;0.599578857421875;0.296112060546875;0.129999999671782;14;1 A
32.496996917953;0.59954833984375;0.28704833984375;0.139999999646534;15;1 A
32.5069969179277;0.599517822265625;0.278961181640625;0.149999999621286;16;1 A
32.5169969179025;0.599578857421875;0.271759033203125;0.159999999596039;17;1 A
32.5269969178772;0.599578857421875;0.26519775390625;0.169999999570791;18;1 A
32.536996917852;0.599609375;0.259368896484375;0.179999999545544;19;1 A
32.5469969178267;0.59954833984375;0.2540283203125;0.189999999520296;20;1 A
32.5569969178015;0.599578857421875;0.2493896484375;0.199999999495049;21;1 A
32.5669969177762;0.599578857421875;0.245025634765625;0.209999999469801;22;1 A
32.576996917751;0.599639892578125;0.2410888671875;0.219999999444553;23;1 A
32.5869969177257;0.599578857421875;0.2374267578125;0.229999999419306;24;1 A
32.5969969177005;0.599609375;0.234130859375;0.239999999394058;25;1 A
32.6069969176752;0.5994873046875;0.2310791015625;0.249999999368811;26;1 A
32.61699691765;0.599578857421875;0.22833251953125;0.259999999343563;27;1 A
32.6269969176248;0.599578857421875;0.2257080078125;0.269999999318316;28;1 A
32.6369969175995;0.599578857421875;0.223358154296875;0.279999999293068;29;1 A
32.6469969175743;0.599578857421875;0.221221923828125;0.28999999926782;30;1 A
32.656996917549;0.599609375;0.21929931640625;0.299999999242573;31;1 A
32.6669969175238;0.599639892578125;0.217620849609375;0.309999999217325;32;1 A
32.6769969174985;0.59954833984375;0.215972900390625;0.319999999192078;33;1 A
32.6869969174733;0.599639892578125;0.2144775390625;0.32999999916683;34;1 A
32.696996917448;0.59954833984375;0.21319580078125;0.339999999141583;35;1 A
32.7069969174228;0.59954833984375;0.2120361328125;0.349999999116335;36;1 A
32.7169969173975;0.599578857421875;0.210906982421875;0.359999999091087;37;1 A
32.7269969173723;0.59954833984375;0.209808349609375;0.36999999906584;38;1 A
32.736996917347;0.59954833984375;0.208709716796875;0.379999999040592;39;1 A
32.7469969173218;0.599639892578125;0.207763671875;0.389999999015345;40;1 A
32.7569969172965;0.599578857421875;0.206787109375;0.399999998990097;41;1 A
32.7669969172713;0.599639892578125;0.2059326171875;0.40999999896485;42;1 A
32.776996917246;0.599609375;0.20513916015625;0.419999998939602;43;1 A
32.7869969172208;0.59954833984375;0.204376220703125;0.429999998914354;44;1 A
32.7969969171955;0.599578857421875;0.203765869140625;0.439999998889107;45;1 A
32.8069969171703;0.59954833984375;0.203125;0.449999998863859;46;1 A
32.816996917145;0.599578857421875;0.2025146484375;0.459999998838612;47;1 A
32.8269969171198;0.599578857421875;0.201934814453125;0.469999998813364;48;1 A
32.8369969170946;0.599609375;0.20123291015625;0.479999998788116;49;1 A
32.8469969170693;0.599609375;0.200653076171875;0.489999998762869;50;1 A
32.8569969170441;0.599609375;0.20013427734375;0.499999998737621;51;1 A
32.8669969170188;0.599578857421875;0.199493408203125;0.509999998712374;52;1 A
32.8769969169936;0.599609375;0.198944091796875;0.519999998687126;53;1 A
32.8869969169683;0.599578857421875;0.19830322265625;0.529999998661879;54;1 A
32.8969969169431;0.599578857421875;0.197845458984375;0.539999998636631;55;1 A
32.9069969169178;0.59954833984375;0.197235107421875;0.549999998611383;56;1 A
32.9169969168926;0.599609375;0.196746826171875;0.559999998586136;57;1 A
32.9269969168673;0.59954833984375;0.19610595703125;0.569999998560888;58;1 A
32.9369969168421;0.599609375;0.19573974609375;0.579999998535641;59;1 A
32.9469969168168;0.599609375;0.19525146484375;0.589999998510393;60;1 A
32.9569969167916;0.59954833984375;0.19500732421875;0.599999998485146;61;1 A
32.9669969167663;0.599578857421875;0.194580078125;0.609999998459898;62;1 A
32.9769969167411;0.59967041015625;0.1943359375;0.61999999843465;63;1 A
32.9869969167158;0.599639892578125;0.194091796875;0.629999998409403;64;1 A
32.9969969166906;0.599578857421875;0.1939697265625;0.639999998384155;65;1 A
33.0069969166653;0.59954833984375;0.193878173828125;0.649999998358908;66;1 A
33.0169969166401;0.599578857421875;0.193817138671875;0.65999999833366;67;1 A
33.0269969166148;0.59954833984375;0.193603515625;0.669999998308413;68;1 A
33.0369969165896;0.59954833984375;0.193450927734375;0.679999998283165;69;1 A
33.0469969165644;0.599609375;0.193267822265625;0.689999998257917;70;1 A
33.0569969165391;0.59954833984375;0.193023681640625;0.69999999823267;71;1 A
33.0669969165139;0.599578857421875;0.192718505859375;0.709999998207422;72;1 A
33.0769969164886;0.599578857421875;0.192138671875;0.719999998182175;73;1 A
33.0869969164634;0.599517822265625;0.191650390625;0.729999998156927;74;1 A
33.0969969164381;0.599609375;0.191162109375;0.73999999813168;75;1 A
33.1069969164129;0.599517822265625;0.19073486328125;0.749999998106432;76;1 A
33.1169969163876;0.59954833984375;0.190216064453125;0.759999998081184;77;1 A
33.1269969163624;0.599578857421875;0.189697265625;0.769999998055937;78;1 A
33.1369969163371;0.599609375;0.1893310546875;0.779999998030689;79;1 A
33.1469969163119;0.599609375;0.189056396484375;0.789999998005442;80;1 A
33.1569969162866;0.599578857421875;0.188751220703125;0.799999997980194;81;1 A
33.1669969162614;0.59967041015625;0.1884765625;0.809999997954947;82;1 A
33.1769969162361;0.599578857421875;0.188232421875;0.819999997929699;83;1 A
33.1869969162109;0.599639892578125;0.187957763671875;0.829999997904451;84;1 A
33.1969969161856;0.599639892578125;0.187835693359375;0.839999997879204;85;1 A
33.2069969161604;0.599578857421875;0.187591552734375;0.849999997853956;86;1 A
33.2169969161351;0.59954833984375;0.18743896484375;0.859999997828709;87;1 A
33.2269969161099;0.599578857421875;0.18719482421875;0.869999997803461;88;1 A
33.2369969160846;0.599609375;0.186859130859375;0.879999997778214;89;1 A
33.2469969160594;0.59954833984375;0.186676025390625;0.889999997752966;90;1 A
33.2569969160342;0.599609375;0.18646240234375;0.899999997727718;91;1 A
33.2669969160089;0.599639892578125;0.18603515625;0.909999997702471;92;1 A
33.2769969159837;0.59954833984375;0.1856689453125;0.919999997677223;93;1 A
33.2869969159584;0.59954833984375;0.18511962890625;0.929999997651976;94;1 A
33.2969969159332;0.599609375;0.184722900390625;0.939999997626728;95;1 A
33.3069969159079;0.599517822265625;0.18408203125;0.949999997601481;96;1 A
33.3169969158827;0.599609375;0.183624267578125;0.959999997576233;97;1 A
33.3269969158574;0.599578857421875;0.18292236328125;0.969999997550985;98;1 A
33.3369969158322;0.599609375;0.182525634765625;0.979999997525738;99;1 A
33.3469969158069;0.599578857421875;0.1820068359375;0.98999999750049;100;1 A
33.3569969157817;0.599578857421875;0.181732177734375;0.999999997475243;101;1 A
33.3669969157564;0.599639892578125;0.181182861328125;1.00999999745;102;1 A
33.3769969157312;0.599639892578125;0.180877685546875;1.01999999742475;103;1 A
33.3869969157059;0.599609375;0.180450439453125;1.0299999973995;104;1 A
33.3969969156807;0.599578857421875;0.18023681640625;1.03999999737425;105;1 A
33.4069969156554;0.59954833984375;0.180023193359375;1.049999997349;106;1 A
33.4169969156302;0.59954833984375;0.179840087890625;1.05999999732376;107;1 A
33.4269969156049;0.59954833984375;0.179412841796875;1.06999999729851;108;1 A
33.4369969155797;0.599609375;0.1790771484375;1.07999999727326;109;1 A
33.4469969155545;0.599609375;0.178558349609375;1.08999999724801;110;1 A
33.4569969155292;0.599609375;0.178131103515625;1.09999999722277;111;1 A
33.466996915504;0.599578857421875;0.177703857421875;1.10999999719752;112;1 A
33.4769969154787;0.599578857421875;0.17724609375;1.11999999717227;113;1 A
33.4869969154535;0.599578857421875;0.177032470703125;1.12999999714702;114;1 A
33.4969969154282;0.59954833984375;0.1767578125;1.13999999712178;115;1 A
33.506996915403;0.5994873046875;0.176483154296875;1.14999999709653;116;1 A
33.5169969153777;0.59954833984375;0.17620849609375;1.15999999707128;117;1 A
33.5269969153525;0.599639892578125;0.175811767578125;1.16999999704603;118;1 A
33.5369969153272;0.599609375;0.175689697265625;1.17999999702079;119;1 A
33.546996915302;0.599609375;0.175445556640625;1.18999999699554;120;1 A
33.5569969152767;0.599578857421875;0.17529296875;1.19999999697029;121;1 A
33.5669969152515;0.599578857421875;0.17523193359375;1.20999999694504;122;1 A
33.5769969152262;0.59954833984375;0.1751708984375;1.2199999969198;123;1 A
33.586996915201;0.599609375;0.175048828125;1.22999999689455;124;1 A
33.5969969151757;0.599639892578125;0.175079345703125;1.2399999968693;125;1 A
33.6069969151505;0.599578857421875;0.17486572265625;1.24999999684405;126;1 A
33.6169969151252;0.599609375;0.17486572265625;1.25999999681881;127;1 A
33.6269969151;0.59954833984375;0.174713134765625;1.26999999679356;128;1 A
33.6369969150747;0.599639892578125;0.17474365234375;1.27999999676831;129;1 A
33.6469969150495;0.599609375;0.17486572265625;1.28999999674306;130;1 A
33.6569969150243;0.599578857421875;0.174957275390625;1.29999999671782;131;1 A
33.666996914999;0.599578857421875;0.17486572265625;1.30999999669257;132;1 A
33.6769969149738;0.599578857421875;0.174835205078125;1.31999999666732;133;1 A
33.6869969149485;0.599578857421875;0.1746826171875;1.32999999664207;134;1 A
33.6969969149233;0.599517822265625;0.174713134765625;1.33999999661683;135;1 A
33.706996914898;0.599609375;0.17462158203125;1.34999999659158;136;1 A
33.7169969148728;0.599700927734375;0.17474365234375;1.35999999656633;137;1 A
33.7269969148475;0.59954833984375;0.174774169921875;1.36999999654108;138;1 A
33.7369969148223;0.599609375;0.175048828125;1.37999999651583;139;1 A
33.746996914797;0.599609375;0.175140380859375;1.38999999649059;140;1 A
33.7569969147718;0.59954833984375;0.17523193359375;1.39999999646534;141;1 A
33.7669969147465;0.599578857421875;0.175018310546875;1.40999999644009;142;1 A
33.7769969147213;0.599578857421875;0.1749267578125;1.41999999641484;143;1 A
33.786996914696;0.599578857421875;0.1746826171875;1.4299999963896;144;1 A
33.7969969146708;0.599578857421875;0.174652099609375;1.43999999636435;145;1 A
33.8069969146455;0.59954833984375;0.174652099609375;1.4499999963391;146;1 A
33.8169969146203;0.59954833984375;0.17474365234375;1.45999999631385;147;1 A
33.826996914595;0.59954833984375;0.1746826171875;1.46999999628861;148;1 A
33.8369969145698;0.599578857421875;0.174774169921875;1.47999999626336;149;1 A
33.8469969145445;0.599609375;0.174652099609375;1.48999999623811;150;1 A
33.8569969145193;0.59954833984375;0.17462158203125;1.49999999621286;151;1 A
33.8669969144941;0.599578857421875;0.174407958984375;1.50999999618762;152;1 A
33.8769969144688;0.59954833984375;0.174224853515625;1.51999999616237;153;1 A
33.8869969144436;0.599578857421875;0.174224853515625;1.52999999613712;154;1 A
33.8969969144183;0.599639892578125;0.174224853515625;1.53999999611187;155;1 A
33.9069969143931;0.599578857421875;0.174163818359375;1.54999999608663;156;1 A
33.9169969143678;0.599609375;0.17413330078125;1.55999999606138;157;1 A
33.9269969143426;0.599578857421875;0.173980712890625;1.56999999603613;158;1 A
33.9369969143173;0.599578857421875;0.17401123046875;1.57999999601088;159;1 A
33.9469969142921;0.599609375;0.173919677734375;1.58999999598564;160;1 A
33.9569969142668;0.59954833984375;0.173980712890625;1.59999999596039;161;1 A
33.9669969142416;0.599578857421875;0.1739501953125;1.60999999593514;162;1 A
33.9769969142163;0.599609375;0.173858642578125;1.61999999590989;163;1 A
33.9869969141911;0.599578857421875;0.173675537109375;1.62999999588465;164;1 A
33.9969969141658;0.599609375;0.173675537109375;1.6399999958594;165;1 A
34.0069969141406;0.599517822265625;0.173370361328125;1.64999999583415;166;1 A
34.0169969141153;0.59954833984375;0.1732177734375;1.6599999958089;167;1 A
34.0269969140901;0.599578857421875;0.172882080078125;1.66999999578366;168;1 A
34.0369969140648;0.599578857421875;0.172760009765625;1.67999999575841;169;1 A
34.0469969140396;0.599609375;0.1727294921875;1.68999999573316;170;1 A
34.0569969140143;0.599578857421875;0.1727294921875;1.69999999570791;171;1 A
34.0669969139891;0.599609375;0.17254638671875;1.70999999568267;172;1 A
34.0769969139639;0.599517822265625;0.172515869140625;1.71999999565742;173;1 A
34.0869969139386;0.599609375;0.172332763671875;1.72999999563217;174;1 A
34.0969969139134;0.599639892578125;0.172332763671875;1.73999999560692;175;1 A
34.1069969138881;0.599578857421875;0.172088623046875;1.74999999558167;176;1 A
34.1169969138629;0.599609375;0.172088623046875;1.75999999555643;177;1 A
34.1269969138376;0.59954833984375;0.171875;1.76999999553118;178;1 A
34.1369969138124;0.599578857421875;0.171875;1.77999999550593;179;1 A
34.1469969137871;0.599578857421875;0.17169189453125;1.78999999548068;180;1 A
34.1569969137619;0.59954833984375;0.171600341796875;1.79999999545544;181;1 A
34.1669969137366;0.599609375;0.17120361328125;1.80999999543019;182;1 A
34.1769969137114;0.599609375;0.17095947265625;1.81999999540494;183;1 A
34.1869969136861;0.599578857421875;0.170501708984375;1.82999999537969;184;1 A
34.1969969136609;0.599639892578125;0.17022705078125;1.83999999535445;185;1 A
34.2069969136356;0.59954833984375;0.169952392578125;1.8499999953292;186;1 A
34.2169969136104;0.599578857421875;0.169708251953125;1.85999999530395;187;1 A
34.2269969135851;0.599578857421875;0.169403076171875;1.8699999952787;188;1 A
34.2369969135599;0.599578857421875;0.1693115234375;1.87999999525346;189;1 A
34.2469969135346;0.599639892578125;0.16912841796875;1.88999999522821;190;1 A
34.2569969135094;0.599609375;0.1690673828125;1.89999999520296;191;1 A
34.2669969134841;0.599578857421875;0.16900634765625;1.90999999517771;192;1 A
34.2769969134589;0.599578857421875;0.16888427734375;1.91999999515247;193;1 A
34.2869969134337;0.59954833984375;0.169097900390625;1.92999999512722;194;1 A
34.2969969134084;0.599578857421875;0.169158935546875;1.93999999510197;195;1 A
34.3069969133832;0.599578857421875;0.169158935546875;1.94999999507672;196;1 A
34.3169969133579;0.599578857421875;0.169036865234375;1.95999999505148;197;1 A
34.3269969133327;0.599578857421875;0.16876220703125;1.96999999502623;198;1 A
34.3369969133074;0.599578857421875;0.1685791015625;1.97999999500098;199;1 A
34.3469969132822;0.599578857421875;0.168243408203125;1.98999999497573;200;1 A
34.3569969132569;0.599578857421875;0.167999267578125;1.99999999495049;201;1 A
34.3669969132317;0.599578857421875;0.167724609375;2.00999999492524;202;1 A
34.3769969132064;0.599578857421875;0.167510986328125;2.01999999489999;203;1 A
34.3869969131812;0.59954833984375;0.16729736328125;2.02999999487474;204;1 A
34.3969969131559;0.599609375;0.1673583984375;2.0399999948495;205;1 A
34.4069969131307;0.599517822265625;0.16717529296875;2.04999999482425;206;1 A
34.4169969131054;0.599578857421875;0.167266845703125;2.059999994799;207;1 A
34.4269969130802;0.59954833984375;0.167236328125;2.06999999477375;208;1 A
34.4369969130549;0.599609375;0.1676025390625;2.0799999947485;209;1 A
34.4469969130297;0.599609375;0.16796875;2.08999999472326;210;1 A
34.4569969130044;0.59954833984375;0.16851806640625;2.09999999469801;211;1 A
34.4669969129792;0.599609375;0.168670654296875;2.10999999467276;212;1 A
34.476996912954;0.599578857421875;0.1689453125;2.11999999464751;213;1 A
34.4869969129287;0.599578857421875;0.16888427734375;2.12999999462227;214;1 A
34.4969969129035;0.599578857421875;0.168975830078125;2.13999999459702;215;1 A
34.5069969128782;0.599578857421875;0.168670654296875;2.14999999457177;216;1 A
34.516996912853;0.599578857421875;0.16851806640625;2.15999999454652;217;1 A
34.5269969128277;0.599578857421875;0.168304443359375;2.16999999452128;218;1 A
34.5369969128025;0.599639892578125;0.168243408203125;2.17999999449603;219;1 A
34.5469969127772;0.599578857421875;0.168060302734375;2.18999999447078;220;1 A
34.556996912752;0.599517822265625;0.16796875;2.19999999444553;221;1 A
34.5669969127267;0.599578857421875;0.167724609375;2.20999999442029;222;1 A
34.5769969127015;0.59954833984375;0.167724609375;2.21999999439504;223;1 A
34.5869969126762;0.599578857421875;0.167694091796875;2.22999999436979;224;1 A
34.596996912651;0.599609375;0.167938232421875;2.23999999434454;225;1 A
34.6069969126257;0.599578857421875;0.168243408203125;2.2499999943193;226;1 A
34.6169969126005;0.599609375;0.16845703125;2.25999999429405;227;1 A
34.6269969125752;0.599609375;0.168701171875;2.2699999942688;228;1 A
34.63699691255;0.599609375;0.169097900390625;2.27999999424355;229;1 A
34.6469969125247;0.599609375;0.169342041015625;2.28999999421831;230;1 A
34.6569969124995;0.599578857421875;0.16961669921875;2.29999999419306;231;1 A
34.6669969124742;0.599639892578125;0.169769287109375;2.30999999416781;232;1 A
34.676996912449;0.599578857421875;0.169769287109375;2.31999999414256;233;1 A
34.6869969124238;0.599578857421875;0.1700439453125;2.32999999411732;234;1 A
34.6969969123985;0.599609375;0.17010498046875;2.33999999409207;235;1 A
34.7069969123733;0.599578857421875;0.17022705078125;2.34999999406682;236;1 A
34.716996912348;0.599609375;0.170318603515625;2.35999999404157;237;1 A
34.7269969123228;0.599609375;0.170379638671875;2.36999999401633;238;1 A
34.7369969122975;0.599578857421875;0.170684814453125;2.37999999399108;239;1 A
34.7469969122723;0.59954833984375;0.17083740234375;2.38999999396583;240;1 A
34.756996912247;0.59954833984375;0.171295166015625;2.39999999394058;241;1 A
34.7669969122218;0.599609375;0.171630859375;2.40999999391533;242;1 A
34.7769969121965;0.599517822265625;0.17218017578125;2.41999999389009;243;1 A
34.7869969121713;0.599609375;0.172454833984375;2.42999999386484;244;1 A
34.796996912146;0.599609375;0.1729736328125;2.43999999383959;245;1 A
34.8069969121208;0.599578857421875;0.173004150390625;2.44999999381434;246;1 A
34.8169969120955;0.599578857421875;0.173187255859375;2.4599999937891;247;1 A
34.8269969120703;0.59954833984375;0.173065185546875;2.46999999376385;248;1 A
34.836996912045;0.599609375;0.1732177734375;2.4799999937386;249;1 A
34.8469969120198;0.599578857421875;0.17327880859375;2.48999999371335;250;1 A
34.8569969119945;0.599578857421875;0.173370361328125;2.49999999368811;251;1 A
34.8669969119693;0.599609375;0.173187255859375;2.50999999366286;252;1 A
34.876996911944;0.59954833984375;0.173065185546875;2.51999999363761;253;1 A
34.8869969119188;0.599578857421875;0.1727294921875;2.52999999361236;254;1 A
34.8969969118936;0.599578857421875;0.172454833984375;2.53999999358712;255;1 A
34.9069969118683;0.599609375;0.172088623046875;2.54999999356187;256;1 A
34.9169969118431;0.599609375;0.1717529296875;2.55999999353662;257;1 A
34.9269969118178;0.599578857421875;0.17156982421875;2.56999999351137;258;1 A
34.9369969117926;0.599578857421875;0.171417236328125;2.57999999348613;259;1 A
34.9469969117673;0.599517822265625;0.171234130859375;2.58999999346088;260;1 A
34.9569969117421;0.59954833984375;0.170989990234375;2.59999999343563;261;1 A
34.9669969117168;0.599578857421875;0.170562744140625;2.60999999341038;262;1 A
34.9769969116916;0.599609375;0.17022705078125;2.61999999338514;263;1 A
34.9869969116663;0.599639892578125;0.169921875;2.62999999335989;264;1 A
34.9969969116411;0.599578857421875;0.16973876953125;2.63999999333464;265;1 A
35.0069969116158;0.599517822265625;0.16973876953125;2.64999999330939;266;1 A
35.0169969115906;0.599609375;0.169708251953125;2.65999999328415;267;1 A
35.0269969115653;0.599578857421875;0.16973876953125;2.6699999932589;268;1 A
35.0369969115401;0.599578857421875;0.16998291015625;2.67999999323365;269;1 A
35.0469969115148;0.599761962890625;0.17010498046875;2.6899999932084;270;1 A
35.0569969114896;0.599517822265625;0.1702880859375;2.69999999318316;271;1 A
35.0669969114643;0.599578857421875;0.1702880859375;2.70999999315791;272;1 A
35.0769969114391;0.599578857421875;0.17022705078125;2.71999999313266;273;1 A
35.0869969114138;0.599578857421875;0.170318603515625;2.72999999310741;274;1 A
35.0969969113886;0.599609375;0.17034912109375;2.73999999308217;275;1 A
35.1069969113634;0.599639892578125;0.17022705078125;2.74999999305692;276;1 A
35.1169969113381;0.59967041015625;0.170257568359375;2.75999999303167;277;1 A
35.1269969113129;0.599578857421875;0.170135498046875;2.76999999300642;278;1 A
35.1369969112876;0.599578857421875;0.170257568359375;2.77999999298117;279;1 A
35.1469969112624;0.599517822265625;0.17010498046875;2.78999999295593;280;1 A
35.1569969112371;0.599609375;0.170166015625;2.79999999293068;281;1 A
35.1669969112119;0.599609375;0.169952392578125;2.80999999290543;282;1 A
35.1769969111866;0.599578857421875;0.169921875;2.81999999288018;283;1 A
35.1869969111614;0.59954833984375;0.169586181640625;2.82999999285494;284;1 A
35.1969969111361;0.599578857421875;0.16949462890625;2.83999999282969;285;1 A
35.2069969111109;0.599578857421875;0.168975830078125;2.84999999280444;286;1 A
35.2169969110856;0.59954833984375;0.168731689453125;2.85999999277919;287;1 A
35.2269969110604;0.59954833984375;0.1683349609375;2.86999999275395;288;1 A
35.2369969110351;0.599609375;0.16827392578125;2.8799999927287;289;1 A
35.2469969110099;0.599609375;0.168212890625;2.88999999270345;290;1 A
35.2569969109846;0.599609375;0.1680908203125;2.8999999926782;291;1 A
35.2669969109594;0.5994873046875;0.167724609375;2.90999999265296;292;1 A
35.2769969109341;0.59954833984375;0.16748046875;2.91999999262771;293;1 A
35.2869969109089;0.599639892578125;0.16705322265625;2.92999999260246;294;1 A
35.2969969108836;0.59954833984375;0.16680908203125;2.93999999257721;295;1 A
35.3069969108584;0.599639892578125;0.166473388671875;2.94999999255197;296;1 A
35.3169969108332;0.599609375;0.166229248046875;2.95999999252672;297;1 A
35.3269969108079;0.599609375;0.166351318359375;2.96999999250147;298;1 A
35.3369969107827;0.599609375;0.166534423828125;2.97999999247622;299;1 A
35.3469969107574;0.599578857421875;0.166778564453125;2.98999999245098;300;1 A
35.3569969107322;0.599517822265625;0.1669921875;2.99999999242573;301;1 A
35.3669969107069;0.599609375;0.1669921875;3.00999999240048;302;1 A
35.3769969106817;0.599517822265625;0.167083740234375;3.01999999237523;303;1 A
35.3869969106564;0.599609375;0.167022705078125;3.02999999234999;304;1 A
35.3969969106312;0.599609375;0.16705322265625;3.03999999232474;305;1 A
35.4069969106059;0.599517822265625;0.1671142578125;3.04999999229949;306;1 A
35.4169969105807;0.599517822265625;0.167022705078125;3.05999999227424;307;1 A
35.4269969105554;0.599517822265625;0.166900634765625;3.069999992249;308;1 A
35.4369969105302;0.599578857421875;0.166961669921875;3.07999999222375;309;1 A
35.4469969105049;0.599639892578125;0.166778564453125;3.0899999921985;310;1 A
35.4569969104797;0.599578857421875;0.16680908203125;3.09999999217325;311;1 A
35.4669969104544;0.599609375;0.166748046875;3.109999992148;312;1 A
35.4769969104292;0.59954833984375;0.166961669921875;3.11999999212276;313;1 A
35.4869969104039;0.599578857421875;0.167327880859375;3.12999999209751;314;1 A
35.4969969103787;0.599578857421875;0.167724609375;3.13999999207226;315;1 A
35.5069969103535;0.599578857421875;0.167938232421875;3.14999999204701;316;1 A
35.5169969103282;0.599609375;0.168212890625;3.15999999202177;317;1 A
35.526996910303;0.599517822265625;0.16827392578125;3.16999999199652;318;1 A
35.5369969102777;0.599609375;0.168487548828125;3.17999999197127;319;1 A
35.5469969102525;0.599578857421875;0.168365478515625;3.18999999194602;320;1 A
35.5569969102272;0.599578857421875;0.168609619140625;3.19999999192078;321;1 A
35.566996910202;0.599609375;0.168609619140625;3.20999999189553;322;1 A
35.5769969101767;0.599578857421875;0.16888427734375;3.21999999187028;323;1 A
35.5869969101515;0.599639892578125;0.168914794921875;3.22999999184503;324;1 A
35.5969969101262;0.599578857421875;0.16912841796875;3.23999999181979;325;1 A
35.606996910101;0.599578857421875;0.168914794921875;3.24999999179454;326;1 A
35.6169969100757;0.599609375;0.168975830078125;3.25999999176929;327;1 A
35.6269969100505;0.599609375;0.168792724609375;3.26999999174404;328;1 A
35.6369969100252;0.599578857421875;0.16888427734375;3.2799999917188;329;1 A
35.64699691;0.599578857421875;0.1689453125;3.28999999169355;330;1 A
35.6569969099747;0.599578857421875;0.1690673828125;3.2999999916683;331;1 A
35.6669969099495;0.59954833984375;0.168975830078125;3.30999999164305;332;1 A
35.6769969099242;0.59954833984375;0.169097900390625;3.31999999161781;333;1 A
35.686996909899;0.599639892578125;0.169036865234375;3.32999999159256;334;1 A
35.6969969098737;0.599639892578125;0.169158935546875;3.33999999156731;335;1 A
35.7069969098485;0.599609375;0.169219970703125;3.34999999154206;336;1 A
35.7169969098233;0.599639892578125;0.16925048828125;3.35999999151682;337;1 A
35.726996909798;0.59954833984375;0.169647216796875;3.36999999149157;338;1 A
35.7369969097728;0.599578857421875;0.16998291015625;3.37999999146632;339;1 A
35.7469969097475;0.59954833984375;0.170379638671875;3.38999999144107;340;1 A
35.7569969097223;0.599517822265625;0.170745849609375;3.39999999141583;341;1 A
35.766996909697;0.599578857421875;0.170928955078125;3.40999999139058;342;1 A
35.7769969096718;0.5994873046875;0.17120361328125;3.41999999136533;343;1 A
35.7869969096465;0.599609375;0.17138671875;3.42999999134008;344;1 A
35.7969969096213;0.599578857421875;0.171661376953125;3.43999999131483;345;1 A
35.806996909596;0.599578857421875;0.172088623046875;3.44999999128959;346;1 A
35.8169969095708;0.599578857421875;0.172393798828125;3.45999999126434;347;1 A
35.8269969095455;0.599578857421875;0.17266845703125;3.46999999123909;348;1 A
35.8369969095203;0.599639892578125;0.173004150390625;3.47999999121384;349;1 A
35.846996909495;0.599609375;0.17303466796875;3.4899999911886;350;1 A
35.8569969094698;0.599578857421875;0.173187255859375;3.49999999116335;351;1 A
35.8669969094445;0.599517822265625;0.173126220703125;3.5099999911381;352;1 A
35.8769969094193;0.599578857421875;0.173248291015625;3.51999999111285;353;1 A
35.886996909394;0.599578857421875;0.173492431640625;3.52999999108761;354;1 A
35.8969969093688;0.599609375;0.173675537109375;3.53999999106236;355;1 A
35.9069969093435;0.599609375;0.173736572265625;3.54999999103711;356;1 A
35.9169969093183;0.599639892578125;0.17388916015625;3.55999999101186;357;1 A
35.9269969092931;0.59954833984375;0.173919677734375;3.56999999098662;358;1 A
35.9369969092678;0.599639892578125;0.174163818359375;3.57999999096137;359;1 A
35.9469969092426;0.59954833984375;0.174072265625;3.58999999093612;360;1 A
35.9569969092173;0.59954833984375;0.174285888671875;3.59999999091087;361;1 A
35.9669969091921;0.599639892578125;0.174346923828125;3.60999999088563;362;1 A
35.9769969091668;0.599578857421875;0.1746826171875;3.61999999086038;363;1 A
35.9869969091416;0.599609375;0.174774169921875;3.62999999083513;364;1 A
35.9969969091163;0.59954833984375;0.1749267578125;3.63999999080988;365;1 A
36.0069969090911;0.599517822265625;0.174774169921875;3.64999999078464;366;1 A
36.0169969090658;0.599609375;0.174713134765625;3.65999999075939;367;1 A
36.0269969090406;0.599578857421875;0.1744384765625;3.66999999073414;368;1 A
36.0369969090153;0.599609375;0.174346923828125;3.67999999070889;369;1 A
36.0469969089901;0.599578857421875;0.17413330078125;3.68999999068365;370;1 A
36.0569969089648;0.599609375;0.173980712890625;3.6999999906584;371;1 A
36.0669969089396;0.599609375;0.173614501953125;3.70999999063315;372;1 A
36.0769969089143;0.59954833984375;0.17352294921875;3.7199999906079;373;1 A
36.0869969088891;0.599578857421875;0.173248291015625;3.72999999058266;374;1 A
36.0969969088638;0.59954833984375;0.173126220703125;3.73999999055741;375;1 A
36.1069969088386;0.599639892578125;0.172943115234375;3.74999999053216;376;1 A
36.1169969088133;0.599609375;0.172760009765625;3.75999999050691;377;1 A
36.1269969087881;0.59954833984375;0.17291259765625;3.76999999048167;378;1 A
36.1369969087629;0.599578857421875;0.173065185546875;3.77999999045642;379;1 A
36.1469969087376;0.59954833984375;0.173248291015625;3.78999999043117;380;1 A
36.1569969087124;0.599578857421875;0.173370361328125;3.79999999040592;381;1 A
36.1669969086871;0.599639892578125;0.17327880859375;3.80999999038067;382;1 A
36.1769969086619;0.599639892578125;0.17327880859375;3.81999999035543;383;1 A
36.1869969086366;0.599609375;0.173065185546875;3.82999999033018;384;1 A
36.1969969086114;0.599609375;0.172821044921875;3.83999999030493;385;1 A
36.2069969085861;0.599578857421875;0.17254638671875;3.84999999027968;386;1 A
36.2169969085609;0.59954833984375;0.172088623046875;3.85999999025444;387;1 A
36.2269969085356;0.599578857421875;0.171539306640625;3.86999999022919;388;1 A
36.2369969085104;0.59954833984375;0.171173095703125;3.87999999020394;389;1 A
36.2469969084851;0.599609375;0.1705322265625;3.88999999017869;390;1 A
36.2569969084599;0.599639892578125;0.170135498046875;3.89999999015345;391;1 A
36.2669969084346;0.599609375;0.1695556640625;3.9099999901282;392;1 A
36.2769969084094;0.599578857421875;0.169219970703125;3.91999999010295;393;1 A
36.2869969083841;0.599609375;0.169097900390625;3.9299999900777;394;1 A
36.2969969083589;0.599517822265625;0.16900634765625;3.93999999005246;395;1 A
36.3069969083336;0.599609375;0.16876220703125;3.94999999002721;396;1 A
36.3169969083084;0.599639892578125;0.168670654296875;3.95999999000196;397;1 A
36.3269969082831;0.599578857421875;0.168487548828125;3.96999998997671;398;1 A
36.3369969082579;0.599578857421875;0.168548583984375;3.97999998995147;399;1 A
36.3469969082327;0.599578857421875;0.16827392578125;3.98999998992622;400;1 A
36.3569969082074;0.599578857421875;0.168243408203125;3.99999998990097;401;1 A
36.3669969081822;0.59967041015625;0.16802978515625;4.00999998987572;402;1 A
36.3769969081569;0.599578857421875;0.168060302734375;4.01999998985048;403;1 A
36.3869969081317;0.59967041015625;0.167816162109375;4.02999998982523;404;1 A
36.3969969081064;0.599578857421875;0.16778564453125;4.03999998979998;405;1 A
36.4069969080812;0.59954833984375;0.167449951171875;4.04999998977473;406;1 A
36.4169969080559;0.599609375;0.167449951171875;4.05999998974949;407;1 A
36.4269969080307;0.59954833984375;0.167327880859375;4.06999998972424;408;1 A
36.4369969080054;0.599609375;0.167572021484375;4.07999998969899;409;1 A
36.4469969079802;0.599578857421875;0.167877197265625;4.08999998967374;410;1 A
36.4569969079549;0.599578857421875;0.168182373046875;4.0999999896485;411;1 A
36.4669969079297;0.59954833984375;0.168304443359375;4.10999998962325;412;1 A
36.4769969079044;0.59954833984375;0.1685791015625;4.119999989598;413;1 A
36.4869969078792;0.599578857421875;0.1685791015625;4.12999998957275;414;1 A
36.4969969078539;0.599639892578125;0.168731689453125;4.1399999895475;415;1 A
36.5069969078287;0.599578857421875;0.1688232421875;4.14999998952226;416;1 A
36.5169969078034;0.599609375;0.1688232421875;4.15999998949701;417;1 A
36.5269969077782;0.59954833984375;0.16912841796875;4.16999998947176;418;1 A
36.536996907753;0.59954833984375;0.169219970703125;4.17999998944651;419;1 A
36.5469969077277;0.599578857421875;0.169219970703125;4.18999998942127;420;1 A
36.5569969077025;0.599578857421875;0.16912841796875;4.19999998939602;421;1 A
36.5669969076772;0.59967041015625;0.1689453125;4.20999998937077;422;1 A
36.576996907652;0.59954833984375;0.169036865234375;4.21999998934552;423;1 A
36.5869969076267;0.59967041015625;0.1690673828125;4.22999998932028;424;1 A
36.5969969076015;0.599609375;0.16925048828125;4.23999998929503;425;1 A
36.6069969075762;0.599609375;0.169464111328125;4.24999998926978;426;1 A
36.616996907551;0.599609375;0.169677734375;4.25999998924453;427;1 A
36.6269969075257;0.599578857421875;0.169769287109375;4.26999998921929;428;1 A
36.6369969075005;0.599609375;0.170074462890625;4.27999998919404;429;1 A
36.6469969074752;0.599578857421875;0.170013427734375;4.28999998916879;430;1 A
36.65699690745;0.599578857421875;0.170196533203125;4.29999998914354;431;1 A
36.6669969074247;0.59954833984375;0.170074462890625;4.3099999891183;432;1 A
36.6769969073995;0.59954833984375;0.1702880859375;4.31999998909305;433;1 A
36.6869969073742;0.599609375;0.17047119140625;4.3299999890678;434;1 A
36.696996907349;0.599578857421875;0.170654296875;4.33999998904255;435;1 A
36.7069969073237;0.59967041015625;0.170501708984375;4.34999998901731;436;1 A
36.7169969072985;0.599609375;0.1705322265625;4.35999998899206;437;1 A
36.7269969072732;0.599578857421875;0.17034912109375;4.36999998896681;438;1 A
36.736996907248;0.599609375;0.170440673828125;4.37999998894156;439;1 A
36.7469969072228;0.599609375;0.170318603515625;4.38999998891632;440;1 A
36.7569969071975;0.599578857421875;0.17047119140625;4.39999998889107;441;1 A
36.7669969071723;0.599609375;0.170623779296875;4.40999998886582;442;1 A
36.776996907147;0.599517822265625;0.17095947265625;4.41999998884057;443;1 A
36.7869969071218;0.599639892578125;0.171234130859375;4.42999998881533;444;1 A
36.7969969070965;0.599609375;0.17156982421875;4.43999998879008;445;1 A
36.8069969070713;0.599578857421875;0.171661376953125;4.44999998876483;446;1 A
36.816996907046;0.59954833984375;0.171844482421875;4.45999998873958;447;1 A
36.8269969070208;0.59954833984375;0.17193603515625;4.46999998871433;448;1 A
36.8369969069955;0.599639892578125;0.17205810546875;4.47999998868909;449;1 A
36.8469969069703;0.599609375;0.172210693359375;4.48999998866384;450;1 A
36.856996906945;0.599578857421875;0.172210693359375;4.49999998863859;451;1 A
36.8669969069198;0.599609375;0.17218017578125;4.50999998861334;452;1 A
36.8769969068945;0.599578857421875;0.172271728515625;4.5199999885881;453;1 A
36.8869969068693;0.599609375;0.172271728515625;4.52999998856285;454;1 A
36.896996906844;0.599639892578125;0.172393798828125;4.5399999885376;455;1 A
36.9069969068188;0.599609375;0.1724853515625;4.54999998851235;456;1 A
36.9169969067935;0.599517822265625;0.1724853515625;4.55999998848711;457;1 A
36.9269969067683;0.599609375;0.17279052734375;4.56999998846186;458;1 A
36.936996906743;0.599517822265625;0.17303466796875;4.57999998843661;459;1 A
36.9469969067178;0.599609375;0.1732177734375;4.58999998841136;460;1 A
36.9569969066926;0.599609375;0.173431396484375;4.59999998838612;461;1 A
36.9669969066673;0.59967041015625;0.1734619140625;4.60999998836087;462;1 A
36.9769969066421;0.59954833984375;0.1737060546875;4.61999998833562;463;1 A
36.9869969066168;0.599609375;0.1737060546875;4.62999998831037;464;1 A
36.9969969065916;0.599609375;0.173828125;4.63999998828513;465;1 A
37.0069969065663;0.599578857421875;0.173797607421875;4.64999998825988;466;1 A
37.0169969065411;0.59954833984375;0.173828125;4.65999998823463;467;1 A
37.0269969065158;0.59954833984375;0.173675537109375;4.66999998820938;468;1 A
37.0369969064906;0.599639892578125;0.1737060546875;4.67999998818414;469;1 A
37.0469969064653;0.59954833984375;0.173309326171875;4.68999998815889;470;1 A
37.0569969064401;0.59954833984375;0.173126220703125;4.69999998813364;471;1 A
37.0669969064148;0.599578857421875;0.172698974609375;4.70999998810839;472;1 A
37.0769969063896;0.599609375;0.172576904296875;4.71999998808315;473;1 A
37.0869969063643;0.59967041015625;0.172454833984375;4.7299999880579;474;1 A
37.0969969063391;0.599578857421875;0.172515869140625;4.73999998803265;475;1 A
37.1069969063138;0.599639892578125;0.17242431640625;4.7499999880074;476;1 A
37.1169969062886;0.599609375;0.172454833984375;4.75999998798216;477;1 A
37.1269969062633;0.599578857421875;0.172271728515625;4.76999998795691;478;1 A
37.1369969062381;0.599639892578125;0.1722412109375;4.77999998793166;479;1 A
37.1469969062128;0.599517822265625;0.1719970703125;4.78999998790641;480;1 A
37.1569969061876;0.599609375;0.17181396484375;4.79999998788116;481;1 A
37.1669969061624;0.599639892578125;0.171630859375;4.80999998785592;482;1 A
37.1769969061371;0.599578857421875;0.171478271484375;4.81999998783067;483;1 A
37.1869969061119;0.599639892578125;0.171234130859375;4.82999998780542;484;1 A
37.1969969060866;0.599609375;0.17095947265625;4.83999998778017;485;1 A
37.2069969060614;0.59954833984375;0.170562744140625;4.84999998775493;486;1 A
37.2169969060361;0.599609375;0.17034912109375;4.85999998772968;487;1 A
37.2269969060109;0.599578857421875;0.170135498046875;4.86999998770443;488;1 A
37.2369969059856;0.599578857421875;0.17010498046875;4.87999998767918;489;1 A
37.2469969059604;0.599609375;0.170196533203125;4.88999998765394;490;1 A
37.2569969059351;0.599578857421875;0.170257568359375;4.89999998762869;491;1 A
37.2669969059099;0.59954833984375;0.170196533203125;4.90999998760344;492;1 A
37.2769969058846;0.59954833984375;0.170379638671875;4.91999998757819;493;1 A
37.2869969058594;0.599639892578125;0.170318603515625;4.92999998755295;494;1 A
37.2969969058341;0.599609375;0.17041015625;4.9399999875277;495;1 A
37.3069969058089;0.599609375;0.17041015625;4.94999998750245;496;1 A
37.3169969057836;0.599578857421875;0.170440673828125;4.9599999874772;497;1 A
37.3269969057584;0.599609375;0.170654296875;4.96999998745196;498;1 A
37.3369969057331;0.59954833984375;0.170745849609375;4.97999998742671;499;1 A
37.3469969057079;0.599578857421875;0.17071533203125;4.98999998740146;500;1 A
37.3569969056826;0.599639892578125;0.170654296875;4.99999998737621;501;1 A
37.3669969056574;0.599609375;0.170440673828125;5.00999998735097;502;1 A
37.3769969056322;0.599609375;0.17047119140625;5.01999998732572;503;1 A
37.3869969056069;0.599578857421875;0.17034912109375;5.02999998730047;504;1 A
37.3969969055817;0.599578857421875;0.17047119140625;5.03999998727522;505;1 A
37.4069969055564;0.59967041015625;0.1705322265625;5.04999998724998;506;1 A
37.4169969055312;0.599578857421875;0.170745849609375;5.05999998722473;507;1 A
37.4269969055059;0.599639892578125;0.170928955078125;5.06999998719948;508;1 A
37.4369969054807;0.599609375;0.17132568359375;5.07999998717423;509;1 A
37.4469969054554;0.599517822265625;0.17144775390625;5.08999998714899;510;1 A
37.4569969054302;0.599578857421875;0.17169189453125;5.09999998712374;511;1 A
37.4669969054049;0.599578857421875;0.171661376953125;5.10999998709849;512;1 A
37.4769969053797;0.599578857421875;0.17193603515625;5.11999998707324;513;1 A
37.4869969053544;0.599639892578125;0.17205810546875;5.129999987048;514;1 A
37.4969969053292;0.599639892578125;0.172088623046875;5.13999998702275;515;1 A
37.5069969053039;0.599639892578125;0.171875;5.1499999869975;516;1 A
37.5169969052787;0.599578857421875;0.171722412109375;5.15999998697225;517;1 A
37.5269969052534;0.599578857421875;0.17144775390625;5.169999986947;518;1 A
37.5369969052282;0.599609375;0.17138671875;5.17999998692176;519;1 A
37.5469969052029;0.59954833984375;0.1712646484375;5.18999998689651;520;1 A
37.5569969051777;0.599609375;0.171356201171875;5.19999998687126;521;1 A
37.5669969051525;0.599609375;0.171661376953125;5.20999998684601;522;1 A
37.5769969051272;0.599639892578125;0.172149658203125;5.21999998682077;523;1 A
37.586996905102;0.59954833984375;0.17266845703125;5.22999998679552;524;1 A
37.5969969050767;0.599609375;0.173187255859375;5.23999998677027;525;1 A
37.6069969050515;0.599609375;0.17352294921875;5.24999998674502;526;1 A
37.6169969050262;0.599639892578125;0.1739501953125;5.25999998671978;527;1 A
37.626996905001;0.59954833984375;0.174224853515625;5.26999998669453;528;1 A
37.6369969049757;0.599609375;0.17449951171875;5.27999998666928;529;1 A
37.6469969049505;0.599578857421875;0.174713134765625;5.28999998664403;530;1 A
37.6569969049252;0.599517822265625;0.174713134765625;5.29999998661879;531;1 A
37.6669969049;0.599609375;0.17462158203125;5.30999998659354;532;1 A
37.6769969048747;0.599578857421875;0.1746826171875;5.31999998656829;533;1 A
37.6869969048495;0.599609375;0.174560546875;5.32999998654304;534;1 A
37.6969969048242;0.599609375;0.174560546875;5.3399999865178;535;1 A
37.706996904799;0.599609375;0.174591064453125;5.34999998649255;536;1 A
37.7169969047737;0.599578857421875;0.174713134765625;5.3599999864673;537;1 A
37.7269969047485;0.599609375;0.175140380859375;5.36999998644205;538;1 A
37.7369969047232;0.599578857421875;0.175537109375;5.37999998641681;539;1 A
37.746996904698;0.599609375;0.1759033203125;5.38999998639156;540;1 A
37.7569969046727;0.599609375;0.17633056640625;5.39999998636631;541;1 A
37.7669969046475;0.599578857421875;0.17645263671875;5.40999998634106;542;1 A
37.7769969046223;0.599639892578125;0.176788330078125;5.41999998631582;543;1 A
37.786996904597;0.599578857421875;0.17681884765625;5.42999998629057;544;1 A
37.7969969045718;0.599578857421875;0.1771240234375;5.43999998626532;545;1 A
37.8069969045465;0.599578857421875;0.177093505859375;5.44999998624007;546;1 A
37.8169969045213;0.59954833984375;0.17724609375;5.45999998621483;547;1 A
37.826996904496;0.599609375;0.17724609375;5.46999998618958;548;1 A
37.8369969044708;0.599609375;0.177276611328125;5.47999998616433;549;1 A
37.8469969044455;0.599609375;0.17681884765625;5.48999998613908;550;1 A
37.8569969044203;0.599639892578125;0.176605224609375;5.49999998611383;551;1 A
37.866996904395;0.59954833984375;0.176177978515625;5.50999998608859;552;1 A
37.8769969043698;0.599609375;0.176116943359375;5.51999998606334;553;1 A
37.8869969043445;0.599639892578125;0.176025390625;5.52999998603809;554;1 A
37.8969969043193;0.599609375;0.175994873046875;5.53999998601284;555;1 A
37.906996904294;0.599639892578125;0.17572021484375;5.5499999859876;556;1 A
37.9169969042688;0.599609375;0.17559814453125;5.55999998596235;557;1 A
37.9269969042435;0.599609375;0.17523193359375;5.5699999859371;558;1 A
37.9369969042183;0.599578857421875;0.175018310546875;5.57999998591185;559;1 A
37.946996904193;0.59954833984375;0.174652099609375;5.58999998588661;560;1 A
37.9569969041678;0.599639892578125;0.174346923828125;5.59999998586136;561;1 A
37.9669969041425;0.599609375;0.17413330078125;5.60999998583611;562;1 A
37.9769969041173;0.59954833984375;0.17388916015625;5.61999998581086;563;1 A
37.9869969040921;0.59954833984375;0.17364501953125;5.62999998578562;564;1 A
37.9969969040668;0.599609375;0.17340087890625;5.63999998576037;565;1 A
38.0069969040416;0.599639892578125;0.172943115234375;5.64999998573512;566;1 A
38.0169969040163;0.599578857421875;0.17266845703125;5.65999998570987;567;1 A
38.0269969039911;0.599609375;0.17236328125;5.66999998568463;568;1 A
38.0369969039658;0.599609375;0.1722412109375;5.67999998565938;569;1 A
38.0469969039406;0.599609375;0.172271728515625;5.68999998563413;570;1 A
38.0569969039153;0.599578857421875;0.172271728515625;5.69999998560888;571;1 A
38.0669969038901;0.599639892578125;0.172393798828125;5.70999998558364;572;1 A
38.0769969038648;0.599700927734375;0.172698974609375;5.71999998555839;573;1 A
38.0869969038396;0.59967041015625;0.17279052734375;5.72999998553314;574;1 A
38.0969969038143;0.599639892578125;0.173004150390625;5.73999998550789;575;1 A
38.1069969037891;0.599639892578125;0.173065185546875;5.74999998548265;576;1 A
38.1169969037638;0.599517822265625;0.173248291015625;5.7599999854574;577;1 A
38.1269969037386;0.599578857421875;0.17352294921875;5.76999998543215;578;1 A
38.1369969037133;0.599639892578125;0.173736572265625;5.7799999854069;579;1 A
38.1469969036881;0.599609375;0.1737060546875;5.78999998538166;580;1 A
38.1569969036628;0.599639892578125;0.173675537109375;5.79999998535641;581;1 A
38.1669969036376;0.59954833984375;0.173309326171875;5.80999998533116;582;1 A
38.1769969036123;0.59954833984375;0.173095703125;5.81999998530591;583;1 A
38.1869969035871;0.599578857421875;0.172637939453125;5.82999998528066;584;1 A
38.1969969035619;0.599609375;0.17242431640625;5.83999998525542;585;1 A
38.2069969035366;0.599609375;0.172027587890625;5.84999998523017;586;1 A
38.2169969035114;0.599578857421875;0.171875;5.85999998520492;587;1 A
38.2269969034861;0.599609375;0.171630859375;5.86999998517967;588;1 A
38.2369969034609;0.59954833984375;0.17156982421875;5.87999998515443;589;1 A
38.2469969034356;0.59954833984375;0.171142578125;5.88999998512918;590;1 A
38.2569969034104;0.59967041015625;0.1710205078125;5.89999998510393;591;1 A
38.2669969033851;0.599609375;0.170745849609375;5.90999998507868;592;1 A
38.2769969033599;0.599609375;0.1707763671875;5.91999998505344;593;1 A
38.2869969033346;0.599578857421875;0.17071533203125;5.92999998502819;594;1 A
38.2969969033094;0.599609375;0.1707763671875;5.93999998500294;595;1 A
38.3069969032841;0.599609375;0.170684814453125;5.94999998497769;596;1 A
38.3169969032589;0.5994873046875;0.170684814453125;5.95999998495245;597;1 A
38.3269969032336;0.599609375;0.17041015625;5.9699999849272;598;1 A
38.3369969032084;0.599700927734375;0.1702880859375;5.97999998490195;599;1 A
38.3469969031831;0.599639892578125;0.170196533203125;5.9899999848767;600;1 A
38.3569969031579;0.599609375;0.170013427734375;5.99999998485146;601;1 A
38.3669969031326;0.599517822265625;0.1700439453125;6.00999998482621;602;1 A
38.3769969031074;0.599609375;0.1700439453125;6.01999998480096;603;1 A
38.3869969030821;0.599578857421875;0.17010498046875;6.02999998477571;604;1 A
38.3969969030569;0.59954833984375;0.17010498046875;6.03999998475047;605;1 A
38.4069969030317;0.599609375;0.16998291015625;6.04999998472522;606;1 A
38.4169969030064;0.599639892578125;0.16998291015625;6.05999998469997;607;1 A
38.4269969029812;0.599639892578125;0.169921875;6.06999998467472;608;1 A
38.4369969029559;0.599609375;0.169952392578125;6.07999998464948;609;1 A
38.4469969029307;0.599609375;0.16998291015625;6.08999998462423;610;1 A
38.4569969029054;0.599609375;0.169921875;6.09999998459898;611;1 A
38.4669969028802;0.599609375;0.169830322265625;6.10999998457373;612;1 A
38.4769969028549;0.599578857421875;0.169921875;6.11999998454849;613;1 A
38.4869969028297;0.599639892578125;0.169677734375;6.12999998452324;614;1 A
38.4969969028044;0.599639892578125;0.16961669921875;6.13999998449799;615;1 A
38.5069969027792;0.599639892578125;0.16925048828125;6.14999998447274;616;1 A
38.5169969027539;0.599578857421875;0.169158935546875;6.1599999844475;617;1 A
38.5269969027287;0.59967041015625;0.16900634765625;6.16999998442225;618;1 A
38.5369969027034;0.59954833984375;0.16888427734375;6.179999984397;619;1 A
38.5469969026782;0.59967041015625;0.16851806640625;6.18999998437175;620;1 A
38.5569969026529;0.599609375;0.1683349609375;6.1999999843465;621;1 A
38.5669969026277;0.599578857421875;0.167877197265625;6.20999998432126;622;1 A
38.5769969026024;0.599609375;0.16778564453125;6.21999998429601;623;1 A
38.5869969025772;0.599578857421875;0.16748046875;6.22999998427076;624;1 A
38.596996902552;0.599639892578125;0.167572021484375;6.23999998424551;625;1 A
38.6069969025267;0.599639892578125;0.167633056640625;6.24999998422027;626;1 A
38.6169969025015;0.599609375;0.16802978515625;6.25999998419502;627;1 A
38.6269969024762;0.599639892578125;0.16839599609375;6.26999998416977;628;1 A
38.636996902451;0.599609375;0.16876220703125;6.27999998414452;629;1 A
38.6469969024257;0.599609375;0.168670654296875;6.28999998411928;630;1 A
38.6569969024005;0.59967041015625;0.168853759765625;6.29999998409403;631;1 A
38.6669969023752;0.599609375;0.168853759765625;6.30999998406878;632;1 A
38.67699690235;0.599639892578125;0.169097900390625;6.31999998404353;633;1 A
38.6869969023247;0.599639892578125;0.1693115234375;6.32999998401829;634;1 A
38.6969969022995;0.599578857421875;0.169403076171875;6.33999998399304;635;1 A
38.7069969022742;0.599609375;0.16943359375;6.34999998396779;636;1 A
38.716996902249;0.59954833984375;0.16949462890625;6.35999998394254;637;1 A
38.7269969022237;0.599578857421875;0.16937255859375;6.3699999839173;638;1 A
38.7369969021985;0.599609375;0.1693115234375;6.37999998389205;639;1 A
38.7469969021732;0.599609375;0.169219970703125;6.3899999838668;640;1 A
38.756996902148;0.59954833984375;0.16912841796875;6.39999998384155;641;1 A
38.7669969021227;0.599639892578125;0.169281005859375;6.40999998381631;642;1 A
38.7769969020975;0.59954833984375;0.169403076171875;6.41999998379106;643;1 A
38.7869969020722;0.599578857421875;0.16943359375;6.42999998376581;644;1 A
38.796996902047;0.599639892578125;0.16949462890625;6.43999998374056;645;1 A
38.8069969020218;0.599639892578125;0.1693115234375;6.44999998371532;646;1 A
38.8169969019965;0.599609375;0.169342041015625;6.45999998369007;647;1 A
38.8269969019713;0.599609375;0.169189453125;6.46999998366482;648;1 A
38.836996901946;0.599578857421875;0.169281005859375;6.47999998363957;649;1 A
38.8469969019208;0.599578857421875;0.16937255859375;6.48999998361433;650;1 A
38.8569969018955;0.599578857421875;0.169525146484375;6.49999998358908;651;1 A
38.8669969018703;0.599639892578125;0.169677734375;6.50999998356383;652;1 A
38.876996901845;0.59967041015625;0.169952392578125;6.51999998353858;653;1 A
38.8869969018198;0.599578857421875;0.169891357421875;6.52999998351333;654;1 A
38.8969969017945;0.59954833984375;0.170013427734375;6.53999998348809;655;1 A
38.9069969017693;0.599578857421875;0.169891357421875;6.54999998346284;656;1 A
38.916996901744;0.599578857421875;0.170013427734375;6.55999998343759;657;1 A
38.9269969017188;0.599639892578125;0.170135498046875;6.56999998341234;658;1 A
38.9369969016935;0.599578857421875;0.17022705078125;6.5799999833871;659;1 A
38.9469969016683;0.599639892578125;0.17010498046875;6.58999998336185;660;1 A
38.956996901643;0.59954833984375;0.170074462890625;6.5999999833366;661;1 A
38.9669969016178;0.599639892578125;0.16986083984375;6.60999998331135;662;1 A
38.9769969015925;0.599609375;0.1697998046875;6.61999998328611;663;1 A
38.9869969015673;0.599609375;0.169586181640625;6.62999998326086;664;1 A
38.996996901542;0.599578857421875;0.16949462890625;6.63999998323561;665;1 A
39.0069969015168;0.599578857421875;0.16943359375;6.64999998321036;666;1 A
39.0169969014916;0.59954833984375;0.1695556640625;6.65999998318512;667;1 A
39.0269969014663;0.599578857421875;0.169647216796875;6.66999998315987;668;1 A
39.0369969014411;0.599578857421875;0.16973876953125;6.67999998313462;669;1 A
39.0469969014158;0.59954833984375;0.1695556640625;6.68999998310937;670;1 A
39.0569969013906;0.599639892578125;0.16949462890625;6.69999998308413;671;1 A
39.0669969013653;0.59954833984375;0.169342041015625;6.70999998305888;672;1 A
39.0769969013401;0.599609375;0.16943359375;6.71999998303363;673;1 A
39.0869969013148;0.599578857421875;0.169525146484375;6.72999998300838;674;1 A
39.0969969012896;0.599578857421875;0.169647216796875;6.73999998298314;675;1 A
39.1069969012643;0.59954833984375;0.16973876953125;6.74999998295789;676;1 A
39.1169969012391;0.599609375;0.169891357421875;6.75999998293264;677;1 A
39.1269969012138;0.599639892578125;0.169708251953125;6.76999998290739;678;1 A
39.1369969011886;0.59954833984375;0.16961669921875;6.77999998288215;679;1 A
39.1469969011633;0.599578857421875;0.16937255859375;6.7899999828569;680;1 A
39.1569969011381;0.59954833984375;0.169189453125;6.79999998283165;681;1 A
39.1669969011128;0.599578857421875;0.169281005859375;6.8099999828064;682;1 A
39.1769969010876;0.59954833984375;0.169464111328125;6.81999998278116;683;1 A
39.1869969010623;0.599578857421875;0.169647216796875;6.82999998275591;684;1 A
39.1969969010371;0.59967041015625;0.169952392578125;6.83999998273066;685;1 A
39.2069969010118;0.599609375;0.170074462890625;6.84999998270541;686;1 A
39.2169969009866;0.599639892578125;0.17047119140625;6.85999998268016;687;1 A
39.2269969009614;0.599578857421875;0.170684814453125;6.86999998265492;688;1 A
39.2369969009361;0.59954833984375;0.171112060546875;6.87999998262967;689;1 A
39.2469969009109;0.599609375;0.171417236328125;6.88999998260442;690;1 A
39.2569969008856;0.59954833984375;0.17181396484375;6.89999998257917;691;1 A
39.2669969008604;0.59967041015625;0.172119140625;6.90999998255393;692;1 A
39.2769969008351;0.599609375;0.1724853515625;6.91999998252868;693;1 A
39.2869969008099;0.599578857421875;0.172454833984375;6.92999998250343;694;1 A
39.2969969007846;0.599609375;0.172515869140625;6.93999998247818;695;1 A
39.3069969007594;0.59954833984375;0.1722412109375;6.94999998245294;696;1 A
39.3169969007341;0.599639892578125;0.172210693359375;6.95999998242769;697;1 A
39.3269969007089;0.599639892578125;0.172149658203125;6.96999998240244;698;1 A
39.3369969006836;0.599639892578125;0.172088623046875;6.97999998237719;699;1 A
39.3469969006584;0.599609375;0.171905517578125;6.98999998235195;700;1 A
39.3569969006331;0.599578857421875;0.17181396484375;6.9999999823267;701;1 A
39.3669969006079;0.599578857421875;0.171600341796875;7.00999998230145;702;1 A
39.3769969005826;0.599609375;0.17156982421875;7.0199999822762;703;1 A
39.3869969005574;0.599639892578125;0.17138671875;7.02999998225096;704;1 A
39.3969969005321;0.599609375;0.17138671875;7.03999998222571;705;1 A
39.4069969005069;0.599609375;0.171417236328125;7.04999998220046;706;1 A
39.4169969004816;0.599578857421875;0.171630859375;7.05999998217521;707;1 A
39.4269969004564;0.599609375;0.171783447265625;7.06999998214997;708;1 A
39.4369969004312;0.599639892578125;0.171905517578125;7.07999998212472;709;1 A
39.4469969004059;0.599639892578125;0.171722412109375;7.08999998209947;710;1 A
39.4569969003807;0.599639892578125;0.17169189453125;7.09999998207422;711;1 A
39.4669969003554;0.599639892578125;0.171539306640625;7.10999998204898;712;1 A
39.4769969003302;0.599609375;0.171478271484375;7.11999998202373;713;1 A
39.4869969003049;0.599578857421875;0.17144775390625;7.12999998199848;714;1 A
39.4969969002797;0.599609375;0.1712646484375;7.13999998197323;715;1 A
39.5069969002544;0.599578857421875;0.171051025390625;7.14999998194799;716;1 A
39.5169969002292;0.599578857421875;0.170928955078125;7.15999998192274;717;1 A
39.5269969002039;0.599609375;0.170623779296875;7.16999998189749;718;1 A
39.5369969001787;0.599639892578125;0.17041015625;7.17999998187224;719;1 A
39.5469969001534;0.599578857421875;0.170196533203125;7.189999981847;720;1 A
39.5569969001282;0.59954833984375;0.16998291015625;7.19999998182175;721;1 A
39.5669969001029;0.599609375;0.169952392578125;7.2099999817965;722;1 A
39.5769969000777;0.599609375;0.169891357421875;7.21999998177125;723;1 A
39.5869969000524;0.599639892578125;0.16973876953125;7.229999981746;724;1 A
39.5969969000272;0.599609375;0.16961669921875;7.23999998172076;725;1 A
39.6069969000019;0.59954833984375;0.1693115234375;7.24999998169551;726;1 A
39.6169968999767;0.599609375;0.16925048828125;7.25999998167026;727;1 A
39.6269968999515;0.599578857421875;0.1689453125;7.26999998164501;728;1 A
39.6369968999262;0.599578857421875;0.16888427734375;7.27999998161977;729;1 A
39.646996899901;0.599639892578125;0.168701171875;7.28999998159452;730;1 A
39.6569968998757;0.599578857421875;0.168701171875;7.29999998156927;731;1 A
39.6669968998505;0.599639892578125;0.168548583984375;7.30999998154402;732;1 A
39.6769968998252;0.599609375;0.168609619140625;7.31999998151878;733;1 A
39.6869968998;0.59954833984375;0.16827392578125;7.32999998149353;734;1 A
39.6969968997747;0.599609375;0.168212890625;7.33999998146828;735;1 A
39.7069968997495;0.599578857421875;0.167816162109375;7.34999998144303;736;1 A
39.7169968997242;0.599578857421875;0.1678466796875;7.35999998141779;737;1 A
39.726996899699;0.59954833984375;0.167816162109375;7.36999998139254;738;1 A
39.7369968996737;0.599517822265625;0.167938232421875;7.37999998136729;739;1 A
39.7469968996485;0.599639892578125;0.16778564453125;7.38999998134204;740;1 A
39.7569968996232;0.599609375;0.167877197265625;7.3999999813168;741;1 A
39.766996899598;0.599639892578125;0.167755126953125;7.40999998129155;742;1 A
39.7769968995727;0.599609375;0.167816162109375;7.4199999812663;743;1 A
39.7869968995475;0.599639892578125;0.167755126953125;7.42999998124105;744;1 A
39.7969968995222;0.599609375;0.167816162109375;7.43999998121581;745;1 A
39.806996899497;0.599609375;0.168060302734375;7.44999998119056;746;1 A
39.8169968994717;0.59954833984375;0.168365478515625;7.45999998116531;747;1 A
39.8269968994465;0.59954833984375;0.168701171875;7.46999998114006;748;1 A
39.8369968994213;0.599609375;0.168914794921875;7.47999998111482;749;1 A
39.846996899396;0.599639892578125;0.168914794921875;7.48999998108957;750;1 A
39.8569968993708;0.599639892578125;0.168975830078125;7.49999998106432;751;1 A
39.8669968993455;0.599639892578125;0.168914794921875;7.50999998103907;752;1 A
39.8769968993203;0.599578857421875;0.168914794921875;7.51999998101383;753;1 A
39.886996899295;0.599578857421875;0.169036865234375;7.52999998098858;754;1 A
39.8969968992698;0.599609375;0.169097900390625;7.53999998096333;755;1 A
39.9069968992445;0.599609375;0.169281005859375;7.54999998093808;756;1 A
39.9169968992193;0.599578857421875;0.169525146484375;7.55999998091283;757;1 A
39.926996899194;0.599578857421875;0.16961669921875;7.56999998088759;758;1 A
39.9369968991688;0.599609375;0.16973876953125;7.57999998086234;759;1 A
39.9469968991435;0.599639892578125;0.1697998046875;7.58999998083709;760;1 A
39.9569968991183;0.599578857421875;0.16986083984375;7.59999998081184;761;1 A
39.966996899093;0.599639892578125;0.170196533203125;7.6099999807866;762;1 A
39.9769968990678;0.59954833984375;0.1705322265625;7.61999998076135;763;1 A
39.9869968990425;0.59967041015625;0.170745849609375;7.6299999807361;764;1 A
39.9969968990173;0.599609375;0.1710205078125;7.63999998071085;765;1 A
40.006996898992;0.599609375;0.1710205078125;7.64999998068561;766;1 A
40.0169968989668;0.599639892578125;0.17120361328125;7.65999998066036;767;1 A
40.0269968989415;0.599609375;0.17095947265625;7.66999998063511;768;1 A
40.0369968989163;0.599578857421875;0.17095947265625;7.67999998060986;769;1 A
40.0469968988911;0.599639892578125;0.170745849609375;7.68999998058462;770;1 A
40.0569968988658;0.599609375;0.170867919921875;7.69999998055937;771;1 A
40.0669968988406;0.599609375;0.17083740234375;7.70999998053412;772;1 A
40.0769968988153;0.59954833984375;0.171112060546875;7.71999998050887;773;1 A
40.0869968987901;0.599639892578125;0.170989990234375;7.72999998048363;774;1 A
40.0969968987648;0.599609375;0.171173095703125;7.73999998045838;775;1 A
40.1069968987396;0.599609375;0.171142578125;7.74999998043313;776;1 A
40.1169968987143;0.599609375;0.171478271484375;7.75999998040788;777;1 A
40.1269968986891;0.599578857421875;0.1717529296875;7.76999998038264;778;1 A
40.1369968986638;0.599578857421875;0.172210693359375;7.77999998035739;779;1 A
40.1469968986386;0.599609375;0.172393798828125;7.78999998033214;780;1 A
40.1569968986133;0.599578857421875;0.172698974609375;7.79999998030689;781;1 A
40.1669968985881;0.59967041015625;0.172698974609375;7.80999998028165;782;1 A
40.1769968985628;0.599609375;0.17279052734375;7.8199999802564;783;1 A
40.1869968985376;0.599639892578125;0.172760009765625;7.82999998023115;784;1 A
40.1969968985123;0.599609375;0.172698974609375;7.8399999802059;785;1 A
40.2069968984871;0.599578857421875;0.172760009765625;7.84999998018066;786;1 A
40.2169968984618;0.599578857421875;0.172821044921875;7.85999998015541;787;1 A
40.2269968984366;0.599639892578125;0.172821044921875;7.86999998013016;788;1 A
40.2369968984113;0.599639892578125;0.1727294921875;7.87999998010491;789;1 A
40.2469968983861;0.599639892578125;0.172454833984375;7.88999998007966;790;1 A
40.2569968983609;0.599578857421875;0.17236328125;7.89999998005442;791;1 A
40.2669968983356;0.599578857421875;0.172271728515625;7.90999998002917;792;1 A
40.2769968983104;0.59954833984375;0.172271728515625;7.91999998000392;793;1 A
40.2869968982851;0.599578857421875;0.1724853515625;7.92999997997867;794;1 A
40.2969968982599;0.599578857421875;0.172637939453125;7.93999997995343;795;1 A
40.3069968982346;0.599639892578125;0.1728515625;7.94999997992818;796;1 A
40.3169968982094;0.599609375;0.173126220703125;7.95999997990293;797;1 A
40.3269968981841;0.599639892578125;0.173187255859375;7.96999997987768;798;1 A
40.3369968981589;0.59954833984375;0.173370361328125;7.97999997985244;799;1 A
40.3469968981336;0.599578857421875;0.173309326171875;7.98999997982719;800;1 A
40.3569968981084;0.599578857421875;0.173370361328125;7.99999997980194;801;1 A
40.3669968980831;0.599639892578125;0.173553466796875;8.00999997977669;802;1 A
40.3769968980579;0.599609375;0.17376708984375;8.01999997975145;803;1 A
40.3869968980326;0.599639892578125;0.173736572265625;8.0299999797262;804;1 A
40.3969968980074;0.599578857421875;0.173797607421875;8.03999997970095;805;1 A
40.4069968979821;0.599517822265625;0.173583984375;8.0499999796757;806;1 A
40.4169968979569;0.599578857421875;0.173614501953125;8.05999997965046;807;1 A
40.4269968979316;0.59954833984375;0.17340087890625;8.06999997962521;808;1 A
40.4369968979064;0.59967041015625;0.1734619140625;8.07999997959996;809;1 A
40.4469968978811;0.599609375;0.173370361328125;8.08999997957471;810;1 A
40.4569968978559;0.599609375;0.173583984375;8.09999997954947;811;1 A
40.4669968978307;0.599578857421875;0.173614501953125;8.10999997952422;812;1 A
40.4769968978054;0.599578857421875;0.17376708984375;8.11999997949897;813;1 A
40.4869968977802;0.599609375;0.173370361328125;8.12999997947372;814;1 A
40.4969968977549;0.599639892578125;0.17327880859375;8.13999997944848;815;1 A
40.5069968977297;0.599639892578125;0.1729736328125;8.14999997942323;816;1 A
40.5169968977044;0.599517822265625;0.172943115234375;8.15999997939798;817;1 A
40.5269968976792;0.599578857421875;0.172882080078125;8.16999997937273;818;1 A
40.5369968976539;0.599639892578125;0.17291259765625;8.17999997934749;819;1 A
40.5469968976287;0.599578857421875;0.1727294921875;8.18999997932224;820;1 A
40.5569968976034;0.599578857421875;0.17266845703125;8.19999997929699;821;1 A
40.5669968975782;0.599609375;0.17242431640625;8.20999997927174;822;1 A
40.5769968975529;0.599578857421875;0.17242431640625;8.2199999792465;823;1 A
40.5869968975277;0.599639892578125;0.17236328125;8.22999997922125;824;1 A
40.5969968975024;0.599609375;0.172393798828125;8.239999979196;825;1 A
40.6069968974772;0.599578857421875;0.17266845703125;8.24999997917075;826;1 A
40.6169968974519;0.599609375;0.1729736328125;8.2599999791455;827;1 A
40.6269968974267;0.599609375;0.1732177734375;8.26999997912026;828;1 A
40.6369968974014;0.599639892578125;0.173370361328125;8.27999997909501;829;1 A
40.6469968973762;0.599639892578125;0.17327880859375;8.28999997906976;830;1 A
40.656996897351;0.599639892578125;0.173431396484375;8.29999997904451;831;1 A
40.6669968973257;0.599578857421875;0.1734619140625;8.30999997901927;832;1 A
40.6769968973005;0.59954833984375;0.17364501953125;8.31999997899402;833;1 A
40.6869968972752;0.599578857421875;0.173919677734375;8.32999997896877;834;1 A
40.69699689725;0.599578857421875;0.174163818359375;8.33999997894352;835;1 A
40.7069968972247;0.599639892578125;0.174407958984375;8.34999997891828;836;1 A
40.7169968971995;0.599609375;0.174774169921875;8.35999997889303;837;1 A
40.7269968971742;0.59954833984375;0.174835205078125;8.36999997886778;838;1 A
40.736996897149;0.59954833984375;0.175079345703125;8.37999997884253;839;1 A
40.7469968971237;0.59967041015625;0.1751708984375;8.38999997881729;840;1 A
40.7569968970985;0.599639892578125;0.175506591796875;8.39999997879204;841;1 A
40.7669968970732;0.59967041015625;0.17596435546875;8.40999997876679;842;1 A
40.776996897048;0.599578857421875;0.176513671875;8.41999997874154;843;1 A
40.7869968970227;0.599578857421875;0.1768798828125;8.4299999787163;844;1 A
40.7969968969975;0.59954833984375;0.177276611328125;8.43999997869105;845;1 A
40.8069968969722;0.599609375;0.177459716796875;8.4499999786658;846;1 A
40.816996896947;0.599609375;0.1778564453125;8.45999997864055;847;1 A
40.8269968969217;0.59967041015625;0.1781005859375;8.46999997861531;848;1 A
40.8369968968965;0.599609375;0.17852783203125;8.47999997859006;849;1 A
40.8469968968712;0.59954833984375;0.1788330078125;8.48999997856481;850;1 A
40.856996896846;0.599578857421875;0.179351806640625;8.49999997853956;851;1 A
40.8669968968208;0.59954833984375;0.179656982421875;8.50999997851432;852;1 A
40.8769968967955;0.599609375;0.17999267578125;8.51999997848907;853;1 A
40.8869968967703;0.599609375;0.17987060546875;8.52999997846382;854;1 A
40.896996896745;0.599578857421875;0.179931640625;8.53999997843857;855;1 A
40.9069968967198;0.599609375;0.1798095703125;8.54999997841333;856;1 A
40.9169968966945;0.599609375;0.179962158203125;8.55999997838808;857;1 A
40.9269968966693;0.599578857421875;0.180145263671875;8.56999997836283;858;1 A
40.936996896644;0.599578857421875;0.180450439453125;8.57999997833758;859;1 A
40.9469968966188;0.599578857421875;0.1805419921875;8.58999997831233;860;1 A
40.9569968965935;0.599639892578125;0.1807861328125;8.59999997828709;861;1 A
40.9669968965683;0.599609375;0.18072509765625;8.60999997826184;862;1 A
40.976996896543;0.59954833984375;0.1807861328125;8.61999997823659;863;1 A
40.9869968965178;0.599609375;0.18084716796875;8.62999997821134;864;1 A
40.9969968964925;0.599578857421875;0.18072509765625;8.6399999781861;865;1 A
41.0069968964673;0.599609375;0.180877685546875;8.64999997816085;866;1 A
41.016996896442;0.599609375;0.1810302734375;8.6599999781356;867;1 A
41.0269968964168;0.599578857421875;0.18115234375;8.66999997811035;868;1 A
41.0369968963915;0.599609375;0.181243896484375;8.67999997808511;869;1 A
41.0469968963663;0.599517822265625;0.18109130859375;8.68999997805986;870;1 A
41.056996896341;0.599609375;0.18109130859375;8.69999997803461;871;1 A
41.0669968963158;0.599609375;0.180999755859375;8.70999997800936;872;1 A
41.0769968962906;0.599639892578125;0.1810302734375;8.71999997798412;873;1 A
41.0869968962653;0.59967041015625;0.18121337890625;8.72999997795887;874;1 A
41.0969968962401;0.599609375;0.181365966796875;8.73999997793362;875;1 A
41.1069968962148;0.599517822265625;0.181671142578125;8.74999997790837;876;1 A
41.1169968961896;0.599517822265625;0.18206787109375;8.75999997788313;877;1 A
41.1269968961643;0.599609375;0.1822509765625;8.76999997785788;878;1 A
41.1369968961391;0.599609375;0.18255615234375;8.77999997783263;879;1 A
41.1469968961138;0.599639892578125;0.18267822265625;8.78999997780738;880;1 A
41.1569968960886;0.599609375;0.183013916015625;8.79999997778214;881;1 A
41.1669968960633;0.599578857421875;0.183380126953125;8.80999997775689;882;1 A
41.1769968960381;0.599639892578125;0.183837890625;8.81999997773164;883;1 A
41.1869968960128;0.599517822265625;0.18408203125;8.82999997770639;884;1 A
41.1969968959876;0.59954833984375;0.184326171875;8.83999997768115;885;1 A
41.2069968959623;0.599578857421875;0.18438720703125;8.8499999776559;886;1 A
41.2169968959371;0.599609375;0.18450927734375;8.85999997763065;887;1 A
41.2269968959118;0.599639892578125;0.18438720703125;8.8699999776054;888;1 A
41.2369968958866;0.599578857421875;0.18438720703125;8.87999997758016;889;1 A
41.2469968958613;0.599578857421875;0.184295654296875;8.88999997755491;890;1 A
41.2569968958361;0.599609375;0.18450927734375;8.89999997752966;891;1 A
41.2669968958108;0.59954833984375;0.184661865234375;8.90999997750441;892;1 A
41.2769968957856;0.599609375;0.184967041015625;8.91999997747916;893;1 A
41.2869968957604;0.599609375;0.184967041015625;8.92999997745392;894;1 A
41.2969968957351;0.599578857421875;0.18524169921875;8.93999997742867;895;1 A
41.3069968957099;0.599578857421875;0.185302734375;8.94999997740342;896;1 A
41.3169968956846;0.599578857421875;0.185546875;8.95999997737817;897;1 A
41.3269968956594;0.59954833984375;0.185791015625;8.96999997735293;898;1 A
41.3369968956341;0.599578857421875;0.18603515625;8.97999997732768;899;1 A
41.3469968956089;0.599639892578125;0.1861572265625;8.98999997730243;900;1 A
41.3569968955836;0.599609375;0.1864013671875;8.99999997727718;901;1 A
41.3669968955584;0.599517822265625;0.186431884765625;9.00999997725194;902;1 A
41.3769968955331;0.59954833984375;0.186553955078125;9.01999997722669;903;1 A
41.3869968955079;0.599639892578125;0.186614990234375;9.02999997720144;904;1 A
41.3969968954826;0.59954833984375;0.18658447265625;9.03999997717619;905;1 A
41.4069968954574;0.599639892578125;0.186767578125;9.04999997715095;906;1 A
41.4169968954321;0.599609375;0.18695068359375;9.0599999771257;907;1 A
41.4269968954069;0.599639892578125;0.1871337890625;9.06999997710045;908;1 A
41.4369968953816;0.59954833984375;0.187286376953125;9.0799999770752;909;1 A
41.4469968953564;0.59954833984375;0.187225341796875;9.08999997704996;910;1 A
41.4569968953311;0.599639892578125;0.187286376953125;9.09999997702471;911;1 A
41.4669968953059;0.599578857421875;0.187255859375;9.10999997699946;912;1 A
41.4769968952806;0.599639892578125;0.187286376953125;9.11999997697421;913;1 A
41.4869968952554;0.59954833984375;0.187286376953125;9.12999997694897;914;1 A
41.4969968952302;0.599609375;0.187347412109375;9.13999997692372;915;1 A
41.5069968952049;0.59954833984375;0.18731689453125;9.14999997689847;916;1 A
41.5169968951797;0.599578857421875;0.187347412109375;9.15999997687322;917;1 A
41.5269968951544;0.599609375;0.1871337890625;9.16999997684798;918;1 A
41.5369968951292;0.599578857421875;0.18701171875;9.17999997682273;919;1 A
41.5469968951039;0.599609375;0.18670654296875;9.18999997679748;920;1 A
41.5569968950787;0.599639892578125;0.1866455078125;9.19999997677223;921;1 A
41.5669968950534;0.599578857421875;0.18658447265625;9.20999997674699;922;1 A
41.5769968950282;0.599609375;0.1866455078125;9.21999997672174;923;1 A
41.5869968950029;0.59954833984375;0.1865234375;9.22999997669649;924;1 A
41.5969968949777;0.599609375;0.186492919921875;9.23999997667124;925;1 A
41.6069968949524;0.599578857421875;0.186279296875;9.249999976646;926;1 A
41.6169968949272;0.599609375;0.186126708984375;9.25999997662075;927;1 A
41.6269968949019;0.599578857421875;0.18585205078125;9.2699999765955;928;1 A
41.6369968948767;0.59954833984375;0.1856689453125;9.27999997657025;929;1 A
41.6469968948514;0.599609375;0.1854248046875;9.289999976545;930;1 A
41.6569968948262;0.599639892578125;0.18536376953125;9.29999997651976;931;1 A
41.6669968948009;0.59954833984375;0.18524169921875;9.30999997649451;932;1 A
41.6769968947757;0.599609375;0.185150146484375;9.31999997646926;933;1 A
41.6869968947505;0.599578857421875;0.184722900390625;9.32999997644401;934;1 A
41.6969968947252;0.59954833984375;0.1845703125;9.33999997641877;935;1 A
41.7069968947;0.599609375;0.184326171875;9.34999997639352;936;1 A
41.7169968946747;0.599578857421875;0.184234619140625;9.35999997636827;937;1 A
41.7269968946495;0.59967041015625;0.18426513671875;9.36999997634302;938;1 A
41.7369968946242;0.599578857421875;0.184234619140625;9.37999997631778;939;1 A
41.746996894599;0.599609375;0.184173583984375;9.38999997629253;940;1 A
41.7569968945737;0.599578857421875;0.18414306640625;9.39999997626728;941;1 A
41.7669968945485;0.599578857421875;0.18389892578125;9.40999997624203;942;1 A
41.7769968945232;0.599517822265625;0.18365478515625;9.41999997621679;943;1 A
41.786996894498;0.599578857421875;0.183319091796875;9.42999997619154;944;1 A
41.7969968944727;0.599639892578125;0.18292236328125;9.43999997616629;945;1 A
41.8069968944475;0.599517822265625;0.182708740234375;9.44999997614104;946;1 A
41.8169968944222;0.599609375;0.182525634765625;9.4599999761158;947;1 A
41.826996894397;0.59954833984375;0.1822509765625;9.46999997609055;948;1 A
41.8369968943717;0.599517822265625;0.18194580078125;9.4799999760653;949;1 A
41.8469968943465;0.599578857421875;0.1815185546875;9.48999997604005;950;1 A
41.8569968943212;0.599578857421875;0.181365966796875;9.49999997601481;951;1 A
41.866996894296;0.599639892578125;0.181060791015625;9.50999997598956;952;1 A
41.8769968942707;0.59954833984375;0.18109130859375;9.51999997596431;953;1 A
41.8869968942455;0.59954833984375;0.181060791015625;9.52999997593906;954;1 A
41.8969968942203;0.599578857421875;0.181304931640625;9.53999997591382;955;1 A
41.906996894195;0.5994873046875;0.18133544921875;9.54999997588857;956;1 A
41.9169968941698;0.599578857421875;0.1815185546875;9.55999997586332;957;1 A
41.9269968941445;0.599639892578125;0.18115234375;9.56999997583807;958;1 A
41.9369968941193;0.59954833984375;0.180999755859375;9.57999997581283;959;1 A
41.946996894094;0.599578857421875;0.180419921875;9.58999997578758;960;1 A
41.9569968940688;0.599578857421875;0.180206298828125;9.59999997576233;961;1 A
41.9669968940435;0.599639892578125;0.17987060546875;9.60999997573708;962;1 A
41.9769968940183;0.599609375;0.179718017578125;9.61999997571183;963;1 A
41.986996893993;0.599609375;0.1793212890625;9.62999997568659;964;1 A
41.9969968939678;0.599578857421875;0.179107666015625;9.63999997566134;965;1 A
42.0069968939425;0.599639892578125;0.178680419921875;9.64999997563609;966;1 A
42.0169968939173;0.599578857421875;0.178436279296875;9.65999997561084;967;1 A
42.026996893892;0.599609375;0.178131103515625;9.6699999755856;968;1 A
42.0369968938668;0.599609375;0.177886962890625;9.67999997556035;969;1 A
42.0469968938415;0.599609375;0.177764892578125;9.6899999755351;970;1 A
42.0569968938163;0.599578857421875;0.177764892578125;9.69999997550985;971;1 A
42.066996893791;0.599639892578125;0.177764892578125;9.70999997548461;972;1 A
42.0769968937658;0.599578857421875;0.177764892578125;9.71999997545936;973;1 A
42.0869968937405;0.599609375;0.17755126953125;9.72999997543411;974;1 A
42.0969968937153;0.59954833984375;0.177490234375;9.73999997540886;975;1 A
42.1069968936901;0.599609375;0.177337646484375;9.74999997538362;976;1 A
42.1169968936648;0.599609375;0.177276611328125;9.75999997535837;977;1 A
42.1269968936396;0.599578857421875;0.17730712890625;9.76999997533312;978;1 A
42.1369968936143;0.599609375;0.17724609375;9.77999997530787;979;1 A
42.1469968935891;0.599578857421875;0.1771240234375;9.78999997528263;980;1 A
42.1569968935638;0.59954833984375;0.177001953125;9.79999997525738;981;1 A
42.1669968935386;0.599609375;0.176544189453125;9.80999997523213;982;1 A
42.1769968935133;0.599578857421875;0.17620849609375;9.81999997520688;983;1 A
42.1869968934881;0.599609375;0.175689697265625;9.82999997518164;984;1 A
42.1969968934628;0.59954833984375;0.175201416015625;9.83999997515639;985;1 A
42.2069968934376;0.599609375;0.174957275390625;9.84999997513114;986;1 A
42.2169968934123;0.599609375;0.17474365234375;9.85999997510589;987;1 A
42.2269968933871;0.599578857421875;0.17437744140625;9.86999997508065;988;1 A
42.2369968933618;0.599578857421875;0.17401123046875;9.8799999750554;989;1 A
42.2469968933366;0.59967041015625;0.17340087890625;9.88999997503015;990;1 A
42.2569968933113;0.599609375;0.173095703125;9.8999999750049;991;1 A
42.2669968932861;0.599639892578125;0.172607421875;9.90999997497966;992;1 A
42.2769968932608;0.599609375;0.172515869140625;9.91999997495441;993;1 A
42.2869968932356;0.599578857421875;0.17236328125;9.92999997492916;994;1 A
42.2969968932103;0.59954833984375;0.1724853515625;9.93999997490391;995;1 A
42.3069968931851;0.599578857421875;0.17236328125;9.94999997487866;996;1 A
42.3169968931599;0.59954833984375;0.172332763671875;9.95999997485342;997;1 A
42.3269968931346;0.59954833984375;0.171783447265625;9.96999997482817;998;1 A
42.3369968931094;0.599517822265625;0.171630859375;9.97999997480292;999;1 A
42.3469968930841;0.59954833984375;0.171295166015625;9.98999997477767;1000;1 A
