Time (s);WE(1).Potential (V);WE(1).Current (A);Corrected time (s);Index;Current range
63.1203198406365;0.6505126953125;1.02447509765625;0;1;1 A
63.1303198406113;0.64990234375;0.740966796875;0.00999999997475243;2;1 A
63.140319840586;0.649810791015625;0.61187744140625;0.0199999999495049;3;1 A
63.1503198405608;0.649688720703125;0.533447265625;0.0299999999242573;4;1 A
63.1603198405355;0.649627685546875;0.4791259765625;0.0399999998990097;5;1 A
63.1703198405103;0.649688720703125;0.4390869140625;0.0499999998737621;6;1 A
63.180319840485;0.649627685546875;0.40771484375;0.0599999998485146;7;1 A
63.1903198404598;0.649627685546875;0.382354736328125;0.069999999823267;8;1 A
63.2003198404345;0.64959716796875;0.3614501953125;0.0799999997980194;9;1 A
63.2103198404093;0.64959716796875;0.343719482421875;0.0899999997727718;10;1 A
63.220319840384;0.649627685546875;0.32855224609375;0.0999999997475243;11;1 A
63.2303198403588;0.649566650390625;0.315338134765625;0.109999999722277;12;1 A
63.2403198403335;0.649627685546875;0.3038330078125;0.119999999697029;13;1 A
63.2503198403083;0.649627685546875;0.293853759765625;0.129999999671782;14;1 A
63.260319840283;0.649505615234375;0.2850341796875;0.139999999646534;15;1 A
63.2703198402578;0.64959716796875;0.27691650390625;0.149999999621286;16;1 A
63.2803198402326;0.649658203125;0.269744873046875;0.159999999596039;17;1 A
63.2903198402073;0.64959716796875;0.263092041015625;0.169999999570791;18;1 A
63.3003198401821;0.64959716796875;0.2572021484375;0.179999999545544;19;1 A
63.3103198401568;0.649658203125;0.25164794921875;0.189999999520296;20;1 A
63.3203198401316;0.649566650390625;0.24658203125;0.199999999495049;21;1 A
63.3303198401063;0.649505615234375;0.241729736328125;0.209999999469801;22;1 A
63.3403198400811;0.649627685546875;0.2373046875;0.219999999444553;23;1 A
63.3503198400558;0.649566650390625;0.23284912109375;0.229999999419306;24;1 A
63.3603198400306;0.649566650390625;0.229217529296875;0.239999999394058;25;1 A
63.3703198400053;0.649658203125;0.2257080078125;0.249999999368811;26;1 A
63.3803198399801;0.64959716796875;0.222564697265625;0.259999999343563;27;1 A
63.3903198399548;0.649627685546875;0.2197265625;0.269999999318316;28;1 A
63.4003198399296;0.649505615234375;0.217254638671875;0.279999999293068;29;1 A
63.4103198399043;0.649566650390625;0.214996337890625;0.28999999926782;30;1 A
63.4203198398791;0.649627685546875;0.212982177734375;0.299999999242573;31;1 A
63.4303198398538;0.649658203125;0.2109375;0.309999999217325;32;1 A
63.4403198398286;0.649627685546875;0.20916748046875;0.319999999192078;33;1 A
63.4503198398033;0.64959716796875;0.20733642578125;0.32999999916683;34;1 A
63.4603198397781;0.649566650390625;0.205718994140625;0.339999999141583;35;1 A
63.4703198397528;0.64959716796875;0.2042236328125;0.349999999116335;36;1 A
63.4803198397276;0.64959716796875;0.20269775390625;0.359999999091087;37;1 A
63.4903198397024;0.649627685546875;0.20098876953125;0.36999999906584;38;1 A
63.5003198396771;0.649566650390625;0.199493408203125;0.379999999040592;39;1 A
63.5103198396519;0.64959716796875;0.197540283203125;0.389999999015345;40;1 A
63.5203198396266;0.649566650390625;0.19622802734375;0.399999998990097;41;1 A
63.5303198396014;0.6495361328125;0.19476318359375;0.40999999896485;42;1 A
63.5403198395761;0.649658203125;0.19366455078125;0.419999998939602;43;1 A
63.5503198395509;0.649627685546875;0.1927490234375;0.429999998914354;44;1 A
63.5603198395256;0.64959716796875;0.192047119140625;0.439999998889107;45;1 A
63.5703198395004;0.649627685546875;0.19134521484375;0.449999998863859;46;1 A
63.5803198394751;0.649566650390625;0.190704345703125;0.459999998838612;47;1 A
63.5903198394499;0.64959716796875;0.18988037109375;0.469999998813364;48;1 A
63.6003198394246;0.649658203125;0.189178466796875;0.479999998788116;49;1 A
63.6103198393994;0.64959716796875;0.18817138671875;0.489999998762869;50;1 A
63.6203198393741;0.649627685546875;0.1873779296875;0.499999998737621;51;1 A
63.6303198393489;0.64959716796875;0.1865234375;0.509999998712374;52;1 A
63.6403198393236;0.649566650390625;0.18597412109375;0.519999998687126;53;1 A
63.6503198392984;0.649566650390625;0.185272216796875;0.529999998661879;54;1 A
63.6603198392731;0.64959716796875;0.18450927734375;0.539999998636631;55;1 A
63.6703198392479;0.649627685546875;0.183349609375;0.549999998611383;56;1 A
63.6803198392226;0.649627685546875;0.182708740234375;0.559999998586136;57;1 A
63.6903198391974;0.649658203125;0.18182373046875;0.569999998560888;58;1 A
63.7003198391722;0.649627685546875;0.1812744140625;0.579999998535641;59;1 A
63.7103198391469;0.64959716796875;0.1806640625;0.589999998510393;60;1 A
63.7203198391217;0.649566650390625;0.18017578125;0.599999998485146;61;1 A
63.7303198390964;0.6495361328125;0.179534912109375;0.609999998459898;62;1 A
63.7403198390712;0.649566650390625;0.179046630859375;0.61999999843465;63;1 A
63.7503198390459;0.649627685546875;0.178253173828125;0.629999998409403;64;1 A
63.7603198390207;0.64959716796875;0.177703857421875;0.639999998384155;65;1 A
63.7703198389954;0.649658203125;0.177093505859375;0.649999998358908;66;1 A
63.7803198389702;0.6495361328125;0.176666259765625;0.65999999833366;67;1 A
63.7903198389449;0.64959716796875;0.17645263671875;0.669999998308413;68;1 A
63.8003198389197;0.649566650390625;0.17626953125;0.679999998283165;69;1 A
63.8103198388944;0.649627685546875;0.17596435546875;0.689999998257917;70;1 A
63.8203198388692;0.649627685546875;0.17572021484375;0.69999999823267;71;1 A
63.8303198388439;0.649627685546875;0.175323486328125;0.709999998207422;72;1 A
63.8403198388187;0.64959716796875;0.175262451171875;0.719999998182175;73;1 A
63.8503198387934;0.649627685546875;0.175018310546875;0.729999998156927;74;1 A
63.8603198387682;0.649566650390625;0.17498779296875;0.73999999813168;75;1 A
63.8703198387429;0.649627685546875;0.175018310546875;0.749999998106432;76;1 A
63.8803198387177;0.649627685546875;0.17498779296875;0.759999998081184;77;1 A
63.8903198386924;0.649566650390625;0.17498779296875;0.769999998055937;78;1 A
63.9003198386672;0.649627685546875;0.17498779296875;0.779999998030689;79;1 A
63.910319838642;0.649566650390625;0.1746826171875;0.789999998005442;80;1 A
63.9203198386167;0.64959716796875;0.174530029296875;0.799999997980194;81;1 A
63.9303198385915;0.64959716796875;0.173980712890625;0.809999997954947;82;1 A
63.9403198385662;0.6495361328125;0.17376708984375;0.819999997929699;83;1 A
63.950319838541;0.64959716796875;0.173431396484375;0.829999997904451;84;1 A
63.9603198385157;0.64959716796875;0.173095703125;0.839999997879204;85;1 A
63.9703198384905;0.64959716796875;0.172576904296875;0.849999997853956;86;1 A
63.9803198384652;0.649658203125;0.172271728515625;0.859999997828709;87;1 A
63.99031983844;0.649627685546875;0.1717529296875;0.869999997803461;88;1 A
64.0003198384147;0.64959716796875;0.171661376953125;0.879999997778214;89;1 A
64.0103198383895;0.64959716796875;0.17138671875;0.889999997752966;90;1 A
64.0203198383642;0.64959716796875;0.171539306640625;0.899999997727718;91;1 A
64.030319838339;0.649566650390625;0.171661376953125;0.909999997702471;92;1 A
64.0403198383137;0.64959716796875;0.171905517578125;0.919999997677223;93;1 A
64.0503198382885;0.649627685546875;0.1719970703125;0.929999997651976;94;1 A
64.0603198382632;0.649566650390625;0.17205810546875;0.939999997626728;95;1 A
64.070319838238;0.6495361328125;0.171722412109375;0.949999997601481;96;1 A
64.0803198382127;0.649627685546875;0.171630859375;0.959999997576233;97;1 A
64.0903198381875;0.64959716796875;0.17120361328125;0.969999997550985;98;1 A
64.1003198381622;0.649627685546875;0.171112060546875;0.979999997525738;99;1 A
64.110319838137;0.649627685546875;0.1708984375;0.98999999750049;100;1 A
64.1203198381118;0.64959716796875;0.170562744140625;0.999999997475243;101;1 A
64.1303198380865;0.649566650390625;0.17022705078125;1.00999999745;102;1 A
64.1403198380613;0.6495361328125;0.1700439453125;1.01999999742475;103;1 A
64.150319838036;0.649627685546875;0.169586181640625;1.0299999973995;104;1 A
64.1603198380108;0.64959716796875;0.169525146484375;1.03999999737425;105;1 A
64.1703198379855;0.649627685546875;0.16943359375;1.049999997349;106;1 A
64.1803198379603;0.649658203125;0.16961669921875;1.05999999732376;107;1 A
64.190319837935;0.64959716796875;0.170013427734375;1.06999999729851;108;1 A
64.2003198379098;0.64959716796875;0.170318603515625;1.07999999727326;109;1 A
64.2103198378845;0.6495361328125;0.170501708984375;1.08999999724801;110;1 A
64.2203198378593;0.649566650390625;0.170562744140625;1.09999999722277;111;1 A
64.230319837834;0.64959716796875;0.17034912109375;1.10999999719752;112;1 A
64.2403198378088;0.649566650390625;0.17047119140625;1.11999999717227;113;1 A
64.2503198377835;0.64959716796875;0.1702880859375;1.12999999714702;114;1 A
64.2603198377583;0.64959716796875;0.17047119140625;1.13999999712178;115;1 A
64.270319837733;0.649627685546875;0.170501708984375;1.14999999709653;116;1 A
64.2803198377078;0.649627685546875;0.17047119140625;1.15999999707128;117;1 A
64.2903198376825;0.64959716796875;0.17047119140625;1.16999999704603;118;1 A
64.3003198376573;0.649566650390625;0.17059326171875;1.17999999702079;119;1 A
64.3103198376321;0.64959716796875;0.17034912109375;1.18999999699554;120;1 A
64.3203198376068;0.649627685546875;0.1705322265625;1.19999999697029;121;1 A
64.3303198375816;0.649566650390625;0.17034912109375;1.20999999694504;122;1 A
64.3403198375563;0.649566650390625;0.1707763671875;1.2199999969198;123;1 A
64.3503198375311;0.649627685546875;0.171173095703125;1.22999999689455;124;1 A
64.3603198375058;0.649566650390625;0.171600341796875;1.2399999968693;125;1 A
64.3703198374806;0.649658203125;0.17181396484375;1.24999999684405;126;1 A
64.3803198374553;0.64959716796875;0.172149658203125;1.25999999681881;127;1 A
64.3903198374301;0.649566650390625;0.172271728515625;1.26999999679356;128;1 A
64.4003198374048;0.64959716796875;0.17254638671875;1.27999999676831;129;1 A
64.4103198373796;0.649566650390625;0.17242431640625;1.28999999674306;130;1 A
64.4203198373543;0.649627685546875;0.1724853515625;1.29999999671782;131;1 A
64.4303198373291;0.649658203125;0.17254638671875;1.30999999669257;132;1 A
64.4403198373038;0.64959716796875;0.172637939453125;1.31999999666732;133;1 A
64.4503198372786;0.649566650390625;0.172698974609375;1.32999999664207;134;1 A
64.4603198372533;0.649566650390625;0.17266845703125;1.33999999661683;135;1 A
64.4703198372281;0.64959716796875;0.172332763671875;1.34999999659158;136;1 A
64.4803198372028;0.64959716796875;0.172332763671875;1.35999999656633;137;1 A
64.4903198371776;0.649627685546875;0.1722412109375;1.36999999654108;138;1 A
64.5003198371523;0.64959716796875;0.1724853515625;1.37999999651583;139;1 A
64.5103198371271;0.6495361328125;0.1727294921875;1.38999999649059;140;1 A
64.5203198371019;0.64959716796875;0.17279052734375;1.39999999646534;141;1 A
64.5303198370766;0.64959716796875;0.1727294921875;1.40999999644009;142;1 A
64.5403198370514;0.64959716796875;0.1727294921875;1.41999999641484;143;1 A
64.5503198370261;0.64959716796875;0.172393798828125;1.4299999963896;144;1 A
64.5603198370009;0.649627685546875;0.172271728515625;1.43999999636435;145;1 A
64.5703198369756;0.649627685546875;0.171966552734375;1.4499999963391;146;1 A
64.5803198369504;0.649658203125;0.17193603515625;1.45999999631385;147;1 A
64.5903198369251;0.64959716796875;0.172027587890625;1.46999999628861;148;1 A
64.6003198368999;0.649566650390625;0.17205810546875;1.47999999626336;149;1 A
64.6103198368746;0.649566650390625;0.172027587890625;1.48999999623811;150;1 A
64.6203198368494;0.64959716796875;0.17193603515625;1.49999999621286;151;1 A
64.6303198368241;0.649627685546875;0.171661376953125;1.50999999618762;152;1 A
64.6403198367989;0.649627685546875;0.171661376953125;1.51999999616237;153;1 A
64.6503198367736;0.649627685546875;0.17138671875;1.52999999613712;154;1 A
64.6603198367484;0.6495361328125;0.1715087890625;1.53999999611187;155;1 A
64.6703198367231;0.64959716796875;0.171600341796875;1.54999999608663;156;1 A
64.6803198366979;0.649627685546875;0.17169189453125;1.55999999606138;157;1 A
64.6903198366726;0.64959716796875;0.171630859375;1.56999999603613;158;1 A
64.7003198366474;0.649566650390625;0.171600341796875;1.57999999601088;159;1 A
64.7103198366221;0.649566650390625;0.171142578125;1.58999999598564;160;1 A
64.7203198365969;0.649566650390625;0.170989990234375;1.59999999596039;161;1 A
64.7303198365717;0.649566650390625;0.1705322265625;1.60999999593514;162;1 A
64.7403198365464;0.649566650390625;0.17059326171875;1.61999999590989;163;1 A
64.7503198365212;0.64959716796875;0.17059326171875;1.62999999588465;164;1 A
64.7603198364959;0.64959716796875;0.170623779296875;1.6399999958594;165;1 A
64.7703198364707;0.649627685546875;0.1705322265625;1.64999999583415;166;1 A
64.7803198364454;0.649627685546875;0.170623779296875;1.6599999958089;167;1 A
64.7903198364202;0.649566650390625;0.170562744140625;1.66999999578366;168;1 A
64.8003198363949;0.64959716796875;0.170806884765625;1.67999999575841;169;1 A
64.8103198363697;0.649566650390625;0.1707763671875;1.68999999573316;170;1 A
64.8203198363444;0.649627685546875;0.170928955078125;1.69999999570791;171;1 A
64.8303198363192;0.64959716796875;0.171173095703125;1.70999999568267;172;1 A
64.8403198362939;0.64959716796875;0.171417236328125;1.71999999565742;173;1 A
64.8503198362687;0.64959716796875;0.1715087890625;1.72999999563217;174;1 A
64.8603198362434;0.649566650390625;0.171478271484375;1.73999999560692;175;1 A
64.8703198362182;0.649566650390625;0.171142578125;1.74999999558167;176;1 A
64.8803198361929;0.649658203125;0.170989990234375;1.75999999555643;177;1 A
64.8903198361677;0.6495361328125;0.17083740234375;1.76999999553118;178;1 A
64.9003198361424;0.64959716796875;0.170989990234375;1.77999999550593;179;1 A
64.9103198361172;0.649566650390625;0.171173095703125;1.78999999548068;180;1 A
64.9203198360919;0.649566650390625;0.17132568359375;1.79999999545544;181;1 A
64.9303198360667;0.649566650390625;0.171417236328125;1.80999999543019;182;1 A
64.9403198360415;0.64959716796875;0.171630859375;1.81999999540494;183;1 A
64.9503198360162;0.649566650390625;0.17144775390625;1.82999999537969;184;1 A
64.960319835991;0.649658203125;0.171630859375;1.83999999535445;185;1 A
64.9703198359657;0.649627685546875;0.171539306640625;1.8499999953292;186;1 A
64.9803198359405;0.649627685546875;0.1717529296875;1.85999999530395;187;1 A
64.9903198359152;0.649627685546875;0.17218017578125;1.8699999952787;188;1 A
65.00031983589;0.649627685546875;0.172393798828125;1.87999999525346;189;1 A
65.0103198358647;0.6495361328125;0.17236328125;1.88999999522821;190;1 A
65.0203198358395;0.649566650390625;0.17218017578125;1.89999999520296;191;1 A
65.0303198358142;0.649566650390625;0.17181396484375;1.90999999517771;192;1 A
65.040319835789;0.649658203125;0.171600341796875;1.91999999515247;193;1 A
65.0503198357637;0.649566650390625;0.171051025390625;1.92999999512722;194;1 A
65.0603198357385;0.6495361328125;0.17083740234375;1.93999999510197;195;1 A
65.0703198357132;0.64959716796875;0.17059326171875;1.94999999507672;196;1 A
65.080319835688;0.649627685546875;0.170440673828125;1.95999999505148;197;1 A
65.0903198356627;0.649627685546875;0.1702880859375;1.96999999502623;198;1 A
65.1003198356375;0.649566650390625;0.170196533203125;1.97999999500098;199;1 A
65.1103198356122;0.649627685546875;0.169708251953125;1.98999999497573;200;1 A
65.120319835587;0.649658203125;0.169647216796875;1.99999999495049;201;1 A
65.1303198355617;0.6495361328125;0.169403076171875;2.00999999492524;202;1 A
65.1403198355365;0.649566650390625;0.169677734375;2.01999999489999;203;1 A
65.1503198355113;0.649627685546875;0.169891357421875;2.02999999487474;204;1 A
65.160319835486;0.64959716796875;0.17010498046875;2.0399999948495;205;1 A
65.1703198354608;0.649627685546875;0.17010498046875;2.04999999482425;206;1 A
65.1803198354355;0.64959716796875;0.170318603515625;2.059999994799;207;1 A
65.1903198354103;0.64959716796875;0.17022705078125;2.06999999477375;208;1 A
65.200319835385;0.649627685546875;0.17041015625;2.0799999947485;209;1 A
65.2103198353598;0.6495361328125;0.17041015625;2.08999999472326;210;1 A
65.2203198353345;0.649627685546875;0.1705322265625;2.09999999469801;211;1 A
65.2303198353093;0.64959716796875;0.17071533203125;2.10999999467276;212;1 A
65.240319835284;0.649627685546875;0.1708984375;2.11999999464751;213;1 A
65.2503198352588;0.649627685546875;0.170928955078125;2.12999999462227;214;1 A
65.2603198352335;0.649566650390625;0.170928955078125;2.13999999459702;215;1 A
65.2703198352083;0.649658203125;0.170654296875;2.14999999457177;216;1 A
65.280319835183;0.649627685546875;0.170623779296875;2.15999999454652;217;1 A
65.2903198351578;0.649627685546875;0.170562744140625;2.16999999452128;218;1 A
65.3003198351325;0.64959716796875;0.170867919921875;2.17999999449603;219;1 A
65.3103198351073;0.649658203125;0.171234130859375;2.18999999447078;220;1 A
65.320319835082;0.64959716796875;0.171356201171875;2.19999999444553;221;1 A
65.3303198350568;0.649566650390625;0.171417236328125;2.20999999442029;222;1 A
65.3403198350316;0.6495361328125;0.171630859375;2.21999999439504;223;1 A
65.3503198350063;0.64959716796875;0.171417236328125;2.22999999436979;224;1 A
65.3603198349811;0.64959716796875;0.171356201171875;2.23999999434454;225;1 A
65.3703198349558;0.649658203125;0.17108154296875;2.2499999943193;226;1 A
65.3803198349306;0.64959716796875;0.17108154296875;2.25999999429405;227;1 A
65.3903198349053;0.649627685546875;0.171173095703125;2.2699999942688;228;1 A
65.4003198348801;0.649627685546875;0.171142578125;2.27999999424355;229;1 A
65.4103198348548;0.649566650390625;0.171142578125;2.28999999421831;230;1 A
65.4203198348296;0.649566650390625;0.17108154296875;2.29999999419306;231;1 A
65.4303198348043;0.649566650390625;0.170928955078125;2.30999999416781;232;1 A
65.4403198347791;0.649566650390625;0.170989990234375;2.31999999414256;233;1 A
65.4503198347538;0.6495361328125;0.170806884765625;2.32999999411732;234;1 A
65.4603198347286;0.649566650390625;0.17095947265625;2.33999999409207;235;1 A
65.4703198347033;0.649627685546875;0.171142578125;2.34999999406682;236;1 A
65.4803198346781;0.649566650390625;0.17138671875;2.35999999404157;237;1 A
65.4903198346528;0.649627685546875;0.171295166015625;2.36999999401633;238;1 A
65.5003198346276;0.649658203125;0.17132568359375;2.37999999399108;239;1 A
65.5103198346023;0.64959716796875;0.1710205078125;2.38999999396583;240;1 A
65.5203198345771;0.64959716796875;0.1710205078125;2.39999999394058;241;1 A
65.5303198345518;0.64959716796875;0.170806884765625;2.40999999391533;242;1 A
65.5403198345266;0.64959716796875;0.171112060546875;2.41999999389009;243;1 A
65.5503198345014;0.649658203125;0.1712646484375;2.42999999386484;244;1 A
65.5603198344761;0.64959716796875;0.17138671875;2.43999999383959;245;1 A
65.5703198344509;0.649627685546875;0.171356201171875;2.44999999381434;246;1 A
65.5803198344256;0.6495361328125;0.17144775390625;2.4599999937891;247;1 A
65.5903198344004;0.649566650390625;0.171234130859375;2.46999999376385;248;1 A
65.6003198343751;0.649566650390625;0.1712646484375;2.4799999937386;249;1 A
65.6103198343499;0.64959716796875;0.171173095703125;2.48999999371335;250;1 A
65.6203198343246;0.64959716796875;0.171295166015625;2.49999999368811;251;1 A
65.6303198342994;0.64959716796875;0.17144775390625;2.50999999366286;252;1 A
65.6403198342741;0.649627685546875;0.171417236328125;2.51999999363761;253;1 A
65.6503198342489;0.64959716796875;0.1712646484375;2.52999999361236;254;1 A
65.6603198342236;0.6495361328125;0.170989990234375;2.53999999358712;255;1 A
65.6703198341984;0.649658203125;0.1705322265625;2.54999999356187;256;1 A
65.6803198341731;0.649627685546875;0.17041015625;2.55999999353662;257;1 A
65.6903198341479;0.649627685546875;0.170135498046875;2.56999999351137;258;1 A
65.7003198341226;0.649627685546875;0.1700439453125;2.57999999348613;259;1 A
65.7103198340974;0.649627685546875;0.169921875;2.58999999346088;260;1 A
65.7203198340721;0.649566650390625;0.169708251953125;2.59999999343563;261;1 A
65.7303198340469;0.649566650390625;0.169677734375;2.60999999341038;262;1 A
65.7403198340216;0.649566650390625;0.169708251953125;2.61999999338514;263;1 A
65.7503198339964;0.649658203125;0.169403076171875;2.62999999335989;264;1 A
65.7603198339712;0.649627685546875;0.169342041015625;2.63999999333464;265;1 A
65.7703198339459;0.649658203125;0.16912841796875;2.64999999330939;266;1 A
65.7803198339207;0.6495361328125;0.169189453125;2.65999999328415;267;1 A
65.7903198338954;0.649627685546875;0.169342041015625;2.6699999932589;268;1 A
65.8003198338702;0.64959716796875;0.16937255859375;2.67999999323365;269;1 A
65.8103198338449;0.649566650390625;0.169219970703125;2.6899999932084;270;1 A
65.8203198338197;0.649627685546875;0.16912841796875;2.69999999318316;271;1 A
65.8303198337944;0.649627685546875;0.168792724609375;2.70999999315791;272;1 A
65.8403198337692;0.649658203125;0.168701171875;2.71999999313266;273;1 A
65.8503198337439;0.649566650390625;0.168365478515625;2.72999999310741;274;1 A
65.8603198337187;0.649566650390625;0.16845703125;2.73999999308217;275;1 A
65.8703198336934;0.649627685546875;0.16864013671875;2.74999999305692;276;1 A
65.8803198336682;0.649627685546875;0.169036865234375;2.75999999303167;277;1 A
65.8903198336429;0.64959716796875;0.16943359375;2.76999999300642;278;1 A
65.9003198336177;0.649566650390625;0.169891357421875;2.77999999298117;279;1 A
65.9103198335924;0.649566650390625;0.1700439453125;2.78999999295593;280;1 A
65.9203198335672;0.649566650390625;0.170501708984375;2.79999999293068;281;1 A
65.9303198335419;0.649627685546875;0.170684814453125;2.80999999290543;282;1 A
65.9403198335167;0.649658203125;0.17138671875;2.81999999288018;283;1 A
65.9503198334914;0.6495361328125;0.171966552734375;2.82999999285494;284;1 A
65.9603198334662;0.649566650390625;0.17242431640625;2.83999999282969;285;1 A
65.970319833441;0.64959716796875;0.17279052734375;2.84999999280444;286;1 A
65.9803198334157;0.649566650390625;0.173248291015625;2.85999999277919;287;1 A
65.9903198333905;0.649627685546875;0.173370361328125;2.86999999275395;288;1 A
66.0003198333652;0.649627685546875;0.173675537109375;2.8799999927287;289;1 A
66.01031983334;0.649505615234375;0.173797607421875;2.88999999270345;290;1 A
66.0203198333147;0.649658203125;0.174102783203125;2.8999999926782;291;1 A
66.0303198332895;0.649566650390625;0.174530029296875;2.90999999265296;292;1 A
66.0403198332642;0.64959716796875;0.174774169921875;2.91999999262771;293;1 A
66.050319833239;0.64959716796875;0.174896240234375;2.92999999260246;294;1 A
66.0603198332137;0.649627685546875;0.174896240234375;2.93999999257721;295;1 A
66.0703198331885;0.649627685546875;0.174652099609375;2.94999999255197;296;1 A
66.0803198331632;0.64959716796875;0.174713134765625;2.95999999252672;297;1 A
66.090319833138;0.649566650390625;0.174652099609375;2.96999999250147;298;1 A
66.1003198331127;0.64959716796875;0.174835205078125;2.97999999247622;299;1 A
66.1103198330875;0.64959716796875;0.17498779296875;2.98999999245098;300;1 A
66.1203198330622;0.649566650390625;0.17498779296875;2.99999999242573;301;1 A
66.130319833037;0.64959716796875;0.17498779296875;3.00999999240048;302;1 A
66.1403198330117;0.649627685546875;0.175018310546875;3.01999999237523;303;1 A
66.1503198329865;0.649627685546875;0.174652099609375;3.02999999234999;304;1 A
66.1603198329612;0.649627685546875;0.17449951171875;3.03999999232474;305;1 A
66.170319832936;0.64959716796875;0.174041748046875;3.04999999229949;306;1 A
66.1803198329108;0.649566650390625;0.174041748046875;3.05999999227424;307;1 A
66.1903198328855;0.64959716796875;0.174041748046875;3.069999992249;308;1 A
66.2003198328603;0.64959716796875;0.173980712890625;3.07999999222375;309;1 A
66.210319832835;0.649566650390625;0.17376708984375;3.0899999921985;310;1 A
66.2203198328098;0.64959716796875;0.173675537109375;3.09999999217325;311;1 A
66.2303198327845;0.649566650390625;0.173370361328125;3.109999992148;312;1 A
66.2403198327593;0.649566650390625;0.173370361328125;3.11999999212276;313;1 A
66.250319832734;0.64959716796875;0.173126220703125;3.12999999209751;314;1 A
66.2603198327088;0.649566650390625;0.173126220703125;3.13999999207226;315;1 A
66.2703198326835;0.649658203125;0.173065185546875;3.14999999204701;316;1 A
66.2803198326583;0.649627685546875;0.173065185546875;3.15999999202177;317;1 A
66.290319832633;0.649658203125;0.17291259765625;3.16999999199652;318;1 A
66.3003198326078;0.649688720703125;0.172698974609375;3.17999999197127;319;1 A
66.3103198325825;0.64959716796875;0.17218017578125;3.18999999194602;320;1 A
66.3203198325573;0.649627685546875;0.171966552734375;3.19999999192078;321;1 A
66.330319832532;0.64959716796875;0.171630859375;3.20999999189553;322;1 A
66.3403198325068;0.649566650390625;0.17169189453125;3.21999999187028;323;1 A
66.3503198324815;0.649627685546875;0.1717529296875;3.22999999184503;324;1 A
66.3603198324563;0.64959716796875;0.171661376953125;3.23999999181979;325;1 A
66.3703198324311;0.649688720703125;0.17144775390625;3.24999999179454;326;1 A
66.3803198324058;0.64959716796875;0.171356201171875;3.25999999176929;327;1 A
66.3903198323806;0.6495361328125;0.170928955078125;3.26999999174404;328;1 A
66.4003198323553;0.649566650390625;0.170684814453125;3.2799999917188;329;1 A
66.4103198323301;0.649566650390625;0.1702880859375;3.28999999169355;330;1 A
66.4203198323048;0.649566650390625;0.170135498046875;3.2999999916683;331;1 A
66.4303198322796;0.64959716796875;0.170196533203125;3.30999999164305;332;1 A
66.4403198322543;0.649566650390625;0.170196533203125;3.31999999161781;333;1 A
66.4503198322291;0.649627685546875;0.170166015625;3.32999999159256;334;1 A
66.4603198322038;0.64959716796875;0.170135498046875;3.33999999156731;335;1 A
66.4703198321786;0.64959716796875;0.169921875;3.34999999154206;336;1 A
66.4803198321533;0.649627685546875;0.1700439453125;3.35999999151682;337;1 A
66.4903198321281;0.6495361328125;0.169952392578125;3.36999999149157;338;1 A
66.5003198321028;0.649627685546875;0.17022705078125;3.37999999146632;339;1 A
66.5103198320776;0.64959716796875;0.170318603515625;3.38999999144107;340;1 A
66.5203198320523;0.6495361328125;0.170257568359375;3.39999999141583;341;1 A
66.5303198320271;0.649658203125;0.170135498046875;3.40999999139058;342;1 A
66.5403198320018;0.64959716796875;0.1700439453125;3.41999999136533;343;1 A
66.5503198319766;0.64959716796875;0.16961669921875;3.42999999134008;344;1 A
66.5603198319513;0.649688720703125;0.169464111328125;3.43999999131483;345;1 A
66.5703198319261;0.649658203125;0.169036865234375;3.44999999128959;346;1 A
66.5803198319009;0.6495361328125;0.169036865234375;3.45999999126434;347;1 A
66.5903198318756;0.64959716796875;0.1690673828125;3.46999999123909;348;1 A
66.6003198318504;0.649566650390625;0.169097900390625;3.47999999121384;349;1 A
66.6103198318251;0.649566650390625;0.16912841796875;3.4899999911886;350;1 A
66.6203198317999;0.649627685546875;0.16925048828125;3.49999999116335;351;1 A
66.6303198317746;0.649566650390625;0.169281005859375;3.5099999911381;352;1 A
66.6403198317494;0.64959716796875;0.169525146484375;3.51999999111285;353;1 A
66.6503198317241;0.649566650390625;0.169708251953125;3.52999999108761;354;1 A
66.6603198316989;0.6495361328125;0.1700439453125;3.53999999106236;355;1 A
66.6703198316736;0.64959716796875;0.17034912109375;3.54999999103711;356;1 A
66.6803198316484;0.64959716796875;0.17071533203125;3.55999999101186;357;1 A
66.6903198316231;0.649658203125;0.170989990234375;3.56999999098662;358;1 A
66.7003198315979;0.64959716796875;0.171295166015625;3.57999999096137;359;1 A
66.7103198315726;0.64959716796875;0.171295166015625;3.58999999093612;360;1 A
66.7203198315474;0.649566650390625;0.171600341796875;3.59999999091087;361;1 A
66.7303198315221;0.649566650390625;0.171722412109375;3.60999999088563;362;1 A
66.7403198314969;0.649627685546875;0.17218017578125;3.61999999086038;363;1 A
66.7503198314716;0.649566650390625;0.172637939453125;3.62999999083513;364;1 A
66.7603198314464;0.64959716796875;0.173065185546875;3.63999999080988;365;1 A
66.7703198314211;0.649627685546875;0.1734619140625;3.64999999078464;366;1 A
66.7803198313959;0.6495361328125;0.17401123046875;3.65999999075939;367;1 A
66.7903198313707;0.6495361328125;0.1741943359375;3.66999999073414;368;1 A
66.8003198313454;0.649566650390625;0.174652099609375;3.67999999070889;369;1 A
66.8103198313202;0.649566650390625;0.17486572265625;3.68999999068365;370;1 A
66.8203198312949;0.64959716796875;0.175384521484375;3.6999999906584;371;1 A
66.8303198312697;0.64959716796875;0.1759033203125;3.70999999063315;372;1 A
66.8403198312444;0.64959716796875;0.17633056640625;3.7199999906079;373;1 A
66.8503198312192;0.649566650390625;0.176513671875;3.72999999058266;374;1 A
66.8603198311939;0.649627685546875;0.176605224609375;3.73999999055741;375;1 A
66.8703198311687;0.64959716796875;0.17645263671875;3.74999999053216;376;1 A
66.8803198311434;0.649566650390625;0.176605224609375;3.75999999050691;377;1 A
66.8903198311182;0.649566650390625;0.176544189453125;3.76999999048167;378;1 A
66.9003198310929;0.6495361328125;0.176910400390625;3.77999999045642;379;1 A
66.9103198310677;0.64959716796875;0.17730712890625;3.78999999043117;380;1 A
66.9203198310424;0.649566650390625;0.177764892578125;3.79999999040592;381;1 A
66.9303198310172;0.649566650390625;0.17816162109375;3.80999999038067;382;1 A
66.9403198309919;0.649688720703125;0.1785888671875;3.81999999035543;383;1 A
66.9503198309667;0.649627685546875;0.17864990234375;3.82999999033018;384;1 A
66.9603198309414;0.64959716796875;0.178924560546875;3.83999999030493;385;1 A
66.9703198309162;0.64959716796875;0.178955078125;3.84999999027968;386;1 A
66.9803198308909;0.649566650390625;0.179443359375;3.85999999025444;387;1 A
66.9903198308657;0.649566650390625;0.17987060546875;3.86999999022919;388;1 A
67.0003198308405;0.64959716796875;0.180328369140625;3.87999999020394;389;1 A
67.0103198308152;0.649566650390625;0.1805419921875;3.88999999017869;390;1 A
67.02031983079;0.649688720703125;0.180816650390625;3.89999999015345;391;1 A
67.0303198307647;0.64959716796875;0.180816650390625;3.9099999901282;392;1 A
67.0403198307395;0.649627685546875;0.18096923828125;3.91999999010295;393;1 A
67.0503198307142;0.649566650390625;0.180877685546875;3.9299999900777;394;1 A
67.060319830689;0.649627685546875;0.180908203125;3.93999999005246;395;1 A
67.0703198306637;0.64959716796875;0.180938720703125;3.94999999002721;396;1 A
67.0803198306385;0.64959716796875;0.1810302734375;3.95999999000196;397;1 A
67.0903198306132;0.649627685546875;0.181060791015625;3.96999998997671;398;1 A
67.100319830588;0.649627685546875;0.1810302734375;3.97999998995147;399;1 A
67.1103198305627;0.64959716796875;0.18072509765625;3.98999998992622;400;1 A
67.1203198305375;0.649566650390625;0.180694580078125;3.99999998990097;401;1 A
67.1303198305122;0.649566650390625;0.18048095703125;4.00999998987572;402;1 A
67.140319830487;0.649566650390625;0.180633544921875;4.01999998985048;403;1 A
67.1503198304617;0.649566650390625;0.180755615234375;4.02999998982523;404;1 A
67.1603198304365;0.649627685546875;0.180694580078125;4.03999998979998;405;1 A
67.1703198304112;0.649566650390625;0.180694580078125;4.04999998977473;406;1 A
67.180319830386;0.6495361328125;0.18072509765625;4.05999998974949;407;1 A
67.1903198303607;0.649566650390625;0.180450439453125;4.06999998972424;408;1 A
67.2003198303355;0.64959716796875;0.180206298828125;4.07999998969899;409;1 A
67.2103198303103;0.649566650390625;0.1798095703125;4.08999998967374;410;1 A
67.220319830285;0.64959716796875;0.179534912109375;4.0999999896485;411;1 A
67.2303198302598;0.64959716796875;0.179443359375;4.10999998962325;412;1 A
67.2403198302345;0.6495361328125;0.179290771484375;4.119999989598;413;1 A
67.2503198302093;0.649566650390625;0.179107666015625;4.12999998957275;414;1 A
67.260319830184;0.649566650390625;0.178863525390625;4.1399999895475;415;1 A
67.2703198301588;0.64959716796875;0.178466796875;4.14999998952226;416;1 A
67.2803198301335;0.64959716796875;0.17840576171875;4.15999998949701;417;1 A
67.2903198301083;0.649627685546875;0.178192138671875;4.16999998947176;418;1 A
67.300319830083;0.64959716796875;0.17822265625;4.17999998944651;419;1 A
67.3103198300578;0.649566650390625;0.17816162109375;4.18999998942127;420;1 A
67.3203198300325;0.649505615234375;0.178131103515625;4.19999998939602;421;1 A
67.3303198300073;0.649566650390625;0.178070068359375;4.20999998937077;422;1 A
67.340319829982;0.649658203125;0.1781005859375;4.21999998934552;423;1 A
67.3503198299568;0.649627685546875;0.177825927734375;4.22999998932028;424;1 A
67.3603198299315;0.64959716796875;0.177825927734375;4.23999998929503;425;1 A
67.3703198299063;0.64959716796875;0.177459716796875;4.24999998926978;426;1 A
67.380319829881;0.6495361328125;0.1776123046875;4.25999998924453;427;1 A
67.3903198298558;0.649627685546875;0.17767333984375;4.26999998921929;428;1 A
67.4003198298306;0.649505615234375;0.17791748046875;4.27999998919404;429;1 A
67.4103198298053;0.649627685546875;0.177947998046875;4.28999998916879;430;1 A
67.4203198297801;0.649566650390625;0.17816162109375;4.29999998914354;431;1 A
67.4303198297548;0.64959716796875;0.1781005859375;4.3099999891183;432;1 A
67.4403198297296;0.649566650390625;0.17840576171875;4.31999998909305;433;1 A
67.4503198297043;0.6495361328125;0.178497314453125;4.3299999890678;434;1 A
67.4603198296791;0.649566650390625;0.178741455078125;4.33999998904255;435;1 A
67.4703198296538;0.649566650390625;0.1790771484375;4.34999998901731;436;1 A
67.4803198296286;0.64959716796875;0.179473876953125;4.35999998899206;437;1 A
67.4903198296033;0.64959716796875;0.17974853515625;4.36999998896681;438;1 A
67.5003198295781;0.6495361328125;0.179901123046875;4.37999998894156;439;1 A
67.5103198295528;0.6495361328125;0.1798095703125;4.38999998891632;440;1 A
67.5203198295276;0.64959716796875;0.179931640625;4.39999998889107;441;1 A
67.5303198295023;0.649566650390625;0.179931640625;4.40999998886582;442;1 A
67.5403198294771;0.649627685546875;0.180145263671875;4.41999998884057;443;1 A
67.5503198294518;0.64959716796875;0.180419921875;4.42999998881533;444;1 A
67.5603198294266;0.64959716796875;0.1805419921875;4.43999998879008;445;1 A
67.5703198294013;0.64959716796875;0.18072509765625;4.44999998876483;446;1 A
67.5803198293761;0.64959716796875;0.180908203125;4.45999998873958;447;1 A
67.5903198293508;0.64959716796875;0.18084716796875;4.46999998871433;448;1 A
67.6003198293256;0.649627685546875;0.18096923828125;4.47999998868909;449;1 A
67.6103198293004;0.64959716796875;0.180999755859375;4.48999998866384;450;1 A
67.6203198292751;0.64959716796875;0.1812744140625;4.49999998863859;451;1 A
67.6303198292499;0.649566650390625;0.181671142578125;4.50999998861334;452;1 A
67.6403198292246;0.6495361328125;0.18194580078125;4.5199999885881;453;1 A
67.6503198291994;0.64947509765625;0.18212890625;4.52999998856285;454;1 A
67.6603198291741;0.649627685546875;0.18231201171875;4.5399999885376;455;1 A
67.6703198291489;0.649627685546875;0.182342529296875;4.54999998851235;456;1 A
67.6803198291236;0.64959716796875;0.1826171875;4.55999998848711;457;1 A
67.6903198290984;0.649566650390625;0.18267822265625;4.56999998846186;458;1 A
67.7003198290731;0.649566650390625;0.182952880859375;4.57999998843661;459;1 A
67.7103198290479;0.64959716796875;0.18304443359375;4.58999998841136;460;1 A
67.7203198290226;0.64959716796875;0.183319091796875;4.59999998838612;461;1 A
67.7303198289974;0.64959716796875;0.183349609375;4.60999998836087;462;1 A
67.7403198289721;0.649627685546875;0.183563232421875;4.61999998833562;463;1 A
67.7503198289469;0.649566650390625;0.183349609375;4.62999998831037;464;1 A
67.7603198289216;0.649566650390625;0.18359375;4.63999998828513;465;1 A
67.7703198288964;0.64959716796875;0.18341064453125;4.64999998825988;466;1 A
67.7803198288711;0.649566650390625;0.183685302734375;4.65999998823463;467;1 A
67.7903198288459;0.64959716796875;0.183868408203125;4.66999998820938;468;1 A
67.8003198288206;0.649505615234375;0.184051513671875;4.67999998818414;469;1 A
67.8103198287954;0.64959716796875;0.184051513671875;4.68999998815889;470;1 A
67.8203198287702;0.649627685546875;0.184051513671875;4.69999998813364;471;1 A
67.8303198287449;0.649566650390625;0.18377685546875;4.70999998810839;472;1 A
67.8403198287197;0.649566650390625;0.18365478515625;4.71999998808315;473;1 A
67.8503198286944;0.649566650390625;0.183441162109375;4.7299999880579;474;1 A
67.8603198286692;0.649627685546875;0.18328857421875;4.73999998803265;475;1 A
67.8703198286439;0.64959716796875;0.18328857421875;4.7499999880074;476;1 A
67.8803198286187;0.649566650390625;0.183258056640625;4.75999998798216;477;1 A
67.8903198285934;0.64959716796875;0.183197021484375;4.76999998795691;478;1 A
67.9003198285682;0.6495361328125;0.183013916015625;4.77999998793166;479;1 A
67.9103198285429;0.649627685546875;0.182647705078125;4.78999998790641;480;1 A
67.9203198285177;0.649627685546875;0.182647705078125;4.79999998788116;481;1 A
67.9303198284924;0.649566650390625;0.18255615234375;4.80999998785592;482;1 A
67.9403198284672;0.649566650390625;0.1826171875;4.81999998783067;483;1 A
67.9503198284419;0.6495361328125;0.18255615234375;4.82999998780542;484;1 A
67.9603198284167;0.649566650390625;0.1822509765625;4.83999998778017;485;1 A
67.9703198283914;0.64959716796875;0.181976318359375;4.84999998775493;486;1 A
67.9803198283662;0.649566650390625;0.18170166015625;4.85999998772968;487;1 A
67.9903198283409;0.64959716796875;0.181060791015625;4.86999998770443;488;1 A
68.0003198283157;0.6495361328125;0.1806640625;4.87999998767918;489;1 A
68.0103198282904;0.649627685546875;0.17999267578125;4.88999998765394;490;1 A
68.0203198282652;0.64959716796875;0.1795654296875;4.89999998762869;491;1 A
68.03031982824;0.6495361328125;0.179168701171875;4.90999998760344;492;1 A
68.0403198282147;0.6495361328125;0.178680419921875;4.91999998757819;493;1 A
68.0503198281895;0.6495361328125;0.177978515625;4.92999998755295;494;1 A
68.0603198281642;0.649627685546875;0.17742919921875;4.9399999875277;495;1 A
68.070319828139;0.649627685546875;0.1767578125;4.94999998750245;496;1 A
68.0803198281137;0.649566650390625;0.176422119140625;4.9599999874772;497;1 A
68.0903198280885;0.649566650390625;0.1759033203125;4.96999998745196;498;1 A
68.1003198280632;0.6495361328125;0.175689697265625;4.97999998742671;499;1 A
68.110319828038;0.649566650390625;0.1754150390625;4.98999998740146;500;1 A
68.1203198280127;0.6495361328125;0.175262451171875;4.99999998737621;501;1 A
68.1303198279875;0.64959716796875;0.175079345703125;5.00999998735097;502;1 A
68.1403198279622;0.649658203125;0.1749267578125;5.01999998732572;503;1 A
68.150319827937;0.649566650390625;0.174560546875;5.02999998730047;504;1 A
68.1603198279117;0.6495361328125;0.174468994140625;5.03999998727522;505;1 A
68.1703198278865;0.6495361328125;0.1741943359375;5.04999998724998;506;1 A
68.1803198278612;0.649566650390625;0.17437744140625;5.05999998722473;507;1 A
68.190319827836;0.649566650390625;0.174591064453125;5.06999998719948;508;1 A
68.2003198278107;0.6495361328125;0.174835205078125;5.07999998717423;509;1 A
68.2103198277855;0.64959716796875;0.174896240234375;5.08999998714899;510;1 A
68.2203198277602;0.649505615234375;0.175018310546875;5.09999998712374;511;1 A
68.230319827735;0.649566650390625;0.1748046875;5.10999998709849;512;1 A
68.2403198277098;0.649627685546875;0.1748046875;5.11999998707324;513;1 A
68.2503198276845;0.6495361328125;0.174560546875;5.129999987048;514;1 A
68.2603198276593;0.649566650390625;0.174407958984375;5.13999998702275;515;1 A
68.270319827634;0.64959716796875;0.174407958984375;5.1499999869975;516;1 A
68.2803198276088;0.649566650390625;0.17431640625;5.15999998697225;517;1 A
68.2903198275835;0.649566650390625;0.174102783203125;5.169999986947;518;1 A
68.3003198275583;0.649566650390625;0.173858642578125;5.17999998692176;519;1 A
68.310319827533;0.64959716796875;0.17333984375;5.18999998689651;520;1 A
68.3203198275078;0.64959716796875;0.173248291015625;5.19999998687126;521;1 A
68.3303198274825;0.64959716796875;0.17303466796875;5.20999998684601;522;1 A
68.3403198274573;0.649627685546875;0.173065185546875;5.21999998682077;523;1 A
68.350319827432;0.6495361328125;0.173065185546875;5.22999998679552;524;1 A
68.3603198274068;0.649566650390625;0.17291259765625;5.23999998677027;525;1 A
68.3703198273815;0.649566650390625;0.172882080078125;5.24999998674502;526;1 A
68.3803198273563;0.64959716796875;0.172943115234375;5.25999998671978;527;1 A
68.390319827331;0.64959716796875;0.17279052734375;5.26999998669453;528;1 A
68.4003198273058;0.649627685546875;0.1728515625;5.27999998666928;529;1 A
68.4103198272805;0.6495361328125;0.172698974609375;5.28999998664403;530;1 A
68.4203198272553;0.6495361328125;0.172943115234375;5.29999998661879;531;1 A
68.4303198272301;0.64959716796875;0.173126220703125;5.30999998659354;532;1 A
68.4403198272048;0.649566650390625;0.173095703125;5.31999998656829;533;1 A
68.4503198271796;0.649566650390625;0.17291259765625;5.32999998654304;534;1 A
68.4603198271543;0.64959716796875;0.172637939453125;5.3399999865178;535;1 A
68.4703198271291;0.64959716796875;0.172210693359375;5.34999998649255;536;1 A
68.4803198271038;0.649566650390625;0.172027587890625;5.3599999864673;537;1 A
68.4903198270786;0.6495361328125;0.17156982421875;5.36999998644205;538;1 A
68.5003198270533;0.649566650390625;0.17138671875;5.37999998641681;539;1 A
68.5103198270281;0.6495361328125;0.171234130859375;5.38999998639156;540;1 A
68.5203198270028;0.649566650390625;0.171142578125;5.39999998636631;541;1 A
68.5303198269776;0.64959716796875;0.17095947265625;5.40999998634106;542;1 A
68.5403198269523;0.649627685546875;0.1707763671875;5.41999998631582;543;1 A
68.5503198269271;0.649566650390625;0.1702880859375;5.42999998629057;544;1 A
68.5603198269018;0.6495361328125;0.17010498046875;5.43999998626532;545;1 A
68.5703198268766;0.6495361328125;0.169647216796875;5.44999998624007;546;1 A
68.5803198268513;0.649566650390625;0.169677734375;5.45999998621483;547;1 A
68.5903198268261;0.6495361328125;0.169708251953125;5.46999998618958;548;1 A
68.6003198268008;0.649627685546875;0.169677734375;5.47999998616433;549;1 A
68.6103198267756;0.649658203125;0.1695556640625;5.48999998613908;550;1 A
68.6203198267503;0.649566650390625;0.1695556640625;5.49999998611383;551;1 A
68.6303198267251;0.64959716796875;0.169281005859375;5.50999998608859;552;1 A
68.6403198266999;0.64959716796875;0.169281005859375;5.51999998606334;553;1 A
68.6503198266746;0.649566650390625;0.169097900390625;5.52999998603809;554;1 A
68.6603198266494;0.64959716796875;0.1690673828125;5.53999998601284;555;1 A
68.6703198266241;0.64959716796875;0.16912841796875;5.5499999859876;556;1 A
68.6803198265989;0.649505615234375;0.169219970703125;5.55999998596235;557;1 A
68.6903198265736;0.6495361328125;0.169219970703125;5.5699999859371;558;1 A
68.7003198265484;0.649566650390625;0.16937255859375;5.57999998591185;559;1 A
68.7103198265231;0.649566650390625;0.169281005859375;5.58999998588661;560;1 A
68.7203198264979;0.64959716796875;0.169525146484375;5.59999998586136;561;1 A
68.7303198264726;0.649627685546875;0.169586181640625;5.60999998583611;562;1 A
68.7403198264474;0.64959716796875;0.170013427734375;5.61999998581086;563;1 A
68.7503198264221;0.64959716796875;0.170501708984375;5.62999998578562;564;1 A
68.7603198263969;0.649627685546875;0.1707763671875;5.63999998576037;565;1 A
68.7703198263716;0.6495361328125;0.17108154296875;5.64999998573512;566;1 A
68.7803198263464;0.64959716796875;0.1712646484375;5.65999998570987;567;1 A
68.7903198263211;0.6495361328125;0.171142578125;5.66999998568463;568;1 A
68.8003198262959;0.649566650390625;0.171234130859375;5.67999998565938;569;1 A
68.8103198262706;0.64959716796875;0.1710205078125;5.68999998563413;570;1 A
68.8203198262454;0.649566650390625;0.17120361328125;5.69999998560888;571;1 A
68.8303198262201;0.64959716796875;0.171417236328125;5.70999998558364;572;1 A
68.8403198261949;0.64959716796875;0.1715087890625;5.71999998555839;573;1 A
68.8503198261697;0.64959716796875;0.171539306640625;5.72999998553314;574;1 A
68.8603198261444;0.649688720703125;0.171661376953125;5.73999998550789;575;1 A
68.8703198261192;0.649566650390625;0.171661376953125;5.74999998548265;576;1 A
68.8803198260939;0.64959716796875;0.171905517578125;5.7599999854574;577;1 A
68.8903198260687;0.6495361328125;0.172027587890625;5.76999998543215;578;1 A
68.9003198260434;0.649566650390625;0.17242431640625;5.7799999854069;579;1 A
68.9103198260182;0.64959716796875;0.17279052734375;5.78999998538166;580;1 A
68.9203198259929;0.649627685546875;0.17327880859375;5.79999998535641;581;1 A
68.9303198259677;0.64959716796875;0.173583984375;5.80999998533116;582;1 A
68.9403198259424;0.64959716796875;0.173858642578125;5.81999998530591;583;1 A
68.9503198259172;0.649627685546875;0.173675537109375;5.82999998528066;584;1 A
68.9603198258919;0.64959716796875;0.173858642578125;5.83999998525542;585;1 A
68.9703198258667;0.64959716796875;0.17376708984375;5.84999998523017;586;1 A
68.9803198258414;0.649566650390625;0.174102783203125;5.85999998520492;587;1 A
68.9903198258162;0.6495361328125;0.17437744140625;5.86999998517967;588;1 A
69.0003198257909;0.64959716796875;0.174530029296875;5.87999998515443;589;1 A
69.0103198257657;0.649566650390625;0.174713134765625;5.88999998512918;590;1 A
69.0203198257404;0.649627685546875;0.175079345703125;5.89999998510393;591;1 A
69.0303198257152;0.649688720703125;0.175201416015625;5.90999998507868;592;1 A
69.0403198256899;0.649566650390625;0.175567626953125;5.91999998505344;593;1 A
69.0503198256647;0.64959716796875;0.17584228515625;5.92999998502819;594;1 A
69.0603198256395;0.649627685546875;0.17620849609375;5.93999998500294;595;1 A
69.0703198256142;0.6495361328125;0.176727294921875;5.94999998497769;596;1 A
69.080319825589;0.64959716796875;0.177093505859375;5.95999998495245;597;1 A
69.0903198255637;0.6495361328125;0.177490234375;5.9699999849272;598;1 A
69.1003198255385;0.649627685546875;0.177764892578125;5.97999998490195;599;1 A
69.1103198255132;0.64959716796875;0.17779541015625;5.9899999848767;600;1 A
69.120319825488;0.649566650390625;0.177978515625;5.99999998485146;601;1 A
69.1303198254627;0.649627685546875;0.177886962890625;6.00999998482621;602;1 A
69.1403198254375;0.649627685546875;0.177978515625;6.01999998480096;603;1 A
69.1503198254122;0.649505615234375;0.17803955078125;6.02999998477571;604;1 A
69.160319825387;0.64959716796875;0.178070068359375;6.03999998475047;605;1 A
69.1703198253617;0.6495361328125;0.1781005859375;6.04999998472522;606;1 A
69.1803198253365;0.64959716796875;0.178192138671875;6.05999998469997;607;1 A
69.1903198253112;0.649566650390625;0.177978515625;6.06999998467472;608;1 A
69.200319825286;0.6495361328125;0.178131103515625;6.07999998464948;609;1 A
69.2103198252607;0.6495361328125;0.177978515625;6.08999998462423;610;1 A
69.2203198252355;0.649566650390625;0.17840576171875;6.09999998459898;611;1 A
69.2303198252102;0.64959716796875;0.178741455078125;6.10999998457373;612;1 A
69.240319825185;0.649627685546875;0.17919921875;6.11999998454849;613;1 A
69.2503198251597;0.64959716796875;0.179443359375;6.12999998452324;614;1 A
69.2603198251345;0.649627685546875;0.17987060546875;6.13999998449799;615;1 A
69.2703198251093;0.649566650390625;0.17999267578125;6.14999998447274;616;1 A
69.280319825084;0.6495361328125;0.180328369140625;6.1599999844475;617;1 A
69.2903198250588;0.649566650390625;0.18035888671875;6.16999998442225;618;1 A
69.3003198250335;0.649627685546875;0.1805419921875;6.179999984397;619;1 A
69.3103198250083;0.64959716796875;0.18072509765625;6.18999998437175;620;1 A
69.320319824983;0.649566650390625;0.180999755859375;6.1999999843465;621;1 A
69.3303198249578;0.64959716796875;0.18121337890625;6.20999998432126;622;1 A
69.3403198249325;0.649566650390625;0.181365966796875;6.21999998429601;623;1 A
69.3503198249073;0.649566650390625;0.181365966796875;6.22999998427076;624;1 A
69.360319824882;0.64959716796875;0.181549072265625;6.23999998424551;625;1 A
69.3703198248568;0.64959716796875;0.18170166015625;6.24999998422027;626;1 A
69.3803198248315;0.649627685546875;0.182037353515625;6.25999998419502;627;1 A
69.3903198248063;0.64959716796875;0.182373046875;6.26999998416977;628;1 A
69.400319824781;0.64959716796875;0.1824951171875;6.27999998414452;629;1 A
69.4103198247558;0.649627685546875;0.182647705078125;6.28999998411928;630;1 A
69.4203198247305;0.649658203125;0.18280029296875;6.29999998409403;631;1 A
69.4303198247053;0.64959716796875;0.1826171875;6.30999998406878;632;1 A
69.44031982468;0.649627685546875;0.1826171875;6.31999998404353;633;1 A
69.4503198246548;0.64959716796875;0.1824951171875;6.32999998401829;634;1 A
69.4603198246296;0.64959716796875;0.182525634765625;6.33999998399304;635;1 A
69.4703198246043;0.64959716796875;0.182647705078125;6.34999998396779;636;1 A
69.4803198245791;0.6495361328125;0.182708740234375;6.35999998394254;637;1 A
69.4903198245538;0.649566650390625;0.1826171875;6.3699999839173;638;1 A
69.5003198245286;0.649627685546875;0.182464599609375;6.37999998389205;639;1 A
69.5103198245033;0.649566650390625;0.1820068359375;6.3899999838668;640;1 A
69.5203198244781;0.6495361328125;0.1817626953125;6.39999998384155;641;1 A
69.5303198244528;0.64959716796875;0.181304931640625;6.40999998381631;642;1 A
69.5403198244276;0.64959716796875;0.181182861328125;6.41999998379106;643;1 A
69.5503198244023;0.64959716796875;0.181060791015625;6.42999998376581;644;1 A
69.5603198243771;0.649627685546875;0.18109130859375;6.43999998374056;645;1 A
69.5703198243518;0.64959716796875;0.1810302734375;6.44999998371532;646;1 A
69.5803198243266;0.649658203125;0.18109130859375;6.45999998369007;647;1 A
69.5903198243013;0.6495361328125;0.180816650390625;6.46999998366482;648;1 A
69.6003198242761;0.649566650390625;0.180877685546875;6.47999998363957;649;1 A
69.6103198242508;0.64959716796875;0.1805419921875;6.48999998361433;650;1 A
69.6203198242256;0.64959716796875;0.180755615234375;6.49999998358908;651;1 A
69.6303198242003;0.649566650390625;0.180877685546875;6.50999998356383;652;1 A
69.6403198241751;0.649658203125;0.180999755859375;6.51999998353858;653;1 A
69.6503198241498;0.649566650390625;0.180908203125;6.52999998351333;654;1 A
69.6603198241246;0.64959716796875;0.18084716796875;6.53999998348809;655;1 A
69.6703198240994;0.64959716796875;0.1805419921875;6.54999998346284;656;1 A
69.6803198240741;0.6495361328125;0.1805419921875;6.55999998343759;657;1 A
69.6903198240489;0.64959716796875;0.180450439453125;6.56999998341234;658;1 A
69.7003198240236;0.649566650390625;0.180419921875;6.5799999833871;659;1 A
69.7103198239984;0.649566650390625;0.180572509765625;6.58999998336185;660;1 A
69.7203198239731;0.64959716796875;0.1806640625;6.5999999833366;661;1 A
69.7303198239479;0.64959716796875;0.18072509765625;6.60999998331135;662;1 A
69.7403198239226;0.6495361328125;0.180633544921875;6.61999998328611;663;1 A
69.7503198238974;0.64959716796875;0.1802978515625;6.62999998326086;664;1 A
69.7603198238721;0.649566650390625;0.180267333984375;6.63999998323561;665;1 A
69.7703198238469;0.64959716796875;0.180023193359375;6.64999998321036;666;1 A
69.7803198238216;0.649627685546875;0.17999267578125;6.65999998318512;667;1 A
69.7903198237964;0.6495361328125;0.179962158203125;6.66999998315987;668;1 A
69.8003198237711;0.64959716796875;0.179718017578125;6.67999998313462;669;1 A
69.8103198237459;0.649505615234375;0.179473876953125;6.68999998310937;670;1 A
69.8203198237206;0.649566650390625;0.179168701171875;6.69999998308413;671;1 A
69.8303198236954;0.649627685546875;0.17852783203125;6.70999998305888;672;1 A
69.8403198236701;0.649566650390625;0.178131103515625;6.71999998303363;673;1 A
69.8503198236449;0.64959716796875;0.17755126953125;6.72999998300838;674;1 A
69.8603198236196;0.64959716796875;0.1773681640625;6.73999998298314;675;1 A
69.8703198235944;0.6495361328125;0.1773681640625;6.74999998295789;676;1 A
69.8803198235692;0.64959716796875;0.177337646484375;6.75999998293264;677;1 A
69.8903198235439;0.64959716796875;0.177154541015625;6.76999998290739;678;1 A
69.9003198235187;0.649627685546875;0.176971435546875;6.77999998288215;679;1 A
69.9103198234934;0.649566650390625;0.176513671875;6.7899999828569;680;1 A
69.9203198234682;0.649566650390625;0.17626953125;6.79999998283165;681;1 A
69.9303198234429;0.649566650390625;0.17572021484375;6.8099999828064;682;1 A
69.9403198234177;0.64959716796875;0.175445556640625;6.81999998278116;683;1 A
69.9503198233924;0.6495361328125;0.175018310546875;6.82999998275591;684;1 A
69.9603198233672;0.649566650390625;0.174652099609375;6.83999998273066;685;1 A
69.9703198233419;0.64959716796875;0.174285888671875;6.84999998270541;686;1 A
69.9803198233167;0.649627685546875;0.17401123046875;6.85999998268016;687;1 A
69.9903198232914;0.6495361328125;0.1734619140625;6.86999998265492;688;1 A
70.0003198232662;0.64959716796875;0.173309326171875;6.87999998262967;689;1 A
70.0103198232409;0.649627685546875;0.1729736328125;6.88999998260442;690;1 A
70.0203198232157;0.649566650390625;0.173126220703125;6.89999998257917;691;1 A
70.0303198231904;0.649566650390625;0.17333984375;6.90999998255393;692;1 A
70.0403198231652;0.649627685546875;0.173583984375;6.91999998252868;693;1 A
70.0503198231399;0.649627685546875;0.173797607421875;6.92999998250343;694;1 A
70.0603198231147;0.64959716796875;0.174102783203125;6.93999998247818;695;1 A
70.0703198230894;0.649566650390625;0.174102783203125;6.94999998245294;696;1 A
70.0803198230642;0.6495361328125;0.174224853515625;6.95999998242769;697;1 A
70.090319823039;0.649566650390625;0.174224853515625;6.96999998240244;698;1 A
70.1003198230137;0.649627685546875;0.17425537109375;6.97999998237719;699;1 A
70.1103198229885;0.649566650390625;0.1744384765625;6.98999998235195;700;1 A
70.1203198229632;0.649658203125;0.174560546875;6.9999999823267;701;1 A
70.130319822938;0.649566650390625;0.17462158203125;7.00999998230145;702;1 A
70.1403198229127;0.649566650390625;0.174652099609375;7.0199999822762;703;1 A
70.1503198228875;0.64959716796875;0.174407958984375;7.02999998225096;704;1 A
70.1603198228622;0.649658203125;0.174407958984375;7.03999998222571;705;1 A
70.170319822837;0.64959716796875;0.17425537109375;7.04999998220046;706;1 A
70.1803198228117;0.64959716796875;0.174346923828125;7.05999998217521;707;1 A
70.1903198227865;0.6495361328125;0.17449951171875;7.06999998214997;708;1 A
70.2003198227612;0.64959716796875;0.17449951171875;7.07999998212472;709;1 A
70.210319822736;0.649566650390625;0.174468994140625;7.08999998209947;710;1 A
70.2203198227107;0.64959716796875;0.174530029296875;7.09999998207422;711;1 A
70.2303198226855;0.649566650390625;0.17425537109375;7.10999998204898;712;1 A
70.2403198226602;0.649627685546875;0.17425537109375;7.11999998202373;713;1 A
70.250319822635;0.649566650390625;0.174102783203125;7.12999998199848;714;1 A
70.2603198226097;0.649566650390625;0.17425537109375;7.13999998197323;715;1 A
70.2703198225845;0.649566650390625;0.174468994140625;7.14999998194799;716;1 A
70.2803198225592;0.649627685546875;0.174468994140625;7.15999998192274;717;1 A
70.290319822534;0.649627685546875;0.17437744140625;7.16999998189749;718;1 A
70.3003198225088;0.649658203125;0.174163818359375;7.17999998187224;719;1 A
70.3103198224835;0.649566650390625;0.173858642578125;7.189999981847;720;1 A
70.3203198224583;0.6495361328125;0.17388916015625;7.19999998182175;721;1 A
70.330319822433;0.649566650390625;0.1737060546875;7.2099999817965;722;1 A
70.3403198224078;0.649566650390625;0.1737060546875;7.21999998177125;723;1 A
70.3503198223825;0.649566650390625;0.173736572265625;7.229999981746;724;1 A
70.3603198223573;0.649566650390625;0.173828125;7.23999998172076;725;1 A
70.370319822332;0.649566650390625;0.17388916015625;7.24999998169551;726;1 A
70.3803198223068;0.64959716796875;0.1739501953125;7.25999998167026;727;1 A
70.3903198222815;0.64959716796875;0.17376708984375;7.26999998164501;728;1 A
70.4003198222563;0.64959716796875;0.173828125;7.27999998161977;729;1 A
70.410319822231;0.64959716796875;0.173675537109375;7.28999998159452;730;1 A
70.4203198222058;0.649688720703125;0.1739501953125;7.29999998156927;731;1 A
70.4303198221805;0.64959716796875;0.174163818359375;7.30999998154402;732;1 A
70.4403198221553;0.649627685546875;0.17431640625;7.31999998151878;733;1 A
70.45031982213;0.64959716796875;0.17431640625;7.32999998149353;734;1 A
70.4603198221048;0.64959716796875;0.1744384765625;7.33999998146828;735;1 A
70.4703198220795;0.6495361328125;0.17431640625;7.34999998144303;736;1 A
70.4803198220543;0.64959716796875;0.174407958984375;7.35999998141779;737;1 A
70.4903198220291;0.649627685546875;0.17437744140625;7.36999998139254;738;1 A
70.5003198220038;0.64959716796875;0.174468994140625;7.37999998136729;739;1 A
70.5103198219786;0.649658203125;0.17474365234375;7.38999998134204;740;1 A
70.5203198219533;0.64959716796875;0.174957275390625;7.3999999813168;741;1 A
70.5303198219281;0.64959716796875;0.175140380859375;7.40999998129155;742;1 A
70.5403198219028;0.649566650390625;0.175262451171875;7.4199999812663;743;1 A
70.5503198218776;0.649627685546875;0.1751708984375;7.42999998124105;744;1 A
70.5603198218523;0.64959716796875;0.175384521484375;7.43999998121581;745;1 A
70.5703198218271;0.649566650390625;0.175537109375;7.44999998119056;746;1 A
70.5803198218018;0.649566650390625;0.175872802734375;7.45999998116531;747;1 A
70.5903198217766;0.649566650390625;0.17626953125;7.46999998114006;748;1 A
70.6003198217513;0.6495361328125;0.176483154296875;7.47999998111482;749;1 A
70.6103198217261;0.6495361328125;0.176788330078125;7.48999998108957;750;1 A
70.6203198217008;0.649566650390625;0.177032470703125;7.49999998106432;751;1 A
70.6303198216756;0.64959716796875;0.17694091796875;7.50999998103907;752;1 A
70.6403198216503;0.649627685546875;0.176971435546875;7.51999998101383;753;1 A
70.6503198216251;0.6495361328125;0.1767578125;7.52999998098858;754;1 A
70.6603198215998;0.64959716796875;0.1768798828125;7.53999998096333;755;1 A
70.6703198215746;0.64959716796875;0.1771240234375;7.54999998093808;756;1 A
70.6803198215493;0.649627685546875;0.17724609375;7.55999998091283;757;1 A
70.6903198215241;0.64959716796875;0.17724609375;7.56999998088759;758;1 A
70.7003198214989;0.649627685546875;0.177215576171875;7.57999998086234;759;1 A
70.7103198214736;0.6495361328125;0.176971435546875;7.58999998083709;760;1 A
70.7203198214484;0.649566650390625;0.17694091796875;7.59999998081184;761;1 A
70.7303198214231;0.64959716796875;0.176727294921875;7.6099999807866;762;1 A
70.7403198213979;0.64959716796875;0.1766357421875;7.61999998076135;763;1 A
70.7503198213726;0.6495361328125;0.176483154296875;7.6299999807361;764;1 A
70.7603198213474;0.649688720703125;0.17633056640625;7.63999998071085;765;1 A
70.7703198213221;0.64959716796875;0.176055908203125;7.64999998068561;766;1 A
70.7803198212969;0.649505615234375;0.175689697265625;7.65999998066036;767;1 A
70.7903198212716;0.64959716796875;0.175018310546875;7.66999998063511;768;1 A
70.8003198212464;0.64959716796875;0.174652099609375;7.67999998060986;769;1 A
70.8103198212211;0.649566650390625;0.174102783203125;7.68999998058462;770;1 A
70.8203198211959;0.649566650390625;0.173919677734375;7.69999998055937;771;1 A
70.8303198211706;0.649566650390625;0.173675537109375;7.70999998053412;772;1 A
70.8403198211454;0.64959716796875;0.173370361328125;7.71999998050887;773;1 A
70.8503198211201;0.64959716796875;0.173095703125;7.72999998048363;774;1 A
70.8603198210949;0.649505615234375;0.1729736328125;7.73999998045838;775;1 A
70.8703198210696;0.64959716796875;0.172637939453125;7.74999998043313;776;1 A
70.8803198210444;0.64959716796875;0.17266845703125;7.75999998040788;777;1 A
70.8903198210191;0.649627685546875;0.172607421875;7.76999998038264;778;1 A
70.9003198209939;0.6495361328125;0.172607421875;7.77999998035739;779;1 A
70.9103198209687;0.649658203125;0.172821044921875;7.78999998033214;780;1 A
70.9203198209434;0.6495361328125;0.1728515625;7.79999998030689;781;1 A
70.9303198209182;0.649566650390625;0.172821044921875;7.80999998028165;782;1 A
70.9403198208929;0.649688720703125;0.172760009765625;7.8199999802564;783;1 A
70.9503198208677;0.64959716796875;0.172576904296875;7.82999998023115;784;1 A
70.9603198208424;0.649627685546875;0.172760009765625;7.8399999802059;785;1 A
70.9703198208172;0.6495361328125;0.17279052734375;7.84999998018066;786;1 A
70.9803198207919;0.6495361328125;0.1729736328125;7.85999998015541;787;1 A
70.9903198207667;0.649566650390625;0.173095703125;7.86999998013016;788;1 A
71.0003198207414;0.649566650390625;0.17303466796875;7.87999998010491;789;1 A
71.0103198207162;0.649566650390625;0.17303466796875;7.88999998007966;790;1 A
71.0203198206909;0.649627685546875;0.173065185546875;7.89999998005442;791;1 A
71.0303198206657;0.6495361328125;0.172760009765625;7.90999998002917;792;1 A
71.0403198206404;0.649566650390625;0.17279052734375;7.91999998000392;793;1 A
71.0503198206152;0.649627685546875;0.172576904296875;7.92999997997867;794;1 A
71.0603198205899;0.64959716796875;0.17279052734375;7.93999997995343;795;1 A
71.0703198205647;0.64959716796875;0.173004150390625;7.94999997992818;796;1 A
71.0803198205394;0.64959716796875;0.1732177734375;7.95999997990293;797;1 A
71.0903198205142;0.649627685546875;0.173248291015625;7.96999997987768;798;1 A
71.1003198204889;0.649566650390625;0.173370361328125;7.97999997985244;799;1 A
71.1103198204637;0.649566650390625;0.17327880859375;7.98999997982719;800;1 A
71.1203198204385;0.64959716796875;0.173431396484375;7.99999997980194;801;1 A
71.1303198204132;0.64959716796875;0.173370361328125;8.00999997977669;802;1 A
71.140319820388;0.64959716796875;0.17352294921875;8.01999997975145;803;1 A
71.1503198203627;0.64959716796875;0.1737060546875;8.0299999797262;804;1 A
71.1603198203375;0.649566650390625;0.173980712890625;8.03999997970095;805;1 A
71.1703198203122;0.64959716796875;0.174224853515625;8.0499999796757;806;1 A
71.180319820287;0.649566650390625;0.1744384765625;8.05999997965046;807;1 A
71.1903198202617;0.64959716796875;0.174407958984375;8.06999997962521;808;1 A
71.2003198202365;0.649627685546875;0.174713134765625;8.07999997959996;809;1 A
71.2103198202112;0.649627685546875;0.174896240234375;8.08999997957471;810;1 A
71.220319820186;0.649627685546875;0.1754150390625;8.09999997954947;811;1 A
71.2303198201607;0.6495361328125;0.175933837890625;8.10999997952422;812;1 A
71.2403198201355;0.649566650390625;0.176239013671875;8.11999997949897;813;1 A
71.2503198201102;0.6495361328125;0.176513671875;8.12999997947372;814;1 A
71.260319820085;0.64959716796875;0.1767578125;8.13999997944848;815;1 A
71.2703198200597;0.6495361328125;0.17669677734375;8.14999997942323;816;1 A
71.2803198200345;0.649627685546875;0.176788330078125;8.15999997939798;817;1 A
71.2903198200092;0.64959716796875;0.1767578125;8.16999997937273;818;1 A
71.300319819984;0.649566650390625;0.17681884765625;8.17999997934749;819;1 A
71.3103198199587;0.649566650390625;0.177032470703125;8.18999997932224;820;1 A
71.3203198199335;0.64959716796875;0.17718505859375;8.19999997929699;821;1 A
71.3303198199083;0.649688720703125;0.17730712890625;8.20999997927174;822;1 A
71.340319819883;0.64959716796875;0.17742919921875;8.2199999792465;823;1 A
71.3503198198578;0.64959716796875;0.177398681640625;8.22999997922125;824;1 A
71.3603198198325;0.649566650390625;0.17767333984375;8.239999979196;825;1 A
71.3703198198073;0.649566650390625;0.177764892578125;8.24999997917075;826;1 A
71.380319819782;0.64959716796875;0.178131103515625;8.2599999791455;827;1 A
71.3903198197568;0.64959716796875;0.178436279296875;8.26999997912026;828;1 A
71.4003198197315;0.649566650390625;0.1788330078125;8.27999997909501;829;1 A
71.4103198197063;0.649627685546875;0.179168701171875;8.28999997906976;830;1 A
71.420319819681;0.649566650390625;0.179534912109375;8.29999997904451;831;1 A
71.4303198196558;0.64959716796875;0.179412841796875;8.30999997901927;832;1 A
71.4403198196305;0.649658203125;0.179534912109375;8.31999997899402;833;1 A
71.4503198196053;0.6495361328125;0.17938232421875;8.32999997896877;834;1 A
71.46031981958;0.649658203125;0.179595947265625;8.33999997894352;835;1 A
71.4703198195548;0.649566650390625;0.179718017578125;8.34999997891828;836;1 A
71.4803198195295;0.64959716796875;0.17987060546875;8.35999997889303;837;1 A
71.4903198195043;0.649627685546875;0.179718017578125;8.36999997886778;838;1 A
71.500319819479;0.649566650390625;0.1796875;8.37999997884253;839;1 A
71.5103198194538;0.6495361328125;0.179412841796875;8.38999997881729;840;1 A
71.5203198194286;0.64959716796875;0.17938232421875;8.39999997879204;841;1 A
71.5303198194033;0.649658203125;0.179229736328125;8.40999997876679;842;1 A
71.5403198193781;0.64959716796875;0.17913818359375;8.41999997874154;843;1 A
71.5503198193528;0.6495361328125;0.179107666015625;8.4299999787163;844;1 A
71.5603198193276;0.64959716796875;0.17913818359375;8.43999997869105;845;1 A
71.5703198193023;0.649566650390625;0.17919921875;8.4499999786658;846;1 A
71.5803198192771;0.6495361328125;0.179168701171875;8.45999997864055;847;1 A
71.5903198192518;0.64959716796875;0.178924560546875;8.46999997861531;848;1 A
71.6003198192266;0.649566650390625;0.178955078125;8.47999997859006;849;1 A
71.6103198192013;0.649627685546875;0.178802490234375;8.48999997856481;850;1 A
71.6203198191761;0.649566650390625;0.178802490234375;8.49999997853956;851;1 A
71.6303198191508;0.64959716796875;0.178741455078125;8.50999997851432;852;1 A
71.6403198191256;0.64959716796875;0.178497314453125;8.51999997848907;853;1 A
71.6503198191003;0.649566650390625;0.178192138671875;8.52999997846382;854;1 A
71.6603198190751;0.649627685546875;0.177947998046875;8.53999997843857;855;1 A
71.6703198190498;0.64959716796875;0.177398681640625;8.54999997841333;856;1 A
71.6803198190246;0.649566650390625;0.17718505859375;8.55999997838808;857;1 A
71.6903198189993;0.64959716796875;0.176788330078125;8.56999997836283;858;1 A
71.7003198189741;0.64959716796875;0.17657470703125;8.57999997833758;859;1 A
71.7103198189488;0.649566650390625;0.1763916015625;8.58999997831233;860;1 A
71.7203198189236;0.649627685546875;0.176116943359375;8.59999997828709;861;1 A
71.7303198188984;0.64959716796875;0.17578125;8.60999997826184;862;1 A
71.7403198188731;0.649566650390625;0.175445556640625;8.61999997823659;863;1 A
71.7503198188479;0.64959716796875;0.17498779296875;8.62999997821134;864;1 A
71.7603198188226;0.649566650390625;0.174835205078125;8.6399999781861;865;1 A
71.7703198187974;0.64959716796875;0.174468994140625;8.64999997816085;866;1 A
71.7803198187721;0.649627685546875;0.174468994140625;8.6599999781356;867;1 A
71.7903198187469;0.649566650390625;0.17449951171875;8.66999997811035;868;1 A
71.8003198187216;0.649627685546875;0.174560546875;8.67999997808511;869;1 A
71.8103198186964;0.64959716796875;0.174560546875;8.68999997805986;870;1 A
71.8203198186711;0.649505615234375;0.17462158203125;8.69999997803461;871;1 A
71.8303198186459;0.649627685546875;0.174346923828125;8.70999997800936;872;1 A
71.8403198186206;0.64959716796875;0.17437744140625;8.71999997798412;873;1 A
71.8503198185954;0.649688720703125;0.17425537109375;8.72999997795887;874;1 A
71.8603198185701;0.649627685546875;0.17449951171875;8.73999997793362;875;1 A
71.8703198185449;0.649566650390625;0.1746826171875;8.74999997790837;876;1 A
71.8803198185196;0.649658203125;0.1748046875;8.75999997788313;877;1 A
71.8903198184944;0.64959716796875;0.174835205078125;8.76999997785788;878;1 A
71.9003198184691;0.64959716796875;0.174957275390625;8.77999997783263;879;1 A
71.9103198184439;0.649627685546875;0.174957275390625;8.78999997780738;880;1 A
71.9203198184186;0.64959716796875;0.175262451171875;8.79999997778214;881;1 A
71.9303198183934;0.64959716796875;0.17547607421875;8.80999997775689;882;1 A
71.9403198183682;0.64959716796875;0.17578125;8.81999997773164;883;1 A
71.9503198183429;0.64959716796875;0.176116943359375;8.82999997770639;884;1 A
71.9603198183177;0.64959716796875;0.1763916015625;8.83999997768115;885;1 A
71.9703198182924;0.64959716796875;0.176483154296875;8.8499999776559;886;1 A
71.9803198182672;0.64959716796875;0.176483154296875;8.85999997763065;887;1 A
71.9903198182419;0.649627685546875;0.176239013671875;8.8699999776054;888;1 A
72.0003198182167;0.649566650390625;0.176239013671875;8.87999997758016;889;1 A
72.0103198181914;0.64959716796875;0.176177978515625;8.88999997755491;890;1 A
72.0203198181662;0.649566650390625;0.176300048828125;8.89999997752966;891;1 A
72.0303198181409;0.649627685546875;0.176483154296875;8.90999997750441;892;1 A
72.0403198181157;0.6495361328125;0.17657470703125;8.91999997747916;893;1 A
72.0503198180904;0.64959716796875;0.1767578125;8.92999997745392;894;1 A
72.0603198180652;0.649627685546875;0.177032470703125;8.93999997742867;895;1 A
72.0703198180399;0.649566650390625;0.177032470703125;8.94999997740342;896;1 A
72.0803198180147;0.649658203125;0.17724609375;8.95999997737817;897;1 A
72.0903198179894;0.64959716796875;0.17724609375;8.96999997735293;898;1 A
72.1003198179642;0.6495361328125;0.177398681640625;8.97999997732768;899;1 A
72.1103198179389;0.649627685546875;0.177642822265625;8.98999997730243;900;1 A
72.1203198179137;0.649627685546875;0.17767333984375;8.99999997727718;901;1 A
72.1303198178884;0.64959716796875;0.1776123046875;9.00999997725194;902;1 A
72.1403198178632;0.6495361328125;0.177520751953125;9.01999997722669;903;1 A
72.150319817838;0.649658203125;0.17730712890625;9.02999997720144;904;1 A
72.1603198178127;0.64959716796875;0.17730712890625;9.03999997717619;905;1 A
72.1703198177875;0.649566650390625;0.177093505859375;9.04999997715095;906;1 A
72.1803198177622;0.649627685546875;0.17718505859375;9.0599999771257;907;1 A
72.190319817737;0.64959716796875;0.17724609375;9.06999997710045;908;1 A
72.2003198177117;0.64959716796875;0.17742919921875;9.0799999770752;909;1 A
72.2103198176865;0.649566650390625;0.177581787109375;9.08999997704996;910;1 A
72.2203198176612;0.64959716796875;0.177764892578125;9.09999997702471;911;1 A
72.230319817636;0.649627685546875;0.177581787109375;9.10999997699946;912;1 A
72.2403198176107;0.649627685546875;0.177642822265625;9.11999997697421;913;1 A
72.2503198175855;0.64959716796875;0.177337646484375;9.12999997694897;914;1 A
72.2603198175602;0.649627685546875;0.177459716796875;9.13999997692372;915;1 A
72.270319817535;0.649627685546875;0.17742919921875;9.14999997689847;916;1 A
72.2803198175097;0.649566650390625;0.1773681640625;9.15999997687322;917;1 A
72.2903198174845;0.64959716796875;0.17706298828125;9.16999997684798;918;1 A
72.3003198174592;0.64959716796875;0.1768798828125;9.17999997682273;919;1 A
72.310319817434;0.64959716796875;0.17633056640625;9.18999997679748;920;1 A
72.3203198174087;0.64959716796875;0.176116943359375;9.19999997677223;921;1 A
72.3303198173835;0.649566650390625;0.17572021484375;9.20999997674699;922;1 A
72.3403198173582;0.64959716796875;0.175445556640625;9.21999997672174;923;1 A
72.350319817333;0.64959716796875;0.175262451171875;9.22999997669649;924;1 A
72.3603198173078;0.649627685546875;0.175079345703125;9.23999997667124;925;1 A
72.3703198172825;0.64959716796875;0.174835205078125;9.249999976646;926;1 A
72.3803198172573;0.64959716796875;0.17462158203125;9.25999997662075;927;1 A
72.390319817232;0.64959716796875;0.174224853515625;9.2699999765955;928;1 A
72.4003198172068;0.64959716796875;0.174102783203125;9.27999997657025;929;1 A
72.4103198171815;0.649566650390625;0.17388916015625;9.289999976545;930;1 A
72.4203198171563;0.64959716796875;0.173858642578125;9.29999997651976;931;1 A
72.430319817131;0.649627685546875;0.173919677734375;9.30999997649451;932;1 A
72.4403198171058;0.6495361328125;0.173797607421875;9.31999997646926;933;1 A
72.4503198170805;0.649688720703125;0.173736572265625;9.32999997644401;934;1 A
72.4603198170553;0.649566650390625;0.173675537109375;9.33999997641877;935;1 A
72.47031981703;0.64959716796875;0.17327880859375;9.34999997639352;936;1 A
72.4803198170048;0.649566650390625;0.173095703125;9.35999997636827;937;1 A
72.4903198169795;0.649566650390625;0.172821044921875;9.36999997634302;938;1 A
72.5003198169543;0.649627685546875;0.172821044921875;9.37999997631778;939;1 A
72.510319816929;0.649627685546875;0.1729736328125;9.38999997629253;940;1 A
72.5203198169038;0.649627685546875;0.172943115234375;9.39999997626728;941;1 A
72.5303198168785;0.64959716796875;0.17291259765625;9.40999997624203;942;1 A
72.5403198168533;0.6495361328125;0.17279052734375;9.41999997621679;943;1 A
72.5503198168281;0.64959716796875;0.1724853515625;9.42999997619154;944;1 A
72.5603198168028;0.649658203125;0.17242431640625;9.43999997616629;945;1 A
72.5703198167776;0.649627685546875;0.17205810546875;9.44999997614104;946;1 A
72.5803198167523;0.649627685546875;0.171966552734375;9.4599999761158;947;1 A
72.5903198167271;0.64959716796875;0.17181396484375;9.46999997609055;948;1 A
72.6003198167018;0.649566650390625;0.171875;9.4799999760653;949;1 A
72.6103198166766;0.64959716796875;0.171875;9.48999997604005;950;1 A
72.6203198166513;0.649627685546875;0.1719970703125;9.49999997601481;951;1 A
72.6303198166261;0.649627685546875;0.17181396484375;9.50999997598956;952;1 A
72.6403198166008;0.649566650390625;0.17205810546875;9.51999997596431;953;1 A
72.6503198165756;0.649566650390625;0.172119140625;9.52999997593906;954;1 A
72.6603198165503;0.64959716796875;0.172607421875;9.53999997591382;955;1 A
72.6703198165251;0.64959716796875;0.17303466796875;9.54999997588857;956;1 A
72.6803198164998;0.649566650390625;0.173431396484375;9.55999997586332;957;1 A
72.6903198164746;0.6495361328125;0.1737060546875;9.56999997583807;958;1 A
72.7003198164493;0.649627685546875;0.174072265625;9.57999997581283;959;1 A
72.7103198164241;0.649627685546875;0.174041748046875;9.58999997578758;960;1 A
72.7203198163988;0.649566650390625;0.174163818359375;9.59999997576233;961;1 A
72.7303198163736;0.6495361328125;0.17388916015625;9.60999997573708;962;1 A
72.7403198163483;0.649627685546875;0.173614501953125;9.61999997571183;963;1 A
72.7503198163231;0.649566650390625;0.173431396484375;9.62999997568659;964;1 A
72.7603198162979;0.64959716796875;0.173187255859375;9.63999997566134;965;1 A
72.7703198162726;0.64959716796875;0.1729736328125;9.64999997563609;966;1 A
72.7803198162474;0.649566650390625;0.172637939453125;9.65999997561084;967;1 A
72.7903198162221;0.64959716796875;0.172210693359375;9.6699999755856;968;1 A
72.8003198161969;0.64959716796875;0.172119140625;9.67999997556035;969;1 A
72.8103198161716;0.649627685546875;0.171905517578125;9.6899999755351;970;1 A
72.8203198161464;0.649627685546875;0.171875;9.69999997550985;971;1 A
72.8303198161211;0.649658203125;0.171875;9.70999997548461;972;1 A
72.8403198160959;0.649566650390625;0.1717529296875;9.71999997545936;973;1 A
72.8503198160706;0.64959716796875;0.1717529296875;9.72999997543411;974;1 A
72.8603198160454;0.649566650390625;0.171844482421875;9.73999997540886;975;1 A
72.8703198160201;0.649627685546875;0.17169189453125;9.74999997538362;976;1 A
72.8803198159949;0.64959716796875;0.171783447265625;9.75999997535837;977;1 A
72.8903198159696;0.64959716796875;0.171661376953125;9.76999997533312;978;1 A
72.9003198159444;0.649627685546875;0.171844482421875;9.77999997530787;979;1 A
72.9103198159191;0.64959716796875;0.17205810546875;9.78999997528263;980;1 A
72.9203198158939;0.649627685546875;0.172149658203125;9.79999997525738;981;1 A
72.9303198158686;0.649566650390625;0.172149658203125;9.80999997523213;982;1 A
72.9403198158434;0.649566650390625;0.172210693359375;9.81999997520688;983;1 A
72.9503198158181;0.649658203125;0.172149658203125;9.82999997518164;984;1 A
72.9603198157929;0.649566650390625;0.17242431640625;9.83999997515639;985;1 A
72.9703198157677;0.64959716796875;0.1724853515625;9.84999997513114;986;1 A
72.9803198157424;0.64959716796875;0.1728515625;9.85999997510589;987;1 A
72.9903198157172;0.649566650390625;0.17315673828125;9.86999997508065;988;1 A
73.0003198156919;0.649566650390625;0.17364501953125;9.8799999750554;989;1 A
73.0103198156667;0.6495361328125;0.173919677734375;9.88999997503015;990;1 A
73.0203198156414;0.649688720703125;0.1741943359375;9.8999999750049;991;1 A
73.0303198156162;0.649566650390625;0.17401123046875;9.90999997497966;992;1 A
73.0403198155909;0.64959716796875;0.1741943359375;9.91999997495441;993;1 A
73.0503198155657;0.6495361328125;0.174163818359375;9.92999997492916;994;1 A
73.0603198155404;0.64959716796875;0.1744384765625;9.93999997490391;995;1 A
73.0703198155152;0.649627685546875;0.174652099609375;9.94999997487866;996;1 A
73.0803198154899;0.649627685546875;0.17474365234375;9.95999997485342;997;1 A
73.0903198154647;0.649627685546875;0.17474365234375;9.96999997482817;998;1 A
73.1003198154394;0.64959716796875;0.1748046875;9.97999997480292;999;1 A
73.1103198154142;0.649566650390625;0.174560546875;9.98999997477767;1000;1 A
