Time (s);WE(1).Potential (V);WE(1).Current (A);Corrected time (s);Index;Current range
94.4810567614583;0.701080322265625;1.04949951171875;0;1;1 A
94.491056761433;0.699920654296875;0.75469970703125;0.00999999997475243;2;1 A
94.5010567614078;0.699859619140625;0.62255859375;0.0199999999495049;3;1 A
94.5110567613825;0.699737548828125;0.5426025390625;0.0299999999242573;4;1 A
94.5210567613573;0.699676513671875;0.4876708984375;0.0399999998990097;5;1 A
94.531056761332;0.69970703125;0.447113037109375;0.0499999998737621;6;1 A
94.5410567613068;0.69964599609375;0.415435791015625;0.0599999998485146;7;1 A
94.5510567612815;0.699615478515625;0.38983154296875;0.069999999823267;8;1 A
94.5610567612563;0.69964599609375;0.36871337890625;0.0799999997980194;9;1 A
94.571056761231;0.69964599609375;0.35052490234375;0.0899999997727718;10;1 A
94.5810567612058;0.69964599609375;0.335113525390625;0.0999999997475243;11;1 A
94.5910567611805;0.699676513671875;0.321685791015625;0.109999999722277;12;1 A
94.6010567611553;0.699676513671875;0.31011962890625;0.119999999697029;13;1 A
94.61105676113;0.69964599609375;0.299560546875;0.129999999671782;14;1 A
94.6210567611048;0.699676513671875;0.29052734375;0.139999999646534;15;1 A
94.6310567610795;0.699676513671875;0.2822265625;0.149999999621286;16;1 A
94.6410567610543;0.699676513671875;0.2750244140625;0.159999999596039;17;1 A
94.6510567610291;0.6995849609375;0.268463134765625;0.169999999570791;18;1 A
94.6610567610038;0.699615478515625;0.262451171875;0.179999999545544;19;1 A
94.6710567609786;0.699676513671875;0.25665283203125;0.189999999520296;20;1 A
94.6810567609533;0.699615478515625;0.25152587890625;0.199999999495049;21;1 A
94.6910567609281;0.699615478515625;0.24627685546875;0.209999999469801;22;1 A
94.7010567609028;0.69970703125;0.24200439453125;0.219999999444553;23;1 A
94.7110567608776;0.699615478515625;0.238067626953125;0.229999999419306;24;1 A
94.7210567608523;0.69964599609375;0.234588623046875;0.239999999394058;25;1 A
94.7310567608271;0.69964599609375;0.23138427734375;0.249999999368811;26;1 A
94.7410567608018;0.69964599609375;0.228546142578125;0.259999999343563;27;1 A
94.7510567607766;0.6995849609375;0.22589111328125;0.269999999318316;28;1 A
94.7610567607513;0.69964599609375;0.223358154296875;0.279999999293068;29;1 A
94.7710567607261;0.69964599609375;0.22088623046875;0.28999999926782;30;1 A
94.7810567607008;0.699676513671875;0.2186279296875;0.299999999242573;31;1 A
94.7910567606756;0.699615478515625;0.216552734375;0.309999999217325;32;1 A
94.8010567606503;0.699676513671875;0.21466064453125;0.319999999192078;33;1 A
94.8110567606251;0.69964599609375;0.212982177734375;0.32999999916683;34;1 A
94.8210567605998;0.69964599609375;0.21136474609375;0.339999999141583;35;1 A
94.8310567605746;0.699615478515625;0.2098388671875;0.349999999116335;36;1 A
94.8410567605493;0.699615478515625;0.20843505859375;0.359999999091087;37;1 A
94.8510567605241;0.69970703125;0.206878662109375;0.36999999906584;38;1 A
94.8610567604989;0.699615478515625;0.20556640625;0.379999999040592;39;1 A
94.8710567604736;0.699615478515625;0.2041015625;0.389999999015345;40;1 A
94.8810567604484;0.69964599609375;0.202880859375;0.399999998990097;41;1 A
94.8910567604231;0.69964599609375;0.201812744140625;0.40999999896485;42;1 A
94.9010567603979;0.69964599609375;0.20086669921875;0.419999998939602;43;1 A
94.9110567603726;0.699676513671875;0.199676513671875;0.429999998914354;44;1 A
94.9210567603474;0.69970703125;0.198699951171875;0.439999998889107;45;1 A
94.9310567603221;0.69964599609375;0.1976318359375;0.449999998863859;46;1 A
94.9410567602969;0.69964599609375;0.196929931640625;0.459999998838612;47;1 A
94.9510567602716;0.699615478515625;0.19598388671875;0.469999998813364;48;1 A
94.9610567602464;0.699615478515625;0.1953125;0.479999998788116;49;1 A
94.9710567602211;0.699676513671875;0.19451904296875;0.489999998762869;50;1 A
94.9810567601959;0.69964599609375;0.19390869140625;0.499999998737621;51;1 A
94.9910567601706;0.69970703125;0.193115234375;0.509999998712374;52;1 A
95.0010567601454;0.69964599609375;0.192352294921875;0.519999998687126;53;1 A
95.0110567601201;0.699676513671875;0.191192626953125;0.529999998661879;54;1 A
95.0210567600949;0.69964599609375;0.190460205078125;0.539999998636631;55;1 A
95.0310567600696;0.6995849609375;0.189422607421875;0.549999998611383;56;1 A
95.0410567600444;0.699615478515625;0.1888427734375;0.559999998586136;57;1 A
95.0510567600192;0.699676513671875;0.188201904296875;0.569999998560888;58;1 A
95.0610567599939;0.699615478515625;0.1876220703125;0.579999998535641;59;1 A
95.0710567599687;0.69964599609375;0.18695068359375;0.589999998510393;60;1 A
95.0810567599434;0.699615478515625;0.186431884765625;0.599999998485146;61;1 A
95.0910567599182;0.69964599609375;0.185760498046875;0.609999998459898;62;1 A
95.1010567598929;0.69964599609375;0.185302734375;0.61999999843465;63;1 A
95.1110567598677;0.69964599609375;0.184722900390625;0.629999998409403;64;1 A
95.1210567598424;0.69964599609375;0.18426513671875;0.639999998384155;65;1 A
95.1310567598172;0.699615478515625;0.1839599609375;0.649999998358908;66;1 A
95.1410567597919;0.699615478515625;0.1837158203125;0.65999999833366;67;1 A
95.1510567597667;0.699615478515625;0.18353271484375;0.669999998308413;68;1 A
95.1610567597414;0.6995849609375;0.183258056640625;0.679999998283165;69;1 A
95.1710567597162;0.699615478515625;0.182861328125;0.689999998257917;70;1 A
95.1810567596909;0.699676513671875;0.182586669921875;0.69999999823267;71;1 A
95.1910567596657;0.6995849609375;0.182159423828125;0.709999998207422;72;1 A
95.2010567596404;0.699615478515625;0.181854248046875;0.719999998182175;73;1 A
95.2110567596152;0.69970703125;0.181610107421875;0.729999998156927;74;1 A
95.2210567595899;0.699676513671875;0.181396484375;0.73999999813168;75;1 A
95.2310567595647;0.699676513671875;0.1812744140625;0.749999998106432;76;1 A
95.2410567595394;0.699615478515625;0.1812744140625;0.759999998081184;77;1 A
95.2510567595142;0.6995849609375;0.18096923828125;0.769999998055937;78;1 A
95.261056759489;0.69970703125;0.180908203125;0.779999998030689;79;1 A
95.2710567594637;0.699554443359375;0.18048095703125;0.789999998005442;80;1 A
95.2810567594385;0.699615478515625;0.180419921875;0.799999997980194;81;1 A
95.2910567594132;0.69964599609375;0.18048095703125;0.809999997954947;82;1 A
95.301056759388;0.69970703125;0.1805419921875;0.819999997929699;83;1 A
95.3110567593627;0.69970703125;0.18048095703125;0.829999997904451;84;1 A
95.3210567593375;0.699676513671875;0.18048095703125;0.839999997879204;85;1 A
95.3310567593122;0.69964599609375;0.1802978515625;0.849999997853956;86;1 A
95.341056759287;0.69964599609375;0.18035888671875;0.859999997828709;87;1 A
95.3510567592617;0.699615478515625;0.180084228515625;0.869999997803461;88;1 A
95.3610567592365;0.699676513671875;0.180084228515625;0.879999997778214;89;1 A
95.3710567592112;0.699676513671875;0.180084228515625;0.889999997752966;90;1 A
95.381056759186;0.699615478515625;0.180206298828125;0.899999997727718;91;1 A
95.3910567591607;0.6995849609375;0.180267333984375;0.909999997702471;92;1 A
95.4010567591355;0.6995849609375;0.180328369140625;0.919999997677223;93;1 A
95.4110567591102;0.69964599609375;0.180084228515625;0.929999997651976;94;1 A
95.421056759085;0.69964599609375;0.180145263671875;0.939999997626728;95;1 A
95.4310567590597;0.699676513671875;0.179962158203125;0.949999997601481;96;1 A
95.4410567590345;0.69964599609375;0.18011474609375;0.959999997576233;97;1 A
95.4510567590092;0.69964599609375;0.18023681640625;0.969999997550985;98;1 A
95.461056758984;0.69964599609375;0.1802978515625;0.979999997525738;99;1 A
95.4710567589588;0.6995849609375;0.180389404296875;0.98999999750049;100;1 A
95.4810567589335;0.699676513671875;0.180450439453125;0.999999997475243;101;1 A
95.4910567589083;0.69970703125;0.1802978515625;1.00999999745;102;1 A
95.501056758883;0.6995849609375;0.180419921875;1.01999999742475;103;1 A
95.5110567588578;0.6995849609375;0.180328369140625;1.0299999973995;104;1 A
95.5210567588325;0.69964599609375;0.1802978515625;1.03999999737425;105;1 A
95.5310567588073;0.699676513671875;0.180389404296875;1.049999997349;106;1 A
95.541056758782;0.6995849609375;0.180419921875;1.05999999732376;107;1 A
95.5510567587568;0.699676513671875;0.180389404296875;1.06999999729851;108;1 A
95.5610567587315;0.699676513671875;0.180328369140625;1.07999999727326;109;1 A
95.5710567587063;0.69964599609375;0.1800537109375;1.08999999724801;110;1 A
95.581056758681;0.69964599609375;0.18011474609375;1.09999999722277;111;1 A
95.5910567586558;0.699554443359375;0.180023193359375;1.10999999719752;112;1 A
95.6010567586305;0.699676513671875;0.18035888671875;1.11999999717227;113;1 A
95.6110567586053;0.699676513671875;0.1806640625;1.12999999714702;114;1 A
95.62105675858;0.69964599609375;0.180999755859375;1.13999999712178;115;1 A
95.6310567585548;0.69964599609375;0.181304931640625;1.14999999709653;116;1 A
95.6410567585295;0.69964599609375;0.181640625;1.15999999707128;117;1 A
95.6510567585043;0.699676513671875;0.181396484375;1.16999999704603;118;1 A
95.661056758479;0.699676513671875;0.1815185546875;1.17999999702079;119;1 A
95.6710567584538;0.6995849609375;0.181243896484375;1.18999999699554;120;1 A
95.6810567584286;0.69970703125;0.18133544921875;1.19999999697029;121;1 A
95.6910567584033;0.69964599609375;0.181365966796875;1.20999999694504;122;1 A
95.7010567583781;0.699676513671875;0.1812744140625;1.2199999969198;123;1 A
95.7110567583528;0.69964599609375;0.180999755859375;1.22999999689455;124;1 A
95.7210567583276;0.69964599609375;0.18072509765625;1.2399999968693;125;1 A
95.7310567583023;0.699615478515625;0.18035888671875;1.24999999684405;126;1 A
95.7410567582771;0.699676513671875;0.1802978515625;1.25999999681881;127;1 A
95.7510567582518;0.69964599609375;0.180023193359375;1.26999999679356;128;1 A
95.7610567582266;0.69964599609375;0.17999267578125;1.27999999676831;129;1 A
95.7710567582013;0.69970703125;0.180023193359375;1.28999999674306;130;1 A
95.7810567581761;0.69964599609375;0.18011474609375;1.29999999671782;131;1 A
95.7910567581508;0.69964599609375;0.18011474609375;1.30999999669257;132;1 A
95.8010567581256;0.699737548828125;0.1800537109375;1.31999999666732;133;1 A
95.8110567581003;0.69964599609375;0.1798095703125;1.32999999664207;134;1 A
95.8210567580751;0.699676513671875;0.180023193359375;1.33999999661683;135;1 A
95.8310567580498;0.69964599609375;0.17999267578125;1.34999999659158;136;1 A
95.8410567580246;0.699615478515625;0.18035888671875;1.35999999656633;137;1 A
95.8510567579993;0.699676513671875;0.180694580078125;1.36999999654108;138;1 A
95.8610567579741;0.6995849609375;0.180938720703125;1.37999999651583;139;1 A
95.8710567579488;0.699676513671875;0.1810302734375;1.38999999649059;140;1 A
95.8810567579236;0.69964599609375;0.1812744140625;1.39999999646534;141;1 A
95.8910567578984;0.699615478515625;0.18109130859375;1.40999999644009;142;1 A
95.9010567578731;0.69964599609375;0.181243896484375;1.41999999641484;143;1 A
95.9110567578479;0.699615478515625;0.1810302734375;1.4299999963896;144;1 A
95.9210567578226;0.69964599609375;0.181060791015625;1.43999999636435;145;1 A
95.9310567577974;0.699615478515625;0.181121826171875;1.4499999963391;146;1 A
95.9410567577721;0.699676513671875;0.18115234375;1.45999999631385;147;1 A
95.9510567577469;0.69964599609375;0.180999755859375;1.46999999628861;148;1 A
95.9610567577216;0.6995849609375;0.180877685546875;1.47999999626336;149;1 A
95.9710567576964;0.69970703125;0.180572509765625;1.48999999623811;150;1 A
95.9810567576711;0.69964599609375;0.180511474609375;1.49999999621286;151;1 A
95.9910567576459;0.699676513671875;0.180206298828125;1.50999999618762;152;1 A
96.0010567576206;0.699676513671875;0.18017578125;1.51999999616237;153;1 A
96.0110567575954;0.699676513671875;0.17999267578125;1.52999999613712;154;1 A
96.0210567575701;0.699615478515625;0.179718017578125;1.53999999611187;155;1 A
96.0310567575449;0.6995849609375;0.17938232421875;1.54999999608663;156;1 A
96.0410567575196;0.699676513671875;0.179229736328125;1.55999999606138;157;1 A
96.0510567574944;0.699676513671875;0.1788330078125;1.56999999603613;158;1 A
96.0610567574691;0.699615478515625;0.178741455078125;1.57999999601088;159;1 A
96.0710567574439;0.69964599609375;0.178314208984375;1.58999999598564;160;1 A
96.0810567574187;0.699615478515625;0.178436279296875;1.59999999596039;161;1 A
96.0910567573934;0.699615478515625;0.178558349609375;1.60999999593514;162;1 A
96.1010567573682;0.699615478515625;0.178558349609375;1.61999999590989;163;1 A
96.1110567573429;0.69964599609375;0.178375244140625;1.62999999588465;164;1 A
96.1210567573177;0.69964599609375;0.178253173828125;1.6399999958594;165;1 A
96.1310567572924;0.69964599609375;0.177947998046875;1.64999999583415;166;1 A
96.1410567572672;0.69970703125;0.17791748046875;1.6599999958089;167;1 A
96.1510567572419;0.69964599609375;0.177734375;1.66999999578366;168;1 A
96.1610567572167;0.69970703125;0.1778564453125;1.67999999575841;169;1 A
96.1710567571914;0.699615478515625;0.1781005859375;1.68999999573316;170;1 A
96.1810567571662;0.699676513671875;0.178314208984375;1.69999999570791;171;1 A
96.1910567571409;0.69964599609375;0.178375244140625;1.70999999568267;172;1 A
96.2010567571157;0.6995849609375;0.1783447265625;1.71999999565742;173;1 A
96.2110567570904;0.69970703125;0.177978515625;1.72999999563217;174;1 A
96.2210567570652;0.699676513671875;0.17791748046875;1.73999999560692;175;1 A
96.2310567570399;0.69964599609375;0.17767333984375;1.74999999558167;176;1 A
96.2410567570147;0.699676513671875;0.1778564453125;1.75999999555643;177;1 A
96.2510567569894;0.69964599609375;0.178070068359375;1.76999999553118;178;1 A
96.2610567569642;0.69970703125;0.17822265625;1.77999999550593;179;1 A
96.2710567569389;0.69964599609375;0.178314208984375;1.78999999548068;180;1 A
96.2810567569137;0.69964599609375;0.178497314453125;1.79999999545544;181;1 A
96.2910567568885;0.69964599609375;0.17828369140625;1.80999999543019;182;1 A
96.3010567568632;0.699676513671875;0.17828369140625;1.81999999540494;183;1 A
96.311056756838;0.69964599609375;0.17803955078125;1.82999999537969;184;1 A
96.3210567568127;0.699737548828125;0.17803955078125;1.83999999535445;185;1 A
96.3310567567875;0.69964599609375;0.17822265625;1.8499999953292;186;1 A
96.3410567567622;0.69964599609375;0.178314208984375;1.85999999530395;187;1 A
96.351056756737;0.699676513671875;0.17840576171875;1.8699999952787;188;1 A
96.3610567567117;0.699615478515625;0.17840576171875;1.87999999525346;189;1 A
96.3710567566865;0.699676513671875;0.17828369140625;1.88999999522821;190;1 A
96.3810567566612;0.699615478515625;0.1783447265625;1.89999999520296;191;1 A
96.391056756636;0.699615478515625;0.17816162109375;1.90999999517771;192;1 A
96.4010567566107;0.699615478515625;0.17828369140625;1.91999999515247;193;1 A
96.4110567565855;0.69970703125;0.178375244140625;1.92999999512722;194;1 A
96.4210567565602;0.699676513671875;0.17852783203125;1.93999999510197;195;1 A
96.431056756535;0.699676513671875;0.17864990234375;1.94999999507672;196;1 A
96.4410567565097;0.69970703125;0.17877197265625;1.95999999505148;197;1 A
96.4510567564845;0.69970703125;0.17852783203125;1.96999999502623;198;1 A
96.4610567564592;0.699615478515625;0.178680419921875;1.97999999500098;199;1 A
96.471056756434;0.699615478515625;0.178619384765625;1.98999999497573;200;1 A
96.4810567564087;0.69964599609375;0.1790771484375;1.99999999495049;201;1 A
96.4910567563835;0.699737548828125;0.179473876953125;2.00999999492524;202;1 A
96.5010567563583;0.699676513671875;0.179962158203125;2.01999999489999;203;1 A
96.511056756333;0.699676513671875;0.1802978515625;2.02999999487474;204;1 A
96.5210567563078;0.6995849609375;0.1807861328125;2.0399999948495;205;1 A
96.5310567562825;0.69964599609375;0.180938720703125;2.04999999482425;206;1 A
96.5410567562573;0.69964599609375;0.181427001953125;2.059999994799;207;1 A
96.551056756232;0.69964599609375;0.181671142578125;2.06999999477375;208;1 A
96.5610567562068;0.699676513671875;0.18206787109375;2.0799999947485;209;1 A
96.5710567561815;0.699615478515625;0.1824951171875;2.08999999472326;210;1 A
96.5810567561563;0.699676513671875;0.183013916015625;2.09999999469801;211;1 A
96.591056756131;0.699615478515625;0.183502197265625;2.10999999467276;212;1 A
96.6010567561058;0.69964599609375;0.183929443359375;2.11999999464751;213;1 A
96.6110567560805;0.699615478515625;0.18414306640625;2.12999999462227;214;1 A
96.6210567560553;0.699615478515625;0.184539794921875;2.13999999459702;215;1 A
96.63105675603;0.699615478515625;0.184783935546875;2.14999999457177;216;1 A
96.6410567560048;0.69964599609375;0.18524169921875;2.15999999454652;217;1 A
96.6510567559795;0.69964599609375;0.18572998046875;2.16999999452128;218;1 A
96.6610567559543;0.6995849609375;0.18603515625;2.17999999449603;219;1 A
96.671056755929;0.69964599609375;0.186248779296875;2.18999999447078;220;1 A
96.6810567559038;0.699615478515625;0.186614990234375;2.19999999444553;221;1 A
96.6910567558785;0.699615478515625;0.186676025390625;2.20999999442029;222;1 A
96.7010567558533;0.69970703125;0.187042236328125;2.21999999439504;223;1 A
96.7110567558281;0.699615478515625;0.187286376953125;2.22999999436979;224;1 A
96.7210567558028;0.6995849609375;0.187713623046875;2.23999999434454;225;1 A
96.7310567557776;0.69964599609375;0.188201904296875;2.2499999943193;226;1 A
96.7410567557523;0.69964599609375;0.188568115234375;2.25999999429405;227;1 A
96.7510567557271;0.69970703125;0.1888427734375;2.2699999942688;228;1 A
96.7610567557018;0.699615478515625;0.188995361328125;2.27999999424355;229;1 A
96.7710567556766;0.69964599609375;0.188873291015625;2.28999999421831;230;1 A
96.7810567556513;0.69964599609375;0.18902587890625;2.29999999419306;231;1 A
96.7910567556261;0.69964599609375;0.18890380859375;2.30999999416781;232;1 A
96.8010567556008;0.699615478515625;0.1890869140625;2.31999999414256;233;1 A
96.8110567555756;0.699676513671875;0.189056396484375;2.32999999411732;234;1 A
96.8210567555503;0.699615478515625;0.189178466796875;2.33999999409207;235;1 A
96.8310567555251;0.699615478515625;0.189117431640625;2.34999999406682;236;1 A
96.8410567554998;0.6995849609375;0.18914794921875;2.35999999404157;237;1 A
96.8510567554746;0.699676513671875;0.1888427734375;2.36999999401633;238;1 A
96.8610567554493;0.699676513671875;0.188934326171875;2.37999999399108;239;1 A
96.8710567554241;0.69964599609375;0.18878173828125;2.38999999396583;240;1 A
96.8810567553988;0.69970703125;0.1890869140625;2.39999999394058;241;1 A
96.8910567553736;0.69970703125;0.189208984375;2.40999999391533;242;1 A
96.9010567553483;0.699615478515625;0.189300537109375;2.41999999389009;243;1 A
96.9110567553231;0.6995849609375;0.189117431640625;2.42999999386484;244;1 A
96.9210567552979;0.69964599609375;0.188995361328125;2.43999999383959;245;1 A
96.9310567552726;0.6995849609375;0.188629150390625;2.44999999381434;246;1 A
96.9410567552474;0.699615478515625;0.188507080078125;2.4599999937891;247;1 A
96.9510567552221;0.699615478515625;0.188323974609375;2.46999999376385;248;1 A
96.9610567551969;0.699615478515625;0.188140869140625;2.4799999937386;249;1 A
96.9710567551716;0.699676513671875;0.188140869140625;2.48999999371335;250;1 A
96.9810567551464;0.69964599609375;0.188079833984375;2.49999999368811;251;1 A
96.9910567551211;0.69964599609375;0.18798828125;2.50999999366286;252;1 A
97.0010567550959;0.69964599609375;0.187713623046875;2.51999999363761;253;1 A
97.0110567550706;0.69964599609375;0.187255859375;2.52999999361236;254;1 A
97.0210567550454;0.69964599609375;0.18695068359375;2.53999999358712;255;1 A
97.0310567550201;0.699615478515625;0.186553955078125;2.54999999356187;256;1 A
97.0410567549949;0.699615478515625;0.186370849609375;2.55999999353662;257;1 A
97.0510567549696;0.699676513671875;0.186187744140625;2.56999999351137;258;1 A
97.0610567549444;0.69964599609375;0.1859130859375;2.57999999348613;259;1 A
97.0710567549191;0.69970703125;0.185699462890625;2.58999999346088;260;1 A
97.0810567548939;0.6995849609375;0.185546875;2.59999999343563;261;1 A
97.0910567548686;0.699676513671875;0.18511962890625;2.60999999341038;262;1 A
97.1010567548434;0.699676513671875;0.185028076171875;2.61999999338514;263;1 A
97.1110567548182;0.69964599609375;0.1846923828125;2.62999999335989;264;1 A
97.1210567547929;0.69964599609375;0.184661865234375;2.63999999333464;265;1 A
97.1310567547677;0.699737548828125;0.1846923828125;2.64999999330939;266;1 A
97.1410567547424;0.699676513671875;0.184722900390625;2.65999999328415;267;1 A
97.1510567547172;0.69964599609375;0.1845703125;2.6699999932589;268;1 A
97.1610567546919;0.699615478515625;0.184478759765625;2.67999999323365;269;1 A
97.1710567546667;0.69964599609375;0.184234619140625;2.6899999932084;270;1 A
97.1810567546414;0.699615478515625;0.184356689453125;2.69999999318316;271;1 A
97.1910567546162;0.69964599609375;0.184326171875;2.70999999315791;272;1 A
97.2010567545909;0.69964599609375;0.18450927734375;2.71999999313266;273;1 A
97.2110567545657;0.69964599609375;0.184600830078125;2.72999999310741;274;1 A
97.2210567545404;0.699676513671875;0.184783935546875;2.73999999308217;275;1 A
97.2310567545152;0.6995849609375;0.184844970703125;2.74999999305692;276;1 A
97.2410567544899;0.69964599609375;0.1849365234375;2.75999999303167;277;1 A
97.2510567544647;0.699615478515625;0.184661865234375;2.76999999300642;278;1 A
97.2610567544394;0.699676513671875;0.18475341796875;2.77999999298117;279;1 A
97.2710567544142;0.699615478515625;0.18450927734375;2.78999999295593;280;1 A
97.2810567543889;0.6995849609375;0.18463134765625;2.79999999293068;281;1 A
97.2910567543637;0.699676513671875;0.18463134765625;2.80999999290543;282;1 A
97.3010567543384;0.699615478515625;0.1845703125;2.81999999288018;283;1 A
97.3110567543132;0.699676513671875;0.184295654296875;2.82999999285494;284;1 A
97.321056754288;0.699676513671875;0.18414306640625;2.83999999282969;285;1 A
97.3310567542627;0.699615478515625;0.183746337890625;2.84999999280444;286;1 A
97.3410567542375;0.699615478515625;0.183624267578125;2.85999999277919;287;1 A
97.3510567542122;0.6995849609375;0.183380126953125;2.86999999275395;288;1 A
97.361056754187;0.699615478515625;0.18328857421875;2.8799999927287;289;1 A
97.3710567541617;0.69964599609375;0.183441162109375;2.88999999270345;290;1 A
97.3810567541365;0.699615478515625;0.183563232421875;2.8999999926782;291;1 A
97.3910567541112;0.699676513671875;0.183624267578125;2.90999999265296;292;1 A
97.401056754086;0.6995849609375;0.18359375;2.91999999262771;293;1 A
97.4110567540607;0.69964599609375;0.183349609375;2.92999999260246;294;1 A
97.4210567540355;0.699676513671875;0.183441162109375;2.93999999257721;295;1 A
97.4310567540102;0.69964599609375;0.183349609375;2.94999999255197;296;1 A
97.441056753985;0.69964599609375;0.183502197265625;2.95999999252672;297;1 A
97.4510567539597;0.69964599609375;0.183624267578125;2.96999999250147;298;1 A
97.4610567539345;0.69964599609375;0.18353271484375;2.97999999247622;299;1 A
97.4710567539092;0.699615478515625;0.1834716796875;2.98999999245098;300;1 A
97.481056753884;0.69964599609375;0.183441162109375;2.99999999242573;301;1 A
97.4910567538587;0.699676513671875;0.18310546875;3.00999999240048;302;1 A
97.5010567538335;0.69964599609375;0.18316650390625;3.01999999237523;303;1 A
97.5110567538082;0.699615478515625;0.183013916015625;3.02999999234999;304;1 A
97.521056753783;0.699615478515625;0.1832275390625;3.03999999232474;305;1 A
97.5310567537578;0.699676513671875;0.183563232421875;3.04999999229949;306;1 A
97.5410567537325;0.699615478515625;0.183837890625;3.05999999227424;307;1 A
97.5510567537073;0.6995849609375;0.183990478515625;3.069999992249;308;1 A
97.561056753682;0.699676513671875;0.184051513671875;3.07999999222375;309;1 A
97.5710567536568;0.69964599609375;0.183929443359375;3.0899999921985;310;1 A
97.5810567536315;0.6995849609375;0.18402099609375;3.09999999217325;311;1 A
97.5910567536063;0.69964599609375;0.183868408203125;3.109999992148;312;1 A
97.601056753581;0.699615478515625;0.1839599609375;3.11999999212276;313;1 A
97.6110567535558;0.699676513671875;0.184051513671875;3.12999999209751;314;1 A
97.6210567535305;0.69964599609375;0.1842041015625;3.13999999207226;315;1 A
97.6310567535053;0.699615478515625;0.184295654296875;3.14999999204701;316;1 A
97.64105675348;0.69970703125;0.184295654296875;3.15999999202177;317;1 A
97.6510567534548;0.69964599609375;0.18402099609375;3.16999999199652;318;1 A
97.6610567534295;0.699676513671875;0.184112548828125;3.17999999197127;319;1 A
97.6710567534043;0.699615478515625;0.18402099609375;3.18999999194602;320;1 A
97.681056753379;0.699676513671875;0.184326171875;3.19999999192078;321;1 A
97.6910567533538;0.699615478515625;0.18463134765625;3.20999999189553;322;1 A
97.7010567533285;0.699615478515625;0.185028076171875;3.21999999187028;323;1 A
97.7110567533033;0.699615478515625;0.185302734375;3.22999999184503;324;1 A
97.721056753278;0.69964599609375;0.185699462890625;3.23999999181979;325;1 A
97.7310567532528;0.699615478515625;0.18572998046875;3.24999999179454;326;1 A
97.7410567532276;0.699615478515625;0.186126708984375;3.25999999176929;327;1 A
97.7510567532023;0.699615478515625;0.1864013671875;3.26999999174404;328;1 A
97.7610567531771;0.699676513671875;0.186798095703125;3.2799999917188;329;1 A
97.7710567531518;0.699676513671875;0.187408447265625;3.28999999169355;330;1 A
97.7810567531266;0.6995849609375;0.18804931640625;3.2999999916683;331;1 A
97.7910567531013;0.6995849609375;0.188629150390625;3.30999999164305;332;1 A
97.8010567530761;0.69964599609375;0.189178466796875;3.31999999161781;333;1 A
97.8110567530508;0.699615478515625;0.189483642578125;3.32999999159256;334;1 A
97.8210567530256;0.699615478515625;0.1900634765625;3.33999999156731;335;1 A
97.8310567530003;0.699676513671875;0.1904296875;3.34999999154206;336;1 A
97.8410567529751;0.6995849609375;0.19091796875;3.35999999151682;337;1 A
97.8510567529498;0.69964599609375;0.191436767578125;3.36999999149157;338;1 A
97.8610567529246;0.699615478515625;0.191680908203125;3.37999999146632;339;1 A
97.8710567528993;0.699676513671875;0.19195556640625;3.38999999144107;340;1 A
97.8810567528741;0.69970703125;0.192138671875;3.39999999141583;341;1 A
97.8910567528488;0.699615478515625;0.191986083984375;3.40999999139058;342;1 A
97.9010567528236;0.699615478515625;0.192047119140625;3.41999999136533;343;1 A
97.9110567527983;0.699615478515625;0.19189453125;3.42999999134008;344;1 A
97.9210567527731;0.6995849609375;0.19195556640625;3.43999999131483;345;1 A
97.9310567527478;0.69970703125;0.192108154296875;3.44999999128959;346;1 A
97.9410567527226;0.699615478515625;0.192169189453125;3.45999999126434;347;1 A
97.9510567526974;0.69964599609375;0.192108154296875;3.46999999123909;348;1 A
97.9610567526721;0.699615478515625;0.1920166015625;3.47999999121384;349;1 A
97.9710567526469;0.699615478515625;0.1917724609375;3.4899999911886;350;1 A
97.9810567526216;0.699615478515625;0.19183349609375;3.49999999116335;351;1 A
97.9910567525964;0.69970703125;0.191802978515625;3.5099999911381;352;1 A
98.0010567525711;0.69970703125;0.191986083984375;3.51999999111285;353;1 A
98.0110567525459;0.69964599609375;0.192169189453125;3.52999999108761;354;1 A
98.0210567525206;0.699615478515625;0.19256591796875;3.53999999106236;355;1 A
98.0310567524954;0.69964599609375;0.19287109375;3.54999999103711;356;1 A
98.0410567524701;0.69964599609375;0.193145751953125;3.55999999101186;357;1 A
98.0510567524449;0.69964599609375;0.193115234375;3.56999999098662;358;1 A
98.0610567524196;0.699676513671875;0.193328857421875;3.57999999096137;359;1 A
98.0710567523944;0.699676513671875;0.19329833984375;3.58999999093612;360;1 A
98.0810567523691;0.699615478515625;0.19366455078125;3.59999999091087;361;1 A
98.0910567523439;0.6995849609375;0.1939697265625;3.60999999088563;362;1 A
98.1010567523186;0.699615478515625;0.194305419921875;3.61999999086038;363;1 A
98.1110567522934;0.699615478515625;0.19451904296875;3.62999999083513;364;1 A
98.1210567522681;0.699676513671875;0.194915771484375;3.63999999080988;365;1 A
98.1310567522429;0.699615478515625;0.19500732421875;3.64999999078464;366;1 A
98.1410567522177;0.69964599609375;0.195343017578125;3.65999999075939;367;1 A
98.1510567521924;0.69970703125;0.195556640625;3.66999999073414;368;1 A
98.1610567521672;0.69964599609375;0.19580078125;3.67999999070889;369;1 A
98.1710567521419;0.69964599609375;0.19622802734375;3.68999999068365;370;1 A
98.1810567521167;0.69964599609375;0.196624755859375;3.6999999906584;371;1 A
98.1910567520914;0.69964599609375;0.19696044921875;3.70999999063315;372;1 A
98.2010567520662;0.699676513671875;0.1971435546875;3.7199999906079;373;1 A
98.2110567520409;0.69964599609375;0.197113037109375;3.72999999058266;374;1 A
98.2210567520157;0.699676513671875;0.197296142578125;3.73999999055741;375;1 A
98.2310567519904;0.69964599609375;0.197265625;3.74999999053216;376;1 A
98.2410567519652;0.699615478515625;0.197265625;3.75999999050691;377;1 A
98.2510567519399;0.699676513671875;0.1971435546875;3.76999999048167;378;1 A
98.2610567519147;0.699615478515625;0.19696044921875;3.77999999045642;379;1 A
98.2710567518894;0.699676513671875;0.19677734375;3.78999999043117;380;1 A
98.2810567518642;0.6995849609375;0.196624755859375;3.79999999040592;381;1 A
98.2910567518389;0.699615478515625;0.196136474609375;3.80999999038067;382;1 A
98.3010567518137;0.699615478515625;0.19598388671875;3.81999999035543;383;1 A
98.3110567517884;0.699615478515625;0.195556640625;3.82999999033018;384;1 A
98.3210567517632;0.699615478515625;0.195526123046875;3.83999999030493;385;1 A
98.3310567517379;0.699615478515625;0.195404052734375;3.84999999027968;386;1 A
98.3410567517127;0.69964599609375;0.195281982421875;3.85999999025444;387;1 A
98.3510567516875;0.6995849609375;0.19488525390625;3.86999999022919;388;1 A
98.3610567516622;0.69964599609375;0.194580078125;3.87999999020394;389;1 A
98.371056751637;0.69970703125;0.194000244140625;3.88999999017869;390;1 A
98.3810567516117;0.6995849609375;0.193634033203125;3.89999999015345;391;1 A
98.3910567515865;0.69970703125;0.193115234375;3.9099999901282;392;1 A
98.4010567515612;0.699676513671875;0.192779541015625;3.91999999010295;393;1 A
98.411056751536;0.699676513671875;0.1925048828125;3.9299999900777;394;1 A
98.4210567515107;0.69964599609375;0.192352294921875;3.93999999005246;395;1 A
98.4310567514855;0.699676513671875;0.19195556640625;3.94999999002721;396;1 A
98.4410567514602;0.69970703125;0.191436767578125;3.95999999000196;397;1 A
98.451056751435;0.69964599609375;0.190582275390625;3.96999998997671;398;1 A
98.4610567514097;0.6995849609375;0.19000244140625;3.97999998995147;399;1 A
98.4710567513845;0.699676513671875;0.189361572265625;3.98999998992622;400;1 A
98.4810567513592;0.69964599609375;0.188995361328125;3.99999998990097;401;1 A
98.491056751334;0.69964599609375;0.188751220703125;4.00999998987572;402;1 A
98.5010567513087;0.699676513671875;0.18841552734375;4.01999998985048;403;1 A
98.5110567512835;0.69970703125;0.188140869140625;4.02999998982523;404;1 A
98.5210567512582;0.699615478515625;0.18798828125;4.03999998979998;405;1 A
98.531056751233;0.6995849609375;0.187591552734375;4.04999998977473;406;1 A
98.5410567512077;0.69964599609375;0.18731689453125;4.05999998974949;407;1 A
98.5510567511825;0.69964599609375;0.186920166015625;4.06999998972424;408;1 A
98.5610567511573;0.69970703125;0.186737060546875;4.07999998969899;409;1 A
98.571056751132;0.69964599609375;0.186767578125;4.08999998967374;410;1 A
98.5810567511068;0.699676513671875;0.1865234375;4.0999999896485;411;1 A
98.5910567510815;0.699676513671875;0.18621826171875;4.10999998962325;412;1 A
98.6010567510563;0.699676513671875;0.185760498046875;4.119999989598;413;1 A
98.611056751031;0.69964599609375;0.185211181640625;4.12999998957275;414;1 A
98.6210567510058;0.69970703125;0.18499755859375;4.1399999895475;415;1 A
98.6310567509805;0.699676513671875;0.18463134765625;4.14999998952226;416;1 A
98.6410567509553;0.699676513671875;0.184539794921875;4.15999998949701;417;1 A
98.65105675093;0.69964599609375;0.184417724609375;4.16999998947176;418;1 A
98.6610567509048;0.69964599609375;0.184356689453125;4.17999998944651;419;1 A
98.6710567508795;0.699615478515625;0.184326171875;4.18999998942127;420;1 A
98.6810567508543;0.69964599609375;0.184295654296875;4.19999998939602;421;1 A
98.691056750829;0.6995849609375;0.1839599609375;4.20999998937077;422;1 A
98.7010567508038;0.69964599609375;0.18402099609375;4.21999998934552;423;1 A
98.7110567507785;0.699676513671875;0.183685302734375;4.22999998932028;424;1 A
98.7210567507533;0.699615478515625;0.18377685546875;4.23999998929503;425;1 A
98.731056750728;0.699615478515625;0.183746337890625;4.24999998926978;426;1 A
98.7410567507028;0.699615478515625;0.183563232421875;4.25999998924453;427;1 A
98.7510567506775;0.699615478515625;0.183258056640625;4.26999998921929;428;1 A
98.7610567506523;0.699676513671875;0.183013916015625;4.27999998919404;429;1 A
98.7710567506271;0.69964599609375;0.182525634765625;4.28999998916879;430;1 A
98.7810567506018;0.699615478515625;0.182281494140625;4.29999998914354;431;1 A
98.7910567505766;0.699676513671875;0.181976318359375;4.3099999891183;432;1 A
98.8010567505513;0.699676513671875;0.181732177734375;4.31999998909305;433;1 A
98.8110567505261;0.69964599609375;0.18157958984375;4.3299999890678;434;1 A
98.8210567505008;0.69964599609375;0.181396484375;4.33999998904255;435;1 A
98.8310567504756;0.699676513671875;0.18121337890625;4.34999998901731;436;1 A
98.8410567504503;0.6995849609375;0.180938720703125;4.35999998899206;437;1 A
98.8510567504251;0.699676513671875;0.1805419921875;4.36999998896681;438;1 A
98.8610567503998;0.69970703125;0.180450439453125;4.37999998894156;439;1 A
98.8710567503746;0.699737548828125;0.18035888671875;4.38999998891632;440;1 A
98.8810567503493;0.69970703125;0.180419921875;4.39999998889107;441;1 A
98.8910567503241;0.69964599609375;0.1805419921875;4.40999998886582;442;1 A
98.9010567502988;0.699615478515625;0.180511474609375;4.41999998884057;443;1 A
98.9110567502736;0.699615478515625;0.180511474609375;4.42999998881533;444;1 A
98.9210567502483;0.69970703125;0.180572509765625;4.43999998879008;445;1 A
98.9310567502231;0.699615478515625;0.180419921875;4.44999998876483;446;1 A
98.9410567501978;0.69964599609375;0.1806640625;4.45999998873958;447;1 A
98.9510567501726;0.69964599609375;0.180755615234375;4.46999998871433;448;1 A
98.9610567501473;0.6995849609375;0.181060791015625;4.47999998868909;449;1 A
98.9710567501221;0.69964599609375;0.181365966796875;4.48999998866384;450;1 A
98.9810567500969;0.699676513671875;0.1815185546875;4.49999998863859;451;1 A
98.9910567500716;0.699615478515625;0.181488037109375;4.50999998861334;452;1 A
99.0010567500464;0.699737548828125;0.18145751953125;4.5199999885881;453;1 A
99.0110567500211;0.69964599609375;0.181243896484375;4.52999998856285;454;1 A
99.0210567499959;0.6995849609375;0.181396484375;4.5399999885376;455;1 A
99.0310567499706;0.69964599609375;0.181396484375;4.54999998851235;456;1 A
99.0410567499454;0.699615478515625;0.18182373046875;4.55999998848711;457;1 A
99.0510567499201;0.699615478515625;0.18218994140625;4.56999998846186;458;1 A
99.0610567498949;0.69964599609375;0.1826171875;4.57999998843661;459;1 A
99.0710567498696;0.699676513671875;0.182861328125;4.58999998841136;460;1 A
99.0810567498444;0.6995849609375;0.183135986328125;4.59999998838612;461;1 A
99.0910567498191;0.699615478515625;0.18304443359375;4.60999998836087;462;1 A
99.1010567497939;0.699615478515625;0.183319091796875;4.61999998833562;463;1 A
99.1110567497686;0.699615478515625;0.183380126953125;4.62999998831037;464;1 A
99.1210567497434;0.699676513671875;0.18389892578125;4.63999998828513;465;1 A
99.1310567497181;0.69964599609375;0.184295654296875;4.64999998825988;466;1 A
99.1410567496929;0.699615478515625;0.18463134765625;4.65999998823463;467;1 A
99.1510567496676;0.699615478515625;0.184722900390625;4.66999998820938;468;1 A
99.1610567496424;0.69964599609375;0.184814453125;4.67999998818414;469;1 A
99.1710567496172;0.699676513671875;0.1845703125;4.68999998815889;470;1 A
99.1810567495919;0.699615478515625;0.184417724609375;4.69999998813364;471;1 A
99.1910567495667;0.699676513671875;0.184112548828125;4.70999998810839;472;1 A
99.2010567495414;0.69964599609375;0.183807373046875;4.71999998808315;473;1 A
99.2110567495162;0.699615478515625;0.18365478515625;4.7299999880579;474;1 A
99.2210567494909;0.699615478515625;0.183441162109375;4.73999998803265;475;1 A
99.2310567494657;0.699615478515625;0.18316650390625;4.7499999880074;476;1 A
99.2410567494404;0.699676513671875;0.182708740234375;4.75999998798216;477;1 A
99.2510567494152;0.699615478515625;0.182037353515625;4.76999998795691;478;1 A
99.2610567493899;0.69964599609375;0.181640625;4.77999998793166;479;1 A
99.2710567493647;0.69970703125;0.18121337890625;4.78999998790641;480;1 A
99.2810567493394;0.699615478515625;0.181121826171875;4.79999998788116;481;1 A
99.2910567493142;0.69964599609375;0.1810302734375;4.80999998785592;482;1 A
99.3010567492889;0.69964599609375;0.1807861328125;4.81999998783067;483;1 A
99.3110567492637;0.69970703125;0.1806640625;4.82999998780542;484;1 A
99.3210567492384;0.699676513671875;0.18060302734375;4.83999998778017;485;1 A
99.3310567492132;0.699676513671875;0.18035888671875;4.84999998775493;486;1 A
99.3410567491879;0.699615478515625;0.180450439453125;4.85999998772968;487;1 A
99.3510567491627;0.699676513671875;0.180450439453125;4.86999998770443;488;1 A
99.3610567491374;0.699615478515625;0.180694580078125;4.87999998767918;489;1 A
99.3710567491122;0.699676513671875;0.18096923828125;4.88999998765394;490;1 A
99.381056749087;0.69964599609375;0.180999755859375;4.89999998762869;491;1 A
99.3910567490617;0.69970703125;0.18072509765625;4.90999998760344;492;1 A
99.4010567490365;0.69964599609375;0.18035888671875;4.91999998757819;493;1 A
99.4110567490112;0.699615478515625;0.179840087890625;4.92999998755295;494;1 A
99.421056748986;0.699615478515625;0.179595947265625;4.9399999875277;495;1 A
99.4310567489607;0.69964599609375;0.179168701171875;4.94999998750245;496;1 A
99.4410567489355;0.699615478515625;0.179107666015625;4.9599999874772;497;1 A
99.4510567489102;0.6995849609375;0.179168701171875;4.96999998745196;498;1 A
99.461056748885;0.69964599609375;0.17926025390625;4.97999998742671;499;1 A
99.4710567488597;0.699615478515625;0.179229736328125;4.98999998740146;500;1 A
99.4810567488345;0.699615478515625;0.1790771484375;4.99999998737621;501;1 A
99.4910567488092;0.69970703125;0.178619384765625;5.00999998735097;502;1 A
99.501056748784;0.69964599609375;0.178497314453125;5.01999998732572;503;1 A
99.5110567487587;0.699676513671875;0.1781005859375;5.02999998730047;504;1 A
99.5210567487335;0.69964599609375;0.17822265625;5.03999998727522;505;1 A
99.5310567487082;0.6995849609375;0.17828369140625;5.04999998724998;506;1 A
99.541056748683;0.699676513671875;0.1783447265625;5.05999998722473;507;1 A
99.5510567486577;0.699676513671875;0.178192138671875;5.06999998719948;508;1 A
99.5610567486325;0.699737548828125;0.178070068359375;5.07999998717423;509;1 A
99.5710567486072;0.69964599609375;0.177703857421875;5.08999998714899;510;1 A
99.581056748582;0.69964599609375;0.17767333984375;5.09999998712374;511;1 A
99.5910567485568;0.69964599609375;0.177581787109375;5.10999998709849;512;1 A
99.6010567485315;0.69964599609375;0.17767333984375;5.11999998707324;513;1 A
99.6110567485063;0.699676513671875;0.1781005859375;5.129999987048;514;1 A
99.621056748481;0.69964599609375;0.178497314453125;5.13999998702275;515;1 A
99.6310567484558;0.699676513671875;0.178802490234375;5.1499999869975;516;1 A
99.6410567484305;0.69970703125;0.178985595703125;5.15999998697225;517;1 A
99.6510567484053;0.699615478515625;0.178955078125;5.169999986947;518;1 A
99.66105674838;0.699676513671875;0.179107666015625;5.17999998692176;519;1 A
99.6710567483548;0.69970703125;0.1790771484375;5.18999998689651;520;1 A
99.6810567483295;0.69964599609375;0.1793212890625;5.19999998687126;521;1 A
99.6910567483043;0.69964599609375;0.17962646484375;5.20999998684601;522;1 A
99.701056748279;0.69970703125;0.179718017578125;5.21999998682077;523;1 A
99.7110567482538;0.699615478515625;0.179840087890625;5.22999998679552;524;1 A
99.7210567482285;0.699676513671875;0.1800537109375;5.23999998677027;525;1 A
99.7310567482033;0.69970703125;0.179962158203125;5.24999998674502;526;1 A
99.741056748178;0.69964599609375;0.180145263671875;5.25999998671978;527;1 A
99.7510567481528;0.69964599609375;0.180206298828125;5.26999998669453;528;1 A
99.7610567481275;0.69964599609375;0.1806640625;5.27999998666928;529;1 A
99.7710567481023;0.699615478515625;0.181182861328125;5.28999998664403;530;1 A
99.781056748077;0.69964599609375;0.1815185546875;5.29999998661879;531;1 A
99.7910567480518;0.699615478515625;0.181793212890625;5.30999998659354;532;1 A
99.8010567480266;0.699737548828125;0.182037353515625;5.31999998656829;533;1 A
99.8110567480013;0.699676513671875;0.182098388671875;5.32999998654304;534;1 A
99.8210567479761;0.69964599609375;0.182342529296875;5.3399999865178;535;1 A
99.8310567479508;0.69964599609375;0.18231201171875;5.34999998649255;536;1 A
99.8410567479256;0.6995849609375;0.18243408203125;5.3599999864673;537;1 A
99.8510567479003;0.699676513671875;0.1824951171875;5.36999998644205;538;1 A
99.8610567478751;0.699615478515625;0.182586669921875;5.37999998641681;539;1 A
99.8710567478498;0.69964599609375;0.18255615234375;5.38999998639156;540;1 A
99.8810567478246;0.69964599609375;0.18243408203125;5.39999998636631;541;1 A
99.8910567477993;0.69964599609375;0.18194580078125;5.40999998634106;542;1 A
99.9010567477741;0.69964599609375;0.181793212890625;5.41999998631582;543;1 A
99.9110567477488;0.69964599609375;0.181396484375;5.42999998629057;544;1 A
99.9210567477236;0.6995849609375;0.181488037109375;5.43999998626532;545;1 A
99.9310567476983;0.6995849609375;0.1815185546875;5.44999998624007;546;1 A
99.9410567476731;0.69964599609375;0.181549072265625;5.45999998621483;547;1 A
99.9510567476478;0.69970703125;0.181396484375;5.46999998618958;548;1 A
99.9610567476226;0.699615478515625;0.181396484375;5.47999998616433;549;1 A
99.9710567475973;0.699676513671875;0.181060791015625;5.48999998613908;550;1 A
99.9810567475721;0.699676513671875;0.180908203125;5.49999998611383;551;1 A
99.9910567475468;0.69964599609375;0.18060302734375;5.50999998608859;552;1 A
100.001056747522;0.699676513671875;0.180389404296875;5.51999998606334;553;1 A
100.011056747496;0.699615478515625;0.18023681640625;5.52999998603809;554;1 A
100.021056747471;0.69964599609375;0.179962158203125;5.53999998601284;555;1 A
100.031056747446;0.699676513671875;0.179656982421875;5.5499999859876;556;1 A
100.041056747421;0.699615478515625;0.1793212890625;5.55999998596235;557;1 A
100.051056747395;0.69964599609375;0.178863525390625;5.5699999859371;558;1 A
100.06105674737;0.6995849609375;0.1788330078125;5.57999998591185;559;1 A
100.071056747345;0.699676513671875;0.178741455078125;5.58999998588661;560;1 A
100.08105674732;0.69964599609375;0.178924560546875;5.59999998586136;561;1 A
100.091056747294;0.699615478515625;0.1790771484375;5.60999998583611;562;1 A
100.101056747269;0.699676513671875;0.17901611328125;5.61999998581086;563;1 A
100.111056747244;0.699615478515625;0.178985595703125;5.62999998578562;564;1 A
100.121056747219;0.699737548828125;0.17889404296875;5.63999998576037;565;1 A
100.131056747193;0.69964599609375;0.17840576171875;5.64999998573512;566;1 A
100.141056747168;0.699615478515625;0.178070068359375;5.65999998570987;567;1 A
100.151056747143;0.699615478515625;0.177490234375;5.66999998568463;568;1 A
100.161056747118;0.699615478515625;0.177337646484375;5.67999998565938;569;1 A
100.171056747092;0.699676513671875;0.177459716796875;5.68999998563413;570;1 A
100.181056747067;0.69970703125;0.177520751953125;5.69999998560888;571;1 A
100.191056747042;0.699676513671875;0.177520751953125;5.70999998558364;572;1 A
100.201056747017;0.69964599609375;0.177581787109375;5.71999998555839;573;1 A
100.211056746991;0.69964599609375;0.17755126953125;5.72999998553314;574;1 A
100.221056746966;0.6995849609375;0.1778564453125;5.73999998550789;575;1 A
100.231056746941;0.69964599609375;0.17803955078125;5.74999998548265;576;1 A
100.241056746916;0.69964599609375;0.178466796875;5.7599999854574;577;1 A
100.25105674689;0.6995849609375;0.17889404296875;5.76999998543215;578;1 A
100.261056746865;0.69964599609375;0.179443359375;5.7799999854069;579;1 A
100.27105674684;0.69964599609375;0.17987060546875;5.78999998538166;580;1 A
100.281056746815;0.69964599609375;0.18023681640625;5.79999998535641;581;1 A
100.291056746789;0.69970703125;0.18017578125;5.80999998533116;582;1 A
100.301056746764;0.6995849609375;0.180419921875;5.81999998530591;583;1 A
100.311056746739;0.69970703125;0.18035888671875;5.82999998528066;584;1 A
100.321056746714;0.699676513671875;0.1806640625;5.83999998525542;585;1 A
100.331056746688;0.69952392578125;0.180877685546875;5.84999998523017;586;1 A
100.341056746663;0.699615478515625;0.180877685546875;5.85999998520492;587;1 A
100.351056746638;0.6995849609375;0.180755615234375;5.86999998517967;588;1 A
100.361056746613;0.69964599609375;0.1806640625;5.87999998515443;589;1 A
100.371056746587;0.69970703125;0.180328369140625;5.88999998512918;590;1 A
100.381056746562;0.699737548828125;0.180206298828125;5.89999998510393;591;1 A
100.391056746537;0.699676513671875;0.17999267578125;5.90999998507868;592;1 A
100.401056746512;0.69964599609375;0.17987060546875;5.91999998505344;593;1 A
100.411056746486;0.69964599609375;0.180023193359375;5.92999998502819;594;1 A
100.421056746461;0.699676513671875;0.180084228515625;5.93999998500294;595;1 A
100.431056746436;0.69964599609375;0.180206298828125;5.94999998497769;596;1 A
100.441056746411;0.699615478515625;0.180328369140625;5.95999998495245;597;1 A
100.451056746385;0.699676513671875;0.18035888671875;5.9699999849272;598;1 A
100.46105674636;0.699615478515625;0.1807861328125;5.97999998490195;599;1 A
100.471056746335;0.699615478515625;0.181121826171875;5.9899999848767;600;1 A
100.48105674631;0.699676513671875;0.181671142578125;5.99999998485146;601;1 A
100.491056746284;0.699615478515625;0.18206787109375;6.00999998482621;602;1 A
100.501056746259;0.69964599609375;0.182403564453125;6.01999998480096;603;1 A
100.511056746234;0.699676513671875;0.182647705078125;6.02999998477571;604;1 A
100.521056746209;0.699615478515625;0.182891845703125;6.03999998475047;605;1 A
100.531056746183;0.69970703125;0.18280029296875;6.04999998472522;606;1 A
100.541056746158;0.69964599609375;0.18310546875;6.05999998469997;607;1 A
100.551056746133;0.69964599609375;0.183074951171875;6.06999998467472;608;1 A
100.561056746108;0.699676513671875;0.183502197265625;6.07999998464948;609;1 A
100.571056746082;0.699554443359375;0.183837890625;6.08999998462423;610;1 A
100.581056746057;0.69970703125;0.184173583984375;6.09999998459898;611;1 A
100.591056746032;0.699615478515625;0.184234619140625;6.10999998457373;612;1 A
100.601056746007;0.699676513671875;0.184356689453125;6.11999998454849;613;1 A
100.611056745982;0.699737548828125;0.184173583984375;6.12999998452324;614;1 A
100.621056745956;0.699676513671875;0.18426513671875;6.13999998449799;615;1 A
100.631056745931;0.69970703125;0.184234619140625;6.14999998447274;616;1 A
100.641056745906;0.69964599609375;0.184295654296875;6.1599999844475;617;1 A
100.651056745881;0.699554443359375;0.1844482421875;6.16999998442225;618;1 A
100.661056745855;0.69964599609375;0.1846923828125;6.179999984397;619;1 A
100.67105674583;0.699676513671875;0.1849365234375;6.18999998437175;620;1 A
100.681056745805;0.699737548828125;0.185089111328125;6.1999999843465;621;1 A
100.69105674578;0.69970703125;0.185028076171875;6.20999998432126;622;1 A
100.701056745754;0.69964599609375;0.185272216796875;6.21999998429601;623;1 A
100.711056745729;0.699615478515625;0.18536376953125;6.22999998427076;624;1 A
100.721056745704;0.699615478515625;0.18572998046875;6.23999998424551;625;1 A
100.731056745679;0.699615478515625;0.1861572265625;6.24999998422027;626;1 A
100.741056745653;0.69964599609375;0.186370849609375;6.25999998419502;627;1 A
100.751056745628;0.699676513671875;0.186553955078125;6.26999998416977;628;1 A
100.761056745603;0.699676513671875;0.18670654296875;6.27999998414452;629;1 A
100.771056745578;0.69964599609375;0.186614990234375;6.28999998411928;630;1 A
100.781056745552;0.699676513671875;0.18670654296875;6.29999998409403;631;1 A
100.791056745527;0.699737548828125;0.18670654296875;6.30999998406878;632;1 A
100.801056745502;0.699676513671875;0.186798095703125;6.31999998404353;633;1 A
100.811056745477;0.69964599609375;0.18701171875;6.32999998401829;634;1 A
100.821056745451;0.699676513671875;0.1871337890625;6.33999998399304;635;1 A
100.831056745426;0.699554443359375;0.1871337890625;6.34999998396779;636;1 A
100.841056745401;0.699615478515625;0.1871337890625;6.35999998394254;637;1 A
100.851056745376;0.699737548828125;0.18695068359375;6.3699999839173;638;1 A
100.86105674535;0.69964599609375;0.187164306640625;6.37999998389205;639;1 A
100.871056745325;0.699676513671875;0.187164306640625;6.3899999838668;640;1 A
100.8810567453;0.699615478515625;0.1875;6.39999998384155;641;1 A
100.891056745275;0.6995849609375;0.187744140625;6.40999998381631;642;1 A
100.901056745249;0.6995849609375;0.188018798828125;6.41999998379106;643;1 A
100.911056745224;0.6995849609375;0.188201904296875;6.42999998376581;644;1 A
100.921056745199;0.69970703125;0.188446044921875;6.43999998374056;645;1 A
100.931056745174;0.69964599609375;0.188323974609375;6.44999998371532;646;1 A
100.941056745148;0.6995849609375;0.18853759765625;6.45999998369007;647;1 A
100.951056745123;0.699676513671875;0.1884765625;6.46999998366482;648;1 A
100.961056745098;0.6995849609375;0.188812255859375;6.47999998363957;649;1 A
100.971056745073;0.699615478515625;0.188995361328125;6.48999998361433;650;1 A
100.981056745047;0.699676513671875;0.188995361328125;6.49999998358908;651;1 A
100.991056745022;0.69964599609375;0.188720703125;6.50999998356383;652;1 A
101.001056744997;0.699737548828125;0.1883544921875;6.51999998353858;653;1 A
101.011056744972;0.699676513671875;0.187774658203125;6.52999998351333;654;1 A
101.021056744946;0.699615478515625;0.187408447265625;6.53999998348809;655;1 A
101.031056744921;0.699676513671875;0.186981201171875;6.54999998346284;656;1 A
101.041056744896;0.699676513671875;0.18658447265625;6.55999998343759;657;1 A
101.051056744871;0.69964599609375;0.18634033203125;6.56999998341234;658;1 A
101.061056744845;0.699676513671875;0.186065673828125;6.5799999833871;659;1 A
101.07105674482;0.699676513671875;0.185699462890625;6.58999998336185;660;1 A
101.081056744795;0.6995849609375;0.185211181640625;6.5999999833366;661;1 A
101.09105674477;0.69964599609375;0.184600830078125;6.60999998331135;662;1 A
101.101056744744;0.69964599609375;0.184326171875;6.61999998328611;663;1 A
101.111056744719;0.6995849609375;0.184051513671875;6.62999998326086;664;1 A
101.121056744694;0.6995849609375;0.18414306640625;6.63999998323561;665;1 A
101.131056744669;0.6995849609375;0.184356689453125;6.64999998321036;666;1 A
101.141056744643;0.699676513671875;0.18438720703125;6.65999998318512;667;1 A
101.151056744618;0.69964599609375;0.184539794921875;6.66999998315987;668;1 A
101.161056744593;0.69964599609375;0.184722900390625;6.67999998313462;669;1 A
101.171056744568;0.699615478515625;0.184661865234375;6.68999998310937;670;1 A
101.181056744542;0.69964599609375;0.184783935546875;6.69999998308413;671;1 A
101.191056744517;0.699676513671875;0.18475341796875;6.70999998305888;672;1 A
101.201056744492;0.69964599609375;0.1849365234375;6.71999998303363;673;1 A
101.211056744467;0.699676513671875;0.18511962890625;6.72999998300838;674;1 A
101.221056744441;0.699676513671875;0.1851806640625;6.73999998298314;675;1 A
101.231056744416;0.699615478515625;0.185028076171875;6.74999998295789;676;1 A
101.241056744391;0.699676513671875;0.184783935546875;6.75999998293264;677;1 A
101.251056744366;0.69964599609375;0.184356689453125;6.76999998290739;678;1 A
101.26105674434;0.69964599609375;0.184295654296875;6.77999998288215;679;1 A
101.271056744315;0.699615478515625;0.1842041015625;6.7899999828569;680;1 A
101.28105674429;0.699676513671875;0.184478759765625;6.79999998283165;681;1 A
101.291056744265;0.6995849609375;0.184814453125;6.8099999828064;682;1 A
101.301056744239;0.699676513671875;0.185211181640625;6.81999998278116;683;1 A
101.311056744214;0.699676513671875;0.185577392578125;6.82999998275591;684;1 A
101.321056744189;0.699615478515625;0.1859130859375;6.83999998273066;685;1 A
101.331056744164;0.699676513671875;0.185882568359375;6.84999998270541;686;1 A
101.341056744138;0.69964599609375;0.186126708984375;6.85999998268016;687;1 A
101.351056744113;0.69964599609375;0.18597412109375;6.86999998265492;688;1 A
101.361056744088;0.699615478515625;0.1861572265625;6.87999998262967;689;1 A
101.371056744063;0.69964599609375;0.186248779296875;6.88999998260442;690;1 A
101.381056744037;0.699676513671875;0.18621826171875;6.89999998257917;691;1 A
101.391056744012;0.699615478515625;0.185882568359375;6.90999998255393;692;1 A
101.401056743987;0.699615478515625;0.18572998046875;6.91999998252868;693;1 A
101.411056743962;0.699676513671875;0.185394287109375;6.92999998250343;694;1 A
101.421056743936;0.69964599609375;0.18536376953125;6.93999998247818;695;1 A
101.431056743911;0.699676513671875;0.1851806640625;6.94999998245294;696;1 A
101.441056743886;0.6995849609375;0.185028076171875;6.95999998242769;697;1 A
101.451056743861;0.699615478515625;0.18499755859375;6.96999998240244;698;1 A
101.461056743835;0.69964599609375;0.184967041015625;6.97999998237719;699;1 A
101.47105674381;0.699676513671875;0.184783935546875;6.98999998235195;700;1 A
101.481056743785;0.699676513671875;0.184478759765625;6.9999999823267;701;1 A
101.49105674376;0.69970703125;0.18389892578125;7.00999998230145;702;1 A
101.501056743734;0.69964599609375;0.183563232421875;7.0199999822762;703;1 A
101.511056743709;0.699676513671875;0.18316650390625;7.02999998225096;704;1 A
101.521056743684;0.699615478515625;0.18310546875;7.03999998222571;705;1 A
101.531056743659;0.699676513671875;0.183074951171875;7.04999998220046;706;1 A
101.541056743633;0.699676513671875;0.182830810546875;7.05999998217521;707;1 A
101.551056743608;0.69970703125;0.18267822265625;7.06999998214997;708;1 A
101.561056743583;0.69964599609375;0.182586669921875;7.07999998212472;709;1 A
101.571056743558;0.69970703125;0.182373046875;7.08999998209947;710;1 A
101.581056743532;0.699676513671875;0.182373046875;7.09999998207422;711;1 A
101.591056743507;0.699615478515625;0.18231201171875;7.10999998204898;712;1 A
101.601056743482;0.699615478515625;0.182464599609375;7.11999998202373;713;1 A
101.611056743457;0.69964599609375;0.18280029296875;7.12999998199848;714;1 A
101.621056743431;0.69964599609375;0.18292236328125;7.13999998197323;715;1 A
101.631056743406;0.699615478515625;0.1829833984375;7.14999998194799;716;1 A
101.641056743381;0.69952392578125;0.182861328125;7.15999998192274;717;1 A
101.651056743356;0.69964599609375;0.1826171875;7.16999998189749;718;1 A
101.661056743331;0.69964599609375;0.182586669921875;7.17999998187224;719;1 A
101.671056743305;0.699676513671875;0.182342529296875;7.189999981847;720;1 A
101.68105674328;0.699676513671875;0.182403564453125;7.19999998182175;721;1 A
101.691056743255;0.6995849609375;0.18243408203125;7.2099999817965;722;1 A
101.70105674323;0.69964599609375;0.18255615234375;7.21999998177125;723;1 A
101.711056743204;0.6995849609375;0.182586669921875;7.229999981746;724;1 A
101.721056743179;0.69964599609375;0.18267822265625;7.23999998172076;725;1 A
101.731056743154;0.69964599609375;0.182525634765625;7.24999998169551;726;1 A
101.741056743129;0.699676513671875;0.182861328125;7.25999998167026;727;1 A
101.751056743103;0.69970703125;0.1829833984375;7.26999998164501;728;1 A
101.761056743078;0.699615478515625;0.18359375;7.27999998161977;729;1 A
101.771056743053;0.69964599609375;0.184173583984375;7.28999998159452;730;1 A
101.781056743028;0.69964599609375;0.184814453125;7.29999998156927;731;1 A
101.791056743002;0.69964599609375;0.18524169921875;7.30999998154402;732;1 A
101.801056742977;0.69970703125;0.185760498046875;7.31999998151878;733;1 A
101.811056742952;0.69964599609375;0.185943603515625;7.32999998149353;734;1 A
101.821056742927;0.6995849609375;0.186309814453125;7.33999998146828;735;1 A
101.831056742901;0.699676513671875;0.186492919921875;7.34999998144303;736;1 A
101.841056742876;0.699615478515625;0.1866455078125;7.35999998141779;737;1 A
101.851056742851;0.69964599609375;0.1868896484375;7.36999998139254;738;1 A
101.861056742826;0.699615478515625;0.18701171875;7.37999998136729;739;1 A
101.8710567428;0.69970703125;0.187103271484375;7.38999998134204;740;1 A
101.881056742775;0.6995849609375;0.187042236328125;7.3999999813168;741;1 A
101.89105674275;0.699676513671875;0.186798095703125;7.40999998129155;742;1 A
101.901056742725;0.69970703125;0.186737060546875;7.4199999812663;743;1 A
101.911056742699;0.699676513671875;0.186614990234375;7.42999998124105;744;1 A
101.921056742674;0.699676513671875;0.186614990234375;7.43999998121581;745;1 A
101.931056742649;0.6995849609375;0.186737060546875;7.44999998119056;746;1 A
101.941056742624;0.699676513671875;0.186614990234375;7.45999998116531;747;1 A
101.951056742598;0.699615478515625;0.186614990234375;7.46999998114006;748;1 A
101.961056742573;0.699615478515625;0.18646240234375;7.47999998111482;749;1 A
101.971056742548;0.699737548828125;0.186004638671875;7.48999998108957;750;1 A
101.981056742523;0.699676513671875;0.1856689453125;7.49999998106432;751;1 A
101.991056742497;0.69964599609375;0.185089111328125;7.50999998103907;752;1 A
102.001056742472;0.699615478515625;0.184814453125;7.51999998101383;753;1 A
102.011056742447;0.699615478515625;0.184539794921875;7.52999998098858;754;1 A
102.021056742422;0.69970703125;0.1842041015625;7.53999998096333;755;1 A
102.031056742396;0.699615478515625;0.18377685546875;7.54999998093808;756;1 A
102.041056742371;0.69964599609375;0.183349609375;7.55999998091283;757;1 A
102.051056742346;0.69970703125;0.182891845703125;7.56999998088759;758;1 A
102.061056742321;0.699676513671875;0.182769775390625;7.57999998086234;759;1 A
102.071056742295;0.699615478515625;0.18255615234375;7.58999998083709;760;1 A
102.08105674227;0.699676513671875;0.1826171875;7.59999998081184;761;1 A
102.091056742245;0.699676513671875;0.18267822265625;7.6099999807866;762;1 A
102.10105674222;0.69964599609375;0.182861328125;7.61999998076135;763;1 A
102.111056742194;0.699615478515625;0.1829833984375;7.6299999807361;764;1 A
102.121056742169;0.699615478515625;0.183074951171875;7.63999998071085;765;1 A
102.131056742144;0.69970703125;0.182861328125;7.64999998068561;766;1 A
102.141056742119;0.699676513671875;0.183013916015625;7.65999998066036;767;1 A
102.151056742093;0.699615478515625;0.18292236328125;7.66999998063511;768;1 A
102.161056742068;0.699676513671875;0.18316650390625;7.67999998060986;769;1 A
102.171056742043;0.699615478515625;0.183319091796875;7.68999998058462;770;1 A
102.181056742018;0.69964599609375;0.18341064453125;7.69999998055937;771;1 A
102.191056741992;0.69964599609375;0.183441162109375;7.70999998053412;772;1 A
102.201056741967;0.699615478515625;0.18359375;7.71999998050887;773;1 A
102.211056741942;0.699615478515625;0.18353271484375;7.72999998048363;774;1 A
102.221056741917;0.699737548828125;0.1837158203125;7.73999998045838;775;1 A
102.231056741891;0.699615478515625;0.183807373046875;7.74999998043313;776;1 A
102.241056741866;0.699676513671875;0.183990478515625;7.75999998040788;777;1 A
102.251056741841;0.69964599609375;0.184356689453125;7.76999998038264;778;1 A
102.261056741816;0.69964599609375;0.1846923828125;7.77999998035739;779;1 A
102.27105674179;0.699676513671875;0.1849365234375;7.78999998033214;780;1 A
102.281056741765;0.69964599609375;0.185150146484375;7.79999998030689;781;1 A
102.29105674174;0.69970703125;0.185089111328125;7.80999998028165;782;1 A
102.301056741715;0.69970703125;0.185272216796875;7.8199999802564;783;1 A
102.311056741689;0.69970703125;0.185394287109375;7.82999998023115;784;1 A
102.321056741664;0.699615478515625;0.1856689453125;7.8399999802059;785;1 A
102.331056741639;0.699676513671875;0.186004638671875;7.84999998018066;786;1 A
102.341056741614;0.69964599609375;0.18609619140625;7.85999998015541;787;1 A
102.351056741588;0.699615478515625;0.186370849609375;7.86999998013016;788;1 A
102.361056741563;0.699676513671875;0.1865234375;7.87999998010491;789;1 A
102.371056741538;0.69964599609375;0.186431884765625;7.88999998007966;790;1 A
102.381056741513;0.69964599609375;0.18658447265625;7.89999998005442;791;1 A
102.391056741487;0.6995849609375;0.186431884765625;7.90999998002917;792;1 A
102.401056741462;0.69964599609375;0.186614990234375;7.91999998000392;793;1 A
102.411056741437;0.699615478515625;0.18682861328125;7.92999997997867;794;1 A
102.421056741412;0.69964599609375;0.18701171875;7.93999997995343;795;1 A
102.431056741386;0.69964599609375;0.18701171875;7.94999997992818;796;1 A
102.441056741361;0.699615478515625;0.187164306640625;7.95999997990293;797;1 A
102.451056741336;0.69964599609375;0.187103271484375;7.96999997987768;798;1 A
102.461056741311;0.699615478515625;0.18731689453125;7.97999997985244;799;1 A
102.471056741285;0.69970703125;0.187225341796875;7.98999997982719;800;1 A
102.48105674126;0.69964599609375;0.18719482421875;7.99999997980194;801;1 A
102.491056741235;0.699615478515625;0.18701171875;8.00999997977669;802;1 A
102.50105674121;0.699676513671875;0.186920166015625;8.01999997975145;803;1 A
102.511056741184;0.69964599609375;0.186737060546875;8.0299999797262;804;1 A
102.521056741159;0.69964599609375;0.186553955078125;8.03999997970095;805;1 A
102.531056741134;0.69964599609375;0.186126708984375;8.0499999796757;806;1 A
102.541056741109;0.69970703125;0.186065673828125;8.05999997965046;807;1 A
102.551056741083;0.69964599609375;0.18585205078125;8.06999997962521;808;1 A
102.561056741058;0.69964599609375;0.18603515625;8.07999997959996;809;1 A
102.571056741033;0.699676513671875;0.186187744140625;8.08999997957471;810;1 A
102.581056741008;0.699676513671875;0.1861572265625;8.09999997954947;811;1 A
102.591056740982;0.699676513671875;0.186065673828125;8.10999997952422;812;1 A
102.601056740957;0.699615478515625;0.186004638671875;8.11999997949897;813;1 A
102.611056740932;0.69964599609375;0.185699462890625;8.12999997947372;814;1 A
102.621056740907;0.69970703125;0.18560791015625;8.13999997944848;815;1 A
102.631056740881;0.699615478515625;0.185455322265625;8.14999997942323;816;1 A
102.641056740856;0.699615478515625;0.185516357421875;8.15999997939798;817;1 A
102.651056740831;0.6995849609375;0.18572998046875;8.16999997937273;818;1 A
102.661056740806;0.699676513671875;0.185882568359375;8.17999997934749;819;1 A
102.671056740781;0.699676513671875;0.185943603515625;8.18999997932224;820;1 A
102.681056740755;0.69964599609375;0.185943603515625;8.19999997929699;821;1 A
102.69105674073;0.699615478515625;0.1856689453125;8.20999997927174;822;1 A
102.701056740705;0.69970703125;0.185638427734375;8.2199999792465;823;1 A
102.71105674068;0.699676513671875;0.1854248046875;8.22999997922125;824;1 A
102.721056740654;0.699676513671875;0.185455322265625;8.239999979196;825;1 A
102.731056740629;0.699676513671875;0.18548583984375;8.24999997917075;826;1 A
102.741056740604;0.69964599609375;0.18548583984375;8.2599999791455;827;1 A
102.751056740579;0.69964599609375;0.185577392578125;8.26999997912026;828;1 A
102.761056740553;0.699615478515625;0.18572998046875;8.27999997909501;829;1 A
102.771056740528;0.699615478515625;0.18560791015625;8.28999997906976;830;1 A
102.781056740503;0.69964599609375;0.1859130859375;8.29999997904451;831;1 A
102.791056740478;0.69964599609375;0.1859130859375;8.30999997901927;832;1 A
102.801056740452;0.6995849609375;0.186309814453125;8.31999997899402;833;1 A
102.811056740427;0.699615478515625;0.186676025390625;8.32999997896877;834;1 A
102.821056740402;0.69964599609375;0.186798095703125;8.33999997894352;835;1 A
102.831056740377;0.69964599609375;0.186737060546875;8.34999997891828;836;1 A
102.841056740351;0.699676513671875;0.186553955078125;8.35999997889303;837;1 A
102.851056740326;0.69970703125;0.186187744140625;8.36999997886778;838;1 A
102.861056740301;0.699615478515625;0.186004638671875;8.37999997884253;839;1 A
102.871056740276;0.699615478515625;0.18572998046875;8.38999997881729;840;1 A
102.88105674025;0.699615478515625;0.18572998046875;8.39999997879204;841;1 A
102.891056740225;0.699615478515625;0.185943603515625;8.40999997876679;842;1 A
102.9010567402;0.69964599609375;0.1861572265625;8.41999997874154;843;1 A
102.911056740175;0.699676513671875;0.186187744140625;8.4299999787163;844;1 A
102.921056740149;0.699615478515625;0.186065673828125;8.43999997869105;845;1 A
102.931056740124;0.69964599609375;0.185638427734375;8.4499999786658;846;1 A
102.941056740099;0.69964599609375;0.1854248046875;8.45999997864055;847;1 A
102.951056740074;0.699676513671875;0.184967041015625;8.46999997861531;848;1 A
102.961056740048;0.69964599609375;0.184783935546875;8.47999997859006;849;1 A
102.971056740023;0.699676513671875;0.1846923828125;8.48999997856481;850;1 A
102.981056739998;0.699676513671875;0.18450927734375;8.49999997853956;851;1 A
102.991056739973;0.6995849609375;0.184417724609375;8.50999997851432;852;1 A
103.001056739947;0.699615478515625;0.18438720703125;8.51999997848907;853;1 A
103.011056739922;0.69964599609375;0.184112548828125;8.52999997846382;854;1 A
103.021056739897;0.699615478515625;0.18408203125;8.53999997843857;855;1 A
103.031056739872;0.69964599609375;0.183929443359375;8.54999997841333;856;1 A
103.041056739846;0.699737548828125;0.183929443359375;8.55999997838808;857;1 A
103.051056739821;0.69970703125;0.18414306640625;8.56999997836283;858;1 A
103.061056739796;0.699615478515625;0.18426513671875;8.57999997833758;859;1 A
103.071056739771;0.699615478515625;0.184417724609375;8.58999997831233;860;1 A
103.081056739745;0.69964599609375;0.18450927734375;8.59999997828709;861;1 A
103.09105673972;0.69964599609375;0.184417724609375;8.60999997826184;862;1 A
103.101056739695;0.699615478515625;0.18450927734375;8.61999997823659;863;1 A
103.11105673967;0.69964599609375;0.1844482421875;8.62999997821134;864;1 A
103.121056739644;0.699676513671875;0.18463134765625;8.6399999781861;865;1 A
103.131056739619;0.699676513671875;0.184844970703125;8.64999997816085;866;1 A
103.141056739594;0.69970703125;0.184844970703125;8.6599999781356;867;1 A
103.151056739569;0.69964599609375;0.18487548828125;8.66999997811035;868;1 A
103.161056739543;0.699676513671875;0.184844970703125;8.67999997808511;869;1 A
103.171056739518;0.69964599609375;0.184539794921875;8.68999997805986;870;1 A
103.181056739493;0.699615478515625;0.184600830078125;8.69999997803461;871;1 A
103.191056739468;0.699615478515625;0.184417724609375;8.70999997800936;872;1 A
103.201056739442;0.69964599609375;0.184722900390625;8.71999997798412;873;1 A
103.211056739417;0.69970703125;0.184906005859375;8.72999997795887;874;1 A
103.221056739392;0.69970703125;0.18499755859375;8.73999997793362;875;1 A
103.231056739367;0.699676513671875;0.1849365234375;8.74999997790837;876;1 A
103.241056739341;0.699615478515625;0.185028076171875;8.75999997788313;877;1 A
103.251056739316;0.69964599609375;0.1849365234375;8.76999997785788;878;1 A
103.261056739291;0.69964599609375;0.18505859375;8.77999997783263;879;1 A
103.271056739266;0.69964599609375;0.185028076171875;8.78999997780738;880;1 A
103.28105673924;0.69970703125;0.18505859375;8.79999997778214;881;1 A
103.291056739215;0.699615478515625;0.185150146484375;8.80999997775689;882;1 A
103.30105673919;0.699615478515625;0.1851806640625;8.81999997773164;883;1 A
103.311056739165;0.69964599609375;0.185089111328125;8.82999997770639;884;1 A
103.321056739139;0.699615478515625;0.184906005859375;8.83999997768115;885;1 A
103.331056739114;0.699615478515625;0.184478759765625;8.8499999776559;886;1 A
103.341056739089;0.69964599609375;0.184326171875;8.85999997763065;887;1 A
103.351056739064;0.699676513671875;0.183990478515625;8.8699999776054;888;1 A
103.361056739038;0.699676513671875;0.18389892578125;8.87999997758016;889;1 A
103.371056739013;0.69964599609375;0.18389892578125;8.88999997755491;890;1 A
103.381056738988;0.69970703125;0.18365478515625;8.89999997752966;891;1 A
103.391056738963;0.69970703125;0.18353271484375;8.90999997750441;892;1 A
103.401056738937;0.69964599609375;0.183441162109375;8.91999997747916;893;1 A
103.411056738912;0.699676513671875;0.18310546875;8.92999997745392;894;1 A
103.421056738887;0.69964599609375;0.183013916015625;8.93999997742867;895;1 A
103.431056738862;0.69964599609375;0.182830810546875;8.94999997740342;896;1 A
103.441056738836;0.699615478515625;0.182830810546875;8.95999997737817;897;1 A
103.451056738811;0.699676513671875;0.1829833984375;8.96999997735293;898;1 A
103.461056738786;0.699615478515625;0.18304443359375;8.97999997732768;899;1 A
103.471056738761;0.69964599609375;0.183013916015625;8.98999997730243;900;1 A
103.481056738735;0.69964599609375;0.18292236328125;8.99999997727718;901;1 A
103.49105673871;0.69964599609375;0.182647705078125;9.00999997725194;902;1 A
103.501056738685;0.69970703125;0.182586669921875;9.01999997722669;903;1 A
103.51105673866;0.69970703125;0.182342529296875;9.02999997720144;904;1 A
103.521056738634;0.69964599609375;0.182281494140625;9.03999997717619;905;1 A
103.531056738609;0.69964599609375;0.182220458984375;9.04999997715095;906;1 A
103.541056738584;0.699676513671875;0.18218994140625;9.0599999771257;907;1 A
103.551056738559;0.69964599609375;0.182159423828125;9.06999997710045;908;1 A
103.561056738533;0.6995849609375;0.18212890625;9.0799999770752;909;1 A
103.571056738508;0.69964599609375;0.181884765625;9.08999997704996;910;1 A
103.581056738483;0.699676513671875;0.182098388671875;9.09999997702471;911;1 A
103.591056738458;0.699615478515625;0.182037353515625;9.10999997699946;912;1 A
103.601056738432;0.69964599609375;0.182403564453125;9.11999997697421;913;1 A
103.611056738407;0.69970703125;0.182708740234375;9.12999997694897;914;1 A
103.621056738382;0.699676513671875;0.182952880859375;9.13999997692372;915;1 A
103.631056738357;0.69964599609375;0.1829833984375;9.14999997689847;916;1 A
103.641056738331;0.699615478515625;0.183074951171875;9.15999997687322;917;1 A
103.651056738306;0.69964599609375;0.1829833984375;9.16999997684798;918;1 A
103.661056738281;0.69964599609375;0.183197021484375;9.17999997682273;919;1 A
103.671056738256;0.69964599609375;0.183319091796875;9.18999997679748;920;1 A
103.68105673823;0.699615478515625;0.1834716796875;9.19999997677223;921;1 A
103.691056738205;0.699676513671875;0.18377685546875;9.20999997674699;922;1 A
103.70105673818;0.699676513671875;0.184051513671875;9.21999997672174;923;1 A
103.711056738155;0.69964599609375;0.18414306640625;9.22999997669649;924;1 A
103.72105673813;0.699615478515625;0.18408203125;9.23999997667124;925;1 A
103.731056738104;0.699676513671875;0.183837890625;9.249999976646;926;1 A
103.741056738079;0.69964599609375;0.183868408203125;9.25999997662075;927;1 A
103.751056738054;0.6995849609375;0.18389892578125;9.2699999765955;928;1 A
103.761056738029;0.699615478515625;0.18402099609375;9.27999997657025;929;1 A
103.771056738003;0.699676513671875;0.184295654296875;9.289999976545;930;1 A
103.781056737978;0.699676513671875;0.18426513671875;9.29999997651976;931;1 A
103.791056737953;0.69964599609375;0.184356689453125;9.30999997649451;932;1 A
103.801056737928;0.6995849609375;0.1844482421875;9.31999997646926;933;1 A
103.811056737902;0.699615478515625;0.184417724609375;9.32999997644401;934;1 A
103.821056737877;0.699676513671875;0.1846923828125;9.33999997641877;935;1 A
103.831056737852;0.69964599609375;0.184783935546875;9.34999997639352;936;1 A
103.841056737827;0.6995849609375;0.1851806640625;9.35999997636827;937;1 A
103.851056737801;0.69964599609375;0.18560791015625;9.36999997634302;938;1 A
103.861056737776;0.699676513671875;0.18585205078125;9.37999997631778;939;1 A
103.871056737751;0.699615478515625;0.185943603515625;9.38999997629253;940;1 A
103.881056737726;0.6995849609375;0.185882568359375;9.39999997626728;941;1 A
103.8910567377;0.699615478515625;0.185577392578125;9.40999997624203;942;1 A
103.901056737675;0.699615478515625;0.18548583984375;9.41999997621679;943;1 A
103.91105673765;0.699676513671875;0.18511962890625;9.42999997619154;944;1 A
103.921056737625;0.699615478515625;0.18505859375;9.43999997616629;945;1 A
103.931056737599;0.699676513671875;0.18499755859375;9.44999997614104;946;1 A
103.941056737574;0.69964599609375;0.1849365234375;9.4599999761158;947;1 A
103.951056737549;0.69964599609375;0.18475341796875;9.46999997609055;948;1 A
103.961056737524;0.69964599609375;0.1845703125;9.4799999760653;949;1 A
103.971056737498;0.6995849609375;0.184173583984375;9.48999997604005;950;1 A
103.981056737473;0.699676513671875;0.184173583984375;9.49999997601481;951;1 A
103.991056737448;0.6995849609375;0.18402099609375;9.50999997598956;952;1 A
104.001056737423;0.699615478515625;0.184295654296875;9.51999997596431;953;1 A
104.011056737397;0.69964599609375;0.18450927734375;9.52999997593906;954;1 A
104.021056737372;0.699676513671875;0.18463134765625;9.53999997591382;955;1 A
104.031056737347;0.6995849609375;0.184661865234375;9.54999997588857;956;1 A
104.041056737322;0.699615478515625;0.184814453125;9.55999997586332;957;1 A
104.051056737296;0.699615478515625;0.1846923828125;9.56999997583807;958;1 A
104.061056737271;0.699615478515625;0.184814453125;9.57999997581283;959;1 A
104.071056737246;0.69964599609375;0.184844970703125;9.58999997578758;960;1 A
104.081056737221;0.69964599609375;0.18499755859375;9.59999997576233;961;1 A
104.091056737195;0.699676513671875;0.18524169921875;9.60999997573708;962;1 A
104.10105673717;0.69964599609375;0.185394287109375;9.61999997571183;963;1 A
104.111056737145;0.69970703125;0.185455322265625;9.62999997568659;964;1 A
104.12105673712;0.699615478515625;0.185516357421875;9.63999997566134;965;1 A
104.131056737094;0.699615478515625;0.185394287109375;9.64999997563609;966;1 A
104.141056737069;0.69970703125;0.185638427734375;9.65999997561084;967;1 A
104.151056737044;0.699676513671875;0.185699462890625;9.6699999755856;968;1 A
104.161056737019;0.69964599609375;0.185821533203125;9.67999997556035;969;1 A
104.171056736993;0.699615478515625;0.185943603515625;9.6899999755351;970;1 A
104.181056736968;0.69964599609375;0.185821533203125;9.69999997550985;971;1 A
104.191056736943;0.699615478515625;0.18572998046875;9.70999997548461;972;1 A
104.201056736918;0.69964599609375;0.185638427734375;9.71999997545936;973;1 A
104.211056736892;0.699554443359375;0.185211181640625;9.72999997543411;974;1 A
104.221056736867;0.699676513671875;0.185089111328125;9.73999997540886;975;1 A
104.231056736842;0.69964599609375;0.1846923828125;9.74999997538362;976;1 A
104.241056736817;0.6995849609375;0.18463134765625;9.75999997535837;977;1 A
104.251056736791;0.69964599609375;0.184600830078125;9.76999997533312;978;1 A
104.261056736766;0.699615478515625;0.1844482421875;9.77999997530787;979;1 A
104.271056736741;0.69970703125;0.18426513671875;9.78999997528263;980;1 A
104.281056736716;0.69964599609375;0.18408203125;9.79999997525738;981;1 A
104.29105673669;0.699615478515625;0.183868408203125;9.80999997523213;982;1 A
104.301056736665;0.699676513671875;0.183990478515625;9.81999997520688;983;1 A
104.31105673664;0.699615478515625;0.18389892578125;9.82999997518164;984;1 A
104.321056736615;0.69964599609375;0.1839599609375;9.83999997515639;985;1 A
104.331056736589;0.699676513671875;0.18402099609375;9.84999997513114;986;1 A
104.341056736564;0.699615478515625;0.184173583984375;9.85999997510589;987;1 A
104.351056736539;0.699615478515625;0.184295654296875;9.86999997508065;988;1 A
104.361056736514;0.699676513671875;0.184356689453125;9.8799999750554;989;1 A
104.371056736488;0.6995849609375;0.184173583984375;9.88999997503015;990;1 A
104.381056736463;0.69964599609375;0.18426513671875;9.8999999750049;991;1 A
104.391056736438;0.699676513671875;0.18414306640625;9.90999997497966;992;1 A
104.401056736413;0.6995849609375;0.184326171875;9.91999997495441;993;1 A
104.411056736387;0.69964599609375;0.184417724609375;9.92999997492916;994;1 A
104.421056736362;0.699493408203125;0.184356689453125;9.93999997490391;995;1 A
104.431056736337;0.699676513671875;0.184326171875;9.94999997487866;996;1 A
104.441056736312;0.699615478515625;0.184356689453125;9.95999997485342;997;1 A
104.451056736286;0.699615478515625;0.184326171875;9.96999997482817;998;1 A
104.461056736261;0.6995849609375;0.1845703125;9.97999997480292;999;1 A
104.471056736236;0.699615478515625;0.18475341796875;9.98999997477767;1000;1 A
