Time (s);WE(1).Potential (V);WE(1).Current (A);Corrected time (s);Index;Current range
2.40326299393234;0.399658203125;0.01082763671875;0;1;100 mA
2.4132629939071;0.39971923828125;0.0077728271484375;0.00999999997475243;2;100 mA
2.42326299388185;0.39971923828125;0.0062896728515625;0.0199999999495049;3;100 mA
2.4332629938566;0.39971923828125;0.0053863525390625;0.0299999999242573;4;100 mA
2.44326299383135;0.39971923828125;0.0047607421875;0.0399999998990097;5;100 mA
2.45326299380611;0.39971923828125;0.00430328369140625;0.0499999998737621;6;100 mA
2.46326299378086;0.3997802734375;0.003953857421875;0.0599999998485146;7;100 mA
2.47326299375561;0.3997802734375;0.00367095947265625;0.069999999823267;8;100 mA
2.48326299373036;0.39971923828125;0.00344451904296875;0.0799999997980194;9;100 mA
2.49326299370512;0.399810791015625;0.0032525634765625;0.0899999997727718;10;100 mA
2.50326299367987;0.399749755859375;0.00308563232421875;0.0999999997475243;11;100 mA
2.51326299365462;0.3997802734375;0.00294403076171875;0.109999999722277;12;100 mA
2.52326299362937;0.3997802734375;0.00281494140625;0.119999999697029;13;100 mA
2.53326299360413;0.3997802734375;0.002706298828125;0.129999999671782;14;100 mA
2.54326299357888;0.399749755859375;0.00260498046875;0.139999999646534;15;100 mA
2.55326299355363;0.399749755859375;0.00251678466796875;0.149999999621286;16;100 mA
2.56326299352838;0.39971923828125;0.00243804931640625;0.159999999596039;17;100 mA
2.57326299350314;0.3997802734375;0.00236419677734375;0.169999999570791;18;100 mA
2.58326299347789;0.3997802734375;0.00229888916015625;0.179999999545544;19;100 mA
2.59326299345264;0.399810791015625;0.002239990234375;0.189999999520296;20;100 mA
2.60326299342739;0.399749755859375;0.0021881103515625;0.199999999495049;21;100 mA
2.61326299340215;0.39971923828125;0.00214202880859375;0.209999999469801;22;100 mA
2.6232629933769;0.399810791015625;0.002093505859375;0.219999999444553;23;100 mA
2.63326299335165;0.399749755859375;0.0020526123046875;0.229999999419306;24;100 mA
2.6432629933264;0.3997802734375;0.00200927734375;0.239999999394058;25;100 mA
2.65326299330115;0.3997802734375;0.001976318359375;0.249999999368811;26;100 mA
2.66326299327591;0.399749755859375;0.00194091796875;0.259999999343563;27;100 mA
2.67326299325066;0.3997802734375;0.00190765380859375;0.269999999318316;28;100 mA
2.68326299322541;0.399749755859375;0.0018798828125;0.279999999293068;29;100 mA
2.69326299320016;0.3997802734375;0.0018487548828125;0.28999999926782;30;100 mA
2.70326299317492;0.399749755859375;0.001824951171875;0.299999999242573;31;100 mA
2.71326299314967;0.39971923828125;0.001800537109375;0.309999999217325;32;100 mA
2.72326299312442;0.399749755859375;0.0017779541015625;0.319999999192078;33;100 mA
2.73326299309917;0.399749755859375;0.00176116943359375;0.32999999916683;34;100 mA
2.74326299307393;0.3997802734375;0.00173736572265625;0.339999999141583;35;100 mA
2.75326299304868;0.399749755859375;0.00172088623046875;0.349999999116335;36;100 mA
2.76326299302343;0.399749755859375;0.00170166015625;0.359999999091087;37;100 mA
2.77326299299818;0.399749755859375;0.00168365478515625;0.36999999906584;38;100 mA
2.78326299297294;0.399749755859375;0.00166412353515625;0.379999999040592;39;100 mA
2.79326299294769;0.399749755859375;0.00164398193359375;0.389999999015345;40;100 mA
2.80326299292244;0.399810791015625;0.0016302490234375;0.399999998990097;41;100 mA
2.81326299289719;0.3997802734375;0.00161407470703125;0.40999999896485;42;100 mA
2.82326299287195;0.399749755859375;0.00159942626953125;0.419999998939602;43;100 mA
2.8332629928467;0.399749755859375;0.00158966064453125;0.429999998914354;44;100 mA
2.84326299282145;0.399749755859375;0.00157684326171875;0.439999998889107;45;100 mA
2.8532629927962;0.3997802734375;0.00156982421875;0.449999998863859;46;100 mA
2.86326299277096;0.399810791015625;0.00155426025390625;0.459999998838612;47;100 mA
2.87326299274571;0.399749755859375;0.00154632568359375;0.469999998813364;48;100 mA
2.88326299272046;0.399749755859375;0.00153717041015625;0.479999998788116;49;100 mA
2.89326299269521;0.3997802734375;0.00152374267578125;0.489999998762869;50;100 mA
2.90326299266997;0.3997802734375;0.00151519775390625;0.499999998737621;51;100 mA
2.91326299264472;0.3997802734375;0.001502685546875;0.509999998712374;52;100 mA
2.92326299261947;0.39971923828125;0.0014923095703125;0.519999998687126;53;100 mA
2.93326299259422;0.399810791015625;0.001480712890625;0.529999998661879;54;100 mA
2.94326299256898;0.3997802734375;0.0014715576171875;0.539999998636631;55;100 mA
2.95326299254373;0.39971923828125;0.00146270751953125;0.549999998611383;56;100 mA
2.96326299251848;0.39971923828125;0.00145843505859375;0.559999998586136;57;100 mA
2.97326299249323;0.399749755859375;0.0014544677734375;0.569999998560888;58;100 mA
2.98326299246798;0.399749755859375;0.00144439697265625;0.579999998535641;59;100 mA
2.99326299244274;0.39971923828125;0.0014404296875;0.589999998510393;60;100 mA
3.00326299241749;0.3997802734375;0.00143280029296875;0.599999998485146;61;100 mA
3.01326299239224;0.399749755859375;0.001424560546875;0.609999998459898;62;100 mA
3.02326299236699;0.399810791015625;0.001419677734375;0.61999999843465;63;100 mA
3.03326299234175;0.3997802734375;0.00141265869140625;0.629999998409403;64;100 mA
3.0432629923165;0.3997802734375;0.00140716552734375;0.639999998384155;65;100 mA
3.05326299229125;0.3997802734375;0.00140106201171875;0.649999998358908;66;100 mA
3.063262992266;0.3997802734375;0.001395263671875;0.65999999833366;67;100 mA
3.07326299224076;0.399810791015625;0.00138885498046875;0.669999998308413;68;100 mA
3.08326299221551;0.399749755859375;0.00138427734375;0.679999998283165;69;100 mA
3.09326299219026;0.3997802734375;0.00138427734375;0.689999998257917;70;100 mA
3.10326299216501;0.3997802734375;0.00137908935546875;0.69999999823267;71;100 mA
3.11326299213977;0.3997802734375;0.00137939453125;0.709999998207422;72;100 mA
3.12326299211452;0.399749755859375;0.0013702392578125;0.719999998182175;73;100 mA
3.13326299208927;0.399749755859375;0.0013671875;0.729999998156927;74;100 mA
3.14326299206402;0.3997802734375;0.00136016845703125;0.73999999813168;75;100 mA
3.15326299203878;0.3997802734375;0.00135467529296875;0.749999998106432;76;100 mA
3.16326299201353;0.399749755859375;0.00135101318359375;0.759999998081184;77;100 mA
3.17326299198828;0.399749755859375;0.00134521484375;0.769999998055937;78;100 mA
3.18326299196303;0.399749755859375;0.001343994140625;0.779999998030689;79;100 mA
3.19326299193779;0.3997802734375;0.001341552734375;0.789999998005442;80;100 mA
3.20326299191254;0.3997802734375;0.00134246826171875;0.799999997980194;81;100 mA
3.21326299188729;0.39971923828125;0.00134521484375;0.809999997954947;82;100 mA
3.22326299186204;0.3997802734375;0.00134002685546875;0.819999997929699;83;100 mA
3.2332629918368;0.399749755859375;0.00134124755859375;0.829999997904451;84;100 mA
3.24326299181155;0.399810791015625;0.00133453369140625;0.839999997879204;85;100 mA
3.2532629917863;0.39971923828125;0.00133575439453125;0.849999997853956;86;100 mA
3.26326299176105;0.399749755859375;0.0013287353515625;0.859999997828709;87;100 mA
3.27326299173581;0.39971923828125;0.00132476806640625;0.869999997803461;88;100 mA
3.28326299171056;0.399749755859375;0.00132415771484375;0.879999997778214;89;100 mA
3.29326299168531;0.3997802734375;0.001318359375;0.889999997752966;90;100 mA
3.30326299166006;0.399749755859375;0.00131500244140625;0.899999997727718;91;100 mA
3.31326299163482;0.3997802734375;0.00131256103515625;0.909999997702471;92;100 mA
3.32326299160957;0.399810791015625;0.001309814453125;0.919999997677223;93;100 mA
3.33326299158432;0.399749755859375;0.001312255859375;0.929999997651976;94;100 mA
3.34326299155907;0.39971923828125;0.00130706787109375;0.939999997626728;95;100 mA
3.35326299153382;0.399810791015625;0.00130859375;0.949999997601481;96;100 mA
3.36326299150858;0.3997802734375;0.001304931640625;0.959999997576233;97;100 mA
3.37326299148333;0.399810791015625;0.001302490234375;0.969999997550985;98;100 mA
3.38326299145808;0.399749755859375;0.00129852294921875;0.979999997525738;99;100 mA
3.39326299143283;0.399749755859375;0.00129364013671875;0.98999999750049;100;100 mA
3.40326299140759;0.3997802734375;0.00129608154296875;0.999999997475243;101;100 mA
3.41326299138234;0.399749755859375;0.00129241943359375;1.00999999745;102;100 mA
3.42326299135709;0.3997802734375;0.00128997802734375;1.01999999742475;103;100 mA
3.43326299133184;0.399749755859375;0.0012921142578125;1.0299999973995;104;100 mA
3.4432629913066;0.399749755859375;0.00128936767578125;1.03999999737425;105;100 mA
3.45326299128135;0.3997802734375;0.0012933349609375;1.049999997349;106;100 mA
3.4632629912561;0.399749755859375;0.00128662109375;1.05999999732376;107;100 mA
3.47326299123085;0.399749755859375;0.001287841796875;1.06999999729851;108;100 mA
3.48326299120561;0.3997802734375;0.001287841796875;1.07999999727326;109;100 mA
3.49326299118036;0.3997802734375;0.00128448486328125;1.08999999724801;110;100 mA
3.50326299115511;0.3997802734375;0.00128448486328125;1.09999999722277;111;100 mA
3.51326299112986;0.399810791015625;0.00128021240234375;1.10999999719752;112;100 mA
3.52326299110462;0.399749755859375;0.00127716064453125;1.11999999717227;113;100 mA
3.53326299107937;0.399810791015625;0.001273193359375;1.12999999714702;114;100 mA
3.54326299105412;0.399749755859375;0.001270751953125;1.13999999712178;115;100 mA
3.55326299102887;0.399810791015625;0.00127044677734375;1.14999999709653;116;100 mA
3.56326299100363;0.3997802734375;0.001270751953125;1.15999999707128;117;100 mA
3.57326299097838;0.39971923828125;0.00127410888671875;1.16999999704603;118;100 mA
3.58326299095313;0.399810791015625;0.001270751953125;1.17999999702079;119;100 mA
3.59326299092788;0.3997802734375;0.00127197265625;1.18999999699554;120;100 mA
3.60326299090264;0.399749755859375;0.00126922607421875;1.19999999697029;121;100 mA
3.61326299087739;0.399688720703125;0.00126495361328125;1.20999999694504;122;100 mA
3.62326299085214;0.399688720703125;0.001263427734375;1.2199999969198;123;100 mA
3.63326299082689;0.399749755859375;0.00126251220703125;1.22999999689455;124;100 mA
3.64326299080165;0.399749755859375;0.00126007080078125;1.2399999968693;125;100 mA
3.6532629907764;0.399749755859375;0.0012567138671875;1.24999999684405;126;100 mA
3.66326299075115;0.39984130859375;0.00125396728515625;1.25999999681881;127;100 mA
3.6732629907259;0.39971923828125;0.00125152587890625;1.26999999679356;128;100 mA
3.68326299070065;0.399688720703125;0.001251220703125;1.27999999676831;129;100 mA
3.69326299067541;0.399810791015625;0.00125274658203125;1.28999999674306;130;100 mA
3.70326299065016;0.399749755859375;0.0012518310546875;1.29999999671782;131;100 mA
3.71326299062491;0.39984130859375;0.0012530517578125;1.30999999669257;132;100 mA
3.72326299059966;0.3997802734375;0.00124847412109375;1.31999999666732;133;100 mA
3.73326299057442;0.3997802734375;0.00124725341796875;1.32999999664207;134;100 mA
3.74326299054917;0.3997802734375;0.00124176025390625;1.33999999661683;135;100 mA
3.75326299052392;0.39971923828125;0.00123992919921875;1.34999999659158;136;100 mA
3.76326299049867;0.399688720703125;0.001240234375;1.35999999656633;137;100 mA
3.77326299047343;0.399810791015625;0.00123291015625;1.36999999654108;138;100 mA
3.78326299044818;0.399810791015625;0.0012322998046875;1.37999999651583;139;100 mA
3.79326299042293;0.3997802734375;0.00123046875;1.38999999649059;140;100 mA
3.80326299039768;0.399749755859375;0.00123321533203125;1.39999999646534;141;100 mA
3.81326299037244;0.3997802734375;0.00123504638671875;1.40999999644009;142;100 mA
3.82326299034719;0.399810791015625;0.001231689453125;1.41999999641484;143;100 mA
3.83326299032194;0.3997802734375;0.00123291015625;1.4299999963896;144;100 mA
3.84326299029669;0.399810791015625;0.00122833251953125;1.43999999636435;145;100 mA
3.85326299027145;0.3997802734375;0.00123138427734375;1.4499999963391;146;100 mA
3.8632629902462;0.399810791015625;0.0012261962890625;1.45999999631385;147;100 mA
3.87326299022095;0.399749755859375;0.0012249755859375;1.46999999628861;148;100 mA
3.8832629901957;0.3997802734375;0.00122528076171875;1.47999999626336;149;100 mA
3.89326299017046;0.3997802734375;0.00122161865234375;1.48999999623811;150;100 mA
3.90326299014521;0.39971923828125;0.001220703125;1.49999999621286;151;100 mA
3.91326299011996;0.399688720703125;0.0012200927734375;1.50999999618762;152;100 mA
3.92326299009471;0.39971923828125;0.0012188720703125;1.51999999616237;153;100 mA
3.93326299006947;0.3997802734375;0.00122161865234375;1.52999999613712;154;100 mA
3.94326299004422;0.399810791015625;0.0012176513671875;1.53999999611187;155;100 mA
3.95326299001897;0.3997802734375;0.00121826171875;1.54999999608663;156;100 mA
3.96326298999372;0.3997802734375;0.00121673583984375;1.55999999606138;157;100 mA
3.97326298996848;0.399749755859375;0.0012139892578125;1.56999999603613;158;100 mA
3.98326298994323;0.399749755859375;0.001212158203125;1.57999999601088;159;100 mA
3.99326298991798;0.399749755859375;0.00120758056640625;1.58999999598564;160;100 mA
4.00326298989273;0.39984130859375;0.00120941162109375;1.59999999596039;161;100 mA
4.01326298986748;0.3997802734375;0.00120635986328125;1.60999999593514;162;100 mA
4.02326298984224;0.399810791015625;0.001204833984375;1.61999999590989;163;100 mA
4.03326298981699;0.39971923828125;0.00120697021484375;1.62999999588465;164;100 mA
4.04326298979174;0.3997802734375;0.0012066650390625;1.6399999958594;165;100 mA
4.05326298976649;0.39984130859375;0.0012103271484375;1.64999999583415;166;100 mA
4.06326298974125;0.3997802734375;0.0012060546875;1.6599999958089;167;100 mA
4.073262989716;0.399749755859375;0.00120880126953125;1.66999999578366;168;100 mA
4.08326298969075;0.3997802734375;0.00120941162109375;1.67999999575841;169;100 mA
4.0932629896655;0.399810791015625;0.0012078857421875;1.68999999573316;170;100 mA
4.10326298964026;0.3997802734375;0.0012091064453125;1.69999999570791;171;100 mA
4.11326298961501;0.399749755859375;0.00120880126953125;1.70999999568267;172;100 mA
4.12326298958976;0.39984130859375;0.00120880126953125;1.71999999565742;173;100 mA
4.13326298956451;0.3997802734375;0.00120819091796875;1.72999999563217;174;100 mA
4.14326298953927;0.399688720703125;0.00120697021484375;1.73999999560692;175;100 mA
4.15326298951402;0.3997802734375;0.00120758056640625;1.74999999558167;176;100 mA
4.16326298948877;0.39971923828125;0.0012109375;1.75999999555643;177;100 mA
4.17326298946352;0.399688720703125;0.0012164306640625;1.76999999553118;178;100 mA
4.18326298943828;0.3997802734375;0.0012152099609375;1.77999999550593;179;100 mA
4.19326298941303;0.39971923828125;0.001217041015625;1.78999999548068;180;100 mA
4.20326298938778;0.399810791015625;0.001217041015625;1.79999999545544;181;100 mA
4.21326298936253;0.399749755859375;0.00121612548828125;1.80999999543019;182;100 mA
4.22326298933729;0.399810791015625;0.00121734619140625;1.81999999540494;183;100 mA
4.23326298931204;0.3997802734375;0.00121856689453125;1.82999999537969;184;100 mA
4.24326298928679;0.3997802734375;0.001217041015625;1.83999999535445;185;100 mA
4.25326298926154;0.3997802734375;0.00121856689453125;1.8499999953292;186;100 mA
4.2632629892363;0.399749755859375;0.00121856689453125;1.85999999530395;187;100 mA
4.27326298921105;0.39971923828125;0.00121978759765625;1.8699999952787;188;100 mA
4.2832629891858;0.399810791015625;0.00122406005859375;1.87999999525346;189;100 mA
4.29326298916055;0.3997802734375;0.00122833251953125;1.88999999522821;190;100 mA
4.30326298913531;0.3997802734375;0.00122955322265625;1.89999999520296;191;100 mA
4.31326298911006;0.39984130859375;0.00123382568359375;1.90999999517771;192;100 mA
4.32326298908481;0.399810791015625;0.0012310791015625;1.91999999515247;193;100 mA
4.33326298905956;0.399810791015625;0.00123016357421875;1.92999999512722;194;100 mA
4.34326298903432;0.399749755859375;0.00122711181640625;1.93999999510197;195;100 mA
4.35326298900907;0.399749755859375;0.0012255859375;1.94999999507672;196;100 mA
4.36326298898382;0.399749755859375;0.0012261962890625;1.95999999505148;197;100 mA
4.37326298895857;0.39971923828125;0.00122283935546875;1.96999999502623;198;100 mA
4.38326298893332;0.39971923828125;0.0012249755859375;1.97999999500098;199;100 mA
4.39326298890808;0.39971923828125;0.00122344970703125;1.98999999497573;200;100 mA
4.40326298888283;0.399749755859375;0.00122833251953125;1.99999999495049;201;100 mA
4.41326298885758;0.3997802734375;0.00123199462890625;2.00999999492524;202;100 mA
4.42326298883233;0.399749755859375;0.0012286376953125;2.01999999489999;203;100 mA
4.43326298880709;0.399688720703125;0.00123260498046875;2.02999999487474;204;100 mA
4.44326298878184;0.399810791015625;0.0012286376953125;2.0399999948495;205;100 mA
4.45326298875659;0.39971923828125;0.0012310791015625;2.04999999482425;206;100 mA
4.46326298873134;0.399749755859375;0.00122894287109375;2.059999994799;207;100 mA
4.4732629887061;0.399810791015625;0.001226806640625;2.06999999477375;208;100 mA
4.48326298868085;0.39971923828125;0.00122894287109375;2.0799999947485;209;100 mA
4.4932629886556;0.3997802734375;0.00122528076171875;2.08999999472326;210;100 mA
4.50326298863035;0.3997802734375;0.0012249755859375;2.09999999469801;211;100 mA
4.51326298860511;0.399810791015625;0.00122467041015625;2.10999999467276;212;100 mA
4.52326298857986;0.399749755859375;0.0012249755859375;2.11999999464751;213;100 mA
4.53326298855461;0.39971923828125;0.00123016357421875;2.12999999462227;214;100 mA
4.54326298852936;0.399749755859375;0.00122406005859375;2.13999999459702;215;100 mA
4.55326298850412;0.399749755859375;0.00122589111328125;2.14999999457177;216;100 mA
4.56326298847887;0.399749755859375;0.00122283935546875;2.15999999454652;217;100 mA
4.57326298845362;0.399810791015625;0.0012200927734375;2.16999999452128;218;100 mA
4.58326298842837;0.3997802734375;0.00121795654296875;2.17999999449603;219;100 mA
4.59326298840313;0.399749755859375;0.00121429443359375;2.18999999447078;220;100 mA
4.60326298837788;0.399810791015625;0.0012158203125;2.19999999444553;221;100 mA
4.61326298835263;0.39971923828125;0.00121307373046875;2.20999999442029;222;100 mA
4.62326298832738;0.399810791015625;0.0012139892578125;2.21999999439504;223;100 mA
4.63326298830214;0.399749755859375;0.00121551513671875;2.22999999436979;224;100 mA
4.64326298827689;0.39971923828125;0.00121429443359375;2.23999999434454;225;100 mA
4.65326298825164;0.399749755859375;0.00122039794921875;2.2499999943193;226;100 mA
4.66326298822639;0.3997802734375;0.001214599609375;2.25999999429405;227;100 mA
4.67326298820115;0.39971923828125;0.00121795654296875;2.2699999942688;228;100 mA
4.6832629881759;0.39971923828125;0.001217041015625;2.27999999424355;229;100 mA
4.69326298815065;0.399810791015625;0.00121551513671875;2.28999999421831;230;100 mA
4.7032629881254;0.399749755859375;0.00121551513671875;2.29999999419306;231;100 mA
4.71326298810015;0.39984130859375;0.001214599609375;2.30999999416781;232;100 mA
4.72326298807491;0.399749755859375;0.00121368408203125;2.31999999414256;233;100 mA
4.73326298804966;0.3997802734375;0.00121185302734375;2.32999999411732;234;100 mA
4.74326298802441;0.399810791015625;0.0012091064453125;2.33999999409207;235;100 mA
4.75326298799916;0.3997802734375;0.00121063232421875;2.34999999406682;236;100 mA
4.76326298797392;0.399749755859375;0.00121002197265625;2.35999999404157;237;100 mA
4.77326298794867;0.399749755859375;0.00121490478515625;2.36999999401633;238;100 mA
4.78326298792342;0.399810791015625;0.0012103271484375;2.37999999399108;239;100 mA
4.79326298789817;0.399749755859375;0.0012103271484375;2.38999999396583;240;100 mA
4.80326298787293;0.399810791015625;0.00120819091796875;2.39999999394058;241;100 mA
4.81326298784768;0.399749755859375;0.001207275390625;2.40999999391533;242;100 mA
4.82326298782243;0.3997802734375;0.00120635986328125;2.41999999389009;243;100 mA
4.83326298779718;0.39971923828125;0.0012060546875;2.42999999386484;244;100 mA
4.84326298777194;0.3997802734375;0.00120574951171875;2.43999999383959;245;100 mA
4.85326298774669;0.3997802734375;0.00120361328125;2.44999999381434;246;100 mA
4.86326298772144;0.3997802734375;0.00120269775390625;2.4599999937891;247;100 mA
4.87326298769619;0.399749755859375;0.001199951171875;2.46999999376385;248;100 mA
4.88326298767095;0.3997802734375;0.0012017822265625;2.4799999937386;249;100 mA
4.8932629876457;0.39971923828125;0.001204833984375;2.48999999371335;250;100 mA
4.90326298762045;0.39984130859375;0.0012030029296875;2.49999999368811;251;100 mA
4.9132629875952;0.3997802734375;0.0012054443359375;2.50999999366286;252;100 mA
4.92326298756996;0.3997802734375;0.0012017822265625;2.51999999363761;253;100 mA
4.93326298754471;0.3997802734375;0.001201171875;2.52999999361236;254;100 mA
4.94326298751946;0.399749755859375;0.00119720458984375;2.53999999358712;255;100 mA
4.95326298749421;0.3997802734375;0.00119537353515625;2.54999999356187;256;100 mA
4.96326298746897;0.3997802734375;0.00119476318359375;2.55999999353662;257;100 mA
4.97326298744372;0.399749755859375;0.00119171142578125;2.56999999351137;258;100 mA
4.98326298741847;0.399749755859375;0.00119171142578125;2.57999999348613;259;100 mA
4.99326298739322;0.3997802734375;0.00119110107421875;2.58999999346088;260;100 mA
5.00326298736798;0.399749755859375;0.00119354248046875;2.59999999343563;261;100 mA
5.01326298734273;0.39971923828125;0.00119476318359375;2.60999999341038;262;100 mA
5.02326298731748;0.3997802734375;0.00119110107421875;2.61999999338514;263;100 mA
5.03326298729223;0.3997802734375;0.0011932373046875;2.62999999335989;264;100 mA
5.04326298726698;0.399749755859375;0.0011883544921875;2.63999999333464;265;100 mA
5.05326298724174;0.399810791015625;0.00119110107421875;2.64999999330939;266;100 mA
5.06326298721649;0.399749755859375;0.00118804931640625;2.65999999328415;267;100 mA
5.07326298719124;0.3997802734375;0.001185302734375;2.6699999932589;268;100 mA
5.08326298716599;0.3997802734375;0.0011871337890625;2.67999999323365;269;100 mA
5.09326298714075;0.3997802734375;0.00118316650390625;2.6899999932084;270;100 mA
5.1032629871155;0.3997802734375;0.00118377685546875;2.69999999318316;271;100 mA
5.11326298709025;0.399810791015625;0.00118438720703125;2.70999999315791;272;100 mA
5.123262987065;0.399749755859375;0.00118499755859375;2.71999999313266;273;100 mA
5.13326298703976;0.3997802734375;0.00118865966796875;2.72999999310741;274;100 mA
5.14326298701451;0.399749755859375;0.001182861328125;2.73999999308217;275;100 mA
5.15326298698926;0.39971923828125;0.001185302734375;2.74999999305692;276;100 mA
5.16326298696401;0.399749755859375;0.001181640625;2.75999999303167;277;100 mA
5.17326298693877;0.3997802734375;0.00117828369140625;2.76999999300642;278;100 mA
5.18326298691352;0.399749755859375;0.0011767578125;2.77999999298117;279;100 mA
5.19326298688827;0.399749755859375;0.0011700439453125;2.78999999295593;280;100 mA
5.20326298686302;0.39971923828125;0.00117156982421875;2.79999999293068;281;100 mA
5.21326298683778;0.39971923828125;0.00116851806640625;2.80999999290543;282;100 mA
5.22326298681253;0.399749755859375;0.00116790771484375;2.81999999288018;283;100 mA
5.23326298678728;0.3997802734375;0.0011688232421875;2.82999999285494;284;100 mA
5.24326298676203;0.3997802734375;0.00116668701171875;2.83999999282969;285;100 mA
5.25326298673679;0.399749755859375;0.0011712646484375;2.84999999280444;286;100 mA
5.26326298671154;0.3997802734375;0.00116546630859375;2.85999999277919;287;100 mA
5.27326298668629;0.3997802734375;0.0011663818359375;2.86999999275395;288;100 mA
5.28326298666104;0.3997802734375;0.00116424560546875;2.8799999927287;289;100 mA
5.2932629866358;0.3997802734375;0.0011614990234375;2.88999999270345;290;100 mA
5.30326298661055;0.399749755859375;0.00115966796875;2.8999999926782;291;100 mA
5.3132629865853;0.3997802734375;0.0011572265625;2.90999999265296;292;100 mA
5.32326298656005;0.399749755859375;0.00115570068359375;2.91999999262771;293;100 mA
5.33326298653481;0.399749755859375;0.00115325927734375;2.92999999260246;294;100 mA
5.34326298650956;0.399810791015625;0.00115020751953125;2.93999999257721;295;100 mA
5.35326298648431;0.399749755859375;0.00115020751953125;2.94999999255197;296;100 mA
5.36326298645906;0.399749755859375;0.00115020751953125;2.95999999252672;297;100 mA
5.37326298643382;0.3997802734375;0.00115570068359375;2.96999999250147;298;100 mA
5.38326298640857;0.399810791015625;0.00115081787109375;2.97999999247622;299;100 mA
5.39326298638332;0.399810791015625;0.0011505126953125;2.98999999245098;300;100 mA
5.40326298635807;0.3997802734375;0.00114776611328125;2.99999999242573;301;100 mA
5.41326298633282;0.3997802734375;0.00114501953125;3.00999999240048;302;100 mA
5.42326298630758;0.3997802734375;0.00114532470703125;3.01999999237523;303;100 mA
5.43326298628233;0.3997802734375;0.00114410400390625;3.02999999234999;304;100 mA
5.44326298625708;0.399749755859375;0.0011431884765625;3.03999999232474;305;100 mA
5.45326298623183;0.399749755859375;0.00114288330078125;3.04999999229949;306;100 mA
5.46326298620659;0.3997802734375;0.00114044189453125;3.05999999227424;307;100 mA
5.47326298618134;0.39971923828125;0.00113800048828125;3.069999992249;308;100 mA
5.48326298615609;0.3997802734375;0.00114013671875;3.07999999222375;309;100 mA
5.49326298613084;0.399810791015625;0.00114227294921875;3.0899999921985;310;100 mA
5.5032629861056;0.39971923828125;0.0011444091796875;3.09999999217325;311;100 mA
5.51326298608035;0.399749755859375;0.00114501953125;3.109999992148;312;100 mA
5.5232629860551;0.399749755859375;0.00114288330078125;3.11999999212276;313;100 mA
5.53326298602985;0.3997802734375;0.00114410400390625;3.12999999209751;314;100 mA
5.54326298600461;0.399749755859375;0.00114105224609375;3.13999999207226;315;100 mA
5.55326298597936;0.3997802734375;0.0011395263671875;3.14999999204701;316;100 mA
5.56326298595411;0.3997802734375;0.00114288330078125;3.15999999202177;317;100 mA
5.57326298592886;0.39971923828125;0.0011395263671875;3.16999999199652;318;100 mA
5.58326298590362;0.399749755859375;0.0011383056640625;3.17999999197127;319;100 mA
5.59326298587837;0.399810791015625;0.00113800048828125;3.18999999194602;320;100 mA
5.60326298585312;0.39971923828125;0.00114227294921875;3.19999999192078;321;100 mA
5.61326298582787;0.3997802734375;0.0011444091796875;3.20999999189553;322;100 mA
5.62326298580263;0.3997802734375;0.0011419677734375;3.21999999187028;323;100 mA
5.63326298577738;0.399749755859375;0.0011468505859375;3.22999999184503;324;100 mA
5.64326298575213;0.399749755859375;0.00114471435546875;3.23999999181979;325;100 mA
5.65326298572688;0.399749755859375;0.00114898681640625;3.24999999179454;326;100 mA
5.66326298570164;0.3997802734375;0.0011474609375;3.25999999176929;327;100 mA
5.67326298567639;0.3997802734375;0.00114898681640625;3.26999999174404;328;100 mA
5.68326298565114;0.3997802734375;0.00114990234375;3.2799999917188;329;100 mA
5.69326298562589;0.399688720703125;0.00114776611328125;3.28999999169355;330;100 mA
5.70326298560065;0.3997802734375;0.00114715576171875;3.2999999916683;331;100 mA
5.7132629855754;0.39971923828125;0.00114837646484375;3.30999999164305;332;100 mA
5.72326298555015;0.399749755859375;0.00114837646484375;3.31999999161781;333;100 mA
5.7332629855249;0.399688720703125;0.00115234375;3.32999999159256;334;100 mA
5.74326298549965;0.3997802734375;0.00114990234375;3.33999999156731;335;100 mA
5.75326298547441;0.399749755859375;0.00115234375;3.34999999154206;336;100 mA
5.76326298544916;0.399749755859375;0.00115234375;3.35999999151682;337;100 mA
5.77326298542391;0.399810791015625;0.00114898681640625;3.36999999149157;338;100 mA
5.78326298539866;0.3997802734375;0.001148681640625;3.37999999146632;339;100 mA
5.79326298537342;0.399749755859375;0.0011468505859375;3.38999999144107;340;100 mA
5.80326298534817;0.39984130859375;0.00115020751953125;3.39999999141583;341;100 mA
5.81326298532292;0.399810791015625;0.0011474609375;3.40999999139058;342;100 mA
5.82326298529767;0.399749755859375;0.0011474609375;3.41999999136533;343;100 mA
5.83326298527243;0.3997802734375;0.00114715576171875;3.42999999134008;344;100 mA
5.84326298524718;0.399810791015625;0.00114654541015625;3.43999999131483;345;100 mA
5.85326298522193;0.3997802734375;0.001151123046875;3.44999999128959;346;100 mA
5.86326298519668;0.39984130859375;0.00114471435546875;3.45999999126434;347;100 mA
5.87326298517144;0.399688720703125;0.00114837646484375;3.46999999123909;348;100 mA
5.88326298514619;0.399749755859375;0.0011468505859375;3.47999999121384;349;100 mA
5.89326298512094;0.3997802734375;0.00114532470703125;3.4899999911886;350;100 mA
5.90326298509569;0.399810791015625;0.001143798828125;3.49999999116335;351;100 mA
5.91326298507045;0.399749755859375;0.001141357421875;3.5099999911381;352;100 mA
5.9232629850452;0.3997802734375;0.00114013671875;3.51999999111285;353;100 mA
5.93326298501995;0.3997802734375;0.00113922119140625;3.52999999108761;354;100 mA
5.9432629849947;0.399749755859375;0.001136474609375;3.53999999106236;355;100 mA
5.95326298496946;0.399749755859375;0.0011370849609375;3.54999999103711;356;100 mA
5.96326298494421;0.3997802734375;0.001138916015625;3.55999999101186;357;100 mA
5.97326298491896;0.399658203125;0.00114501953125;3.56999999098662;358;100 mA
5.98326298489371;0.399749755859375;0.0011407470703125;3.57999999096137;359;100 mA
5.99326298486847;0.399749755859375;0.00113983154296875;3.58999999093612;360;100 mA
6.00326298484322;0.3997802734375;0.0011376953125;3.59999999091087;361;100 mA
6.01326298481797;0.3997802734375;0.00113616943359375;3.60999999088563;362;100 mA
6.02326298479272;0.39984130859375;0.00113525390625;3.61999999086038;363;100 mA
6.03326298476748;0.3997802734375;0.00113555908203125;3.62999999083513;364;100 mA
6.04326298474223;0.39971923828125;0.00113494873046875;3.63999999080988;365;100 mA
6.05326298471698;0.399810791015625;0.001134033203125;3.64999999078464;366;100 mA
6.06326298469173;0.399749755859375;0.00113250732421875;3.65999999075939;367;100 mA
6.07326298466648;0.3997802734375;0.00113067626953125;3.66999999073414;368;100 mA
6.08326298464124;0.399749755859375;0.0011346435546875;3.67999999070889;369;100 mA
6.09326298461599;0.399810791015625;0.00113677978515625;3.68999999068365;370;100 mA
6.10326298459074;0.3997802734375;0.0011383056640625;3.6999999906584;371;100 mA
6.11326298456549;0.399749755859375;0.00113800048828125;3.70999999063315;372;100 mA
6.12326298454025;0.399749755859375;0.00113525390625;3.7199999906079;373;100 mA
6.133262984515;0.399749755859375;0.0011346435546875;3.72999999058266;374;100 mA
6.14326298448975;0.3997802734375;0.001131591796875;3.73999999055741;375;100 mA
6.1532629844645;0.399749755859375;0.00113128662109375;3.74999999053216;376;100 mA
6.16326298443926;0.399810791015625;0.0011334228515625;3.75999999050691;377;100 mA
6.17326298441401;0.399749755859375;0.00112884521484375;3.76999999048167;378;100 mA
6.18326298438876;0.3997802734375;0.0011297607421875;3.77999999045642;379;100 mA
6.19326298436351;0.399749755859375;0.00113128662109375;3.78999999043117;380;100 mA
6.20326298433827;0.39971923828125;0.00113525390625;3.79999999040592;381;100 mA
6.21326298431302;0.399810791015625;0.00113739013671875;3.80999999038067;382;100 mA
6.22326298428777;0.399810791015625;0.00113525390625;3.81999999035543;383;100 mA
6.23326298426252;0.399749755859375;0.001138916015625;3.82999999033018;384;100 mA
6.24326298423728;0.399810791015625;0.0011358642578125;3.83999999030493;385;100 mA
6.25326298421203;0.39971923828125;0.00113922119140625;3.84999999027968;386;100 mA
6.26326298418678;0.399749755859375;0.0011376953125;3.85999999025444;387;100 mA
6.27326298416153;0.39971923828125;0.00113555908203125;3.86999999022919;388;100 mA
6.28326298413629;0.399688720703125;0.00113800048828125;3.87999999020394;389;100 mA
6.29326298411104;0.399749755859375;0.00113433837890625;3.88999999017869;390;100 mA
6.30326298408579;0.3997802734375;0.00113494873046875;3.89999999015345;391;100 mA
6.31326298406054;0.39971923828125;0.00113494873046875;3.9099999901282;392;100 mA
6.3232629840353;0.39984130859375;0.00113677978515625;3.91999999010295;393;100 mA
6.33326298401005;0.399749755859375;0.001141357421875;3.9299999900777;394;100 mA
6.3432629839848;0.399810791015625;0.0011376953125;3.93999999005246;395;100 mA
6.35326298395955;0.399749755859375;0.00114013671875;3.94999999002721;396;100 mA
6.36326298393431;0.3997802734375;0.0011383056640625;3.95999999000196;397;100 mA
6.37326298390906;0.399749755859375;0.0011376953125;3.96999998997671;398;100 mA
6.38326298388381;0.399749755859375;0.00113739013671875;3.97999998995147;399;100 mA
6.39326298385856;0.399749755859375;0.00113433837890625;3.98999998992622;400;100 mA
6.40326298383332;0.399749755859375;0.00113861083984375;3.99999998990097;401;100 mA
6.41326298380807;0.399810791015625;0.001136474609375;4.00999998987572;402;100 mA
6.42326298378282;0.39984130859375;0.00113677978515625;4.01999998985048;403;100 mA
6.43326298375757;0.399810791015625;0.00113922119140625;4.02999998982523;404;100 mA
6.44326298373232;0.3997802734375;0.001138916015625;4.03999998979998;405;100 mA
6.45326298370708;0.399749755859375;0.00114654541015625;4.04999998977473;406;100 mA
6.46326298368183;0.3997802734375;0.0011407470703125;4.05999998974949;407;100 mA
6.47326298365658;0.39984130859375;0.00114532470703125;4.06999998972424;408;100 mA
6.48326298363133;0.3997802734375;0.00114349365234375;4.07999998969899;409;100 mA
6.49326298360609;0.399749755859375;0.0011431884765625;4.08999998967374;410;100 mA
6.50326298358084;0.3997802734375;0.001141357421875;4.0999999896485;411;100 mA
6.51326298355559;0.39971923828125;0.00114105224609375;4.10999998962325;412;100 mA
6.52326298353034;0.399749755859375;0.00114013671875;4.119999989598;413;100 mA
6.5332629835051;0.399810791015625;0.001138916015625;4.12999998957275;414;100 mA
6.54326298347985;0.3997802734375;0.00113800048828125;4.1399999895475;415;100 mA
6.5532629834546;0.399749755859375;0.00114013671875;4.14999998952226;416;100 mA
6.56326298342935;0.399749755859375;0.00114227294921875;4.15999998949701;417;100 mA
6.57326298340411;0.399749755859375;0.00114898681640625;4.16999998947176;418;100 mA
6.58326298337886;0.399749755859375;0.00114776611328125;4.17999998944651;419;100 mA
6.59326298335361;0.399810791015625;0.0011474609375;4.18999998942127;420;100 mA
6.60326298332836;0.3997802734375;0.00114471435546875;4.19999998939602;421;100 mA
6.61326298330312;0.3997802734375;0.00114532470703125;4.20999998937077;422;100 mA
6.62326298327787;0.39984130859375;0.00114410400390625;4.21999998934552;423;100 mA
6.63326298325262;0.399810791015625;0.00114349365234375;4.22999998932028;424;100 mA
6.64326298322737;0.399749755859375;0.0011431884765625;4.23999998929503;425;100 mA
6.65326298320213;0.39971923828125;0.0011419677734375;4.24999998926978;426;100 mA
6.66326298317688;0.399749755859375;0.00114105224609375;4.25999998924453;427;100 mA
6.67326298315163;0.399810791015625;0.00113922119140625;4.26999998921929;428;100 mA
6.68326298312638;0.399749755859375;0.00114227294921875;4.27999998919404;429;100 mA
6.69326298310114;0.3997802734375;0.00114532470703125;4.28999998916879;430;100 mA
6.70326298307589;0.399749755859375;0.001146240234375;4.29999998914354;431;100 mA
6.71326298305064;0.399749755859375;0.00114715576171875;4.3099999891183;432;100 mA
6.72326298302539;0.399749755859375;0.0011456298828125;4.31999998909305;433;100 mA
6.73326298300015;0.39971923828125;0.00114532470703125;4.3299999890678;434;100 mA
6.7432629829749;0.39971923828125;0.0011407470703125;4.33999998904255;435;100 mA
6.75326298294965;0.399749755859375;0.00113861083984375;4.34999998901731;436;100 mA
6.7632629829244;0.39984130859375;0.0011395263671875;4.35999998899206;437;100 mA
6.77326298289915;0.39971923828125;0.00113616943359375;4.36999998896681;438;100 mA
6.78326298287391;0.3997802734375;0.00113494873046875;4.37999998894156;439;100 mA
6.79326298284866;0.399810791015625;0.001136474609375;4.38999998891632;440;100 mA
6.80326298282341;0.399810791015625;0.0011383056640625;4.39999998889107;441;100 mA
6.81326298279816;0.399810791015625;0.00114105224609375;4.40999998886582;442;100 mA
6.82326298277292;0.399749755859375;0.00113861083984375;4.41999998884057;443;100 mA
6.83326298274767;0.399810791015625;0.001141357421875;4.42999998881533;444;100 mA
6.84326298272242;0.399749755859375;0.00114044189453125;4.43999998879008;445;100 mA
6.85326298269717;0.399749755859375;0.00114105224609375;4.44999998876483;446;100 mA
6.86326298267193;0.399810791015625;0.00113922119140625;4.45999998873958;447;100 mA
6.87326298264668;0.399749755859375;0.0011383056640625;4.46999998871433;448;100 mA
6.88326298262143;0.399749755859375;0.0011370849609375;4.47999998868909;449;100 mA
6.89326298259618;0.3997802734375;0.0011322021484375;4.48999998866384;450;100 mA
6.90326298257094;0.39984130859375;0.0011322021484375;4.49999998863859;451;100 mA
6.91326298254569;0.399688720703125;0.0011334228515625;4.50999998861334;452;100 mA
6.92326298252044;0.3997802734375;0.0011370849609375;4.5199999885881;453;100 mA
6.93326298249519;0.399749755859375;0.00114166259765625;4.52999998856285;454;100 mA
6.94326298246995;0.399749755859375;0.00113861083984375;4.5399999885376;455;100 mA
6.9532629824447;0.399749755859375;0.00113983154296875;4.54999998851235;456;100 mA
6.96326298241945;0.3997802734375;0.00114013671875;4.55999998848711;457;100 mA
6.9732629823942;0.399749755859375;0.00113677978515625;4.56999998846186;458;100 mA
6.98326298236896;0.3997802734375;0.0011376953125;4.57999998843661;459;100 mA
6.99326298234371;0.39971923828125;0.0011346435546875;4.58999998841136;460;100 mA
7.00326298231846;0.3997802734375;0.001136474609375;4.59999998838612;461;100 mA
7.01326298229321;0.3997802734375;0.00113311767578125;4.60999998836087;462;100 mA
7.02326298226797;0.399810791015625;0.00113250732421875;4.61999998833562;463;100 mA
7.03326298224272;0.399688720703125;0.0011334228515625;4.62999998831037;464;100 mA
7.04326298221747;0.3997802734375;0.00113311767578125;4.63999998828513;465;100 mA
7.05326298219222;0.399810791015625;0.00114044189453125;4.64999998825988;466;100 mA
7.06326298216698;0.399749755859375;0.001136474609375;4.65999998823463;467;100 mA
7.07326298214173;0.3997802734375;0.00114013671875;4.66999998820938;468;100 mA
7.08326298211648;0.399810791015625;0.0011370849609375;4.67999998818414;469;100 mA
7.09326298209123;0.3997802734375;0.00113739013671875;4.68999998815889;470;100 mA
7.10326298206598;0.39971923828125;0.00113525390625;4.69999998813364;471;100 mA
7.11326298204074;0.399749755859375;0.0011346435546875;4.70999998810839;472;100 mA
7.12326298201549;0.399749755859375;0.0011322021484375;4.71999998808315;473;100 mA
7.13326298199024;0.3997802734375;0.0011285400390625;4.7299999880579;474;100 mA
7.14326298196499;0.3997802734375;0.0011273193359375;4.73999998803265;475;100 mA
7.15326298193975;0.3997802734375;0.00112884521484375;4.7499999880074;476;100 mA
7.1632629819145;0.399749755859375;0.0011309814453125;4.75999998798216;477;100 mA
7.17326298188925;0.399810791015625;0.0011370849609375;4.76999998795691;478;100 mA
7.183262981864;0.399810791015625;0.001134033203125;4.77999998793166;479;100 mA
7.19326298183876;0.399749755859375;0.0011328125;4.78999998790641;480;100 mA
7.20326298181351;0.3997802734375;0.00113189697265625;4.79999998788116;481;100 mA
7.21326298178826;0.39971923828125;0.0011322021484375;4.80999998785592;482;100 mA
7.22326298176301;0.399810791015625;0.00113067626953125;4.81999998783067;483;100 mA
7.23326298173777;0.399810791015625;0.0011297607421875;4.82999998780542;484;100 mA
7.24326298171252;0.399749755859375;0.0011309814453125;4.83999998778017;485;100 mA
7.25326298168727;0.3997802734375;0.00112762451171875;4.84999998775493;486;100 mA
7.26326298166202;0.3997802734375;0.00112579345703125;4.85999998772968;487;100 mA
7.27326298163678;0.399810791015625;0.00112396240234375;4.86999998770443;488;100 mA
7.28326298161153;0.3997802734375;0.00112579345703125;4.87999998767918;489;100 mA
7.29326298158628;0.3997802734375;0.0011273193359375;4.88999998765394;490;100 mA
7.30326298156103;0.3997802734375;0.0011273193359375;4.89999998762869;491;100 mA
7.31326298153579;0.3997802734375;0.001126708984375;4.90999998760344;492;100 mA
7.32326298151054;0.3997802734375;0.00112579345703125;4.91999998757819;493;100 mA
7.33326298148529;0.399749755859375;0.00112396240234375;4.92999998755295;494;100 mA
7.34326298146004;0.3997802734375;0.0011212158203125;4.9399999875277;495;100 mA
7.3532629814348;0.399749755859375;0.0011181640625;4.94999998750245;496;100 mA
7.36326298140955;0.399749755859375;0.0011187744140625;4.9599999874772;497;100 mA
7.3732629813843;0.39971923828125;0.00111572265625;4.96999998745196;498;100 mA
7.38326298135905;0.3997802734375;0.0011151123046875;4.97999998742671;499;100 mA
7.39326298133381;0.399749755859375;0.0011181640625;4.98999998740146;500;100 mA
7.40326298130856;0.399749755859375;0.0011212158203125;4.99999998737621;501;100 mA
7.41326298128331;0.399688720703125;0.00112274169921875;5.00999998735097;502;100 mA
7.42326298125806;0.39971923828125;0.0011199951171875;5.01999998732572;503;100 mA
7.43326298123282;0.399810791015625;0.0011212158203125;5.02999998730047;504;100 mA
7.44326298120757;0.399810791015625;0.00112091064453125;5.03999998727522;505;100 mA
7.45326298118232;0.39971923828125;0.00112060546875;5.04999998724998;506;100 mA
7.46326298115707;0.3997802734375;0.00111968994140625;5.05999998722473;507;100 mA
7.47326298113182;0.399749755859375;0.00111724853515625;5.06999998719948;508;100 mA
7.48326298110658;0.39971923828125;0.00111724853515625;5.07999998717423;509;100 mA
7.49326298108133;0.399810791015625;0.0011126708984375;5.08999998714899;510;100 mA
7.50326298105608;0.39971923828125;0.0011151123046875;5.09999998712374;511;100 mA
7.51326298103083;0.3997802734375;0.00111541748046875;5.10999998709849;512;100 mA
7.52326298100559;0.399749755859375;0.0011212158203125;5.11999998707324;513;100 mA
7.53326298098034;0.39971923828125;0.001126708984375;5.129999987048;514;100 mA
7.54326298095509;0.3997802734375;0.00112396240234375;5.13999998702275;515;100 mA
7.55326298092984;0.399810791015625;0.00112762451171875;5.1499999869975;516;100 mA
7.5632629809046;0.399749755859375;0.0011260986328125;5.15999998697225;517;100 mA
7.57326298087935;0.39971923828125;0.00112396240234375;5.169999986947;518;100 mA
7.5832629808541;0.39984130859375;0.0011260986328125;5.17999998692176;519;100 mA
7.59326298082885;0.399749755859375;0.0011224365234375;5.18999998689651;520;100 mA
7.60326298080361;0.39984130859375;0.0011248779296875;5.19999998687126;521;100 mA
7.61326298077836;0.399749755859375;0.00112213134765625;5.20999998684601;522;100 mA
7.62326298075311;0.399749755859375;0.00112213134765625;5.21999998682077;523;100 mA
7.63326298072786;0.399749755859375;0.00112335205078125;5.22999998679552;524;100 mA
7.64326298070262;0.39971923828125;0.001123046875;5.23999998677027;525;100 mA
7.65326298067737;0.39971923828125;0.00112884521484375;5.24999998674502;526;100 mA
7.66326298065212;0.399749755859375;0.00112548828125;5.25999998671978;527;100 mA
7.67326298062687;0.399810791015625;0.0011279296875;5.26999998669453;528;100 mA
7.68326298060163;0.3997802734375;0.00112518310546875;5.27999998666928;529;100 mA
7.69326298057638;0.399749755859375;0.0011236572265625;5.28999998664403;530;100 mA
7.70326298055113;0.399810791015625;0.001121826171875;5.29999998661879;531;100 mA
7.71326298052588;0.3997802734375;0.0011163330078125;5.30999998659354;532;100 mA
7.72326298050064;0.399810791015625;0.001114501953125;5.31999998656829;533;100 mA
7.73326298047539;0.399810791015625;0.00111358642578125;5.32999998654304;534;100 mA
7.74326298045014;0.399810791015625;0.00111297607421875;5.3399999865178;535;100 mA
7.75326298042489;0.3997802734375;0.00111572265625;5.34999998649255;536;100 mA
7.76326298039965;0.39971923828125;0.00111907958984375;5.3599999864673;537;100 mA
7.7732629803744;0.399810791015625;0.0011260986328125;5.36999998644205;538;100 mA
7.78326298034915;0.39971923828125;0.00112396240234375;5.37999998641681;539;100 mA
7.7932629803239;0.399810791015625;0.001124267578125;5.38999998639156;540;100 mA
7.80326298029865;0.3997802734375;0.00112518310546875;5.39999998636631;541;100 mA
7.81326298027341;0.3997802734375;0.0011260986328125;5.40999998634106;542;100 mA
7.82326298024816;0.3997802734375;0.00112457275390625;5.41999998631582;543;100 mA
7.83326298022291;0.3997802734375;0.00112548828125;5.42999998629057;544;100 mA
7.84326298019766;0.39971923828125;0.001124267578125;5.43999998626532;545;100 mA
7.85326298017242;0.3997802734375;0.00112579345703125;5.44999998624007;546;100 mA
7.86326298014717;0.399810791015625;0.00112396240234375;5.45999998621483;547;100 mA
7.87326298012192;0.399749755859375;0.00112548828125;5.46999998618958;548;100 mA
7.88326298009667;0.399810791015625;0.00112945556640625;5.47999998616433;549;100 mA
7.89326298007143;0.3997802734375;0.00113311767578125;5.48999998613908;550;100 mA
7.90326298004618;0.399749755859375;0.0011358642578125;5.49999998611383;551;100 mA
7.91326298002093;0.399810791015625;0.00113800048828125;5.50999998608859;552;100 mA
7.92326297999568;0.399749755859375;0.0011376953125;5.51999998606334;553;100 mA
7.93326297997044;0.3997802734375;0.00113616943359375;5.52999998603809;554;100 mA
7.94326297994519;0.399810791015625;0.00113311767578125;5.53999998601284;555;100 mA
7.95326297991994;0.39971923828125;0.00113189697265625;5.5499999859876;556;100 mA
7.96326297989469;0.399749755859375;0.0011328125;5.55999998596235;557;100 mA
7.97326297986945;0.3997802734375;0.0011297607421875;5.5699999859371;558;100 mA
7.9832629798442;0.3997802734375;0.0011297607421875;5.57999998591185;559;100 mA
7.99326297981895;0.399749755859375;0.00113250732421875;5.58999998588661;560;100 mA
8.0032629797937;0.399749755859375;0.0011346435546875;5.59999998586136;561;100 mA
8.01326297976846;0.399749755859375;0.00113800048828125;5.60999998583611;562;100 mA
8.02326297974321;0.399749755859375;0.00113616943359375;5.61999998581086;563;100 mA
8.03326297971796;0.3997802734375;0.0011407470703125;5.62999998578562;564;100 mA
8.04326297969271;0.3997802734375;0.00114105224609375;5.63999998576037;565;100 mA
8.05326297966747;0.399688720703125;0.00114349365234375;5.64999998573512;566;100 mA
8.06326297964222;0.399688720703125;0.0011407470703125;5.65999998570987;567;100 mA
8.07326297961697;0.399810791015625;0.00114044189453125;5.66999998568463;568;100 mA
8.08326297959172;0.3997802734375;0.00113861083984375;5.67999998565938;569;100 mA
8.09326297956648;0.399749755859375;0.00113494873046875;5.68999998563413;570;100 mA
8.10326297954123;0.399810791015625;0.0011358642578125;5.69999998560888;571;100 mA
8.11326297951598;0.39971923828125;0.00113433837890625;5.70999998558364;572;100 mA
8.12326297949073;0.39971923828125;0.00113739013671875;5.71999998555839;573;100 mA
8.13326297946548;0.3997802734375;0.00114227294921875;5.72999998553314;574;100 mA
8.14326297944024;0.39971923828125;0.00113800048828125;5.73999998550789;575;100 mA
8.15326297941499;0.3997802734375;0.001141357421875;5.74999998548265;576;100 mA
8.16326297938974;0.399749755859375;0.00113983154296875;5.7599999854574;577;100 mA
8.17326297936449;0.399749755859375;0.001138916015625;5.76999998543215;578;100 mA
8.18326297933925;0.3997802734375;0.00113983154296875;5.7799999854069;579;100 mA
8.193262979314;0.39984130859375;0.00113861083984375;5.78999998538166;580;100 mA
8.20326297928875;0.39971923828125;0.001141357421875;5.79999998535641;581;100 mA
8.2132629792635;0.399749755859375;0.00113800048828125;5.80999998533116;582;100 mA
8.22326297923826;0.3997802734375;0.00113922119140625;5.81999998530591;583;100 mA
8.23326297921301;0.39971923828125;0.0011383056640625;5.82999998528066;584;100 mA
8.24326297918776;0.399810791015625;0.0011383056640625;5.83999998525542;585;100 mA
8.25326297916251;0.3997802734375;0.0011456298828125;5.84999998523017;586;100 mA
8.26326297913727;0.3997802734375;0.00114166259765625;5.85999998520492;587;100 mA
8.27326297911202;0.3997802734375;0.0011456298828125;5.86999998517967;588;100 mA
8.28326297908677;0.39971923828125;0.00114410400390625;5.87999998515443;589;100 mA
8.29326297906152;0.399810791015625;0.00114410400390625;5.88999998512918;590;100 mA
8.30326297903628;0.399749755859375;0.00114288330078125;5.89999998510393;591;100 mA
8.31326297901103;0.399749755859375;0.001141357421875;5.90999998507868;592;100 mA
8.32326297898578;0.3997802734375;0.0011419677734375;5.91999998505344;593;100 mA
8.33326297896053;0.399810791015625;0.00114166259765625;5.92999998502819;594;100 mA
8.34326297893529;0.399749755859375;0.00114013671875;5.93999998500294;595;100 mA
8.35326297891004;0.399810791015625;0.00114288330078125;5.94999998497769;596;100 mA
8.36326297888479;0.39971923828125;0.00114501953125;5.95999998495245;597;100 mA
8.37326297885954;0.39971923828125;0.0011492919921875;5.9699999849272;598;100 mA
8.3832629788343;0.3997802734375;0.00114776611328125;5.97999998490195;599;100 mA
8.39326297880905;0.399749755859375;0.0011480712890625;5.9899999848767;600;100 mA
8.4032629787838;0.3997802734375;0.001148681640625;5.99999998485146;601;100 mA
8.41326297875855;0.3997802734375;0.0011492919921875;6.00999998482621;602;100 mA
8.42326297873331;0.3997802734375;0.0011480712890625;6.01999998480096;603;100 mA
8.43326297870806;0.3997802734375;0.0011492919921875;6.02999998477571;604;100 mA
8.44326297868281;0.3997802734375;0.0011517333984375;6.03999998475047;605;100 mA
8.45326297865756;0.399749755859375;0.00115325927734375;6.04999998472522;606;100 mA
8.46326297863232;0.399749755859375;0.00115386962890625;6.05999998469997;607;100 mA
8.47326297860707;0.39971923828125;0.00115447998046875;6.06999998467472;608;100 mA
8.48326297858182;0.399749755859375;0.0011572265625;6.07999998464948;609;100 mA
8.49326297855657;0.399688720703125;0.00116119384765625;6.08999998462423;610;100 mA
8.50326297853132;0.399749755859375;0.001163330078125;6.09999998459898;611;100 mA
8.51326297850608;0.399749755859375;0.00116485595703125;6.10999998457373;612;100 mA
8.52326297848083;0.3997802734375;0.00116485595703125;6.11999998454849;613;100 mA
8.53326297845558;0.399749755859375;0.00116485595703125;6.12999998452324;614;100 mA
8.54326297843033;0.399749755859375;0.00116119384765625;6.13999998449799;615;100 mA
8.55326297840509;0.399749755859375;0.0011614990234375;6.14999998447274;616;100 mA
8.56326297837984;0.399749755859375;0.001163330078125;6.1599999844475;617;100 mA
8.57326297835459;0.39971923828125;0.00116241455078125;6.16999998442225;618;100 mA
8.58326297832934;0.3997802734375;0.00116363525390625;6.179999984397;619;100 mA
8.5932629783041;0.39971923828125;0.00116790771484375;6.18999998437175;620;100 mA
8.60326297827885;0.399810791015625;0.00116943359375;6.1999999843465;621;100 mA
8.6132629782536;0.399810791015625;0.001171875;6.20999998432126;622;100 mA
8.62326297822835;0.3997802734375;0.0011700439453125;6.21999998429601;623;100 mA
8.63326297820311;0.3997802734375;0.001173095703125;6.22999998427076;624;100 mA
8.64326297817786;0.3997802734375;0.001173095703125;6.23999998424551;625;100 mA
8.65326297815261;0.39971923828125;0.001173095703125;6.24999998422027;626;100 mA
8.66326297812736;0.3997802734375;0.0011700439453125;6.25999998419502;627;100 mA
8.67326297810212;0.3997802734375;0.00116668701171875;6.26999998416977;628;100 mA
8.68326297807687;0.3997802734375;0.00116790771484375;6.27999998414452;629;100 mA
8.69326297805162;0.399749755859375;0.00116455078125;6.28999998411928;630;100 mA
8.70326297802637;0.399810791015625;0.001165771484375;6.29999998409403;631;100 mA
8.71326297800113;0.3997802734375;0.00116363525390625;6.30999998406878;632;100 mA
8.72326297797588;0.399810791015625;0.00116851806640625;6.31999998404353;633;100 mA
8.73326297795063;0.39971923828125;0.0011737060546875;6.32999998401829;634;100 mA
8.74326297792538;0.3997802734375;0.0011700439453125;6.33999998399304;635;100 mA
8.75326297790014;0.3997802734375;0.0011737060546875;6.34999998396779;636;100 mA
8.76326297787489;0.399749755859375;0.00116943359375;6.35999998394254;637;100 mA
8.77326297784964;0.39971923828125;0.00116790771484375;6.3699999839173;638;100 mA
8.78326297782439;0.399749755859375;0.0011688232421875;6.37999998389205;639;100 mA
8.79326297779915;0.39971923828125;0.001165771484375;6.3899999838668;640;100 mA
8.8032629777739;0.399749755859375;0.00116851806640625;6.39999998384155;641;100 mA
8.81326297774865;0.3997802734375;0.001165771484375;6.40999998381631;642;100 mA
8.8232629777234;0.399749755859375;0.0011663818359375;6.41999998379106;643;100 mA
8.83326297769815;0.3997802734375;0.0011669921875;6.42999998376581;644;100 mA
8.84326297767291;0.399749755859375;0.0011663818359375;6.43999998374056;645;100 mA
8.85326297764766;0.3997802734375;0.00117279052734375;6.44999998371532;646;100 mA
8.86326297762241;0.3997802734375;0.001171875;6.45999998369007;647;100 mA
8.87326297759716;0.3997802734375;0.0011737060546875;6.46999998366482;648;100 mA
8.88326297757192;0.3997802734375;0.0011712646484375;6.47999998363957;649;100 mA
8.89326297754667;0.399749755859375;0.0011676025390625;6.48999998361433;650;100 mA
8.90326297752142;0.399810791015625;0.001163330078125;6.49999998358908;651;100 mA
8.91326297749617;0.3997802734375;0.00115814208984375;6.50999998356383;652;100 mA
8.92326297747093;0.39971923828125;0.00115814208984375;6.51999998353858;653;100 mA
8.93326297744568;0.39971923828125;0.00115509033203125;6.52999998351333;654;100 mA
8.94326297742043;0.3997802734375;0.001153564453125;6.53999998348809;655;100 mA
8.95326297739518;0.399749755859375;0.001153564453125;6.54999998346284;656;100 mA
8.96326297736994;0.3997802734375;0.00115478515625;6.55999998343759;657;100 mA
8.97326297734469;0.399749755859375;0.00115692138671875;6.56999998341234;658;100 mA
8.98326297731944;0.399749755859375;0.001156005859375;6.5799999833871;659;100 mA
8.99326297729419;0.3997802734375;0.0011553955078125;6.58999998336185;660;100 mA
9.00326297726895;0.399810791015625;0.00115264892578125;6.5999999833366;661;100 mA
9.0132629772437;0.399688720703125;0.00115142822265625;6.60999998331135;662;100 mA
9.02326297721845;0.39971923828125;0.00114532470703125;6.61999998328611;663;100 mA
9.0332629771932;0.3997802734375;0.00114288330078125;6.62999998326086;664;100 mA
9.04326297716796;0.399749755859375;0.0011407470703125;6.63999998323561;665;100 mA
9.05326297714271;0.399749755859375;0.00114044189453125;6.64999998321036;666;100 mA
9.06326297711746;0.399810791015625;0.00113555908203125;6.65999998318512;667;100 mA
9.07326297709221;0.3997802734375;0.0011358642578125;6.66999998315987;668;100 mA
9.08326297706697;0.399810791015625;0.001138916015625;6.67999998313462;669;100 mA
9.09326297704172;0.39971923828125;0.00114105224609375;6.68999998310937;670;100 mA
9.10326297701647;0.3997802734375;0.00114227294921875;6.69999998308413;671;100 mA
9.11326297699122;0.399810791015625;0.00114288330078125;6.70999998305888;672;100 mA
9.12326297696598;0.399810791015625;0.00114349365234375;6.71999998303363;673;100 mA
9.13326297694073;0.39971923828125;0.00113983154296875;6.72999998300838;674;100 mA
9.14326297691548;0.3997802734375;0.00113433837890625;6.73999998298314;675;100 mA
9.15326297689023;0.39971923828125;0.00113189697265625;6.74999998295789;676;100 mA
9.16326297686498;0.3997802734375;0.00112945556640625;6.75999998293264;677;100 mA
9.17326297683974;0.399810791015625;0.0011260986328125;6.76999998290739;678;100 mA
9.18326297681449;0.3997802734375;0.001123046875;6.77999998288215;679;100 mA
9.19326297678924;0.399749755859375;0.00112457275390625;6.7899999828569;680;100 mA
9.20326297676399;0.3997802734375;0.00112579345703125;6.79999998283165;681;100 mA
9.21326297673875;0.399749755859375;0.0011273193359375;6.8099999828064;682;100 mA
9.2232629767135;0.399749755859375;0.0011236572265625;6.81999998278116;683;100 mA
9.23326297668825;0.399749755859375;0.00112640380859375;6.82999998275591;684;100 mA
9.243262976663;0.3997802734375;0.00112762451171875;6.83999998273066;685;100 mA
9.25326297663776;0.399688720703125;0.0011285400390625;6.84999998270541;686;100 mA
9.26326297661251;0.399810791015625;0.001126708984375;6.85999998268016;687;100 mA
9.27326297658726;0.399749755859375;0.00112518310546875;6.86999998265492;688;100 mA
9.28326297656201;0.39971923828125;0.0011236572265625;6.87999998262967;689;100 mA
9.29326297653677;0.3997802734375;0.00111968994140625;6.88999998260442;690;100 mA
9.30326297651152;0.39971923828125;0.00111785888671875;6.89999998257917;691;100 mA
9.31326297648627;0.39984130859375;0.00111724853515625;6.90999998255393;692;100 mA
9.32326297646102;0.399810791015625;0.0011187744140625;6.91999998252868;693;100 mA
9.33326297643578;0.3997802734375;0.001123046875;6.92999998250343;694;100 mA
9.34326297641053;0.3997802734375;0.00111846923828125;6.93999998247818;695;100 mA
9.35326297638528;0.39971923828125;0.00112030029296875;6.94999998245294;696;100 mA
9.36326297636003;0.399810791015625;0.00111846923828125;6.95999998242769;697;100 mA
9.37326297633479;0.399749755859375;0.0011181640625;6.96999998240244;698;100 mA
9.38326297630954;0.399810791015625;0.00112030029296875;6.97999998237719;699;100 mA
9.39326297628429;0.39971923828125;0.0011181640625;6.98999998235195;700;100 mA
9.40326297625904;0.399749755859375;0.00112060546875;6.9999999823267;701;100 mA
9.4132629762338;0.399749755859375;0.00111663818359375;7.00999998230145;702;100 mA
9.42326297620855;0.399810791015625;0.0011175537109375;7.0199999822762;703;100 mA
9.4332629761833;0.3997802734375;0.0011175537109375;7.02999998225096;704;100 mA
9.44326297615805;0.399749755859375;0.0011199951171875;7.03999998222571;705;100 mA
9.45326297613281;0.39971923828125;0.0011285400390625;7.04999998220046;706;100 mA
9.46326297610756;0.399810791015625;0.001126708984375;7.05999998217521;707;100 mA
9.47326297608231;0.3997802734375;0.00113006591796875;7.06999998214997;708;100 mA
9.48326297605706;0.3997802734375;0.0011285400390625;7.07999998212472;709;100 mA
9.49326297603182;0.399810791015625;0.00112762451171875;7.08999998209947;710;100 mA
9.50326297600657;0.399749755859375;0.00112640380859375;7.09999998207422;711;100 mA
9.51326297598132;0.39971923828125;0.00112335205078125;7.10999998204898;712;100 mA
9.52326297595607;0.3997802734375;0.00112335205078125;7.11999998202373;713;100 mA
9.53326297593082;0.39971923828125;0.001121826171875;7.12999998199848;714;100 mA
9.54326297590558;0.399749755859375;0.001119384765625;7.13999998197323;715;100 mA
9.55326297588033;0.3997802734375;0.00112152099609375;7.14999998194799;716;100 mA
9.56326297585508;0.399749755859375;0.0011248779296875;7.15999998192274;717;100 mA
9.57326297582983;0.399749755859375;0.0011285400390625;7.16999998189749;718;100 mA
9.58326297580459;0.399810791015625;0.0011279296875;7.17999998187224;719;100 mA
9.59326297577934;0.39971923828125;0.0011279296875;7.189999981847;720;100 mA
9.60326297575409;0.3997802734375;0.00112701416015625;7.19999998182175;721;100 mA
9.61326297572884;0.399749755859375;0.0011260986328125;7.2099999817965;722;100 mA
9.6232629757036;0.399749755859375;0.0011224365234375;7.21999998177125;723;100 mA
9.63326297567835;0.399749755859375;0.0011212158203125;7.229999981746;724;100 mA
9.6432629756531;0.3997802734375;0.00112060546875;7.23999998172076;725;100 mA
9.65326297562785;0.399688720703125;0.0011181640625;7.24999998169551;726;100 mA
9.66326297560261;0.3997802734375;0.0011138916015625;7.25999998167026;727;100 mA
9.67326297557736;0.399749755859375;0.00111572265625;7.26999998164501;728;100 mA
9.68326297555211;0.399749755859375;0.00111724853515625;7.27999998161977;729;100 mA
9.69326297552686;0.3997802734375;0.00112030029296875;7.28999998159452;730;100 mA
9.70326297550162;0.399749755859375;0.00112060546875;7.29999998156927;731;100 mA
9.71326297547637;0.399810791015625;0.00112030029296875;7.30999998154402;732;100 mA
9.72326297545112;0.3997802734375;0.0011224365234375;7.31999998151878;733;100 mA
9.73326297542587;0.399810791015625;0.00112030029296875;7.32999998149353;734;100 mA
9.74326297540063;0.399749755859375;0.00111907958984375;7.33999998146828;735;100 mA
9.75326297537538;0.399810791015625;0.00111846923828125;7.34999998144303;736;100 mA
9.76326297535013;0.399810791015625;0.00111907958984375;7.35999998141779;737;100 mA
9.77326297532488;0.399688720703125;0.0011187744140625;7.36999998139254;738;100 mA
9.78326297529964;0.3997802734375;0.00111968994140625;7.37999998136729;739;100 mA
9.79326297527439;0.3997802734375;0.00112274169921875;7.38999998134204;740;100 mA
9.80326297524914;0.399749755859375;0.00112548828125;7.3999999813168;741;100 mA
9.81326297522389;0.3997802734375;0.0011279296875;7.40999998129155;742;100 mA
9.82326297519865;0.3997802734375;0.00112518310546875;7.4199999812663;743;100 mA
9.8332629751734;0.399749755859375;0.0011285400390625;7.42999998124105;744;100 mA
9.84326297514815;0.399749755859375;0.00113006591796875;7.43999998121581;745;100 mA
9.8532629751229;0.3997802734375;0.0011309814453125;7.44999998119056;746;100 mA
9.86326297509765;0.399749755859375;0.00112945556640625;7.45999998116531;747;100 mA
9.87326297507241;0.399810791015625;0.00113006591796875;7.46999998114006;748;100 mA
9.88326297504716;0.3997802734375;0.001131591796875;7.47999998111482;749;100 mA
9.89326297502191;0.399749755859375;0.00113006591796875;7.48999998108957;750;100 mA
9.90326297499666;0.399749755859375;0.0011309814453125;7.49999998106432;751;100 mA
9.91326297497142;0.399749755859375;0.00113006591796875;7.50999998103907;752;100 mA
9.92326297494617;0.399688720703125;0.00113250732421875;7.51999998101383;753;100 mA
9.93326297492092;0.399749755859375;0.0011370849609375;7.52999998098858;754;100 mA
9.94326297489567;0.399810791015625;0.0011322021484375;7.53999998096333;755;100 mA
9.95326297487043;0.3997802734375;0.00113616943359375;7.54999998093808;756;100 mA
9.96326297484518;0.39971923828125;0.0011322021484375;7.55999998091283;757;100 mA
9.97326297481993;0.39971923828125;0.0011309814453125;7.56999998088759;758;100 mA
9.98326297479468;0.39971923828125;0.00113311767578125;7.57999998086234;759;100 mA
9.99326297476944;0.399749755859375;0.00113067626953125;7.58999998083709;760;100 mA
10.0032629747442;0.3997802734375;0.0011346435546875;7.59999998081184;761;100 mA
10.0132629747189;0.399810791015625;0.00113128662109375;7.6099999807866;762;100 mA
10.0232629746937;0.399810791015625;0.001131591796875;7.61999998076135;763;100 mA
10.0332629746684;0.3997802734375;0.00113037109375;7.6299999807361;764;100 mA
10.0432629746432;0.3997802734375;0.0011309814453125;7.63999998071085;765;100 mA
10.053262974618;0.399749755859375;0.00113616943359375;7.64999998068561;766;100 mA
10.0632629745927;0.399810791015625;0.00113433837890625;7.65999998066036;767;100 mA
10.0732629745675;0.3997802734375;0.00113616943359375;7.66999998063511;768;100 mA
10.0832629745422;0.3997802734375;0.0011346435546875;7.67999998060986;769;100 mA
10.093262974517;0.3997802734375;0.00113189697265625;7.68999998058462;770;100 mA
10.1032629744917;0.39971923828125;0.00113128662109375;7.69999998055937;771;100 mA
10.1132629744665;0.399749755859375;0.00112701416015625;7.70999998053412;772;100 mA
10.1232629744412;0.3997802734375;0.0011279296875;7.71999998050887;773;100 mA
10.133262974416;0.39971923828125;0.0011260986328125;7.72999998048363;774;100 mA
10.1432629743907;0.399749755859375;0.0011224365234375;7.73999998045838;775;100 mA
10.1532629743655;0.39971923828125;0.0011248779296875;7.74999998043313;776;100 mA
10.1632629743402;0.399749755859375;0.00112518310546875;7.75999998040788;777;100 mA
10.173262974315;0.399810791015625;0.00112823486328125;7.76999998038264;778;100 mA
10.1832629742897;0.39971923828125;0.00112518310546875;7.77999998035739;779;100 mA
10.1932629742645;0.399749755859375;0.0011260986328125;7.78999998033214;780;100 mA
10.2032629742392;0.39971923828125;0.0011248779296875;7.79999998030689;781;100 mA
10.213262974214;0.39971923828125;0.00112396240234375;7.80999998028165;782;100 mA
10.2232629741887;0.399749755859375;0.00112152099609375;7.8199999802564;783;100 mA
10.2332629741635;0.399810791015625;0.00112030029296875;7.82999998023115;784;100 mA
10.2432629741382;0.399810791015625;0.00112030029296875;7.8399999802059;785;100 mA
10.253262974113;0.3997802734375;0.00111907958984375;7.84999998018066;786;100 mA
10.2632629740878;0.399749755859375;0.001116943359375;7.85999998015541;787;100 mA
10.2732629740625;0.3997802734375;0.0011175537109375;7.86999998013016;788;100 mA
10.2832629740373;0.3997802734375;0.00111968994140625;7.87999998010491;789;100 mA
10.293262974012;0.399749755859375;0.00112091064453125;7.88999998007966;790;100 mA
10.3032629739868;0.399749755859375;0.001119384765625;7.89999998005442;791;100 mA
10.3132629739615;0.399749755859375;0.0011187744140625;7.90999998002917;792;100 mA
10.3232629739363;0.3997802734375;0.001116943359375;7.91999998000392;793;100 mA
10.333262973911;0.3997802734375;0.0011138916015625;7.92999997997867;794;100 mA
10.3432629738858;0.3997802734375;0.00110992431640625;7.93999997995343;795;100 mA
10.3532629738605;0.399749755859375;0.00110870361328125;7.94999997992818;796;100 mA
10.3632629738353;0.399810791015625;0.00110626220703125;7.95999997990293;797;100 mA
10.37326297381;0.399749755859375;0.00110687255859375;7.96999997987768;798;100 mA
10.3832629737848;0.39971923828125;0.0011065673828125;7.97999997985244;799;100 mA
10.3932629737595;0.399749755859375;0.00110870361328125;7.98999997982719;800;100 mA
10.4032629737343;0.3997802734375;0.001112060546875;7.99999997980194;801;100 mA
10.413262973709;0.399749755859375;0.00111328125;8.00999997977669;802;100 mA
10.4232629736838;0.399749755859375;0.00111083984375;8.01999997975145;803;100 mA
10.4332629736585;0.399749755859375;0.00111358642578125;8.0299999797262;804;100 mA
10.4432629736333;0.399749755859375;0.001114501953125;8.03999997970095;805;100 mA
10.453262973608;0.399810791015625;0.00111297607421875;8.0499999796757;806;100 mA
10.4632629735828;0.39971923828125;0.00110931396484375;8.05999997965046;807;100 mA
10.4732629735576;0.399749755859375;0.00110809326171875;8.06999997962521;808;100 mA
10.4832629735323;0.399749755859375;0.0011077880859375;8.07999997959996;809;100 mA
10.4932629735071;0.399749755859375;0.0011041259765625;8.08999997957471;810;100 mA
10.5032629734818;0.399810791015625;0.001104736328125;8.09999997954947;811;100 mA
10.5132629734566;0.39984130859375;0.00110260009765625;8.10999997952422;812;100 mA
10.5232629734313;0.39984130859375;0.00110504150390625;8.11999997949897;813;100 mA
10.5332629734061;0.399749755859375;0.00110992431640625;8.12999997947372;814;100 mA
10.5432629733808;0.399688720703125;0.00110443115234375;8.13999997944848;815;100 mA
10.5532629733556;0.3997802734375;0.00110748291015625;8.14999997942323;816;100 mA
10.5632629733303;0.3997802734375;0.0011029052734375;8.15999997939798;817;100 mA
10.5732629733051;0.3997802734375;0.0011016845703125;8.16999997937273;818;100 mA
10.5832629732798;0.399749755859375;0.0011016845703125;8.17999997934749;819;100 mA
10.5932629732546;0.39984130859375;0.00109832763671875;8.18999997932224;820;100 mA
10.6032629732293;0.3997802734375;0.0010992431640625;8.19999997929699;821;100 mA
10.6132629732041;0.399749755859375;0.00109588623046875;8.20999997927174;822;100 mA
10.6232629731788;0.399749755859375;0.00109649658203125;8.2199999792465;823;100 mA
10.6332629731536;0.3997802734375;0.0010980224609375;8.22999997922125;824;100 mA
10.6432629731283;0.399810791015625;0.0011004638671875;8.239999979196;825;100 mA
10.6532629731031;0.39971923828125;0.0011065673828125;8.24999997917075;826;100 mA
10.6632629730778;0.399749755859375;0.001107177734375;8.2599999791455;827;100 mA
10.6732629730526;0.399658203125;0.00110870361328125;8.26999997912026;828;100 mA
10.6832629730274;0.3997802734375;0.00110748291015625;8.27999997909501;829;100 mA
10.6932629730021;0.399810791015625;0.00110565185546875;8.28999997906976;830;100 mA
10.7032629729769;0.39971923828125;0.00110626220703125;8.29999997904451;831;100 mA
10.7132629729516;0.3997802734375;0.00110137939453125;8.30999997901927;832;100 mA
10.7232629729264;0.399810791015625;0.00110137939453125;8.31999997899402;833;100 mA
10.7332629729011;0.399749755859375;0.0010986328125;8.32999997896877;834;100 mA
10.7432629728759;0.399749755859375;0.0010968017578125;8.33999997894352;835;100 mA
10.7532629728506;0.399810791015625;0.00109893798828125;8.34999997891828;836;100 mA
10.7632629728254;0.39971923828125;0.00110076904296875;8.35999997889303;837;100 mA
10.7732629728001;0.39971923828125;0.00110198974609375;8.36999997886778;838;100 mA
10.7832629727749;0.3997802734375;0.0011004638671875;8.37999997884253;839;100 mA
10.7932629727496;0.39971923828125;0.0011016845703125;8.38999997881729;840;100 mA
10.8032629727244;0.3997802734375;0.00110198974609375;8.39999997879204;841;100 mA
10.8132629726991;0.399810791015625;0.00110015869140625;8.40999997876679;842;100 mA
10.8232629726739;0.3997802734375;0.00109954833984375;8.41999997874154;843;100 mA
10.8332629726486;0.399749755859375;0.00109710693359375;8.4299999787163;844;100 mA
10.8432629726234;0.39984130859375;0.0010980224609375;8.43999997869105;845;100 mA
10.8532629725981;0.399749755859375;0.0010986328125;8.4499999786658;846;100 mA
10.8632629725729;0.3997802734375;0.0010955810546875;8.45999997864055;847;100 mA
10.8732629725476;0.399810791015625;0.0010986328125;8.46999997861531;848;100 mA
10.8832629725224;0.39971923828125;0.00110076904296875;8.47999997859006;849;100 mA
10.8932629724972;0.399810791015625;0.001102294921875;8.48999997856481;850;100 mA
10.9032629724719;0.39971923828125;0.001102294921875;8.49999997853956;851;100 mA
10.9132629724467;0.399749755859375;0.00110198974609375;8.50999997851432;852;100 mA
10.9232629724214;0.3997802734375;0.00110260009765625;8.51999997848907;853;100 mA
10.9332629723962;0.3997802734375;0.00109954833984375;8.52999997846382;854;100 mA
10.9432629723709;0.399749755859375;0.0010980224609375;8.53999997843857;855;100 mA
10.9532629723457;0.3997802734375;0.00109649658203125;8.54999997841333;856;100 mA
10.9632629723204;0.399810791015625;0.0010968017578125;8.55999997838808;857;100 mA
10.9732629722952;0.3997802734375;0.00109588623046875;8.56999997836283;858;100 mA
10.9832629722699;0.3997802734375;0.0010955810546875;8.57999997833758;859;100 mA
10.9932629722447;0.399749755859375;0.00109649658203125;8.58999997831233;860;100 mA
11.0032629722194;0.3997802734375;0.00109893798828125;8.59999997828709;861;100 mA
11.0132629721942;0.399810791015625;0.00110137939453125;8.60999997826184;862;100 mA
11.0232629721689;0.399749755859375;0.0010968017578125;8.61999997823659;863;100 mA
11.0332629721437;0.399749755859375;0.00110015869140625;8.62999997821134;864;100 mA
11.0432629721184;0.399749755859375;0.0011004638671875;8.6399999781861;865;100 mA
11.0532629720932;0.399749755859375;0.00110198974609375;8.64999997816085;866;100 mA
11.0632629720679;0.399749755859375;0.00110015869140625;8.6599999781356;867;100 mA
11.0732629720427;0.399810791015625;0.00110076904296875;8.66999997811035;868;100 mA
11.0832629720175;0.399749755859375;0.0011016845703125;8.67999997808511;869;100 mA
11.0932629719922;0.399810791015625;0.00110198974609375;8.68999997805986;870;100 mA
11.103262971967;0.39971923828125;0.0011029052734375;8.69999997803461;871;100 mA
11.1132629719417;0.399749755859375;0.00110321044921875;8.70999997800936;872;100 mA
11.1232629719165;0.3997802734375;0.00110626220703125;8.71999997798412;873;100 mA
11.1332629718912;0.39971923828125;0.0011114501953125;8.72999997795887;874;100 mA
11.143262971866;0.399749755859375;0.0011065673828125;8.73999997793362;875;100 mA
11.1532629718407;0.399749755859375;0.00110992431640625;8.74999997790837;876;100 mA
11.1632629718155;0.399749755859375;0.00110626220703125;8.75999997788313;877;100 mA
11.1732629717902;0.3997802734375;0.0011077880859375;8.76999997785788;878;100 mA
11.183262971765;0.3997802734375;0.001109619140625;8.77999997783263;879;100 mA
11.1932629717397;0.3997802734375;0.00110931396484375;8.78999997780738;880;100 mA
11.2032629717145;0.399749755859375;0.00111175537109375;8.79999997778214;881;100 mA
11.2132629716892;0.399810791015625;0.00111053466796875;8.80999997775689;882;100 mA
11.223262971664;0.3997802734375;0.00111053466796875;8.81999997773164;883;100 mA
11.2332629716387;0.3997802734375;0.00111236572265625;8.82999997770639;884;100 mA
11.2432629716135;0.39971923828125;0.0011151123046875;8.83999997768115;885;100 mA
11.2532629715882;0.3997802734375;0.001119384765625;8.8499999776559;886;100 mA
11.263262971563;0.3997802734375;0.0011181640625;8.85999997763065;887;100 mA
11.2732629715377;0.39971923828125;0.0011199951171875;8.8699999776054;888;100 mA
11.2832629715125;0.399810791015625;0.0011187744140625;8.87999997758016;889;100 mA
11.2932629714873;0.3997802734375;0.00111602783203125;8.88999997755491;890;100 mA
11.303262971462;0.3997802734375;0.0011175537109375;8.89999997752966;891;100 mA
11.3132629714368;0.3997802734375;0.00111419677734375;8.90999997750441;892;100 mA
11.3232629714115;0.39971923828125;0.00111724853515625;8.91999997747916;893;100 mA
11.3332629713863;0.399749755859375;0.001114501953125;8.92999997745392;894;100 mA
11.343262971361;0.39971923828125;0.00111328125;8.93999997742867;895;100 mA
11.3532629713358;0.399749755859375;0.00111724853515625;8.94999997740342;896;100 mA
11.3632629713105;0.399810791015625;0.0011187744140625;8.95999997737817;897;100 mA
11.3732629712853;0.39984130859375;0.00112213134765625;8.96999997735293;898;100 mA
11.38326297126;0.3997802734375;0.00111907958984375;8.97999997732768;899;100 mA
11.3932629712348;0.3997802734375;0.00112152099609375;8.98999997730243;900;100 mA
11.4032629712095;0.39984130859375;0.001119384765625;8.99999997727718;901;100 mA
11.4132629711843;0.399749755859375;0.001116943359375;9.00999997725194;902;100 mA
11.423262971159;0.39971923828125;0.001114501953125;9.01999997722669;903;100 mA
11.4332629711338;0.399749755859375;0.0011126708984375;9.02999997720144;904;100 mA
11.4432629711085;0.399749755859375;0.0011102294921875;9.03999997717619;905;100 mA
11.4532629710833;0.3997802734375;0.001109619140625;9.04999997715095;906;100 mA
11.463262971058;0.399749755859375;0.0011077880859375;9.0599999771257;907;100 mA
11.4732629710328;0.3997802734375;0.00110992431640625;9.06999997710045;908;100 mA
11.4832629710075;0.399749755859375;0.00111572265625;9.0799999770752;909;100 mA
11.4932629709823;0.399749755859375;0.00111846923828125;9.08999997704996;910;100 mA
11.5032629709571;0.3997802734375;0.00111724853515625;9.09999997702471;911;100 mA
11.5132629709318;0.3997802734375;0.001116943359375;9.10999997699946;912;100 mA
11.5232629709066;0.399749755859375;0.00111724853515625;9.11999997697421;913;100 mA
11.5332629708813;0.39971923828125;0.00111297607421875;9.12999997694897;914;100 mA
11.5432629708561;0.399749755859375;0.00110992431640625;9.13999997692372;915;100 mA
11.5532629708308;0.3997802734375;0.0011083984375;9.14999997689847;916;100 mA
11.5632629708056;0.399749755859375;0.00110687255859375;9.15999997687322;917;100 mA
11.5732629707803;0.39971923828125;0.00110565185546875;9.16999997684798;918;100 mA
11.5832629707551;0.39971923828125;0.00110626220703125;9.17999997682273;919;100 mA
11.5932629707298;0.3997802734375;0.00110687255859375;9.18999997679748;920;100 mA
11.6032629707046;0.3997802734375;0.001109619140625;9.19999997677223;921;100 mA
11.6132629706793;0.3997802734375;0.0011138916015625;9.20999997674699;922;100 mA
11.6232629706541;0.399810791015625;0.00111114501953125;9.21999997672174;923;100 mA
11.6332629706288;0.3997802734375;0.00111480712890625;9.22999997669649;924;100 mA
11.6432629706036;0.3997802734375;0.00111236572265625;9.23999997667124;925;100 mA
11.6532629705783;0.39971923828125;0.00111297607421875;9.249999976646;926;100 mA
11.6632629705531;0.399749755859375;0.0011077880859375;9.25999997662075;927;100 mA
11.6732629705278;0.399810791015625;0.001107177734375;9.2699999765955;928;100 mA
11.6832629705026;0.39984130859375;0.0011053466796875;9.27999997657025;929;100 mA
11.6932629704773;0.39971923828125;0.001103515625;9.289999976545;930;100 mA
11.7032629704521;0.3997802734375;0.001103515625;9.29999997651976;931;100 mA
11.7132629704269;0.3997802734375;0.00110321044921875;9.30999997649451;932;100 mA
11.7232629704016;0.3997802734375;0.00110687255859375;9.31999997646926;933;100 mA
11.7332629703764;0.3997802734375;0.00111236572265625;9.32999997644401;934;100 mA
11.7432629703511;0.399658203125;0.0011090087890625;9.33999997641877;935;100 mA
11.7532629703259;0.399749755859375;0.00111053466796875;9.34999997639352;936;100 mA
11.7632629703006;0.3997802734375;0.001107177734375;9.35999997636827;937;100 mA
11.7732629702754;0.3997802734375;0.0011077880859375;9.36999997634302;938;100 mA
11.7832629702501;0.3997802734375;0.0011083984375;9.37999997631778;939;100 mA
11.7932629702249;0.3997802734375;0.00110870361328125;9.38999997629253;940;100 mA
11.8032629701996;0.399810791015625;0.00111053466796875;9.39999997626728;941;100 mA
11.8132629701744;0.3997802734375;0.00110809326171875;9.40999997624203;942;100 mA
11.8232629701491;0.399810791015625;0.00110992431640625;9.41999997621679;943;100 mA
11.8332629701239;0.399810791015625;0.00110931396484375;9.42999997619154;944;100 mA
11.8432629700986;0.399749755859375;0.00111297607421875;9.43999997616629;945;100 mA
11.8532629700734;0.3997802734375;0.00111663818359375;9.44999997614104;946;100 mA
11.8632629700481;0.39984130859375;0.001116943359375;9.4599999761158;947;100 mA
11.8732629700229;0.3997802734375;0.0011175537109375;9.46999997609055;948;100 mA
11.8832629699976;0.399749755859375;0.00111663818359375;9.4799999760653;949;100 mA
11.8932629699724;0.39971923828125;0.0011126708984375;9.48999997604005;950;100 mA
11.9032629699471;0.399688720703125;0.00111236572265625;9.49999997601481;951;100 mA
11.9132629699219;0.399749755859375;0.00110565185546875;9.50999997598956;952;100 mA
11.9232629698967;0.39971923828125;0.0011065673828125;9.51999997596431;953;100 mA
11.9332629698714;0.3997802734375;0.00110321044921875;9.52999997593906;954;100 mA
11.9432629698462;0.399749755859375;0.0011029052734375;9.53999997591382;955;100 mA
11.9532629698209;0.399749755859375;0.0011053466796875;9.54999997588857;956;100 mA
11.9632629697957;0.399749755859375;0.001107177734375;9.55999997586332;957;100 mA
11.9732629697704;0.3997802734375;0.001109619140625;9.56999997583807;958;100 mA
11.9832629697452;0.399749755859375;0.00110931396484375;9.57999997581283;959;100 mA
11.9932629697199;0.399749755859375;0.00111083984375;9.58999997578758;960;100 mA
12.0032629696947;0.3997802734375;0.00111328125;9.59999997576233;961;100 mA
12.0132629696694;0.399749755859375;0.0011114501953125;9.60999997573708;962;100 mA
12.0232629696442;0.399749755859375;0.00111175537109375;9.61999997571183;963;100 mA
12.0332629696189;0.399810791015625;0.0011102294921875;9.62999997568659;964;100 mA
12.0432629695937;0.3997802734375;0.0011102294921875;9.63999997566134;965;100 mA
12.0532629695684;0.399688720703125;0.00110748291015625;9.64999997563609;966;100 mA
12.0632629695432;0.39984130859375;0.0011041259765625;9.65999997561084;967;100 mA
12.0732629695179;0.3997802734375;0.001107177734375;9.6699999755856;968;100 mA
12.0832629694927;0.399810791015625;0.0011114501953125;9.67999997556035;969;100 mA
12.0932629694674;0.3997802734375;0.00111419677734375;9.6899999755351;970;100 mA
12.1032629694422;0.399749755859375;0.00111358642578125;9.69999997550985;971;100 mA
12.113262969417;0.3997802734375;0.0011126708984375;9.70999997548461;972;100 mA
12.1232629693917;0.39984130859375;0.00111328125;9.71999997545936;973;100 mA
12.1332629693665;0.399688720703125;0.0011114501953125;9.72999997543411;974;100 mA
12.1432629693412;0.3997802734375;0.00111053466796875;9.73999997540886;975;100 mA
12.153262969316;0.39971923828125;0.00110809326171875;9.74999997538362;976;100 mA
12.1632629692907;0.399749755859375;0.00110931396484375;9.75999997535837;977;100 mA
12.1732629692655;0.39971923828125;0.00110687255859375;9.76999997533312;978;100 mA
12.1832629692402;0.39971923828125;0.00110809326171875;9.77999997530787;979;100 mA
12.193262969215;0.399749755859375;0.0011090087890625;9.78999997528263;980;100 mA
12.2032629691897;0.399810791015625;0.001112060546875;9.79999997525738;981;100 mA
12.2132629691645;0.399810791015625;0.0011163330078125;9.80999997523213;982;100 mA
12.2232629691392;0.39971923828125;0.001114501953125;9.81999997520688;983;100 mA
12.233262969114;0.3997802734375;0.0011187744140625;9.82999997518164;984;100 mA
12.2432629690887;0.399749755859375;0.0011163330078125;9.83999997515639;985;100 mA
12.2532629690635;0.399749755859375;0.0011175537109375;9.84999997513114;986;100 mA
12.2632629690382;0.3997802734375;0.0011151123046875;9.85999997510589;987;100 mA
12.273262969013;0.399749755859375;0.0011138916015625;9.86999997508065;988;100 mA
12.2832629689877;0.3997802734375;0.00111419677734375;9.8799999750554;989;100 mA
12.2932629689625;0.399749755859375;0.00111328125;9.88999997503015;990;100 mA
12.3032629689372;0.3997802734375;0.00111358642578125;9.8999999750049;991;100 mA
12.313262968912;0.399749755859375;0.0011138916015625;9.90999997497966;992;100 mA
12.3232629688868;0.3997802734375;0.00111968994140625;9.91999997495441;993;100 mA
12.3332629688615;0.3997802734375;0.00112518310546875;9.92999997492916;994;100 mA
12.3432629688363;0.399749755859375;0.00112152099609375;9.93999997490391;995;100 mA
12.353262968811;0.3997802734375;0.00112213134765625;9.94999997487866;996;100 mA
12.3632629687858;0.39971923828125;0.001116943359375;9.95999997485342;997;100 mA
12.3732629687605;0.399749755859375;0.001116943359375;9.96999997482817;998;100 mA
12.3832629687353;0.39971923828125;0.0011151123046875;9.97999997480292;999;100 mA
12.39326296871;0.399688720703125;0.001112060546875;9.98999997477767;1000;100 mA
