Time (s);WE(1).Potential (V);WE(1).Current (A);Corrected time (s);Index;Current range
12.9354589673411;0.29986572265625;0.000316162109375;0;1;100 mA
12.9454589673159;0.2999267578125;0.000544128417968751;0.00999999997475243;2;100 mA
12.9554589672906;0.2999267578125;0.00064666748046875;0.0199999999495049;3;100 mA
12.9654589672654;0.299896240234375;0.000710144042968749;0.0299999999242573;4;100 mA
12.9754589672401;0.299835205078125;0.000751647949218751;0.0399999998990097;5;100 mA
12.9854589672149;0.29986572265625;0.000781860351562499;0.0499999998737621;6;100 mA
12.9954589671896;0.29986572265625;0.000808105468750001;0.0599999998485146;7;100 mA
13.0054589671644;0.29986572265625;0.000824890136718751;0.069999999823267;8;100 mA
13.0154589671391;0.29986572265625;0.000840148925781251;0.0799999997980194;9;100 mA
13.0254589671139;0.29986572265625;0.00085296630859375;0.0899999997727718;10;100 mA
13.0354589670886;0.299896240234375;0.000867614746093751;0.0999999997475243;11;100 mA
13.0454589670634;0.29986572265625;0.000877685546875;0.109999999722277;12;100 mA
13.0554589670381;0.29986572265625;0.00088623046875;0.119999999697029;13;100 mA
13.0654589670129;0.2998046875;0.000893249511718749;0.129999999671782;14;100 mA
13.0754589669876;0.29986572265625;0.000899658203125001;0.139999999646534;15;100 mA
13.0854589669624;0.29986572265625;0.00090179443359375;0.149999999621286;16;100 mA
13.0954589669371;0.299896240234375;0.00090606689453125;0.159999999596039;17;100 mA
13.1054589669119;0.29986572265625;0.0009075927734375;0.169999999570791;18;100 mA
13.1154589668866;0.29986572265625;0.00091522216796875;0.179999999545544;19;100 mA
13.1254589668614;0.2998046875;0.0009197998046875;0.189999999520296;20;100 mA
13.1354589668362;0.299835205078125;0.0009228515625;0.199999999495049;21;100 mA
13.1454589668109;0.29986572265625;0.00093109130859375;0.209999999469801;22;100 mA
13.1554589667857;0.2998046875;0.000934753417968751;0.219999999444553;23;100 mA
13.1654589667604;0.29986572265625;0.00093963623046875;0.229999999419306;24;100 mA
13.1754589667352;0.299896240234375;0.000940551757812499;0.239999999394058;25;100 mA
13.1854589667099;0.29986572265625;0.00094268798828125;0.249999999368811;26;100 mA
13.1954589666847;0.29986572265625;0.0009478759765625;0.259999999343563;27;100 mA
13.2054589666594;0.299835205078125;0.000946960449218751;0.269999999318316;28;100 mA
13.2154589666342;0.29986572265625;0.00094940185546875;0.279999999293068;29;100 mA
13.2254589666089;0.29986572265625;0.000951538085937501;0.28999999926782;30;100 mA
13.2354589665837;0.29986572265625;0.000953369140625;0.299999999242573;31;100 mA
13.2454589665584;0.29986572265625;0.000954284667968749;0.309999999217325;32;100 mA
13.2554589665332;0.2998046875;0.000953063964843751;0.319999999192078;33;100 mA
13.2654589665079;0.299835205078125;0.00095672607421875;0.32999999916683;34;100 mA
13.2754589664827;0.2998046875;0.000962219238281251;0.339999999141583;35;100 mA
13.2854589664574;0.29986572265625;0.000963439941406249;0.349999999116335;36;100 mA
13.2954589664322;0.299896240234375;0.000963745117187501;0.359999999091087;37;100 mA
13.3054589664069;0.29986572265625;0.000962219238281251;0.36999999906584;38;100 mA
13.3154589663817;0.299835205078125;0.000962219238281251;0.379999999040592;39;100 mA
13.3254589663565;0.299835205078125;0.00095977783203125;0.389999999015345;40;100 mA
13.3354589663312;0.299835205078125;0.00095947265625;0.399999998990097;41;100 mA
13.345458966306;0.29986572265625;0.0009613037109375;0.40999999896485;42;100 mA
13.3554589662807;0.29986572265625;0.0009625244140625;0.419999998939602;43;100 mA
13.3654589662555;0.299896240234375;0.000963439941406249;0.429999998914354;44;100 mA
13.3754589662302;0.299835205078125;0.00096466064453125;0.439999998889107;45;100 mA
13.385458966205;0.29986572265625;0.000966796875000001;0.449999998863859;46;100 mA
13.3954589661797;0.299835205078125;0.00097076416015625;0.459999998838612;47;100 mA
13.4054589661545;0.29986572265625;0.000972900390625001;0.469999998813364;48;100 mA
13.4154589661292;0.2998046875;0.000972900390625001;0.479999998788116;49;100 mA
13.425458966104;0.29986572265625;0.000975952148437501;0.489999998762869;50;100 mA
13.4354589660787;0.29986572265625;0.0009735107421875;0.499999998737621;51;100 mA
13.4454589660535;0.299896240234375;0.00097320556640625;0.509999998712374;52;100 mA
13.4554589660282;0.29986572265625;0.00097015380859375;0.519999998687126;53;100 mA
13.465458966003;0.299835205078125;0.00096771240234375;0.529999998661879;54;100 mA
13.4754589659777;0.29986572265625;0.0009686279296875;0.539999998636631;55;100 mA
13.4854589659525;0.299835205078125;0.00096771240234375;0.549999998611383;56;100 mA
13.4954589659272;0.299896240234375;0.000968017578125;0.559999998586136;57;100 mA
13.505458965902;0.29986572265625;0.00096771240234375;0.569999998560888;58;100 mA
13.5154589658767;0.299835205078125;0.000972900390625001;0.579999998535641;59;100 mA
13.5254589658515;0.2998046875;0.00097564697265625;0.589999998510393;60;100 mA
13.5354589658263;0.299835205078125;0.00097412109375;0.599999998485146;61;100 mA
13.545458965801;0.29986572265625;0.0009747314453125;0.609999998459898;62;100 mA
13.5554589657758;0.29986572265625;0.00097198486328125;0.61999999843465;63;100 mA
13.5654589657505;0.29986572265625;0.0009722900390625;0.629999998409403;64;100 mA
13.5754589657253;0.299835205078125;0.000972900390625001;0.639999998384155;65;100 mA
13.5854589657;0.299835205078125;0.000970458984375;0.649999998358908;66;100 mA
13.5954589656748;0.299896240234375;0.000970458984375;0.65999999833366;67;100 mA
13.6054589656495;0.29986572265625;0.000969543457031249;0.669999998308413;68;100 mA
13.6154589656243;0.29986572265625;0.0009686279296875;0.679999998283165;69;100 mA
13.625458965599;0.29986572265625;0.00096923828125;0.689999998257917;70;100 mA
13.6354589655738;0.29986572265625;0.000972900390625001;0.69999999823267;71;100 mA
13.6454589655485;0.299835205078125;0.000975341796875;0.709999998207422;72;100 mA
13.6554589655233;0.29986572265625;0.000975341796875;0.719999998182175;73;100 mA
13.665458965498;0.2998046875;0.000975341796875;0.729999998156927;74;100 mA
13.6754589654728;0.299835205078125;0.00097686767578125;0.73999999813168;75;100 mA
13.6854589654475;0.29986572265625;0.00097198486328125;0.749999998106432;76;100 mA
13.6954589654223;0.29986572265625;0.000971069335937499;0.759999998081184;77;100 mA
13.705458965397;0.2998046875;0.00096771240234375;0.769999998055937;78;100 mA
13.7154589653718;0.299896240234375;0.0009674072265625;0.779999998030689;79;100 mA
13.7254589653465;0.29986572265625;0.00096771240234375;0.789999998005442;80;100 mA
13.7354589653213;0.29986572265625;0.000965576171875;0.799999997980194;81;100 mA
13.7454589652961;0.29986572265625;0.000970458984375;0.809999997954947;82;100 mA
13.7554589652708;0.29986572265625;0.00097198486328125;0.819999997929699;83;100 mA
13.7654589652456;0.29986572265625;0.000975341796875;0.829999997904451;84;100 mA
13.7754589652203;0.29986572265625;0.0009747314453125;0.839999997879204;85;100 mA
13.7854589651951;0.29986572265625;0.000974426269531251;0.849999997853956;86;100 mA
13.7954589651698;0.29986572265625;0.00097930908203125;0.859999997828709;87;100 mA
13.8054589651446;0.29986572265625;0.000974426269531251;0.869999997803461;88;100 mA
13.8154589651193;0.2999267578125;0.00097625732421875;0.879999997778214;89;100 mA
13.8254589650941;0.29986572265625;0.00097412109375;0.889999997752966;90;100 mA
13.8354589650688;0.299835205078125;0.00097198486328125;0.899999997727718;91;100 mA
13.8454589650436;0.29986572265625;0.000971374511718751;0.909999997702471;92;100 mA
13.8554589650183;0.299774169921875;0.000969543457031249;0.919999997677223;93;100 mA
13.8654589649931;0.299896240234375;0.000972900390625001;0.929999997651976;94;100 mA
13.8754589649678;0.2998046875;0.0009783935546875;0.939999997626728;95;100 mA
13.8854589649426;0.299835205078125;0.00098297119140625;0.949999997601481;96;100 mA
13.8954589649173;0.2998046875;0.0009814453125;0.959999997576233;97;100 mA
13.9054589648921;0.29986572265625;0.000980224609374999;0.969999997550985;98;100 mA
13.9154589648668;0.29986572265625;0.00098114013671875;0.979999997525738;99;100 mA
13.9254589648416;0.2998046875;0.000977478027343751;0.98999999750049;100;100 mA
13.9354589648163;0.299896240234375;0.00097808837890625;0.999999997475243;101;100 mA
13.9454589647911;0.29986572265625;0.000977172851562499;1.00999999745;102;100 mA
13.9554589647659;0.299835205078125;0.0009765625;1.01999999742475;103;100 mA
13.9654589647406;0.29986572265625;0.0009765625;1.0299999973995;104;100 mA
13.9754589647154;0.299896240234375;0.00097625732421875;1.03999999737425;105;100 mA
13.9854589646901;0.29986572265625;0.00097686767578125;1.049999997349;106;100 mA
13.9954589646649;0.299835205078125;0.000982666015625;1.05999999732376;107;100 mA
14.0054589646396;0.299835205078125;0.00098541259765625;1.06999999729851;108;100 mA
14.0154589646144;0.29986572265625;0.00098724365234375;1.07999999727326;109;100 mA
14.0254589645891;0.299896240234375;0.00098907470703125;1.08999999724801;110;100 mA
14.0354589645639;0.299896240234375;0.000987548828125;1.09999999722277;111;100 mA
14.0454589645386;0.2998046875;0.000986633300781251;1.10999999719752;112;100 mA
14.0554589645134;0.299835205078125;0.00098297119140625;1.11999999717227;113;100 mA
14.0654589644881;0.2998046875;0.000980224609374999;1.12999999714702;114;100 mA
14.0754589644629;0.2998046875;0.00098114013671875;1.13999999712178;115;100 mA
14.0854589644376;0.2999267578125;0.000980529785156251;1.14999999709653;116;100 mA
14.0954589644124;0.29986572265625;0.00098114013671875;1.15999999707128;117;100 mA
14.1054589643871;0.299835205078125;0.00098419189453125;1.16999999704603;118;100 mA
14.1154589643619;0.29986572265625;0.0009930419921875;1.17999999702079;119;100 mA
14.1254589643366;0.29986572265625;0.00099517822265625;1.18999999699554;120;100 mA
14.1354589643114;0.299835205078125;0.000995788574218751;1.19999999697029;121;100 mA
14.1454589642861;0.29986572265625;0.0009979248046875;1.20999999694504;122;100 mA
14.1554589642609;0.29986572265625;0.000995788574218751;1.2199999969198;123;100 mA
14.1654589642357;0.29986572265625;0.000995788574218751;1.22999999689455;124;100 mA
14.1754589642104;0.299835205078125;0.000994262695312501;1.2399999968693;125;100 mA
14.1854589641852;0.299896240234375;0.000991210937500001;1.24999999684405;126;100 mA
14.1954589641599;0.29986572265625;0.0009930419921875;1.25999999681881;127;100 mA
14.2054589641347;0.299835205078125;0.00099029541015625;1.26999999679356;128;100 mA
14.2154589641094;0.29986572265625;0.000989379882812499;1.27999999676831;129;100 mA
14.2254589640842;0.299896240234375;0.00099090576171875;1.28999999674306;130;100 mA
14.2354589640589;0.299835205078125;0.00099456787109375;1.29999999671782;131;100 mA
14.2454589640337;0.29986572265625;0.000997314453125001;1.30999999669257;132;100 mA
14.2554589640084;0.299896240234375;0.00099639892578125;1.31999999666732;133;100 mA
14.2654589639832;0.299835205078125;0.000997314453125001;1.32999999664207;134;100 mA
14.2754589639579;0.29986572265625;0.00099822998046875;1.33999999661683;135;100 mA
14.2854589639327;0.29986572265625;0.000992736816406251;1.34999999659158;136;100 mA
14.2954589639074;0.299896240234375;0.00099090576171875;1.35999999656633;137;100 mA
14.3054589638822;0.299835205078125;0.000988159179687501;1.36999999654108;138;100 mA
14.3154589638569;0.299896240234375;0.000989379882812499;1.37999999651583;139;100 mA
14.3254589638317;0.2998046875;0.000987854003906249;1.38999999649059;140;100 mA
14.3354589638064;0.29986572265625;0.000985107421875001;1.39999999646534;141;100 mA
14.3454589637812;0.299835205078125;0.000987854003906249;1.40999999644009;142;100 mA
14.355458963756;0.2998046875;0.000987548828125;1.41999999641484;143;100 mA
14.3654589637307;0.2998046875;0.00098876953125;1.4299999963896;144;100 mA
14.3754589637055;0.299835205078125;0.00098602294921875;1.43999999636435;145;100 mA
14.3854589636802;0.299896240234375;0.000986328125;1.4499999963391;146;100 mA
14.395458963655;0.29986572265625;0.000989379882812499;1.45999999631385;147;100 mA
14.4054589636297;0.2998046875;0.00098419189453125;1.46999999628861;148;100 mA
14.4154589636045;0.29986572265625;0.0009844970703125;1.47999999626336;149;100 mA
14.4254589635792;0.299835205078125;0.00098297119140625;1.48999999623811;150;100 mA
14.435458963554;0.29986572265625;0.000980224609374999;1.49999999621286;151;100 mA
14.4454589635287;0.2998046875;0.00097808837890625;1.50999999618762;152;100 mA
14.4554589635035;0.299835205078125;0.000974426269531251;1.51999999616237;153;100 mA
14.4654589634782;0.2998046875;0.00097381591796875;1.52999999613712;154;100 mA
14.475458963453;0.299896240234375;0.00097869873046875;1.53999999611187;155;100 mA
14.4854589634277;0.29986572265625;0.000980529785156251;1.54999999608663;156;100 mA
14.4954589634025;0.29986572265625;0.000979003906250001;1.55999999606138;157;100 mA
14.5054589633772;0.2998046875;0.000977172851562499;1.56999999603613;158;100 mA
14.515458963352;0.2998046875;0.00097808837890625;1.57999999601088;159;100 mA
14.5254589633267;0.299835205078125;0.000974426269531251;1.58999999598564;160;100 mA
14.5354589633015;0.299835205078125;0.00097412109375;1.59999999596039;161;100 mA
14.5454589632762;0.29986572265625;0.0009747314453125;1.60999999593514;162;100 mA
14.555458963251;0.299835205078125;0.00097320556640625;1.61999999590989;163;100 mA
14.5654589632258;0.299835205078125;0.00097320556640625;1.62999999588465;164;100 mA
14.5754589632005;0.299896240234375;0.00096893310546875;1.6399999958594;165;100 mA
14.5854589631753;0.2999267578125;0.000966796875000001;1.64999999583415;166;100 mA
14.59545896315;0.2998046875;0.000971069335937499;1.6599999958089;167;100 mA
14.6054589631248;0.299896240234375;0.000971374511718751;1.66999999578366;168;100 mA
14.6154589630995;0.299835205078125;0.000972900390625001;1.67999999575841;169;100 mA
14.6254589630743;0.2998046875;0.0009747314453125;1.68999999573316;170;100 mA
14.635458963049;0.299835205078125;0.000974426269531251;1.69999999570791;171;100 mA
14.6454589630238;0.299835205078125;0.000972595214843749;1.70999999568267;172;100 mA
14.6554589629985;0.299896240234375;0.0009716796875;1.71999999565742;173;100 mA
14.6654589629733;0.299896240234375;0.000971069335937499;1.72999999563217;174;100 mA
14.675458962948;0.2998046875;0.000969848632812501;1.73999999560692;175;100 mA
14.6854589629228;0.29986572265625;0.000969848632812501;1.74999999558167;176;100 mA
14.6954589628975;0.29986572265625;0.000969543457031249;1.75999999555643;177;100 mA
14.7054589628723;0.2998046875;0.0009716796875;1.76999999553118;178;100 mA
14.715458962847;0.299835205078125;0.000977783203125;1.77999999550593;179;100 mA
14.7254589628218;0.29986572265625;0.00097686767578125;1.78999999548068;180;100 mA
14.7354589627965;0.29986572265625;0.00097564697265625;1.79999999545544;181;100 mA
14.7454589627713;0.299896240234375;0.0009765625;1.80999999543019;182;100 mA
14.755458962746;0.29986572265625;0.00097503662109375;1.81999999540494;183;100 mA
14.7654589627208;0.29986572265625;0.000975952148437501;1.82999999537969;184;100 mA
14.7754589626956;0.299835205078125;0.00097503662109375;1.83999999535445;185;100 mA
14.7854589626703;0.29986572265625;0.00097412109375;1.8499999953292;186;100 mA
14.7954589626451;0.29986572265625;0.00097625732421875;1.85999999530395;187;100 mA
14.8054589626198;0.29986572265625;0.00097625732421875;1.8699999952787;188;100 mA
14.8154589625946;0.299835205078125;0.00097564697265625;1.87999999525346;189;100 mA
14.8254589625693;0.2998046875;0.000975952148437501;1.88999999522821;190;100 mA
14.8354589625441;0.299896240234375;0.00097869873046875;1.89999999520296;191;100 mA
14.8454589625188;0.299835205078125;0.00097991943359375;1.90999999517771;192;100 mA
14.8554589624936;0.299835205078125;0.00097808837890625;1.91999999515247;193;100 mA
14.8654589624683;0.299896240234375;0.00097991943359375;1.92999999512722;194;100 mA
14.8754589624431;0.29986572265625;0.00097869873046875;1.93999999510197;195;100 mA
14.8854589624178;0.299774169921875;0.000975341796875;1.94999999507672;196;100 mA
14.8954589623926;0.299835205078125;0.0009747314453125;1.95999999505148;197;100 mA
14.9054589623673;0.2998046875;0.0009722900390625;1.96999999502623;198;100 mA
14.9154589623421;0.29986572265625;0.00097381591796875;1.97999999500098;199;100 mA
14.9254589623168;0.29986572265625;0.00097320556640625;1.98999999497573;200;100 mA
14.9354589622916;0.299835205078125;0.000972900390625001;1.99999999495049;201;100 mA
14.9454589622663;0.299835205078125;0.000975952148437501;2.00999999492524;202;100 mA
14.9554589622411;0.299835205078125;0.000977172851562499;2.01999999489999;203;100 mA
14.9654589622158;0.29986572265625;0.0009796142578125;2.02999999487474;204;100 mA
14.9754589621906;0.29986572265625;0.0009765625;2.0399999948495;205;100 mA
14.9854589621654;0.29986572265625;0.000977783203125;2.04999999482425;206;100 mA
14.9954589621401;0.29986572265625;0.00098114013671875;2.059999994799;207;100 mA
15.0054589621149;0.2998046875;0.000977478027343751;2.06999999477375;208;100 mA
15.0154589620896;0.29986572265625;0.000980224609374999;2.0799999947485;209;100 mA
15.0254589620644;0.299896240234375;0.0009783935546875;2.08999999472326;210;100 mA
15.0354589620391;0.299835205078125;0.000977172851562499;2.09999999469801;211;100 mA
15.0454589620139;0.2999267578125;0.000977783203125;2.10999999467276;212;100 mA
15.0554589619886;0.299896240234375;0.00097564697265625;2.11999999464751;213;100 mA
15.0654589619634;0.2998046875;0.000977478027343751;2.12999999462227;214;100 mA
15.0754589619381;0.29986572265625;0.00098114013671875;2.13999999459702;215;100 mA
15.0854589619129;0.299896240234375;0.000982055664062501;2.14999999457177;216;100 mA
15.0954589618876;0.299835205078125;0.000980529785156251;2.15999999454652;217;100 mA
15.1054589618624;0.299835205078125;0.0009796142578125;2.16999999452128;218;100 mA
15.1154589618371;0.299896240234375;0.000980529785156251;2.17999999449603;219;100 mA
15.1254589618119;0.29986572265625;0.0009783935546875;2.18999999447078;220;100 mA
15.1354589617866;0.299896240234375;0.000977783203125;2.19999999444553;221;100 mA
15.1454589617614;0.299835205078125;0.000979003906250001;2.20999999442029;222;100 mA
15.1554589617361;0.2998046875;0.00097991943359375;2.21999999439504;223;100 mA
15.1654589617109;0.2998046875;0.000980529785156251;2.22999999436979;224;100 mA
15.1754589616856;0.299896240234375;0.00097869873046875;2.23999999434454;225;100 mA
15.1854589616604;0.299835205078125;0.00097686767578125;2.2499999943193;226;100 mA
15.1954589616352;0.29986572265625;0.000981750488281249;2.25999999429405;227;100 mA
15.2054589616099;0.29986572265625;0.0009814453125;2.2699999942688;228;100 mA
15.2154589615847;0.299835205078125;0.00098297119140625;2.27999999424355;229;100 mA
15.2254589615594;0.299835205078125;0.00098388671875;2.28999999421831;230;100 mA
15.2354589615342;0.29986572265625;0.000982666015625;2.29999999419306;231;100 mA
15.2454589615089;0.29986572265625;0.0009814453125;2.30999999416781;232;100 mA
15.2554589614837;0.29986572265625;0.000980224609374999;2.31999999414256;233;100 mA
15.2654589614584;0.299835205078125;0.00097930908203125;2.32999999411732;234;100 mA
15.2754589614332;0.29986572265625;0.000980529785156251;2.33999999409207;235;100 mA
15.2854589614079;0.299835205078125;0.0009796142578125;2.34999999406682;236;100 mA
15.2954589613827;0.29986572265625;0.000979003906250001;2.35999999404157;237;100 mA
15.3054589613574;0.299896240234375;0.00097869873046875;2.36999999401633;238;100 mA
15.3154589613322;0.29986572265625;0.00098236083984375;2.37999999399108;239;100 mA
15.3254589613069;0.299835205078125;0.0009814453125;2.38999999396583;240;100 mA
15.3354589612817;0.299896240234375;0.00097930908203125;2.39999999394058;241;100 mA
15.3454589612564;0.2998046875;0.0009796142578125;2.40999999391533;242;100 mA
15.3554589612312;0.29986572265625;0.00097869873046875;2.41999999389009;243;100 mA
15.3654589612059;0.299835205078125;0.0009796142578125;2.42999999386484;244;100 mA
15.3754589611807;0.299835205078125;0.000980529785156251;2.43999999383959;245;100 mA
15.3854589611555;0.29986572265625;0.000980224609374999;2.44999999381434;246;100 mA
15.3954589611302;0.299835205078125;0.00098297119140625;2.4599999937891;247;100 mA
15.405458961105;0.2998046875;0.0009832763671875;2.46999999376385;248;100 mA
15.4154589610797;0.2998046875;0.000983581542968751;2.4799999937386;249;100 mA
15.4254589610545;0.2998046875;0.0009832763671875;2.48999999371335;250;100 mA
15.4354589610292;0.29986572265625;0.00098602294921875;2.49999999368811;251;100 mA
15.445458961004;0.299835205078125;0.0009869384765625;2.50999999366286;252;100 mA
15.4554589609787;0.2998046875;0.000986328125;2.51999999363761;253;100 mA
15.4654589609535;0.29986572265625;0.000986633300781251;2.52999999361236;254;100 mA
15.4754589609282;0.299896240234375;0.00098602294921875;2.53999999358712;255;100 mA
15.485458960903;0.29986572265625;0.00098114013671875;2.54999999356187;256;100 mA
15.4954589608777;0.29986572265625;0.0009808349609375;2.55999999353662;257;100 mA
15.5054589608525;0.299835205078125;0.00097991943359375;2.56999999351137;258;100 mA
15.5154589608272;0.2998046875;0.00098419189453125;2.57999999348613;259;100 mA
15.525458960802;0.299835205078125;0.0009844970703125;2.58999999346088;260;100 mA
15.5354589607767;0.29986572265625;0.000985107421875001;2.59999999343563;261;100 mA
15.5454589607515;0.299835205078125;0.00098846435546875;2.60999999341038;262;100 mA
15.5554589607262;0.2998046875;0.00099029541015625;2.61999999338514;263;100 mA
15.565458960701;0.29986572265625;0.000992431640624999;2.62999999335989;264;100 mA
15.5754589606757;0.299835205078125;0.00099090576171875;2.63999999333464;265;100 mA
15.5854589606505;0.29986572265625;0.00099334716796875;2.64999999330939;266;100 mA
15.5954589606253;0.299896240234375;0.000997009277343749;2.65999999328415;267;100 mA
15.6054589606;0.29986572265625;0.000994262695312501;2.6699999932589;268;100 mA
15.6154589605748;0.2998046875;0.000997009277343749;2.67999999323365;269;100 mA
15.6254589605495;0.299835205078125;0.000997009277343749;2.6899999932084;270;100 mA
15.6354589605243;0.299835205078125;0.000997009277343749;2.69999999318316;271;100 mA
15.645458960499;0.299835205078125;0.000999755859375;2.70999999315791;272;100 mA
15.6554589604738;0.299896240234375;0.000997314453125001;2.71999999313266;273;100 mA
15.6654589604485;0.299896240234375;0.00100006103515625;2.72999999310741;274;100 mA
15.6754589604233;0.29974365234375;0.00100433349609375;2.73999999308217;275;100 mA
15.685458960398;0.299835205078125;0.0010064697265625;2.74999999305692;276;100 mA
15.6954589603728;0.2998046875;0.00100341796875;2.75999999303167;277;100 mA
15.7054589603475;0.29986572265625;0.00100341796875;2.76999999300642;278;100 mA
15.7154589603223;0.299835205078125;0.00100311279296875;2.77999999298117;279;100 mA
15.725458960297;0.299896240234375;0.000999755859375;2.78999999295593;280;100 mA
15.7354589602718;0.299896240234375;0.000999755859375;2.79999999293068;281;100 mA
15.7454589602465;0.299835205078125;0.0010009765625;2.80999999290543;282;100 mA
15.7554589602213;0.29986572265625;0.00100189208984375;2.81999999288018;283;100 mA
15.765458960196;0.299835205078125;0.00100494384765625;2.82999999285494;284;100 mA
15.7754589601708;0.299896240234375;0.00100250244140625;2.83999999282969;285;100 mA
15.7854589601455;0.29986572265625;0.00100189208984375;2.84999999280444;286;100 mA
15.7954589601203;0.29986572265625;0.00100830078125;2.85999999277919;287;100 mA
15.8054589600951;0.299896240234375;0.0010089111328125;2.86999999275395;288;100 mA
15.8154589600698;0.29986572265625;0.00101287841796875;2.8799999927287;289;100 mA
15.8254589600446;0.29986572265625;0.0010125732421875;2.88999999270345;290;100 mA
15.8354589600193;0.299774169921875;0.00101226806640625;2.8999999926782;291;100 mA
15.8454589599941;0.299835205078125;0.00100982666015625;2.90999999265296;292;100 mA
15.8554589599688;0.29986572265625;0.0010089111328125;2.91999999262771;293;100 mA
15.8654589599436;0.299835205078125;0.0010064697265625;2.92999999260246;294;100 mA
15.8754589599183;0.29986572265625;0.0010076904296875;2.93999999257721;295;100 mA
15.8854589598931;0.2998046875;0.00100921630859375;2.94999999255197;296;100 mA
15.8954589598678;0.2998046875;0.00100921630859375;2.95999999252672;297;100 mA
15.9054589598426;0.299835205078125;0.001009521484375;2.96999999250147;298;100 mA
15.9154589598173;0.299835205078125;0.001016845703125;2.97999999247622;299;100 mA
15.9254589597921;0.299896240234375;0.00101654052734375;2.98999999245098;300;100 mA
15.9354589597668;0.29986572265625;0.00101470947265625;2.99999999242573;301;100 mA
15.9454589597416;0.299774169921875;0.0010162353515625;3.00999999240048;302;100 mA
15.9554589597163;0.29986572265625;0.0010137939453125;3.01999999237523;303;100 mA
15.9654589596911;0.29986572265625;0.00101287841796875;3.02999999234999;304;100 mA
15.9754589596658;0.29986572265625;0.00101104736328125;3.03999999232474;305;100 mA
15.9854589596406;0.29986572265625;0.00100921630859375;3.04999999229949;306;100 mA
15.9954589596153;0.299896240234375;0.001009521484375;3.05999999227424;307;100 mA
16.0054589595901;0.299896240234375;0.00100799560546875;3.069999992249;308;100 mA
16.0154589595649;0.29986572265625;0.00100830078125;3.07999999222375;309;100 mA
16.0254589595396;0.29986572265625;0.001009521484375;3.0899999921985;310;100 mA
16.0354589595144;0.299896240234375;0.00101409912109375;3.09999999217325;311;100 mA
16.0454589594891;0.299896240234375;0.00101715087890625;3.109999992148;312;100 mA
16.0554589594639;0.29986572265625;0.00101715087890625;3.11999999212276;313;100 mA
16.0654589594386;0.29986572265625;0.00101898193359375;3.12999999209751;314;100 mA
16.0754589594134;0.299835205078125;0.0010174560546875;3.13999999207226;315;100 mA
16.0854589593881;0.29986572265625;0.0010137939453125;3.14999999204701;316;100 mA
16.0954589593629;0.29986572265625;0.0010137939453125;3.15999999202177;317;100 mA
16.1054589593376;0.29986572265625;0.0010113525390625;3.16999999199652;318;100 mA
16.1154589593124;0.29986572265625;0.0010113525390625;3.17999999197127;319;100 mA
16.1254589592871;0.2998046875;0.00101165771484375;3.18999999194602;320;100 mA
16.1354589592619;0.29986572265625;0.00101165771484375;3.19999999192078;321;100 mA
16.1454589592366;0.29986572265625;0.00101470947265625;3.20999999189553;322;100 mA
16.1554589592114;0.299896240234375;0.001015625;3.21999999187028;323;100 mA
16.1654589591861;0.299835205078125;0.001019287109375;3.22999999184503;324;100 mA
16.1754589591609;0.29986572265625;0.001015625;3.23999999181979;325;100 mA
16.1854589591356;0.299896240234375;0.0010174560546875;3.24999999179454;326;100 mA
16.1954589591104;0.29986572265625;0.00101837158203125;3.25999999176929;327;100 mA
16.2054589590851;0.299835205078125;0.001014404296875;3.26999999174404;328;100 mA
16.2154589590599;0.299835205078125;0.001014404296875;3.2799999917188;329;100 mA
16.2254589590347;0.299896240234375;0.001011962890625;3.28999999169355;330;100 mA
16.2354589590094;0.299896240234375;0.00101104736328125;3.2999999916683;331;100 mA
16.2454589589842;0.299835205078125;0.00101104736328125;3.30999999164305;332;100 mA
16.2554589589589;0.299835205078125;0.00100921630859375;3.31999999161781;333;100 mA
16.2654589589337;0.299835205078125;0.00101165771484375;3.32999999159256;334;100 mA
16.2754589589084;0.299835205078125;0.001014404296875;3.33999999156731;335;100 mA
16.2854589588832;0.29986572265625;0.001016845703125;3.34999999154206;336;100 mA
16.2954589588579;0.29986572265625;0.001014404296875;3.35999999151682;337;100 mA
16.3054589588327;0.29986572265625;0.00101348876953125;3.36999999149157;338;100 mA
16.3154589588074;0.29986572265625;0.001014404296875;3.37999999146632;339;100 mA
16.3254589587822;0.299896240234375;0.001011962890625;3.38999999144107;340;100 mA
16.3354589587569;0.299835205078125;0.00101165771484375;3.39999999141583;341;100 mA
16.3454589587317;0.299835205078125;0.00101104736328125;3.40999999139058;342;100 mA
16.3554589587064;0.29986572265625;0.00101043701171875;3.41999999136533;343;100 mA
16.3654589586812;0.299835205078125;0.00101104736328125;3.42999999134008;344;100 mA
16.3754589586559;0.299896240234375;0.00100830078125;3.43999999131483;345;100 mA
16.3854589586307;0.29986572265625;0.00100555419921875;3.44999999128959;346;100 mA
16.3954589586054;0.29986572265625;0.0010101318359375;3.45999999126434;347;100 mA
16.4054589585802;0.299896240234375;0.0010076904296875;3.46999999123909;348;100 mA
16.415458958555;0.299835205078125;0.00100982666015625;3.47999999121384;349;100 mA
16.4254589585297;0.2998046875;0.0010107421875;3.4899999911886;350;100 mA
16.4354589585045;0.299896240234375;0.001009521484375;3.49999999116335;351;100 mA
16.4454589584792;0.299835205078125;0.00100616455078125;3.5099999911381;352;100 mA
16.455458958454;0.299835205078125;0.00100372314453125;3.51999999111285;353;100 mA
16.4654589584287;0.299835205078125;0.00100128173828125;3.52999999108761;354;100 mA
16.4754589584035;0.29986572265625;0.00100250244140625;3.53999999106236;355;100 mA
16.4854589583782;0.299835205078125;0.0010003662109375;3.54999999103711;356;100 mA
16.495458958353;0.299835205078125;0.000998840332031251;3.55999999101186;357;100 mA
16.5054589583277;0.29986572265625;0.0010003662109375;3.56999999098662;358;100 mA
16.5154589583025;0.299896240234375;0.00100433349609375;3.57999999096137;359;100 mA
16.5254589582772;0.299896240234375;0.00100250244140625;3.58999999093612;360;100 mA
16.535458958252;0.29986572265625;0.00100128173828125;3.59999999091087;361;100 mA
16.5454589582267;0.2998046875;0.00100189208984375;3.60999999088563;362;100 mA
16.5554589582015;0.29986572265625;0.00100189208984375;3.61999999086038;363;100 mA
16.5654589581762;0.29986572265625;0.00100067138671875;3.62999999083513;364;100 mA
16.575458958151;0.29986572265625;0.00099945068359375;3.63999999080988;365;100 mA
16.5854589581257;0.299835205078125;0.000998840332031251;3.64999999078464;366;100 mA
16.5954589581005;0.29986572265625;0.00099853515625;3.65999999075939;367;100 mA
16.6054589580752;0.29986572265625;0.00099639892578125;3.66999999073414;368;100 mA
16.61545895805;0.299896240234375;0.000995483398437499;3.67999999070889;369;100 mA
16.6254589580248;0.299835205078125;0.00099456787109375;3.68999999068365;370;100 mA
16.6354589579995;0.299835205078125;0.00099853515625;3.6999999906584;371;100 mA
16.6454589579743;0.299835205078125;0.00099822998046875;3.70999999063315;372;100 mA
16.655458957949;0.2998046875;0.00099761962890625;3.7199999906079;373;100 mA
16.6654589579238;0.299774169921875;0.0009979248046875;3.72999999058266;374;100 mA
16.6754589578985;0.299835205078125;0.000997314453125001;3.73999999055741;375;100 mA
16.6854589578733;0.299835205078125;0.00099395751953125;3.74999999053216;376;100 mA
16.695458957848;0.299896240234375;0.00099334716796875;3.75999999050691;377;100 mA
16.7054589578228;0.299835205078125;0.00099212646484375;3.76999999048167;378;100 mA
16.7154589577975;0.299835205078125;0.00099456787109375;3.77999999045642;379;100 mA
16.7254589577723;0.29986572265625;0.000994873046875;3.78999999043117;380;100 mA
16.735458957747;0.29986572265625;0.00099517822265625;3.79999999040592;381;100 mA
16.7454589577218;0.299896240234375;0.00099639892578125;3.80999999038067;382;100 mA
16.7554589576965;0.29986572265625;0.00099761962890625;3.81999999035543;383;100 mA
16.7654589576713;0.29986572265625;0.00100128173828125;3.82999999033018;384;100 mA
16.775458957646;0.29986572265625;0.00099822998046875;3.83999999030493;385;100 mA
16.7854589576208;0.2998046875;0.00100189208984375;3.84999999027968;386;100 mA
16.7954589575955;0.29986572265625;0.00100341796875;3.85999999025444;387;100 mA
16.8054589575703;0.29986572265625;0.0010015869140625;3.86999999022919;388;100 mA
16.815458957545;0.29986572265625;0.00100372314453125;3.87999999020394;389;100 mA
16.8254589575198;0.2998046875;0.00100189208984375;3.88999999017869;390;100 mA
16.8354589574946;0.299835205078125;0.001002197265625;3.89999999015345;391;100 mA
16.8454589574693;0.299835205078125;0.001004638671875;3.9099999901282;392;100 mA
16.8554589574441;0.29986572265625;0.00100189208984375;3.91999999010295;393;100 mA
16.8654589574188;0.299835205078125;0.00100677490234375;3.9299999900777;394;100 mA
16.8754589573936;0.299896240234375;0.00100921630859375;3.93999999005246;395;100 mA
16.8854589573683;0.299835205078125;0.0010125732421875;3.94999999002721;396;100 mA
16.8954589573431;0.29986572265625;0.00101043701171875;3.95999999000196;397;100 mA
16.9054589573178;0.2999267578125;0.00100982666015625;3.96999998997671;398;100 mA
16.9154589572926;0.299896240234375;0.0010089111328125;3.97999998995147;399;100 mA
16.9254589572673;0.299896240234375;0.00100616455078125;3.98999998992622;400;100 mA
16.9354589572421;0.29986572265625;0.001005859375;3.99999998990097;401;100 mA
16.9454589572168;0.29986572265625;0.00100616455078125;4.00999998987572;402;100 mA
16.9554589571916;0.299896240234375;0.0010052490234375;4.01999998985048;403;100 mA
16.9654589571663;0.29986572265625;0.00100799560546875;4.02999998982523;404;100 mA
16.9754589571411;0.299835205078125;0.00100555419921875;4.03999998979998;405;100 mA
16.9854589571158;0.2998046875;0.00100433349609375;4.04999998977473;406;100 mA
16.9954589570906;0.29986572265625;0.00100982666015625;4.05999998974949;407;100 mA
17.0054589570653;0.29986572265625;0.00100921630859375;4.06999998972424;408;100 mA
17.0154589570401;0.299896240234375;0.001011962890625;4.07999998969899;409;100 mA
17.0254589570148;0.29986572265625;0.0010101318359375;4.08999998967374;410;100 mA
17.0354589569896;0.299835205078125;0.00100982666015625;4.0999999896485;411;100 mA
17.0454589569644;0.299835205078125;0.0010064697265625;4.10999998962325;412;100 mA
17.0554589569391;0.29986572265625;0.00100433349609375;4.119999989598;413;100 mA
17.0654589569139;0.299896240234375;0.001002197265625;4.12999998957275;414;100 mA
17.0754589568886;0.299835205078125;0.00100067138671875;4.1399999895475;415;100 mA
17.0854589568634;0.29986572265625;0.00100006103515625;4.14999998952226;416;100 mA
17.0954589568381;0.29986572265625;0.0009979248046875;4.15999998949701;417;100 mA
17.1054589568129;0.29986572265625;0.000999755859375;4.16999998947176;418;100 mA
17.1154589567876;0.299774169921875;0.00100341796875;4.17999998944651;419;100 mA
17.1254589567624;0.2998046875;0.00100128173828125;4.18999998942127;420;100 mA
17.1354589567371;0.29986572265625;0.00099945068359375;4.19999998939602;421;100 mA
17.1454589567119;0.299896240234375;0.00099945068359375;4.20999998937077;422;100 mA
17.1554589566866;0.299896240234375;0.000998840332031251;4.21999998934552;423;100 mA
17.1654589566614;0.29986572265625;0.00099761962890625;4.22999998932028;424;100 mA
17.1754589566361;0.299896240234375;0.000994873046875;4.23999998929503;425;100 mA
17.1854589566109;0.299835205078125;0.000994873046875;4.24999998926978;426;100 mA
17.1954589565856;0.299896240234375;0.000992736816406251;4.25999998924453;427;100 mA
17.2054589565604;0.299896240234375;0.00099090576171875;4.26999998921929;428;100 mA
17.2154589565351;0.299896240234375;0.00099090576171875;4.27999998919404;429;100 mA
17.2254589565099;0.29986572265625;0.00098846435546875;4.28999998916879;430;100 mA
17.2354589564846;0.299896240234375;0.00099334716796875;4.29999998914354;431;100 mA
17.2454589564594;0.29986572265625;0.00099334716796875;4.3099999891183;432;100 mA
17.2554589564342;0.29986572265625;0.000991210937500001;4.31999998909305;433;100 mA
17.2654589564089;0.29986572265625;0.00099029541015625;4.3299999890678;434;100 mA
17.2754589563837;0.299835205078125;0.000989379882812499;4.33999998904255;435;100 mA
17.2854589563584;0.2998046875;0.0009857177734375;4.34999998901731;436;100 mA
17.2954589563332;0.29986572265625;0.0009844970703125;4.35999998899206;437;100 mA
17.3054589563079;0.29986572265625;0.00098419189453125;4.36999998896681;438;100 mA
17.3154589562827;0.299835205078125;0.00098541259765625;4.37999998894156;439;100 mA
17.3254589562574;0.29986572265625;0.000986328125;4.38999998891632;440;100 mA
17.3354589562322;0.29986572265625;0.000987548828125;4.39999998889107;441;100 mA
17.3454589562069;0.29986572265625;0.00098907470703125;4.40999998886582;442;100 mA
17.3554589561817;0.299835205078125;0.0009918212890625;4.41999998884057;443;100 mA
17.3654589561564;0.299835205078125;0.00099517822265625;4.42999998881533;444;100 mA
17.3754589561312;0.299896240234375;0.000992736816406251;4.43999998879008;445;100 mA
17.3854589561059;0.299835205078125;0.00099456787109375;4.44999998876483;446;100 mA
17.3954589560807;0.2998046875;0.000995788574218751;4.45999998873958;447;100 mA
17.4054589560554;0.29986572265625;0.00099365234375;4.46999998871433;448;100 mA
17.4154589560302;0.2998046875;0.000994262695312501;4.47999998868909;449;100 mA
17.4254589560049;0.29986572265625;0.00099151611328125;4.48999998866384;450;100 mA
17.4354589559797;0.2998046875;0.000989379882812499;4.49999998863859;451;100 mA
17.4454589559545;0.2999267578125;0.00099090576171875;4.50999998861334;452;100 mA
17.4554589559292;0.29986572265625;0.00098876953125;4.5199999885881;453;100 mA
17.465458955904;0.2999267578125;0.00099395751953125;4.52999998856285;454;100 mA
17.4754589558787;0.299896240234375;0.00099761962890625;4.5399999885376;455;100 mA
17.4854589558535;0.299896240234375;0.001002197265625;4.54999998851235;456;100 mA
17.4954589558282;0.29986572265625;0.00100128173828125;4.55999998848711;457;100 mA
17.505458955803;0.299835205078125;0.00100067138671875;4.56999998846186;458;100 mA
17.5154589557777;0.29986572265625;0.001002197265625;4.57999998843661;459;100 mA
17.5254589557525;0.29986572265625;0.00100067138671875;4.58999998841136;460;100 mA
17.5354589557272;0.29986572265625;0.0010015869140625;4.59999998838612;461;100 mA
17.545458955702;0.299835205078125;0.0010015869140625;4.60999998836087;462;100 mA
17.5554589556767;0.299835205078125;0.00100250244140625;4.61999998833562;463;100 mA
17.5654589556515;0.299835205078125;0.00100555419921875;4.62999998831037;464;100 mA
17.5754589556262;0.299835205078125;0.00100433349609375;4.63999998828513;465;100 mA
17.585458955601;0.29986572265625;0.00100341796875;4.64999998825988;466;100 mA
17.5954589555757;0.2998046875;0.00100921630859375;4.65999998823463;467;100 mA
17.6054589555505;0.299835205078125;0.00100982666015625;4.66999998820938;468;100 mA
17.6154589555252;0.29986572265625;0.0010137939453125;4.67999998818414;469;100 mA
17.6254589555;0.29986572265625;0.00101287841796875;4.68999998815889;470;100 mA
17.6354589554747;0.29986572265625;0.00101318359375;4.69999998813364;471;100 mA
17.6454589554495;0.299896240234375;0.00101165771484375;4.70999998810839;472;100 mA
17.6554589554243;0.299835205078125;0.00101165771484375;4.71999998808315;473;100 mA
17.665458955399;0.299835205078125;0.0010113525390625;4.7299999880579;474;100 mA
17.6754589553738;0.29986572265625;0.00101318359375;4.73999998803265;475;100 mA
17.6854589553485;0.299896240234375;0.00101318359375;4.7499999880074;476;100 mA
17.6954589553233;0.2998046875;0.00101348876953125;4.75999998798216;477;100 mA
17.705458955298;0.299835205078125;0.00101654052734375;4.76999998795691;478;100 mA
17.7154589552728;0.299835205078125;0.0010198974609375;4.77999998793166;479;100 mA
17.7254589552475;0.29986572265625;0.00101806640625;4.78999998790641;480;100 mA
17.7354589552223;0.29986572265625;0.00101776123046875;4.79999998788116;481;100 mA
17.745458955197;0.29986572265625;0.0010174560546875;4.80999998785592;482;100 mA
17.7554589551718;0.299835205078125;0.0010186767578125;4.81999998783067;483;100 mA
17.7654589551465;0.29986572265625;0.00101715087890625;4.82999998780542;484;100 mA
17.7754589551213;0.299835205078125;0.0010150146484375;4.83999998778017;485;100 mA
17.785458955096;0.299896240234375;0.00101531982421875;4.84999998775493;486;100 mA
17.7954589550708;0.2999267578125;0.00101531982421875;4.85999998772968;487;100 mA
17.8054589550455;0.29986572265625;0.00101593017578125;4.86999998770443;488;100 mA
17.8154589550203;0.29986572265625;0.001015625;4.87999998767918;489;100 mA
17.825458954995;0.29986572265625;0.001014404296875;4.88999998765394;490;100 mA
17.8354589549698;0.299896240234375;0.0010205078125;4.89999998762869;491;100 mA
17.8454589549445;0.299835205078125;0.00102020263671875;4.90999998760344;492;100 mA
17.8554589549193;0.29986572265625;0.00101837158203125;4.91999998757819;493;100 mA
17.8654589548941;0.299896240234375;0.0010174560546875;4.92999998755295;494;100 mA
17.8754589548688;0.299896240234375;0.00101654052734375;4.9399999875277;495;100 mA
17.8854589548436;0.29986572265625;0.0010113525390625;4.94999998750245;496;100 mA
17.8954589548183;0.2998046875;0.0010107421875;4.9599999874772;497;100 mA
17.9054589547931;0.2998046875;0.00100830078125;4.96999998745196;498;100 mA
17.9154589547678;0.299896240234375;0.00100921630859375;4.97999998742671;499;100 mA
17.9254589547426;0.299896240234375;0.00100799560546875;4.98999998740146;500;100 mA
17.9354589547173;0.2998046875;0.00100738525390625;4.99999998737621;501;100 mA
17.9454589546921;0.29986572265625;0.00100799560546875;5.00999998735097;502;100 mA
17.9554589546668;0.299835205078125;0.00101104736328125;5.01999998732572;503;100 mA
17.9654589546416;0.299835205078125;0.00101318359375;5.02999998730047;504;100 mA
17.9754589546163;0.299835205078125;0.001009521484375;5.03999998727522;505;100 mA
17.9854589545911;0.29986572265625;0.00101165771484375;5.04999998724998;506;100 mA
17.9954589545658;0.29986572265625;0.00101318359375;5.05999998722473;507;100 mA
18.0054589545406;0.299835205078125;0.00101043701171875;5.06999998719948;508;100 mA
18.0154589545153;0.2998046875;0.00101165771484375;5.07999998717423;509;100 mA
18.0254589544901;0.29986572265625;0.00100860595703125;5.08999998714899;510;100 mA
18.0354589544648;0.29986572265625;0.001009521484375;5.09999998712374;511;100 mA
18.0454589544396;0.29986572265625;0.00101104736328125;5.10999998709849;512;100 mA
18.0554589544143;0.299835205078125;0.00100921630859375;5.11999998707324;513;100 mA
18.0654589543891;0.299896240234375;0.00101226806640625;5.129999987048;514;100 mA
18.0754589543639;0.2998046875;0.00101593017578125;5.13999998702275;515;100 mA
18.0854589543386;0.299896240234375;0.001016845703125;5.1499999869975;516;100 mA
18.0954589543134;0.29986572265625;0.00101715087890625;5.15999998697225;517;100 mA
18.1054589542881;0.29986572265625;0.00101654052734375;5.169999986947;518;100 mA
18.1154589542629;0.299835205078125;0.0010186767578125;5.17999998692176;519;100 mA
18.1254589542376;0.299835205078125;0.00101593017578125;5.18999998689651;520;100 mA
18.1354589542124;0.299896240234375;0.00101837158203125;5.19999998687126;521;100 mA
18.1454589541871;0.29986572265625;0.00101837158203125;5.20999998684601;522;100 mA
18.1554589541619;0.2998046875;0.001019287109375;5.21999998682077;523;100 mA
18.1654589541366;0.299835205078125;0.00102081298828125;5.22999998679552;524;100 mA
18.1754589541114;0.2998046875;0.0010174560546875;5.23999998677027;525;100 mA
18.1854589540861;0.299835205078125;0.00101715087890625;5.24999998674502;526;100 mA
18.1954589540609;0.299774169921875;0.0010235595703125;5.25999998671978;527;100 mA
18.2054589540356;0.29986572265625;0.0010223388671875;5.26999998669453;528;100 mA
18.2154589540104;0.299835205078125;0.0010272216796875;5.27999998666928;529;100 mA
18.2254589539851;0.299896240234375;0.00102569580078125;5.28999998664403;530;100 mA
18.2354589539599;0.299835205078125;0.00102783203125;5.29999998661879;531;100 mA
18.2454589539346;0.299896240234375;0.001024169921875;5.30999998659354;532;100 mA
18.2554589539094;0.29986572265625;0.0010247802734375;5.31999998656829;533;100 mA
18.2654589538841;0.29986572265625;0.001024169921875;5.32999998654304;534;100 mA
18.2754589538589;0.299774169921875;0.00102386474609375;5.3399999865178;535;100 mA
18.2854589538337;0.29986572265625;0.00102325439453125;5.34999998649255;536;100 mA
18.2954589538084;0.29986572265625;0.0010223388671875;5.3599999864673;537;100 mA
18.3054589537832;0.299835205078125;0.00102447509765625;5.36999998644205;538;100 mA
18.3154589537579;0.2998046875;0.0010284423828125;5.37999998641681;539;100 mA
18.3254589537327;0.29986572265625;0.0010260009765625;5.38999998639156;540;100 mA
18.3354589537074;0.29986572265625;0.00102569580078125;5.39999998636631;541;100 mA
18.3454589536822;0.299835205078125;0.00102630615234375;5.40999998634106;542;100 mA
18.3554589536569;0.299835205078125;0.00102935791015625;5.41999998631582;543;100 mA
18.3654589536317;0.299835205078125;0.00102569580078125;5.42999998629057;544;100 mA
18.3754589536064;0.299835205078125;0.00102508544921875;5.43999998626532;545;100 mA
18.3854589535812;0.299835205078125;0.00102386474609375;5.44999998624007;546;100 mA
18.3954589535559;0.29986572265625;0.0010235595703125;5.45999998621483;547;100 mA
18.4054589535307;0.29986572265625;0.001021728515625;5.46999998618958;548;100 mA
18.4154589535054;0.29986572265625;0.00102142333984375;5.47999998616433;549;100 mA
18.4254589534802;0.299835205078125;0.0010205078125;5.48999998613908;550;100 mA
18.4354589534549;0.299896240234375;0.0010272216796875;5.49999998611383;551;100 mA
18.4454589534297;0.299835205078125;0.00102783203125;5.50999998608859;552;100 mA
18.4554589534044;0.299835205078125;0.00102691650390625;5.51999998606334;553;100 mA
18.4654589533792;0.299896240234375;0.001026611328125;5.52999998603809;554;100 mA
18.475458953354;0.29986572265625;0.00102569580078125;5.53999998601284;555;100 mA
18.4854589533287;0.2998046875;0.00102020263671875;5.5499999859876;556;100 mA
18.4954589533035;0.29986572265625;0.00101959228515625;5.55999998596235;557;100 mA
18.5054589532782;0.29986572265625;0.00101654052734375;5.5699999859371;558;100 mA
18.515458953253;0.29986572265625;0.001016845703125;5.57999998591185;559;100 mA
18.5254589532277;0.299835205078125;0.001014404296875;5.58999998588661;560;100 mA
18.5354589532025;0.29986572265625;0.0010137939453125;5.59999998586136;561;100 mA
18.5454589531772;0.299835205078125;0.0010137939453125;5.60999998583611;562;100 mA
18.555458953152;0.29986572265625;0.00101654052734375;5.61999998581086;563;100 mA
18.5654589531267;0.299835205078125;0.001019287109375;5.62999998578562;564;100 mA
18.5754589531015;0.299835205078125;0.0010162353515625;5.63999998576037;565;100 mA
18.5854589530762;0.299835205078125;0.001019287109375;5.64999998573512;566;100 mA
18.595458953051;0.2998046875;0.00101776123046875;5.65999998570987;567;100 mA
18.6054589530257;0.299896240234375;0.00101470947265625;5.66999998568463;568;100 mA
18.6154589530005;0.29986572265625;0.0010150146484375;5.67999998565938;569;100 mA
18.6254589529752;0.299835205078125;0.00101043701171875;5.68999998563413;570;100 mA
18.63545895295;0.299835205078125;0.0010089111328125;5.69999998560888;571;100 mA
18.6454589529247;0.299896240234375;0.0010101318359375;5.70999998558364;572;100 mA
18.6554589528995;0.2998046875;0.00100830078125;5.71999998555839;573;100 mA
18.6654589528742;0.299835205078125;0.001009521484375;5.72999998553314;574;100 mA
18.675458952849;0.299835205078125;0.00101409912109375;5.73999998550789;575;100 mA
18.6854589528238;0.299835205078125;0.0010162353515625;5.74999998548265;576;100 mA
18.6954589527985;0.2998046875;0.0010150146484375;5.7599999854574;577;100 mA
18.7054589527733;0.299835205078125;0.00101348876953125;5.76999998543215;578;100 mA
18.715458952748;0.29986572265625;0.00101287841796875;5.7799999854069;579;100 mA
18.7254589527228;0.2998046875;0.0010107421875;5.78999998538166;580;100 mA
18.7354589526975;0.299896240234375;0.0010113525390625;5.79999998535641;581;100 mA
18.7454589526723;0.299835205078125;0.00100860595703125;5.80999998533116;582;100 mA
18.755458952647;0.2998046875;0.0010064697265625;5.81999998530591;583;100 mA
18.7654589526218;0.299896240234375;0.001007080078125;5.82999998528066;584;100 mA
18.7754589525965;0.299835205078125;0.00100311279296875;5.83999998525542;585;100 mA
18.7854589525713;0.29986572265625;0.00100250244140625;5.84999998523017;586;100 mA
18.795458952546;0.299835205078125;0.0010076904296875;5.85999998520492;587;100 mA
18.8054589525208;0.299896240234375;0.00100677490234375;5.86999998517967;588;100 mA
18.8154589524955;0.299835205078125;0.0010101318359375;5.87999998515443;589;100 mA
18.8254589524703;0.29986572265625;0.0010089111328125;5.88999998512918;590;100 mA
18.835458952445;0.299896240234375;0.001009521484375;5.89999998510393;591;100 mA
18.8454589524198;0.299835205078125;0.001007080078125;5.90999998507868;592;100 mA
18.8554589523945;0.2998046875;0.001005859375;5.91999998505344;593;100 mA
18.8654589523693;0.2998046875;0.0010052490234375;5.92999998502819;594;100 mA
18.875458952344;0.29986572265625;0.00100341796875;5.93999998500294;595;100 mA
18.8854589523188;0.29986572265625;0.00100372314453125;5.94999998497769;596;100 mA
18.8954589522936;0.299896240234375;0.00100250244140625;5.95999998495245;597;100 mA
18.9054589522683;0.299896240234375;0.00100494384765625;5.9699999849272;598;100 mA
18.9154589522431;0.299835205078125;0.00101043701171875;5.97999998490195;599;100 mA
18.9254589522178;0.299774169921875;0.00100830078125;5.9899999848767;600;100 mA
18.9354589521926;0.2999267578125;0.00100677490234375;5.99999998485146;601;100 mA
18.9454589521673;0.29986572265625;0.0010076904296875;6.00999998482621;602;100 mA
18.9554589521421;0.299896240234375;0.0010089111328125;6.01999998480096;603;100 mA
18.9654589521168;0.29986572265625;0.00100616455078125;6.02999998477571;604;100 mA
18.9754589520916;0.299835205078125;0.00100494384765625;6.03999998475047;605;100 mA
18.9854589520663;0.299835205078125;0.001004638671875;6.04999998472522;606;100 mA
18.9954589520411;0.299896240234375;0.0010040283203125;6.05999998469997;607;100 mA
19.0054589520158;0.299896240234375;0.0010015869140625;6.06999998467472;608;100 mA
19.0154589519906;0.2998046875;0.0010009765625;6.07999998464948;609;100 mA
19.0254589519653;0.299774169921875;0.00099945068359375;6.08999998462423;610;100 mA
19.0354589519401;0.299835205078125;0.00100616455078125;6.09999998459898;611;100 mA
19.0454589519148;0.299835205078125;0.00100799560546875;6.10999998457373;612;100 mA
19.0554589518896;0.299774169921875;0.0010076904296875;6.11999998454849;613;100 mA
19.0654589518643;0.29986572265625;0.0010076904296875;6.12999998452324;614;100 mA
19.0754589518391;0.299835205078125;0.001007080078125;6.13999998449799;615;100 mA
19.0854589518138;0.2998046875;0.0010052490234375;6.14999998447274;616;100 mA
19.0954589517886;0.29986572265625;0.00100677490234375;6.1599999844475;617;100 mA
19.1054589517634;0.29986572265625;0.001004638671875;6.16999998442225;618;100 mA
19.1154589517381;0.299896240234375;0.00100555419921875;6.179999984397;619;100 mA
19.1254589517129;0.299835205078125;0.00100494384765625;6.18999998437175;620;100 mA
19.1354589516876;0.299835205078125;0.00100341796875;6.1999999843465;621;100 mA
19.1454589516624;0.299835205078125;0.001002197265625;6.20999998432126;622;100 mA
19.1554589516371;0.299896240234375;0.00100555419921875;6.21999998429601;623;100 mA
19.1654589516119;0.299835205078125;0.00100738525390625;6.22999998427076;624;100 mA
19.1754589515866;0.29986572265625;0.00100555419921875;6.23999998424551;625;100 mA
19.1854589515614;0.2998046875;0.00100738525390625;6.24999998422027;626;100 mA
19.1954589515361;0.299896240234375;0.0010076904296875;6.25999998419502;627;100 mA
19.2054589515109;0.299835205078125;0.00100433349609375;6.26999998416977;628;100 mA
19.2154589514856;0.299896240234375;0.00100341796875;6.27999998414452;629;100 mA
19.2254589514604;0.29986572265625;0.000999755859375;6.28999998411928;630;100 mA
19.2354589514351;0.299835205078125;0.000999755859375;6.29999998409403;631;100 mA
19.2454589514099;0.2998046875;0.000999755859375;6.30999998406878;632;100 mA
19.2554589513846;0.299835205078125;0.0009967041015625;6.31999998404353;633;100 mA
19.2654589513594;0.299835205078125;0.0009991455078125;6.32999998401829;634;100 mA
19.2754589513341;0.29986572265625;0.0010040283203125;6.33999998399304;635;100 mA
19.2854589513089;0.299896240234375;0.001005859375;6.34999998396779;636;100 mA
19.2954589512836;0.29986572265625;0.001005859375;6.35999998394254;637;100 mA
19.3054589512584;0.299835205078125;0.00100311279296875;6.3699999839173;638;100 mA
19.3154589512332;0.299896240234375;0.00100311279296875;6.37999998389205;639;100 mA
19.3254589512079;0.299835205078125;0.0010003662109375;6.3899999838668;640;100 mA
19.3354589511827;0.29986572265625;0.000999755859375;6.39999998384155;641;100 mA
19.3454589511574;0.29986572265625;0.00099853515625;6.40999998381631;642;100 mA
19.3554589511322;0.299835205078125;0.00099609375;6.41999998379106;643;100 mA
19.3654589511069;0.29986572265625;0.0009967041015625;6.42999998376581;644;100 mA
19.3754589510817;0.299896240234375;0.0009918212890625;6.43999998374056;645;100 mA
19.3854589510564;0.299835205078125;0.000992736816406251;6.44999998371532;646;100 mA
19.3954589510312;0.299835205078125;0.00099639892578125;6.45999998369007;647;100 mA
19.4054589510059;0.299896240234375;0.0009967041015625;6.46999998366482;648;100 mA
19.4154589509807;0.2998046875;0.0009991455078125;6.47999998363957;649;100 mA
19.4254589509554;0.299835205078125;0.0009979248046875;6.48999998361433;650;100 mA
19.4354589509302;0.29986572265625;0.00099945068359375;6.49999998358908;651;100 mA
19.4454589509049;0.299835205078125;0.00099639892578125;6.50999998356383;652;100 mA
19.4554589508797;0.299896240234375;0.000994262695312501;6.51999998353858;653;100 mA
19.4654589508544;0.29986572265625;0.00099395751953125;6.52999998351333;654;100 mA
19.4754589508292;0.299835205078125;0.0009918212890625;6.53999998348809;655;100 mA
19.4854589508039;0.29986572265625;0.00099212646484375;6.54999998346284;656;100 mA
19.4954589507787;0.299835205078125;0.000989379882812499;6.55999998343759;657;100 mA
19.5054589507535;0.299835205078125;0.00099334716796875;6.56999998341234;658;100 mA
19.5154589507282;0.29986572265625;0.00099639892578125;6.5799999833871;659;100 mA
19.525458950703;0.299835205078125;0.00099395751953125;6.58999998336185;660;100 mA
19.5354589506777;0.29986572265625;0.0009930419921875;6.5999999833366;661;100 mA
19.5454589506525;0.29986572265625;0.0009930419921875;6.60999998331135;662;100 mA
19.5554589506272;0.29986572265625;0.00099517822265625;6.61999998328611;663;100 mA
19.565458950602;0.299835205078125;0.000992736816406251;6.62999998326086;664;100 mA
19.5754589505767;0.299835205078125;0.000992431640624999;6.63999998323561;665;100 mA
19.5854589505515;0.29986572265625;0.000992431640624999;6.64999998321036;666;100 mA
19.5954589505262;0.299835205078125;0.000991210937500001;6.65999998318512;667;100 mA
19.605458950501;0.299835205078125;0.00099029541015625;6.66999998315987;668;100 mA
19.6154589504757;0.299835205078125;0.00098876953125;6.67999998313462;669;100 mA
19.6254589504505;0.29986572265625;0.00098876953125;6.68999998310937;670;100 mA
19.6354589504252;0.299835205078125;0.000994262695312501;6.69999998308413;671;100 mA
19.6454589504;0.299835205078125;0.000997009277343749;6.70999998305888;672;100 mA
19.6554589503747;0.299835205078125;0.00099517822265625;6.71999998303363;673;100 mA
19.6654589503495;0.299896240234375;0.000997314453125001;6.72999998300838;674;100 mA
19.6754589503242;0.299774169921875;0.0009979248046875;6.73999998298314;675;100 mA
19.685458950299;0.299835205078125;0.00099395751953125;6.74999998295789;676;100 mA
19.6954589502737;0.2998046875;0.000994873046875;6.75999998293264;677;100 mA
19.7054589502485;0.299835205078125;0.00099365234375;6.76999998290739;678;100 mA
19.7154589502233;0.29986572265625;0.00099456787109375;6.77999998288215;679;100 mA
19.725458950198;0.29986572265625;0.000992431640624999;6.7899999828569;680;100 mA
19.7354589501728;0.299835205078125;0.00099090576171875;6.79999998283165;681;100 mA
19.7454589501475;0.299835205078125;0.00099029541015625;6.8099999828064;682;100 mA
19.7554589501223;0.299835205078125;0.00099395751953125;6.81999998278116;683;100 mA
19.765458950097;0.2999267578125;0.0009967041015625;6.82999998275591;684;100 mA
19.7754589500718;0.299835205078125;0.000995483398437499;6.83999998273066;685;100 mA
19.7854589500465;0.2998046875;0.00099822998046875;6.84999998270541;686;100 mA
19.7954589500213;0.299835205078125;0.0009991455078125;6.85999998268016;687;100 mA
19.805458949996;0.299896240234375;0.00099822998046875;6.86999998265492;688;100 mA
19.8154589499708;0.299835205078125;0.00100067138671875;6.87999998262967;689;100 mA
19.8254589499455;0.29986572265625;0.00099639892578125;6.88999998260442;690;100 mA
19.8354589499203;0.299835205078125;0.000997314453125001;6.89999998257917;691;100 mA
19.845458949895;0.29986572265625;0.0009979248046875;6.90999998255393;692;100 mA
19.8554589498698;0.2998046875;0.000994262695312501;6.91999998252868;693;100 mA
19.8654589498445;0.299896240234375;0.00099609375;6.92999998250343;694;100 mA
19.8754589498193;0.299835205078125;0.0010003662109375;6.93999998247818;695;100 mA
19.885458949794;0.299835205078125;0.00100128173828125;6.94999998245294;696;100 mA
19.8954589497688;0.299835205078125;0.0010003662109375;6.95999998242769;697;100 mA
19.9054589497435;0.2998046875;0.0009967041015625;6.96999998240244;698;100 mA
19.9154589497183;0.29986572265625;0.0009979248046875;6.97999998237719;699;100 mA
19.9254589496931;0.2999267578125;0.00099609375;6.98999998235195;700;100 mA
19.9354589496678;0.29986572265625;0.000997314453125001;6.9999999823267;701;100 mA
19.9454589496426;0.299835205078125;0.000995788574218751;7.00999998230145;702;100 mA
19.9554589496173;0.299896240234375;0.000994873046875;7.0199999822762;703;100 mA
19.9654589495921;0.299896240234375;0.00099609375;7.02999998225096;704;100 mA
19.9754589495668;0.29986572265625;0.00099334716796875;7.03999998222571;705;100 mA
19.9854589495416;0.29986572265625;0.00099334716796875;7.04999998220046;706;100 mA
19.9954589495163;0.299835205078125;0.00099822998046875;7.05999998217521;707;100 mA
20.0054589494911;0.29986572265625;0.000997009277343749;7.06999998214997;708;100 mA
20.0154589494658;0.2998046875;0.00099945068359375;7.07999998212472;709;100 mA
20.0254589494406;0.299835205078125;0.000997009277343749;7.08999998209947;710;100 mA
20.0354589494153;0.29986572265625;0.00099822998046875;7.09999998207422;711;100 mA
20.0454589493901;0.299835205078125;0.00099456787109375;7.10999998204898;712;100 mA
20.0554589493648;0.29986572265625;0.000992431640624999;7.11999998202373;713;100 mA
20.0654589493396;0.2998046875;0.0009918212890625;7.12999998199848;714;100 mA
20.0754589493143;0.299896240234375;0.000989685058593751;7.13999998197323;715;100 mA
20.0854589492891;0.29986572265625;0.00099090576171875;7.14999998194799;716;100 mA
20.0954589492638;0.299896240234375;0.000988159179687501;7.15999998192274;717;100 mA
20.1054589492386;0.2999267578125;0.00099029541015625;7.16999998189749;718;100 mA
20.1154589492133;0.299896240234375;0.0009930419921875;7.17999998187224;719;100 mA
20.1254589491881;0.299835205078125;0.00099151611328125;7.189999981847;720;100 mA
20.1354589491629;0.29986572265625;0.00099090576171875;7.19999998182175;721;100 mA
20.1454589491376;0.299896240234375;0.0009906005859375;7.2099999817965;722;100 mA
20.1554589491124;0.299835205078125;0.000992736816406251;7.21999998177125;723;100 mA
20.1654589490871;0.29986572265625;0.0009906005859375;7.229999981746;724;100 mA
20.1754589490619;0.2998046875;0.00098876953125;7.23999998172076;725;100 mA
20.1854589490366;0.2998046875;0.00098876953125;7.24999998169551;726;100 mA
20.1954589490114;0.29986572265625;0.000983581542968751;7.25999998167026;727;100 mA
20.2054589489861;0.2999267578125;0.000982055664062501;7.26999998164501;728;100 mA
20.2154589489609;0.29986572265625;0.00098236083984375;7.27999998161977;729;100 mA
20.2254589489356;0.299835205078125;0.0009814453125;7.28999998159452;730;100 mA
20.2354589489104;0.299835205078125;0.00098876953125;7.29999998156927;731;100 mA
20.2454589488851;0.29986572265625;0.000989685058593751;7.30999998154402;732;100 mA
20.2554589488599;0.299896240234375;0.000987548828125;7.31999998151878;733;100 mA
20.2654589488346;0.29986572265625;0.000987548828125;7.32999998149353;734;100 mA
20.2754589488094;0.2998046875;0.00098541259765625;7.33999998146828;735;100 mA
20.2854589487841;0.299896240234375;0.00098297119140625;7.34999998144303;736;100 mA
20.2954589487589;0.2998046875;0.0009832763671875;7.35999998141779;737;100 mA
20.3054589487336;0.29986572265625;0.000980529785156251;7.36999998139254;738;100 mA
20.3154589487084;0.29986572265625;0.0009808349609375;7.37999998136729;739;100 mA
20.3254589486831;0.29986572265625;0.0009783935546875;7.38999998134204;740;100 mA
20.3354589486579;0.299835205078125;0.00097808837890625;7.3999999813168;741;100 mA
20.3454589486327;0.299835205078125;0.000977172851562499;7.40999998129155;742;100 mA
20.3554589486074;0.299835205078125;0.00098114013671875;7.4199999812663;743;100 mA
20.3654589485822;0.2999267578125;0.000982055664062501;7.42999998124105;744;100 mA
20.3754589485569;0.29986572265625;0.000981750488281249;7.43999998121581;745;100 mA
20.3854589485317;0.2998046875;0.00098236083984375;7.44999998119056;746;100 mA
20.3954589485064;0.2998046875;0.000982666015625;7.45999998116531;747;100 mA
20.4054589484812;0.299835205078125;0.000979003906250001;7.46999998114006;748;100 mA
20.4154589484559;0.2999267578125;0.00097869873046875;7.47999998111482;749;100 mA
20.4254589484307;0.2999267578125;0.0009735107421875;7.48999998108957;750;100 mA
20.4354589484054;0.2998046875;0.00097564697265625;7.49999998106432;751;100 mA
20.4454589483802;0.299835205078125;0.00097686767578125;7.50999998103907;752;100 mA
20.4554589483549;0.299835205078125;0.00097320556640625;7.51999998101383;753;100 mA
20.4654589483297;0.299896240234375;0.00097625732421875;7.52999998098858;754;100 mA
20.4754589483044;0.299896240234375;0.0009808349609375;7.53999998096333;755;100 mA
20.4854589482792;0.2999267578125;0.000982055664062501;7.54999998093808;756;100 mA
20.4954589482539;0.29986572265625;0.000980529785156251;7.55999998091283;757;100 mA
20.5054589482287;0.299835205078125;0.000977783203125;7.56999998088759;758;100 mA
20.5154589482034;0.29986572265625;0.00097808837890625;7.57999998086234;759;100 mA
20.5254589481782;0.2998046875;0.0009747314453125;7.58999998083709;760;100 mA
20.535458948153;0.299835205078125;0.000975341796875;7.59999998081184;761;100 mA
20.5454589481277;0.2999267578125;0.000972595214843749;7.6099999807866;762;100 mA
20.5554589481025;0.29986572265625;0.0009722900390625;7.61999998076135;763;100 mA
20.5654589480772;0.299896240234375;0.000972595214843749;7.6299999807361;764;100 mA
20.575458948052;0.299896240234375;0.000968017578125;7.63999998071085;765;100 mA
20.5854589480267;0.29986572265625;0.000969848632812501;7.64999998068561;766;100 mA
20.5954589480015;0.299896240234375;0.000975341796875;7.65999998066036;767;100 mA
20.6054589479762;0.299896240234375;0.00097381591796875;7.66999998063511;768;100 mA
20.615458947951;0.299835205078125;0.00097564697265625;7.67999998060986;769;100 mA
20.6254589479257;0.299835205078125;0.0009716796875;7.68999998058462;770;100 mA
20.6354589479005;0.2998046875;0.00097320556640625;7.69999998055937;771;100 mA
20.6454589478752;0.299896240234375;0.0009686279296875;7.70999998053412;772;100 mA
20.65545894785;0.299774169921875;0.00096649169921875;7.71999998050887;773;100 mA
20.6654589478247;0.299835205078125;0.00096435546875;7.72999998048363;774;100 mA
20.6754589477995;0.299896240234375;0.000961914062499999;7.73999998045838;775;100 mA
20.6854589477742;0.299835205078125;0.000963745117187501;7.74999998043313;776;100 mA
20.695458947749;0.2998046875;0.00096282958984375;7.75999998040788;777;100 mA
20.7054589477237;0.29986572265625;0.000965576171875;7.76999998038264;778;100 mA
20.7154589476985;0.29986572265625;0.0009716796875;7.77999998035739;779;100 mA
20.7254589476732;0.2998046875;0.000971069335937499;7.78999998033214;780;100 mA
20.735458947648;0.29986572265625;0.000971374511718751;7.79999998030689;781;100 mA
20.7454589476228;0.299835205078125;0.000971374511718751;7.80999998028165;782;100 mA
20.7554589475975;0.299835205078125;0.00097381591796875;7.8199999802564;783;100 mA
20.7654589475723;0.299835205078125;0.00097015380859375;7.82999998023115;784;100 mA
20.775458947547;0.29986572265625;0.00096893310546875;7.8399999802059;785;100 mA
20.7854589475218;0.299896240234375;0.00096771240234375;7.84999998018066;786;100 mA
20.7954589474965;0.299835205078125;0.000965270996093751;7.85999998015541;787;100 mA
20.8054589474713;0.299835205078125;0.00096435546875;7.86999998013016;788;100 mA
20.815458947446;0.29986572265625;0.00096435546875;7.87999998010491;789;100 mA
20.8254589474208;0.299896240234375;0.00096405029296875;7.88999998007966;790;100 mA
20.8354589473955;0.299896240234375;0.00097320556640625;7.89999998005442;791;100 mA
20.8454589473703;0.299835205078125;0.00097564697265625;7.90999998002917;792;100 mA
20.855458947345;0.299896240234375;0.0009735107421875;7.91999998000392;793;100 mA
20.8654589473198;0.299835205078125;0.0009747314453125;7.92999997997867;794;100 mA
20.8754589472945;0.29986572265625;0.00097564697265625;7.93999997995343;795;100 mA
20.8854589472693;0.299896240234375;0.0009735107421875;7.94999997992818;796;100 mA
20.895458947244;0.299835205078125;0.000974426269531251;7.95999997990293;797;100 mA
20.9054589472188;0.29986572265625;0.000972900390625001;7.96999997987768;798;100 mA
20.9154589471935;0.29986572265625;0.0009735107421875;7.97999997985244;799;100 mA
20.9254589471683;0.2998046875;0.000972900390625001;7.98999997982719;800;100 mA
20.935458947143;0.29986572265625;0.00097320556640625;7.99999997980194;801;100 mA
20.9454589471178;0.29986572265625;0.00097412109375;8.00999997977669;802;100 mA
20.9554589470926;0.29986572265625;0.000980529785156251;8.01999997975145;803;100 mA
20.9654589470673;0.299835205078125;0.0009832763671875;8.0299999797262;804;100 mA
20.9754589470421;0.2998046875;0.00098388671875;8.03999997970095;805;100 mA
20.9854589470168;0.2999267578125;0.00098876953125;8.0499999796757;806;100 mA
20.9954589469916;0.299835205078125;0.000989685058593751;8.05999997965046;807;100 mA
21.0054589469663;0.29986572265625;0.0009857177734375;8.06999997962521;808;100 mA
21.0154589469411;0.299835205078125;0.00098724365234375;8.07999997959996;809;100 mA
21.0254589469158;0.29986572265625;0.00098388671875;8.08999997957471;810;100 mA
21.0354589468906;0.299835205078125;0.000986633300781251;8.09999997954947;811;100 mA
21.0454589468653;0.29986572265625;0.000987548828125;8.10999997952422;812;100 mA
21.0554589468401;0.299896240234375;0.000987854003906249;8.11999997949897;813;100 mA
21.0654589468148;0.29986572265625;0.00099029541015625;8.12999997947372;814;100 mA
21.0754589467896;0.299835205078125;0.00099609375;8.13999997944848;815;100 mA
21.0854589467643;0.29986572265625;0.0009967041015625;8.14999997942323;816;100 mA
21.0954589467391;0.29986572265625;0.000997009277343749;8.15999997939798;817;100 mA
21.1054589467138;0.299835205078125;0.00099639892578125;8.16999997937273;818;100 mA
21.1154589466886;0.299896240234375;0.0009979248046875;8.17999997934749;819;100 mA
21.1254589466633;0.29986572265625;0.000995483398437499;8.18999997932224;820;100 mA
21.1354589466381;0.29986572265625;0.00099761962890625;8.19999997929699;821;100 mA
21.1454589466128;0.299835205078125;0.000995788574218751;8.20999997927174;822;100 mA
21.1554589465876;0.29986572265625;0.000994873046875;8.2199999792465;823;100 mA
21.1654589465624;0.299896240234375;0.0009967041015625;8.22999997922125;824;100 mA
21.1754589465371;0.299835205078125;0.00099395751953125;8.239999979196;825;100 mA
21.1854589465119;0.299835205078125;0.00099639892578125;8.24999997917075;826;100 mA
21.1954589464866;0.2998046875;0.00100311279296875;8.2599999791455;827;100 mA
21.2054589464614;0.299835205078125;0.001004638671875;8.26999997912026;828;100 mA
21.2154589464361;0.29986572265625;0.001007080078125;8.27999997909501;829;100 mA
21.2254589464109;0.2998046875;0.00100616455078125;8.28999997906976;830;100 mA
21.2354589463856;0.29986572265625;0.00100830078125;8.29999997904451;831;100 mA
21.2454589463604;0.29986572265625;0.001004638671875;8.30999997901927;832;100 mA
21.2554589463351;0.299896240234375;0.00100128173828125;8.31999997899402;833;100 mA
21.2654589463099;0.2998046875;0.0010015869140625;8.32999997896877;834;100 mA
21.2754589462846;0.299835205078125;0.00099853515625;8.33999997894352;835;100 mA
21.2854589462594;0.29986572265625;0.000999755859375;8.34999997891828;836;100 mA
21.2954589462341;0.2999267578125;0.000997314453125001;8.35999997889303;837;100 mA
21.3054589462089;0.2998046875;0.0010003662109375;8.36999997886778;838;100 mA
21.3154589461836;0.299774169921875;0.00100311279296875;8.37999997884253;839;100 mA
21.3254589461584;0.299896240234375;0.001002197265625;8.38999997881729;840;100 mA
21.3354589461331;0.29986572265625;0.00100128173828125;8.39999997879204;841;100 mA
21.3454589461079;0.299835205078125;0.00100189208984375;8.40999997876679;842;100 mA
21.3554589460826;0.299835205078125;0.001004638671875;8.41999997874154;843;100 mA
21.3654589460574;0.29986572265625;0.00100341796875;8.4299999787163;844;100 mA
21.3754589460322;0.29986572265625;0.00100189208984375;8.43999997869105;845;100 mA
21.3854589460069;0.29986572265625;0.0010015869140625;8.4499999786658;846;100 mA
21.3954589459817;0.299835205078125;0.00100006103515625;8.45999997864055;847;100 mA
21.4054589459564;0.29986572265625;0.00100006103515625;8.46999997861531;848;100 mA
21.4154589459312;0.299896240234375;0.00100006103515625;8.47999997859006;849;100 mA
21.4254589459059;0.29986572265625;0.0010003662109375;8.48999997856481;850;100 mA
21.4354589458807;0.2999267578125;0.001007080078125;8.49999997853956;851;100 mA
21.4454589458554;0.29986572265625;0.001009521484375;8.50999997851432;852;100 mA
21.4554589458302;0.299835205078125;0.00100860595703125;8.51999997848907;853;100 mA
21.4654589458049;0.29986572265625;0.001009521484375;8.52999997846382;854;100 mA
21.4754589457797;0.299835205078125;0.001009521484375;8.53999997843857;855;100 mA
21.4854589457544;0.299774169921875;0.00100860595703125;8.54999997841333;856;100 mA
21.4954589457292;0.29986572265625;0.00100830078125;8.55999997838808;857;100 mA
21.5054589457039;0.299835205078125;0.00100738525390625;8.56999997836283;858;100 mA
21.5154589456787;0.29986572265625;0.00100860595703125;8.57999997833758;859;100 mA
21.5254589456534;0.29986572265625;0.0010076904296875;8.58999997831233;860;100 mA
21.5354589456282;0.29986572265625;0.00100830078125;8.59999997828709;861;100 mA
21.5454589456029;0.29986572265625;0.00100860595703125;8.60999997826184;862;100 mA
21.5554589455777;0.299896240234375;0.001014404296875;8.61999997823659;863;100 mA
21.5654589455525;0.299835205078125;0.00101654052734375;8.62999997821134;864;100 mA
21.5754589455272;0.29986572265625;0.0010162353515625;8.6399999781861;865;100 mA
21.585458945502;0.2998046875;0.00101959228515625;8.64999997816085;866;100 mA
21.5954589454767;0.29986572265625;0.00102020263671875;8.6599999781356;867;100 mA
21.6054589454515;0.299835205078125;0.001015625;8.66999997811035;868;100 mA
21.6154589454262;0.299896240234375;0.00101470947265625;8.67999997808511;869;100 mA
21.625458945401;0.299835205078125;0.00100921630859375;8.68999997805986;870;100 mA
21.6354589453757;0.299835205078125;0.00100982666015625;8.69999997803461;871;100 mA
21.6454589453505;0.29986572265625;0.0010076904296875;8.70999997800936;872;100 mA
21.6554589453252;0.299835205078125;0.00100433349609375;8.71999997798412;873;100 mA
21.6654589453;0.29986572265625;0.0010052490234375;8.72999997795887;874;100 mA
21.6754589452747;0.29986572265625;0.00100982666015625;8.73999997793362;875;100 mA
21.6854589452495;0.29986572265625;0.0010089111328125;8.74999997790837;876;100 mA
21.6954589452242;0.299835205078125;0.00100982666015625;8.75999997788313;877;100 mA
21.705458945199;0.29986572265625;0.00100830078125;8.76999997785788;878;100 mA
21.7154589451737;0.299835205078125;0.001009521484375;8.77999997783263;879;100 mA
21.7254589451485;0.299896240234375;0.0010052490234375;8.78999997780738;880;100 mA
21.7354589451232;0.299835205078125;0.00100555419921875;8.79999997778214;881;100 mA
21.745458945098;0.2999267578125;0.0010009765625;8.80999997775689;882;100 mA
21.7554589450727;0.299835205078125;0.00099822998046875;8.81999997773164;883;100 mA
21.7654589450475;0.299835205078125;0.00099822998046875;8.82999997770639;884;100 mA
21.7754589450223;0.29986572265625;0.0009906005859375;8.83999997768115;885;100 mA
21.785458944997;0.299835205078125;0.000991210937500001;8.8499999776559;886;100 mA
21.7954589449718;0.29986572265625;0.000994873046875;8.85999997763065;887;100 mA
21.8054589449465;0.29986572265625;0.0009906005859375;8.8699999776054;888;100 mA
21.8154589449213;0.299896240234375;0.0009918212890625;8.87999997758016;889;100 mA
21.825458944896;0.299774169921875;0.00098876953125;8.88999997755491;890;100 mA
21.8354589448708;0.29986572265625;0.00099029541015625;8.89999997752966;891;100 mA
21.8454589448455;0.29986572265625;0.0009832763671875;8.90999997750441;892;100 mA
21.8554589448203;0.29986572265625;0.0009808349609375;8.91999997747916;893;100 mA
21.865458944795;0.299896240234375;0.000980224609374999;8.92999997745392;894;100 mA
21.8754589447698;0.29986572265625;0.00097625732421875;8.93999997742867;895;100 mA
21.8854589447445;0.299896240234375;0.00097564697265625;8.94999997740342;896;100 mA
21.8954589447193;0.29986572265625;0.000972595214843749;8.95999997737817;897;100 mA
21.905458944694;0.299896240234375;0.000972900390625001;8.96999997735293;898;100 mA
21.9154589446688;0.299896240234375;0.00097625732421875;8.97999997732768;899;100 mA
21.9254589446435;0.29986572265625;0.000975341796875;8.98999997730243;900;100 mA
21.9354589446183;0.299835205078125;0.0009735107421875;8.99999997727718;901;100 mA
21.945458944593;0.29986572265625;0.0009747314453125;9.00999997725194;902;100 mA
21.9554589445678;0.29986572265625;0.000975952148437501;9.01999997722669;903;100 mA
21.9654589445425;0.2998046875;0.00097381591796875;9.02999997720144;904;100 mA
21.9754589445173;0.299835205078125;0.000971374511718751;9.03999997717619;905;100 mA
21.9854589444921;0.299835205078125;0.0009722900390625;9.04999997715095;906;100 mA
21.9954589444668;0.299835205078125;0.0009686279296875;9.0599999771257;907;100 mA
22.0054589444416;0.2998046875;0.00096923828125;9.06999997710045;908;100 mA
22.0154589444163;0.29986572265625;0.00096649169921875;9.0799999770752;909;100 mA
22.0254589443911;0.299835205078125;0.000965576171875;9.08999997704996;910;100 mA
22.0354589443658;0.29986572265625;0.000970458984375;9.09999997702471;911;100 mA
22.0454589443406;0.299835205078125;0.000971069335937499;9.10999997699946;912;100 mA
22.0554589443153;0.299835205078125;0.0009686279296875;9.11999997697421;913;100 mA
22.0654589442901;0.29986572265625;0.000968322753906251;9.12999997694897;914;100 mA
22.0754589442648;0.299896240234375;0.00096771240234375;9.13999997692372;915;100 mA
22.0854589442396;0.29986572265625;0.000966796875000001;9.14999997689847;916;100 mA
22.0954589442143;0.2998046875;0.00096588134765625;9.15999997687322;917;100 mA
22.1054589441891;0.299835205078125;0.000965576171875;9.16999997684798;918;100 mA
22.1154589441638;0.299774169921875;0.00096588134765625;9.17999997682273;919;100 mA
22.1254589441386;0.299774169921875;0.000966796875000001;9.18999997679748;920;100 mA
22.1354589441133;0.299835205078125;0.0009674072265625;9.19999997677223;921;100 mA
22.1454589440881;0.299835205078125;0.00096649169921875;9.20999997674699;922;100 mA
22.1554589440628;0.299896240234375;0.0009735107421875;9.21999997672174;923;100 mA
22.1654589440376;0.299896240234375;0.00097412109375;9.22999997669649;924;100 mA
22.1754589440123;0.2998046875;0.0009765625;9.23999997667124;925;100 mA
22.1854589439871;0.299835205078125;0.00097869873046875;9.249999976646;926;100 mA
22.1954589439619;0.299896240234375;0.000977783203125;9.25999997662075;927;100 mA
22.2054589439366;0.29986572265625;0.000974426269531251;9.2699999765955;928;100 mA
22.2154589439114;0.29986572265625;0.0009735107421875;9.27999997657025;929;100 mA
22.2254589438861;0.299896240234375;0.000968322753906251;9.289999976545;930;100 mA
22.2354589438609;0.299896240234375;0.000969543457031249;9.29999997651976;931;100 mA
22.2454589438356;0.299896240234375;0.00096771240234375;9.30999997649451;932;100 mA
22.2554589438104;0.29986572265625;0.0009674072265625;9.31999997646926;933;100 mA
22.2654589437851;0.299835205078125;0.0009686279296875;9.32999997644401;934;100 mA
22.2754589437599;0.29986572265625;0.00097503662109375;9.33999997641877;935;100 mA
22.2854589437346;0.299835205078125;0.00097503662109375;9.34999997639352;936;100 mA
22.2954589437094;0.299896240234375;0.00097564697265625;9.35999997636827;937;100 mA
22.3054589436841;0.29986572265625;0.000975341796875;9.36999997634302;938;100 mA
22.3154589436589;0.299835205078125;0.00097869873046875;9.37999997631778;939;100 mA
22.3254589436336;0.2998046875;0.00097625732421875;9.38999997629253;940;100 mA
22.3354589436084;0.29986572265625;0.000977172851562499;9.39999997626728;941;100 mA
22.3454589435831;0.299896240234375;0.00097686767578125;9.40999997624203;942;100 mA
22.3554589435579;0.299835205078125;0.000975341796875;9.41999997621679;943;100 mA
22.3654589435326;0.29986572265625;0.000977172851562499;9.42999997619154;944;100 mA
22.3754589435074;0.299896240234375;0.000972595214843749;9.43999997616629;945;100 mA
22.3854589434821;0.2998046875;0.00097503662109375;9.44999997614104;946;100 mA
22.3954589434569;0.299835205078125;0.00097930908203125;9.4599999761158;947;100 mA
22.4054589434317;0.299896240234375;0.00097808837890625;9.46999997609055;948;100 mA
22.4154589434064;0.29986572265625;0.000977783203125;9.4799999760653;949;100 mA
22.4254589433812;0.299896240234375;0.00097625732421875;9.48999997604005;950;100 mA
22.4354589433559;0.29986572265625;0.000977172851562499;9.49999997601481;951;100 mA
22.4454589433307;0.29986572265625;0.0009722900390625;9.50999997598956;952;100 mA
22.4554589433054;0.299835205078125;0.00097076416015625;9.51999997596431;953;100 mA
22.4654589432802;0.2998046875;0.000971374511718751;9.52999997593906;954;100 mA
22.4754589432549;0.29986572265625;0.000969848632812501;9.53999997591382;955;100 mA
22.4854589432297;0.29986572265625;0.000971374511718751;9.54999997588857;956;100 mA
22.4954589432044;0.299835205078125;0.000969848632812501;9.55999997586332;957;100 mA
22.5054589431792;0.299835205078125;0.0009735107421875;9.56999997583807;958;100 mA
22.5154589431539;0.29986572265625;0.000977172851562499;9.57999997581283;959;100 mA
22.5254589431287;0.299835205078125;0.00097625732421875;9.58999997578758;960;100 mA
22.5354589431034;0.29986572265625;0.000977172851562499;9.59999997576233;961;100 mA
22.5454589430782;0.29986572265625;0.000975952148437501;9.60999997573708;962;100 mA
22.5554589430529;0.2998046875;0.00097808837890625;9.61999997571183;963;100 mA
22.5654589430277;0.29986572265625;0.00097625732421875;9.62999997568659;964;100 mA
22.5754589430024;0.29986572265625;0.000975952148437501;9.63999997566134;965;100 mA
22.5854589429772;0.299835205078125;0.000975952148437501;9.64999997563609;966;100 mA
22.595458942952;0.299896240234375;0.0009722900390625;9.65999997561084;967;100 mA
22.6054589429267;0.299835205078125;0.0009735107421875;9.6699999755856;968;100 mA
22.6154589429015;0.299835205078125;0.0009716796875;9.67999997556035;969;100 mA
22.6254589428762;0.29986572265625;0.0009735107421875;9.6899999755351;970;100 mA
22.635458942851;0.2999267578125;0.0009808349609375;9.69999997550985;971;100 mA
22.6454589428257;0.2998046875;0.000982055664062501;9.70999997548461;972;100 mA
22.6554589428005;0.2999267578125;0.000980529785156251;9.71999997545936;973;100 mA
22.6654589427752;0.29986572265625;0.000981750488281249;9.72999997543411;974;100 mA
22.67545894275;0.299835205078125;0.00098297119140625;9.73999997540886;975;100 mA
22.6854589427247;0.299835205078125;0.000983581542968751;9.74999997538362;976;100 mA
22.6954589426995;0.299835205078125;0.00098236083984375;9.75999997535837;977;100 mA
22.7054589426742;0.29986572265625;0.00098236083984375;9.76999997533312;978;100 mA
22.715458942649;0.299835205078125;0.0009814453125;9.77999997530787;979;100 mA
22.7254589426237;0.29986572265625;0.00097991943359375;9.78999997528263;980;100 mA
22.7354589425985;0.2999267578125;0.0009796142578125;9.79999997525738;981;100 mA
22.7454589425732;0.299896240234375;0.00097869873046875;9.80999997523213;982;100 mA
22.755458942548;0.29986572265625;0.000985107421875001;9.81999997520688;983;100 mA
22.7654589425227;0.2998046875;0.00098541259765625;9.82999997518164;984;100 mA
22.7754589424975;0.299896240234375;0.0009869384765625;9.83999997515639;985;100 mA
22.7854589424722;0.29986572265625;0.0009869384765625;9.84999997513114;986;100 mA
22.795458942447;0.29986572265625;0.000986328125;9.85999997510589;987;100 mA
22.8054589424218;0.299835205078125;0.000983581542968751;9.86999997508065;988;100 mA
22.8154589423965;0.299835205078125;0.000985107421875001;9.8799999750554;989;100 mA
22.8254589423713;0.2998046875;0.000980529785156251;9.88999997503015;990;100 mA
22.835458942346;0.29986572265625;0.0009814453125;9.8999999750049;991;100 mA
22.8454589423208;0.299896240234375;0.00097991943359375;9.90999997497966;992;100 mA
22.8554589422955;0.299896240234375;0.0009796142578125;9.91999997495441;993;100 mA
22.8654589422703;0.299835205078125;0.0009832763671875;9.92999997492916;994;100 mA
22.875458942245;0.299835205078125;0.000989990234375;9.93999997490391;995;100 mA
22.8854589422198;0.29986572265625;0.00098907470703125;9.94999997487866;996;100 mA
22.8954589421945;0.299835205078125;0.00098846435546875;9.95999997485342;997;100 mA
22.9054589421693;0.29986572265625;0.000987854003906249;9.96999997482817;998;100 mA
22.915458942144;0.2998046875;0.0009906005859375;9.97999997480292;999;100 mA
22.9254589421188;0.29986572265625;0.0009869384765625;9.98999997477767;1000;100 mA
