Time (s);WE(1).Potential (V);WE(1).Current (A);Corrected time (s);Index;Current range
23.4587399407724;0.199981689453125;-1.49536132812503E-05;0;1;100 mA
23.4687399407471;0.199981689453125;0.000301513671875001;0.00999999997475243;2;100 mA
23.4787399407219;0.200042724609375;0.00044677734375;0.0199999999495049;3;100 mA
23.4887399406966;0.20001220703125;0.00053131103515625;0.0299999999242573;4;100 mA
23.4987399406714;0.199951171875;0.00058563232421875;0.0399999998990097;5;100 mA
23.5087399406461;0.199981689453125;0.00062713623046875;0.0499999998737621;6;100 mA
23.5187399406209;0.199951171875;0.000652465820312501;0.0599999998485146;7;100 mA
23.5287399405956;0.20001220703125;0.000675354003906251;0.069999999823267;8;100 mA
23.5387399405704;0.20001220703125;0.000695190429687501;0.0799999997980194;9;100 mA
23.5487399405451;0.199920654296875;0.0007098388671875;0.0899999997727718;10;100 mA
23.5587399405199;0.20001220703125;0.00072357177734375;0.0999999997475243;11;100 mA
23.5687399404947;0.199951171875;0.000733337402343751;0.109999999722277;12;100 mA
23.5787399404694;0.199981689453125;0.00074493408203125;0.119999999697029;13;100 mA
23.5887399404442;0.199951171875;0.0007611083984375;0.129999999671782;14;100 mA
23.5987399404189;0.200042724609375;0.000766906738281251;0.139999999646534;15;100 mA
23.6087399403937;0.199951171875;0.0007757568359375;0.149999999621286;16;100 mA
23.6187399403684;0.20001220703125;0.0007781982421875;0.159999999596039;17;100 mA
23.6287399403432;0.199920654296875;0.000786437988281249;0.169999999570791;18;100 mA
23.6387399403179;0.199951171875;0.00078582763671875;0.179999999545544;19;100 mA
23.6487399402927;0.19989013671875;0.00078887939453125;0.189999999520296;20;100 mA
23.6587399402674;0.20001220703125;0.000794372558593751;0.199999999495049;21;100 mA
23.6687399402422;0.199981689453125;0.000795593261718749;0.209999999469801;22;100 mA
23.6787399402169;0.20001220703125;0.0008026123046875;0.219999999444553;23;100 mA
23.6887399401917;0.199981689453125;0.0008062744140625;0.229999999419306;24;100 mA
23.6987399401664;0.20001220703125;0.000808105468750001;0.239999999394058;25;100 mA
23.7087399401412;0.199951171875;0.000817260742187501;0.249999999368811;26;100 mA
23.7187399401159;0.20001220703125;0.00081634521484375;0.259999999343563;27;100 mA
23.7287399400907;0.20001220703125;0.00082122802734375;0.269999999318316;28;100 mA
23.7387399400654;0.199920654296875;0.000824584960937499;0.279999999293068;29;100 mA
23.7487399400402;0.199981689453125;0.0008270263671875;0.28999999926782;30;100 mA
23.7587399400149;0.20001220703125;0.000827636718749999;0.299999999242573;31;100 mA
23.7687399399897;0.199981689453125;0.0008251953125;0.309999999217325;32;100 mA
23.7787399399645;0.20001220703125;0.000827941894531251;0.319999999192078;33;100 mA
23.7887399399392;0.199981689453125;0.000826416015625001;0.32999999916683;34;100 mA
23.798739939914;0.199951171875;0.000827636718749999;0.339999999141583;35;100 mA
23.8087399398887;0.199981689453125;0.000824584960937499;0.349999999116335;36;100 mA
23.8187399398635;0.20001220703125;0.00082550048828125;0.359999999091087;37;100 mA
23.8287399398382;0.200042724609375;0.000834045410156251;0.36999999906584;38;100 mA
23.838739939813;0.199981689453125;0.0008319091796875;0.379999999040592;39;100 mA
23.8487399397877;0.199951171875;0.000833740234374999;0.389999999015345;40;100 mA
23.8587399397625;0.200042724609375;0.000834045410156251;0.399999998990097;41;100 mA
23.8687399397372;0.199951171875;0.00083160400390625;0.40999999896485;42;100 mA
23.878739939712;0.20001220703125;0.0008349609375;0.419999998939602;43;100 mA
23.8887399396867;0.20001220703125;0.000834045410156251;0.429999998914354;44;100 mA
23.8987399396615;0.20001220703125;0.000834045410156251;0.439999998889107;45;100 mA
23.9087399396362;0.199951171875;0.00083465576171875;0.449999998863859;46;100 mA
23.918739939611;0.199920654296875;0.000835266113281249;0.459999998838612;47;100 mA
23.9287399395857;0.199981689453125;0.000835266113281249;0.469999998813364;48;100 mA
23.9387399395605;0.199981689453125;0.0008349609375;0.479999998788116;49;100 mA
23.9487399395352;0.20001220703125;0.000841369628906249;0.489999998762869;50;100 mA
23.95873993951;0.199981689453125;0.000841064453125;0.499999998737621;51;100 mA
23.9687399394847;0.199981689453125;0.00084442138671875;0.509999998712374;52;100 mA
23.9787399394595;0.199951171875;0.0008441162109375;0.519999998687126;53;100 mA
23.9887399394343;0.199951171875;0.000846252441406251;0.529999998661879;54;100 mA
23.998739939409;0.200042724609375;0.000843505859375;0.539999998636631;55;100 mA
24.0087399393838;0.199981689453125;0.000843505859375;0.549999998611383;56;100 mA
24.0187399393585;0.199981689453125;0.0008441162109375;0.559999998586136;57;100 mA
24.0287399393333;0.199981689453125;0.000845947265625;0.569999998560888;58;100 mA
24.038739939308;0.199920654296875;0.00084869384765625;0.579999998535641;59;100 mA
24.0487399392828;0.199951171875;0.0008502197265625;0.589999998510393;60;100 mA
24.0587399392575;0.199981689453125;0.00085418701171875;0.599999998485146;61;100 mA
24.0687399392323;0.20001220703125;0.0008612060546875;0.609999998459898;62;100 mA
24.078739939207;0.199920654296875;0.0008636474609375;0.61999999843465;63;100 mA
24.0887399391818;0.199981689453125;0.0008636474609375;0.629999998409403;64;100 mA
24.0987399391565;0.199951171875;0.00086334228515625;0.639999998384155;65;100 mA
24.1087399391313;0.199981689453125;0.0008673095703125;0.649999998358908;66;100 mA
24.118739939106;0.20001220703125;0.00086334228515625;0.65999999833366;67;100 mA
24.1287399390808;0.200042724609375;0.00086395263671875;0.669999998308413;68;100 mA
24.1387399390555;0.20001220703125;0.00086517333984375;0.679999998283165;69;100 mA
24.1487399390303;0.20001220703125;0.0008624267578125;0.689999998257917;70;100 mA
24.158739939005;0.20001220703125;0.000864562988281251;0.69999999823267;71;100 mA
24.1687399389798;0.20001220703125;0.0008624267578125;0.709999998207422;72;100 mA
24.1787399389545;0.199981689453125;0.000864257812499999;0.719999998182175;73;100 mA
24.1887399389293;0.199981689453125;0.000870361328124999;0.729999998156927;74;100 mA
24.1987399389041;0.199981689453125;0.00086822509765625;0.73999999813168;75;100 mA
24.2087399388788;0.199951171875;0.00086944580078125;0.749999998106432;76;100 mA
24.2187399388536;0.199981689453125;0.00086639404296875;0.759999998081184;77;100 mA
24.2287399388283;0.199981689453125;0.00086883544921875;0.769999998055937;78;100 mA
24.2387399388031;0.20001220703125;0.000865478515625;0.779999998030689;79;100 mA
24.2487399387778;0.199981689453125;0.0008624267578125;0.789999998005442;80;100 mA
24.2587399387526;0.199981689453125;0.000865783691406249;0.799999997980194;81;100 mA
24.2687399387273;0.200042724609375;0.000865783691406249;0.809999997954947;82;100 mA
24.2787399387021;0.20001220703125;0.00087005615234375;0.819999997929699;83;100 mA
24.2887399386768;0.199951171875;0.0008697509765625;0.829999997904451;84;100 mA
24.2987399386516;0.199981689453125;0.00087005615234375;0.839999997879204;85;100 mA
24.3087399386263;0.200042724609375;0.000877990722656249;0.849999997853956;86;100 mA
24.3187399386011;0.199951171875;0.000873718261718751;0.859999997828709;87;100 mA
24.3287399385758;0.199981689453125;0.000878295898437501;0.869999997803461;88;100 mA
24.3387399385506;0.20001220703125;0.00087738037109375;0.879999997778214;89;100 mA
24.3487399385253;0.199951171875;0.0008770751953125;0.889999997752966;90;100 mA
24.3587399385001;0.20001220703125;0.00087493896484375;0.899999997727718;91;100 mA
24.3687399384748;0.200042724609375;0.000870666503906251;0.909999997702471;92;100 mA
24.3787399384496;0.199981689453125;0.00087249755859375;0.919999997677223;93;100 mA
24.3887399384244;0.199981689453125;0.00086944580078125;0.929999997651976;94;100 mA
24.3987399383991;0.20001220703125;0.000870361328124999;0.939999997626728;95;100 mA
24.4087399383739;0.20001220703125;0.000870666503906251;0.949999997601481;96;100 mA
24.4187399383486;0.20001220703125;0.0008709716796875;0.959999997576233;97;100 mA
24.4287399383234;0.199920654296875;0.000880126953125;0.969999997550985;98;100 mA
24.4387399382981;0.199920654296875;0.00087646484375;0.979999997525738;99;100 mA
24.4487399382729;0.199951171875;0.000877990722656249;0.98999999750049;100;100 mA
24.4587399382476;0.199981689453125;0.000877685546875;0.999999997475243;101;100 mA
24.4687399382224;0.200042724609375;0.00087554931640625;1.00999999745;102;100 mA
24.4787399381971;0.199981689453125;0.00087554931640625;1.01999999742475;103;100 mA
24.4887399381719;0.20001220703125;0.0008746337890625;1.0299999973995;104;100 mA
24.4987399381466;0.20001220703125;0.00087493896484375;1.03999999737425;105;100 mA
24.5087399381214;0.199981689453125;0.0008740234375;1.049999997349;106;100 mA
24.5187399380961;0.199920654296875;0.00087249755859375;1.05999999732376;107;100 mA
24.5287399380709;0.199981689453125;0.00087158203125;1.06999999729851;108;100 mA
24.5387399380456;0.20001220703125;0.00087127685546875;1.07999999727326;109;100 mA
24.5487399380204;0.199951171875;0.000877990722656249;1.08999999724801;110;100 mA
24.5587399379951;0.199920654296875;0.00087554931640625;1.09999999722277;111;100 mA
24.5687399379699;0.199951171875;0.00087738037109375;1.10999999719752;112;100 mA
24.5787399379446;0.199951171875;0.00087738037109375;1.11999999717227;113;100 mA
24.5887399379194;0.20001220703125;0.00087738037109375;1.12999999714702;114;100 mA
24.5987399378942;0.20001220703125;0.00087432861328125;1.13999999712178;115;100 mA
24.6087399378689;0.200042724609375;0.0008740234375;1.14999999709653;116;100 mA
24.6187399378437;0.199951171875;0.000873413085937499;1.15999999707128;117;100 mA
24.6287399378184;0.20001220703125;0.000872802734375;1.16999999704603;118;100 mA
24.6387399377932;0.199981689453125;0.000873718261718751;1.17999999702079;119;100 mA
24.6487399377679;0.199981689453125;0.00087310791015625;1.18999999699554;120;100 mA
24.6587399377427;0.199981689453125;0.00087615966796875;1.19999999697029;121;100 mA
24.6687399377174;0.20001220703125;0.000880126953125;1.20999999694504;122;100 mA
24.6787399376922;0.20001220703125;0.000879516601562499;1.2199999969198;123;100 mA
24.6887399376669;0.199981689453125;0.00087921142578125;1.22999999689455;124;100 mA
24.6987399376417;0.20001220703125;0.000876770019531251;1.2399999968693;125;100 mA
24.7087399376164;0.20001220703125;0.000879821777343751;1.24999999684405;126;100 mA
24.7187399375912;0.199981689453125;0.0008740234375;1.25999999681881;127;100 mA
24.7287399375659;0.20001220703125;0.00087554931640625;1.26999999679356;128;100 mA
24.7387399375407;0.199981689453125;0.00087554931640625;1.27999999676831;129;100 mA
24.7487399375154;0.199981689453125;0.0008746337890625;1.28999999674306;130;100 mA
24.7587399374902;0.199981689453125;0.00087493896484375;1.29999999671782;131;100 mA
24.7687399374649;0.199981689453125;0.000873413085937499;1.30999999669257;132;100 mA
24.7787399374397;0.199981689453125;0.0008758544921875;1.31999999666732;133;100 mA
24.7887399374144;0.199981689453125;0.0008837890625;1.32999999664207;134;100 mA
24.7987399373892;0.199981689453125;0.000881347656250001;1.33999999661683;135;100 mA
24.808739937364;0.199981689453125;0.00088409423828125;1.34999999659158;136;100 mA
24.8187399373387;0.199981689453125;0.000880126953125;1.35999999656633;137;100 mA
24.8287399373135;0.199981689453125;0.0008831787109375;1.36999999654108;138;100 mA
24.8387399372882;0.20001220703125;0.000878295898437501;1.37999999651583;139;100 mA
24.848739937263;0.200042724609375;0.0008770751953125;1.38999999649059;140;100 mA
24.8587399372377;0.199951171875;0.000879516601562499;1.39999999646534;141;100 mA
24.8687399372125;0.199920654296875;0.000878295898437501;1.40999999644009;142;100 mA
24.8787399371872;0.20001220703125;0.000881042480468749;1.41999999641484;143;100 mA
24.888739937162;0.199981689453125;0.0008807373046875;1.4299999963896;144;100 mA
24.8987399371367;0.199951171875;0.000881347656250001;1.43999999636435;145;100 mA
24.9087399371115;0.199981689453125;0.000888977050781251;1.4499999963391;146;100 mA
24.9187399370862;0.199981689453125;0.00088531494140625;1.45999999631385;147;100 mA
24.928739937061;0.199981689453125;0.00088958740234375;1.46999999628861;148;100 mA
24.9387399370357;0.199981689453125;0.00088958740234375;1.47999999626336;149;100 mA
24.9487399370105;0.199981689453125;0.000890502929687501;1.48999999623811;150;100 mA
24.9587399369852;0.199951171875;0.00088836669921875;1.49999999621286;151;100 mA
24.96873993696;0.199981689453125;0.000885620117187499;1.50999999618762;152;100 mA
24.9787399369347;0.20001220703125;0.00088409423828125;1.51999999616237;153;100 mA
24.9887399369095;0.2000732421875;0.000881042480468749;1.52999999613712;154;100 mA
24.9987399368842;0.199981689453125;0.00088226318359375;1.53999999611187;155;100 mA
25.008739936859;0.200042724609375;0.000881042480468749;1.54999999608663;156;100 mA
25.0187399368338;0.20001220703125;0.000881347656250001;1.55999999606138;157;100 mA
25.0287399368085;0.199981689453125;0.00089263916015625;1.56999999603613;158;100 mA
25.0387399367833;0.20001220703125;0.0008880615234375;1.57999999601088;159;100 mA
25.048739936758;0.199951171875;0.0008917236328125;1.58999999598564;160;100 mA
25.0587399367328;0.199951171875;0.00089019775390625;1.59999999596039;161;100 mA
25.0687399367075;0.20001220703125;0.000888671874999999;1.60999999593514;162;100 mA
25.0787399366823;0.199981689453125;0.00089080810546875;1.61999999590989;163;100 mA
25.088739936657;0.200042724609375;0.00088958740234375;1.62999999588465;164;100 mA
25.0987399366318;0.199981689453125;0.0008880615234375;1.6399999958594;165;100 mA
25.1087399366065;0.199981689453125;0.000885009765625;1.64999999583415;166;100 mA
25.1187399365813;0.199951171875;0.0008831787109375;1.6599999958089;167;100 mA
25.128739936556;0.200042724609375;0.000879516601562499;1.66999999578366;168;100 mA
25.1387399365308;0.199951171875;0.000877685546875;1.67999999575841;169;100 mA
25.1487399365055;0.199981689453125;0.0008831787109375;1.68999999573316;170;100 mA
25.1587399364803;0.199981689453125;0.000877990722656249;1.69999999570791;171;100 mA
25.168739936455;0.200042724609375;0.00087921142578125;1.70999999568267;172;100 mA
25.1787399364298;0.20001220703125;0.00087738037109375;1.71999999565742;173;100 mA
25.1887399364045;0.199951171875;0.00087646484375;1.72999999563217;174;100 mA
25.1987399363793;0.20001220703125;0.000872192382812501;1.73999999560692;175;100 mA
25.208739936354;0.20001220703125;0.00087005615234375;1.74999999558167;176;100 mA
25.2187399363288;0.20001220703125;0.000867919921875;1.75999999555643;177;100 mA
25.2287399363036;0.20001220703125;0.0008673095703125;1.76999999553118;178;100 mA
25.2387399362783;0.20001220703125;0.00086669921875;1.77999999550593;179;100 mA
25.2487399362531;0.199981689453125;0.00086517333984375;1.78999999548068;180;100 mA
25.2587399362278;0.199951171875;0.000867614746093751;1.79999999545544;181;100 mA
25.2687399362026;0.199981689453125;0.0008709716796875;1.80999999543019;182;100 mA
25.2787399361773;0.199981689453125;0.00087005615234375;1.81999999540494;183;100 mA
25.2887399361521;0.199920654296875;0.000869140625000001;1.82999999537969;184;100 mA
25.2987399361268;0.20001220703125;0.000867614746093751;1.83999999535445;185;100 mA
25.3087399361016;0.20001220703125;0.000872802734375;1.8499999953292;186;100 mA
25.3187399360763;0.199951171875;0.00086639404296875;1.85999999530395;187;100 mA
25.3287399360511;0.19989013671875;0.00086822509765625;1.8699999952787;188;100 mA
25.3387399360258;0.199981689453125;0.000865783691406249;1.87999999525346;189;100 mA
25.3487399360006;0.199981689453125;0.000863037109375001;1.88999999522821;190;100 mA
25.3587399359753;0.199951171875;0.000864257812499999;1.89999999520296;191;100 mA
25.3687399359501;0.20001220703125;0.000862731933593749;1.90999999517771;192;100 mA
25.3787399359248;0.20001220703125;0.00086395263671875;1.91999999515247;193;100 mA
25.3887399358996;0.199951171875;0.0008709716796875;1.92999999512722;194;100 mA
25.3987399358743;0.200042724609375;0.00086883544921875;1.93999999510197;195;100 mA
25.4087399358491;0.199951171875;0.0008709716796875;1.94999999507672;196;100 mA
25.4187399358239;0.20001220703125;0.000867614746093751;1.95999999505148;197;100 mA
25.4287399357986;0.199951171875;0.0008697509765625;1.96999999502623;198;100 mA
25.4387399357734;0.199951171875;0.000865783691406249;1.97999999500098;199;100 mA
25.4487399357481;0.199981689453125;0.000864257812499999;1.98999999497573;200;100 mA
25.4587399357229;0.20001220703125;0.00086334228515625;1.99999999495049;201;100 mA
25.4687399356976;0.199920654296875;0.00086029052734375;2.00999999492524;202;100 mA
25.4787399356724;0.20001220703125;0.00086212158203125;2.01999999489999;203;100 mA
25.4887399356471;0.199951171875;0.00086090087890625;2.02999999487474;204;100 mA
25.4987399356219;0.199981689453125;0.00085968017578125;2.0399999948495;205;100 mA
25.5087399355966;0.199951171875;0.00086639404296875;2.04999999482425;206;100 mA
25.5187399355714;0.199951171875;0.00086395263671875;2.059999994799;207;100 mA
25.5287399355461;0.199981689453125;0.00086669921875;2.06999999477375;208;100 mA
25.5387399355209;0.20001220703125;0.000865783691406249;2.0799999947485;209;100 mA
25.5487399354956;0.20001220703125;0.0008685302734375;2.08999999472326;210;100 mA
25.5587399354704;0.199951171875;0.00086669921875;2.09999999469801;211;100 mA
25.5687399354451;0.199951171875;0.00086669921875;2.10999999467276;212;100 mA
25.5787399354199;0.199981689453125;0.0008648681640625;2.11999999464751;213;100 mA
25.5887399353946;0.199951171875;0.00086181640625;2.12999999462227;214;100 mA
25.5987399353694;0.199920654296875;0.00086395263671875;2.13999999459702;215;100 mA
25.6087399353441;0.199981689453125;0.00086212158203125;2.14999999457177;216;100 mA
25.6187399353189;0.20001220703125;0.00086212158203125;2.15999999454652;217;100 mA
25.6287399352937;0.199951171875;0.00087158203125;2.16999999452128;218;100 mA
25.6387399352684;0.199951171875;0.000866088867187501;2.17999999449603;219;100 mA
25.6487399352432;0.20001220703125;0.0008685302734375;2.18999999447078;220;100 mA
25.6587399352179;0.199951171875;0.000865783691406249;2.19999999444553;221;100 mA
25.6687399351927;0.199951171875;0.000866088867187501;2.20999999442029;222;100 mA
25.6787399351674;0.199981689453125;0.000867614746093751;2.21999999439504;223;100 mA
25.6887399351422;0.199920654296875;0.00086669921875;2.22999999436979;224;100 mA
25.6987399351169;0.20001220703125;0.00086669921875;2.23999999434454;225;100 mA
25.7087399350917;0.199981689453125;0.00086517333984375;2.2499999943193;226;100 mA
25.7187399350664;0.199981689453125;0.0008648681640625;2.25999999429405;227;100 mA
25.7287399350412;0.20001220703125;0.000865478515625;2.2699999942688;228;100 mA
25.7387399350159;0.199981689453125;0.0008648681640625;2.27999999424355;229;100 mA
25.7487399349907;0.20001220703125;0.00087127685546875;2.28999999421831;230;100 mA
25.7587399349654;0.199951171875;0.000870666503906251;2.29999999419306;231;100 mA
25.7687399349402;0.20001220703125;0.000872192382812501;2.30999999416781;232;100 mA
25.7787399349149;0.199981689453125;0.00087158203125;2.31999999414256;233;100 mA
25.7887399348897;0.20001220703125;0.000873413085937499;2.32999999411732;234;100 mA
25.7987399348644;0.199981689453125;0.00086944580078125;2.33999999409207;235;100 mA
25.8087399348392;0.199981689453125;0.000869140625000001;2.34999999406682;236;100 mA
25.8187399348139;0.199951171875;0.00086883544921875;2.35999999404157;237;100 mA
25.8287399347887;0.20001220703125;0.00086700439453125;2.36999999401633;238;100 mA
25.8387399347635;0.20001220703125;0.00086639404296875;2.37999999399108;239;100 mA
25.8487399347382;0.199981689453125;0.00086639404296875;2.38999999396583;240;100 mA
25.858739934713;0.199981689453125;0.00086883544921875;2.39999999394058;241;100 mA
25.8687399346877;0.20001220703125;0.00087158203125;2.40999999391533;242;100 mA
25.8787399346625;0.199981689453125;0.000872192382812501;2.41999999389009;243;100 mA
25.8887399346372;0.20001220703125;0.00087249755859375;2.42999999386484;244;100 mA
25.898739934612;0.20001220703125;0.00087127685546875;2.43999999383959;245;100 mA
25.9087399345867;0.199981689453125;0.0008770751953125;2.44999999381434;246;100 mA
25.9187399345615;0.199981689453125;0.00087493896484375;2.4599999937891;247;100 mA
25.9287399345362;0.199920654296875;0.000877990722656249;2.46999999376385;248;100 mA
25.938739934511;0.199981689453125;0.0008770751953125;2.4799999937386;249;100 mA
25.9487399344857;0.199951171875;0.00087554931640625;2.48999999371335;250;100 mA
25.9587399344605;0.20001220703125;0.00087860107421875;2.49999999368811;251;100 mA
25.9687399344352;0.20001220703125;0.00087890625;2.50999999366286;252;100 mA
25.97873993441;0.199951171875;0.000881042480468749;2.51999999363761;253;100 mA
25.9887399343847;0.199981689453125;0.000885620117187499;2.52999999361236;254;100 mA
25.9987399343595;0.199981689453125;0.000887145996093749;2.53999999358712;255;100 mA
26.0087399343342;0.199920654296875;0.0008892822265625;2.54999999356187;256;100 mA
26.018739934309;0.20001220703125;0.000887145996093749;2.55999999353662;257;100 mA
26.0287399342837;0.199981689453125;0.00089019775390625;2.56999999351137;258;100 mA
26.0387399342585;0.199981689453125;0.00088653564453125;2.57999999348613;259;100 mA
26.0487399342333;0.199951171875;0.0008880615234375;2.58999999346088;260;100 mA
26.058739934208;0.20001220703125;0.000888977050781251;2.59999999343563;261;100 mA
26.0687399341828;0.199981689453125;0.00088775634765625;2.60999999341038;262;100 mA
26.0787399341575;0.199981689453125;0.00089111328125;2.61999999338514;263;100 mA
26.0887399341323;0.199981689453125;0.000888671874999999;2.62999999335989;264;100 mA
26.098739934107;0.199981689453125;0.00088775634765625;2.63999999333464;265;100 mA
26.1087399340818;0.199981689453125;0.000893249511718749;2.64999999330939;266;100 mA
26.1187399340565;0.20001220703125;0.000889892578125;2.65999999328415;267;100 mA
26.1287399340313;0.199981689453125;0.00089447021484375;2.6699999932589;268;100 mA
26.138739934006;0.199951171875;0.0008929443359375;2.67999999323365;269;100 mA
26.1487399339808;0.199981689453125;0.000894775390624999;2.6899999932084;270;100 mA
26.1587399339555;0.20001220703125;0.000893554687500001;2.69999999318316;271;100 mA
26.1687399339303;0.199920654296875;0.00089385986328125;2.70999999315791;272;100 mA
26.178739933905;0.199951171875;0.000893554687500001;2.71999999313266;273;100 mA
26.1887399338798;0.199981689453125;0.000890502929687501;2.72999999310741;274;100 mA
26.1987399338545;0.199981689453125;0.000892028808593751;2.73999999308217;275;100 mA
26.2087399338293;0.199981689453125;0.00089019775390625;2.74999999305692;276;100 mA
26.218739933804;0.199981689453125;0.0008880615234375;2.75999999303167;277;100 mA
26.2287399337788;0.200042724609375;0.0008941650390625;2.76999999300642;278;100 mA
26.2387399337535;0.20001220703125;0.0008880615234375;2.77999999298117;279;100 mA
26.2487399337283;0.199951171875;0.00088775634765625;2.78999999295593;280;100 mA
26.2587399337031;0.199981689453125;0.000885925292968751;2.79999999293068;281;100 mA
26.2687399336778;0.20001220703125;0.00088531494140625;2.80999999290543;282;100 mA
26.2787399336526;0.199981689453125;0.0008831787109375;2.81999999288018;283;100 mA
26.2887399336273;0.199951171875;0.00088226318359375;2.82999999285494;284;100 mA
26.2987399336021;0.199981689453125;0.0008831787109375;2.83999999282969;285;100 mA
26.3087399335768;0.199981689453125;0.0008819580078125;2.84999999280444;286;100 mA
26.3187399335516;0.20001220703125;0.000881347656250001;2.85999999277919;287;100 mA
26.3287399335263;0.199981689453125;0.00088043212890625;2.86999999275395;288;100 mA
26.3387399335011;0.199981689453125;0.00087738037109375;2.8799999927287;289;100 mA
26.3487399334758;0.20001220703125;0.0008819580078125;2.88999999270345;290;100 mA
26.3587399334506;0.199920654296875;0.000881042480468749;2.8999999926782;291;100 mA
26.3687399334253;0.199920654296875;0.0008807373046875;2.90999999265296;292;100 mA
26.3787399334001;0.199920654296875;0.000880126953125;2.91999999262771;293;100 mA
26.3887399333748;0.199981689453125;0.000879821777343751;2.92999999260246;294;100 mA
26.3987399333496;0.199951171875;0.00087615966796875;2.93999999257721;295;100 mA
26.4087399333243;0.1998291015625;0.0008758544921875;2.94999999255197;296;100 mA
26.4187399332991;0.199981689453125;0.0008758544921875;2.95999999252672;297;100 mA
26.4287399332738;0.199981689453125;0.0008758544921875;2.96999999250147;298;100 mA
26.4387399332486;0.199981689453125;0.0008758544921875;2.97999999247622;299;100 mA
26.4487399332234;0.20001220703125;0.00087646484375;2.98999999245098;300;100 mA
26.4587399331981;0.199981689453125;0.000877685546875;2.99999999242573;301;100 mA
26.4687399331729;0.200042724609375;0.0008807373046875;3.00999999240048;302;100 mA
26.4787399331476;0.20001220703125;0.0008819580078125;3.01999999237523;303;100 mA
26.4887399331224;0.20001220703125;0.000880126953125;3.02999999234999;304;100 mA
26.4987399330971;0.199951171875;0.000879516601562499;3.03999999232474;305;100 mA
26.5087399330719;0.199981689453125;0.0008831787109375;3.04999999229949;306;100 mA
26.5187399330466;0.199951171875;0.000879516601562499;3.05999999227424;307;100 mA
26.5287399330214;0.20001220703125;0.000878295898437501;3.069999992249;308;100 mA
26.5387399329961;0.199981689453125;0.00087921142578125;3.07999999222375;309;100 mA
26.5487399329709;0.199951171875;0.00087646484375;3.0899999921985;310;100 mA
26.5587399329456;0.199951171875;0.000877685546875;3.09999999217325;311;100 mA
26.5687399329204;0.20001220703125;0.0008770751953125;3.109999992148;312;100 mA
26.5787399328951;0.20001220703125;0.000880126953125;3.11999999212276;313;100 mA
26.5887399328699;0.200042724609375;0.000884399414062501;3.12999999209751;314;100 mA
26.5987399328446;0.20001220703125;0.000884399414062501;3.13999999207226;315;100 mA
26.6087399328194;0.200042724609375;0.000885009765625;3.14999999204701;316;100 mA
26.6187399327941;0.199951171875;0.00088165283203125;3.15999999202177;317;100 mA
26.6287399327689;0.199951171875;0.0008831787109375;3.16999999199652;318;100 mA
26.6387399327436;0.20001220703125;0.000880126953125;3.17999999197127;319;100 mA
26.6487399327184;0.199981689453125;0.00087860107421875;3.18999999194602;320;100 mA
26.6587399326932;0.199981689453125;0.000880126953125;3.19999999192078;321;100 mA
26.6687399326679;0.199951171875;0.00087860107421875;3.20999999189553;322;100 mA
26.6787399326427;0.200042724609375;0.00088165283203125;3.21999999187028;323;100 mA
26.6887399326174;0.199951171875;0.000878295898437501;3.22999999184503;324;100 mA
26.6987399325922;0.20001220703125;0.00087860107421875;3.23999999181979;325;100 mA
26.7087399325669;0.199981689453125;0.00088531494140625;3.24999999179454;326;100 mA
26.7187399325417;0.199951171875;0.00088348388671875;3.25999999176929;327;100 mA
26.7287399325164;0.199951171875;0.00088653564453125;3.26999999174404;328;100 mA
26.7387399324912;0.199981689453125;0.000882568359375;3.2799999917188;329;100 mA
26.7487399324659;0.199981689453125;0.00088409423828125;3.28999999169355;330;100 mA
26.7587399324407;0.199981689453125;0.00087921142578125;3.2999999916683;331;100 mA
26.7687399324154;0.199951171875;0.000878295898437501;3.30999999164305;332;100 mA
26.7787399323902;0.199981689453125;0.00087890625;3.31999999161781;333;100 mA
26.7887399323649;0.199981689453125;0.00087554931640625;3.32999999159256;334;100 mA
26.7987399323397;0.199981689453125;0.000878295898437501;3.33999999156731;335;100 mA
26.8087399323144;0.199981689453125;0.00087890625;3.34999999154206;336;100 mA
26.8187399322892;0.199951171875;0.000879821777343751;3.35999999151682;337;100 mA
26.8287399322639;0.199981689453125;0.0008868408203125;3.36999999149157;338;100 mA
26.8387399322387;0.20001220703125;0.000882568359375;3.37999999146632;339;100 mA
26.8487399322134;0.199981689453125;0.000882568359375;3.38999999144107;340;100 mA
26.8587399321882;0.199951171875;0.000880126953125;3.39999999141583;341;100 mA
26.868739932163;0.20001220703125;0.00087860107421875;3.40999999139058;342;100 mA
26.8787399321377;0.20001220703125;0.00087738037109375;3.41999999136533;343;100 mA
26.8887399321125;0.20001220703125;0.000873413085937499;3.42999999134008;344;100 mA
26.8987399320872;0.199951171875;0.000875244140625001;3.43999999131483;345;100 mA
26.908739932062;0.199920654296875;0.00087249755859375;3.44999999128959;346;100 mA
26.9187399320367;0.199951171875;0.00087249755859375;3.45999999126434;347;100 mA
26.9287399320115;0.199951171875;0.000870666503906251;3.46999999123909;348;100 mA
26.9387399319862;0.199981689453125;0.00086883544921875;3.47999999121384;349;100 mA
26.948739931961;0.200103759765625;0.000873718261718751;3.4899999911886;350;100 mA
26.9587399319357;0.199981689453125;0.00087432861328125;3.49999999116335;351;100 mA
26.9687399319105;0.200042724609375;0.00087432861328125;3.5099999911381;352;100 mA
26.9787399318852;0.199951171875;0.00087493896484375;3.51999999111285;353;100 mA
26.98873993186;0.199981689453125;0.00087158203125;3.52999999108761;354;100 mA
26.9987399318347;0.199981689453125;0.00086822509765625;3.53999999106236;355;100 mA
27.0087399318095;0.20001220703125;0.000865783691406249;3.54999999103711;356;100 mA
27.0187399317842;0.20001220703125;0.000867614746093751;3.55999999101186;357;100 mA
27.028739931759;0.199951171875;0.00086639404296875;3.56999999098662;358;100 mA
27.0387399317337;0.20001220703125;0.00086517333984375;3.57999999096137;359;100 mA
27.0487399317085;0.20001220703125;0.00086700439453125;3.58999999093612;360;100 mA
27.0587399316832;0.199981689453125;0.00086822509765625;3.59999999091087;361;100 mA
27.068739931658;0.20001220703125;0.00087127685546875;3.60999999088563;362;100 mA
27.0787399316328;0.199981689453125;0.000872192382812501;3.61999999086038;363;100 mA
27.0887399316075;0.200042724609375;0.00087005615234375;3.62999999083513;364;100 mA
27.0987399315823;0.199920654296875;0.0008697509765625;3.63999999080988;365;100 mA
27.108739931557;0.20001220703125;0.0008709716796875;3.64999999078464;366;100 mA
27.1187399315318;0.20001220703125;0.000867614746093751;3.65999999075939;367;100 mA
27.1287399315065;0.20001220703125;0.000866088867187501;3.66999999073414;368;100 mA
27.1387399314813;0.20001220703125;0.0008648681640625;3.67999999070889;369;100 mA
27.148739931456;0.199981689453125;0.00086334228515625;3.68999999068365;370;100 mA
27.1587399314308;0.20001220703125;0.00086334228515625;3.6999999906584;371;100 mA
27.1687399314055;0.20001220703125;0.00086181640625;3.70999999063315;372;100 mA
27.1787399313803;0.199981689453125;0.0008648681640625;3.7199999906079;373;100 mA
27.188739931355;0.199981689453125;0.00087005615234375;3.72999999058266;374;100 mA
27.1987399313298;0.199951171875;0.000870361328124999;3.73999999055741;375;100 mA
27.2087399313045;0.199981689453125;0.000870361328124999;3.74999999053216;376;100 mA
27.2187399312793;0.199951171875;0.0008673095703125;3.75999999050691;377;100 mA
27.228739931254;0.199981689453125;0.000867614746093751;3.76999999048167;378;100 mA
27.2387399312288;0.199981689453125;0.0008636474609375;3.77999999045642;379;100 mA
27.2487399312035;0.20001220703125;0.000862731933593749;3.78999999043117;380;100 mA
27.2587399311783;0.199981689453125;0.000862731933593749;3.79999999040592;381;100 mA
27.268739931153;0.199981689453125;0.00086090087890625;3.80999999038067;382;100 mA
27.2787399311278;0.199981689453125;0.00086212158203125;3.81999999035543;383;100 mA
27.2887399311026;0.199981689453125;0.000858459472656251;3.82999999033018;384;100 mA
27.2987399310773;0.199981689453125;0.00085906982421875;3.83999999030493;385;100 mA
27.3087399310521;0.199981689453125;0.0008673095703125;3.84999999027968;386;100 mA
27.3187399310268;0.199981689453125;0.000864562988281251;3.85999999025444;387;100 mA
27.3287399310016;0.199951171875;0.0008685302734375;3.86999999022919;388;100 mA
27.3387399309763;0.199981689453125;0.00086395263671875;3.87999999020394;389;100 mA
27.3487399309511;0.199951171875;0.000865783691406249;3.88999999017869;390;100 mA
27.3587399309258;0.19989013671875;0.00086334228515625;3.89999999015345;391;100 mA
27.3687399309006;0.200042724609375;0.0008612060546875;3.9099999901282;392;100 mA
27.3787399308753;0.199951171875;0.000860595703125;3.91999999010295;393;100 mA
27.3887399308501;0.199981689453125;0.000858154296874999;3.9299999900777;394;100 mA
27.3987399308248;0.20001220703125;0.000858154296874999;3.93999999005246;395;100 mA
27.4087399307996;0.199981689453125;0.000859375;3.94999999002721;396;100 mA
27.4187399307743;0.20001220703125;0.00085968017578125;3.95999999000196;397;100 mA
27.4287399307491;0.200042724609375;0.000867614746093751;3.96999998997671;398;100 mA
27.4387399307238;0.20001220703125;0.000863037109375001;3.97999998995147;399;100 mA
27.4487399306986;0.199981689453125;0.0008624267578125;3.98999998992622;400;100 mA
27.4587399306733;0.199981689453125;0.000860595703125;3.99999998990097;401;100 mA
27.4687399306481;0.20001220703125;0.000860595703125;4.00999998987572;402;100 mA
27.4787399306229;0.199951171875;0.0008575439453125;4.01999998985048;403;100 mA
27.4887399305976;0.20001220703125;0.000855102539062499;4.02999998982523;404;100 mA
27.4987399305724;0.200042724609375;0.00085601806640625;4.03999998979998;405;100 mA
27.5087399305471;0.199920654296875;0.0008544921875;4.04999998977473;406;100 mA
27.5187399305219;0.199981689453125;0.000853881835937501;4.05999998974949;407;100 mA
27.5287399304966;0.20001220703125;0.00085296630859375;4.06999998972424;408;100 mA
27.5387399304714;0.20001220703125;0.00085205078125;4.07999998969899;409;100 mA
27.5487399304461;0.199951171875;0.00085784912109375;4.08999998967374;410;100 mA
27.5587399304209;0.199951171875;0.000856933593750001;4.0999999896485;411;100 mA
27.5687399303956;0.199981689453125;0.000856933593750001;4.10999998962325;412;100 mA
27.5787399303704;0.199951171875;0.0008563232421875;4.119999989598;413;100 mA
27.5887399303451;0.2000732421875;0.00085357666015625;4.12999998957275;414;100 mA
27.5987399303199;0.199920654296875;0.000850830078125001;4.1399999895475;415;100 mA
27.6087399302946;0.200042724609375;0.00084716796875;4.14999998952226;416;100 mA
27.6187399302694;0.199920654296875;0.000849609375;4.15999998949701;417;100 mA
27.6287399302441;0.20001220703125;0.000848999023437499;4.16999998947176;418;100 mA
27.6387399302189;0.199981689453125;0.000847473144531249;4.17999998944651;419;100 mA
27.6487399301936;0.199951171875;0.00085174560546875;4.18999998942127;420;100 mA
27.6587399301684;0.20001220703125;0.00085205078125;4.19999998939602;421;100 mA
27.6687399301431;0.199951171875;0.000855712890625;4.20999998937077;422;100 mA
27.6787399301179;0.199951171875;0.000855407714843751;4.21999998934552;423;100 mA
27.6887399300927;0.199981689453125;0.000853881835937501;4.22999998932028;424;100 mA
27.6987399300674;0.20001220703125;0.000855407714843751;4.23999998929503;425;100 mA
27.7087399300422;0.20001220703125;0.000856628417968749;4.24999998926978;426;100 mA
27.7187399300169;0.20001220703125;0.000853271484375;4.25999998924453;427;100 mA
27.7287399299917;0.20001220703125;0.000853271484375;4.26999998921929;428;100 mA
27.7387399299664;0.199981689453125;0.0008526611328125;4.27999998919404;429;100 mA
27.7487399299412;0.199981689453125;0.00085113525390625;4.28999998916879;430;100 mA
27.7587399299159;0.199951171875;0.00085174560546875;4.29999998914354;431;100 mA
27.7687399298907;0.199981689453125;0.00084991455078125;4.3099999891183;432;100 mA
27.7787399298654;0.199920654296875;0.00085205078125;4.31999998909305;433;100 mA
27.7887399298402;0.199981689453125;0.0008575439453125;4.3299999890678;434;100 mA
27.7987399298149;0.20001220703125;0.00085784912109375;4.33999998904255;435;100 mA
27.8087399297897;0.200042724609375;0.000858154296874999;4.34999998901731;436;100 mA
27.8187399297644;0.199951171875;0.00085723876953125;4.35999998899206;437;100 mA
27.8287399297392;0.199981689453125;0.0008587646484375;4.36999998896681;438;100 mA
27.8387399297139;0.199981689453125;0.00085601806640625;4.37999998894156;439;100 mA
27.8487399296887;0.200042724609375;0.0008544921875;4.38999998891632;440;100 mA
27.8587399296634;0.199981689453125;0.000855102539062499;4.39999998889107;441;100 mA
27.8687399296382;0.199981689453125;0.00085357666015625;4.40999998886582;442;100 mA
27.8787399296129;0.199951171875;0.0008563232421875;4.41999998884057;443;100 mA
27.8887399295877;0.20001220703125;0.0008526611328125;4.42999998881533;444;100 mA
27.8987399295625;0.200042724609375;0.000853881835937501;4.43999998879008;445;100 mA
27.9087399295372;0.199981689453125;0.000859985351562501;4.44999998876483;446;100 mA
27.918739929512;0.20001220703125;0.0008575439453125;4.45999998873958;447;100 mA
27.9287399294867;0.199981689453125;0.00086181640625;4.46999998871433;448;100 mA
27.9387399294615;0.20001220703125;0.000858154296874999;4.47999998868909;449;100 mA
27.9487399294362;0.199981689453125;0.0008612060546875;4.48999998866384;450;100 mA
27.958739929411;0.199951171875;0.00085723876953125;4.49999998863859;451;100 mA
27.9687399293857;0.20001220703125;0.000855102539062499;4.50999998861334;452;100 mA
27.9787399293605;0.199981689453125;0.00085357666015625;4.5199999885881;453;100 mA
27.9887399293352;0.20001220703125;0.000850830078125001;4.52999998856285;454;100 mA
27.99873992931;0.199951171875;0.00085113525390625;4.5399999885376;455;100 mA
28.0087399292847;0.20001220703125;0.0008514404296875;4.54999998851235;456;100 mA
28.0187399292595;0.199981689453125;0.00085296630859375;4.55999998848711;457;100 mA
28.0287399292342;0.199951171875;0.000859985351562501;4.56999998846186;458;100 mA
28.038739929209;0.199981689453125;0.000855407714843751;4.57999998843661;459;100 mA
28.0487399291837;0.200042724609375;0.00085601806640625;4.58999998841136;460;100 mA
28.0587399291585;0.200042724609375;0.0008544921875;4.59999998838612;461;100 mA
28.0687399291332;0.199981689453125;0.000855712890625;4.60999998836087;462;100 mA
28.078739929108;0.199981689453125;0.000855407714843751;4.61999998833562;463;100 mA
28.0887399290827;0.199951171875;0.00085418701171875;4.62999998831037;464;100 mA
28.0987399290575;0.199951171875;0.0008544921875;4.63999998828513;465;100 mA
28.1087399290323;0.199951171875;0.00085357666015625;4.64999998825988;466;100 mA
28.118739929007;0.20001220703125;0.00085205078125;4.65999998823463;467;100 mA
28.1287399289818;0.199951171875;0.000852355957031251;4.66999998820938;468;100 mA
28.1387399289565;0.199951171875;0.000849609375;4.67999998818414;469;100 mA
28.1487399289313;0.199951171875;0.0008575439453125;4.68999998815889;470;100 mA
28.158739928906;0.199981689453125;0.0008563232421875;4.69999998813364;471;100 mA
28.1687399288808;0.200042724609375;0.0008563232421875;4.70999998810839;472;100 mA
28.1787399288555;0.20001220703125;0.00085723876953125;4.71999998808315;473;100 mA
28.1887399288303;0.199981689453125;0.000856933593750001;4.7299999880579;474;100 mA
28.198739928805;0.199951171875;0.000855102539062499;4.73999998803265;475;100 mA
28.2087399287798;0.199951171875;0.0008544921875;4.7499999880074;476;100 mA
28.2187399287545;0.199981689453125;0.00085784912109375;4.75999998798216;477;100 mA
28.2287399287293;0.2000732421875;0.0008587646484375;4.76999998795691;478;100 mA
28.238739928704;0.199981689453125;0.00085906982421875;4.77999998793166;479;100 mA
28.2487399286788;0.20001220703125;0.000862731933593749;4.78999998790641;480;100 mA
28.2587399286535;0.20001220703125;0.000864562988281251;4.79999998788116;481;100 mA
28.2687399286283;0.199951171875;0.000870361328124999;4.80999998785592;482;100 mA
28.278739928603;0.20001220703125;0.00087005615234375;4.81999998783067;483;100 mA
28.2887399285778;0.199951171875;0.000870666503906251;4.82999998780542;484;100 mA
28.2987399285525;0.199951171875;0.000873413085937499;4.83999998778017;485;100 mA
28.3087399285273;0.199951171875;0.0008740234375;4.84999998775493;486;100 mA
28.3187399285021;0.20001220703125;0.00087310791015625;4.85999998772968;487;100 mA
28.3287399284768;0.199951171875;0.000873718261718751;4.86999998770443;488;100 mA
28.3387399284516;0.199981689453125;0.00087310791015625;4.87999998767918;489;100 mA
28.3487399284263;0.199981689453125;0.0008740234375;4.88999998765394;490;100 mA
28.3587399284011;0.199951171875;0.0008770751953125;4.89999998762869;491;100 mA
28.3687399283758;0.199981689453125;0.000876770019531251;4.90999998760344;492;100 mA
28.3787399283506;0.20001220703125;0.0008807373046875;4.91999998757819;493;100 mA
28.3887399283253;0.199981689453125;0.00088836669921875;4.92999998755295;494;100 mA
28.3987399283001;0.199951171875;0.00088775634765625;4.9399999875277;495;100 mA
28.4087399282748;0.200042724609375;0.00089141845703125;4.94999998750245;496;100 mA
28.4187399282496;0.20001220703125;0.00089141845703125;4.9599999874772;497;100 mA
28.4287399282243;0.20001220703125;0.000890502929687501;4.96999998745196;498;100 mA
28.4387399281991;0.20001220703125;0.00089080810546875;4.97999998742671;499;100 mA
28.4487399281738;0.199981689453125;0.000893249511718749;4.98999998740146;500;100 mA
28.4587399281486;0.199981689453125;0.00089385986328125;4.99999998737621;501;100 mA
28.4687399281233;0.199981689453125;0.000893249511718749;5.00999998735097;502;100 mA
28.4787399280981;0.199951171875;0.00089569091796875;5.01999998732572;503;100 mA
28.4887399280728;0.199951171875;0.00089385986328125;5.02999998730047;504;100 mA
28.4987399280476;0.199951171875;0.0008953857421875;5.03999998727522;505;100 mA
28.5087399280224;0.199951171875;0.00090301513671875;5.04999998724998;506;100 mA
28.5187399279971;0.20001220703125;0.00089996337890625;5.05999998722473;507;100 mA
28.5287399279719;0.200042724609375;0.00090667724609375;5.06999998719948;508;100 mA
28.5387399279466;0.20001220703125;0.00090301513671875;5.07999998717423;509;100 mA
28.5487399279214;0.20001220703125;0.00090606689453125;5.08999998714899;510;100 mA
28.5587399278961;0.199920654296875;0.0009033203125;5.09999998712374;511;100 mA
28.5687399278709;0.199981689453125;0.000902099609375;5.10999998709849;512;100 mA
28.5787399278456;0.20001220703125;0.0009014892578125;5.11999998707324;513;100 mA
28.5887399278204;0.20001220703125;0.000897216796875;5.129999987048;514;100 mA
28.5987399277951;0.199981689453125;0.000899658203125001;5.13999998702275;515;100 mA
28.6087399277699;0.199951171875;0.00089874267578125;5.1499999869975;516;100 mA
28.6187399277446;0.199951171875;0.000898132324218751;5.15999998697225;517;100 mA
28.6287399277194;0.20001220703125;0.000904541015625;5.169999986947;518;100 mA
28.6387399276941;0.20001220703125;0.0009002685546875;5.17999998692176;519;100 mA
28.6487399276689;0.199951171875;0.00090179443359375;5.18999998689651;520;100 mA
28.6587399276436;0.199981689453125;0.00089874267578125;5.19999998687126;521;100 mA
28.6687399276184;0.199951171875;0.0008984375;5.20999998684601;522;100 mA
28.6787399275931;0.199951171875;0.00089447021484375;5.21999998682077;523;100 mA
28.6887399275679;0.199951171875;0.0008917236328125;5.22999998679552;524;100 mA
28.6987399275426;0.20001220703125;0.00089141845703125;5.23999998677027;525;100 mA
28.7087399275174;0.199951171875;0.000888977050781251;5.24999998674502;526;100 mA
28.7187399274922;0.199981689453125;0.00088836669921875;5.25999998671978;527;100 mA
28.7287399274669;0.200042724609375;0.00088775634765625;5.26999998669453;528;100 mA
28.7387399274417;0.199951171875;0.0008868408203125;5.27999998666928;529;100 mA
28.7487399274164;0.199981689453125;0.00089385986328125;5.28999998664403;530;100 mA
28.7587399273912;0.199951171875;0.0008917236328125;5.29999998661879;531;100 mA
28.7687399273659;0.199981689453125;0.000892333984375;5.30999998659354;532;100 mA
28.7787399273407;0.199981689453125;0.00089141845703125;5.31999998656829;533;100 mA
28.7887399273154;0.20001220703125;0.00089019775390625;5.32999998654304;534;100 mA
28.7987399272902;0.19989013671875;0.00088623046875;5.3399999865178;535;100 mA
28.8087399272649;0.199951171875;0.0008837890625;5.34999998649255;536;100 mA
28.8187399272397;0.199981689453125;0.00088409423828125;5.3599999864673;537;100 mA
28.8287399272144;0.199981689453125;0.00088348388671875;5.36999998644205;538;100 mA
28.8387399271892;0.199951171875;0.00088348388671875;5.37999998641681;539;100 mA
28.8487399271639;0.199981689453125;0.00088653564453125;5.38999998639156;540;100 mA
28.8587399271387;0.200042724609375;0.0008880615234375;5.39999998636631;541;100 mA
28.8687399271134;0.20001220703125;0.0008929443359375;5.40999998634106;542;100 mA
28.8787399270882;0.199981689453125;0.0008929443359375;5.41999998631582;543;100 mA
28.8887399270629;0.199981689453125;0.000893554687500001;5.42999998629057;544;100 mA
28.8987399270377;0.20001220703125;0.000895080566406251;5.43999998626532;545;100 mA
28.9087399270124;0.20001220703125;0.00089599609375;5.44999998624007;546;100 mA
28.9187399269872;0.199981689453125;0.000892028808593751;5.45999998621483;547;100 mA
28.928739926962;0.20001220703125;0.00089080810546875;5.46999998618958;548;100 mA
28.9387399269367;0.199981689453125;0.0008868408203125;5.47999998616433;549;100 mA
28.9487399269115;0.199920654296875;0.000884399414062501;5.48999998613908;550;100 mA
28.9587399268862;0.20001220703125;0.000884399414062501;5.49999998611383;551;100 mA
28.968739926861;0.20001220703125;0.0008807373046875;5.50999998608859;552;100 mA
28.9787399268357;0.20001220703125;0.000882873535156251;5.51999998606334;553;100 mA
28.9887399268105;0.20001220703125;0.00088775634765625;5.52999998603809;554;100 mA
28.9987399267852;0.199981689453125;0.0008880615234375;5.53999998601284;555;100 mA
29.00873992676;0.199981689453125;0.00089080810546875;5.5499999859876;556;100 mA
29.0187399267347;0.199951171875;0.00088836669921875;5.55999998596235;557;100 mA
29.0287399267095;0.199951171875;0.0008892822265625;5.5699999859371;558;100 mA
29.0387399266842;0.20001220703125;0.00088836669921875;5.57999998591185;559;100 mA
29.048739926659;0.199981689453125;0.00089111328125;5.58999998588661;560;100 mA
29.0587399266337;0.199981689453125;0.000892028808593751;5.59999998586136;561;100 mA
29.0687399266085;0.200042724609375;0.000888977050781251;5.60999998583611;562;100 mA
29.0787399265832;0.199951171875;0.000893554687500001;5.61999998581086;563;100 mA
29.088739926558;0.199951171875;0.00089141845703125;5.62999998578562;564;100 mA
29.0987399265327;0.199951171875;0.0008917236328125;5.63999998576037;565;100 mA
29.1087399265075;0.199981689453125;0.000898132324218751;5.64999998573512;566;100 mA
29.1187399264822;0.20001220703125;0.00089691162109375;5.65999998570987;567;100 mA
29.128739926457;0.199981689453125;0.000901184082031251;5.66999998568463;568;100 mA
29.1387399264318;0.199951171875;0.000896301269531249;5.67999998565938;569;100 mA
29.1487399264065;0.199981689453125;0.000898132324218751;5.68999998563413;570;100 mA
29.1587399263813;0.20001220703125;0.00089447021484375;5.69999998560888;571;100 mA
29.168739926356;0.199981689453125;0.00089141845703125;5.70999998558364;572;100 mA
29.1787399263308;0.2000732421875;0.0008892822265625;5.71999998555839;573;100 mA
29.1887399263055;0.199951171875;0.00088531494140625;5.72999998553314;574;100 mA
29.1987399262803;0.200103759765625;0.000887145996093749;5.73999998550789;575;100 mA
29.208739926255;0.199981689453125;0.0008868408203125;5.74999998548265;576;100 mA
29.2187399262298;0.20001220703125;0.00088775634765625;5.7599999854574;577;100 mA
29.2287399262045;0.200042724609375;0.0008929443359375;5.76999998543215;578;100 mA
29.2387399261793;0.199951171875;0.00089080810546875;5.7799999854069;579;100 mA
29.248739926154;0.199981689453125;0.0008929443359375;5.78999998538166;580;100 mA
29.2587399261288;0.199951171875;0.000892028808593751;5.79999998535641;581;100 mA
29.2687399261035;0.199951171875;0.0008941650390625;5.80999998533116;582;100 mA
29.2787399260783;0.199951171875;0.00089111328125;5.81999998530591;583;100 mA
29.288739926053;0.199920654296875;0.000888977050781251;5.82999998528066;584;100 mA
29.2987399260278;0.199951171875;0.000890502929687501;5.83999998525542;585;100 mA
29.3087399260025;0.199951171875;0.000888671874999999;5.84999998523017;586;100 mA
29.3187399259773;0.199951171875;0.000887145996093749;5.85999998520492;587;100 mA
29.328739925952;0.199981689453125;0.00088623046875;5.86999998517967;588;100 mA
29.3387399259268;0.199951171875;0.0008837890625;5.87999998515443;589;100 mA
29.3487399259016;0.199920654296875;0.000890502929687501;5.88999998512918;590;100 mA
29.3587399258763;0.20001220703125;0.000890502929687501;5.89999998510393;591;100 mA
29.3687399258511;0.199981689453125;0.000890502929687501;5.90999998507868;592;100 mA
29.3787399258258;0.20001220703125;0.000888977050781251;5.91999998505344;593;100 mA
29.3887399258006;0.199981689453125;0.00088775634765625;5.92999998502819;594;100 mA
29.3987399257753;0.199981689453125;0.00088531494140625;5.93999998500294;595;100 mA
29.4087399257501;0.20001220703125;0.000882568359375;5.94999998497769;596;100 mA
29.4187399257248;0.199981689453125;0.000882568359375;5.95999998495245;597;100 mA
29.4287399256996;0.199981689453125;0.0008807373046875;5.9699999849272;598;100 mA
29.4387399256743;0.199951171875;0.0008807373046875;5.97999998490195;599;100 mA
29.4487399256491;0.199951171875;0.000882873535156251;5.9899999848767;600;100 mA
29.4587399256238;0.199951171875;0.000882568359375;5.99999998485146;601;100 mA
29.4687399255986;0.199981689453125;0.0008868408203125;6.00999998482621;602;100 mA
29.4787399255733;0.199920654296875;0.0008868408203125;6.01999998480096;603;100 mA
29.4887399255481;0.199951171875;0.00088623046875;6.02999998477571;604;100 mA
29.4987399255228;0.200042724609375;0.0008880615234375;6.03999998475047;605;100 mA
29.5087399254976;0.199951171875;0.00088958740234375;6.04999998472522;606;100 mA
29.5187399254723;0.19989013671875;0.00088653564453125;6.05999998469997;607;100 mA
29.5287399254471;0.199920654296875;0.000885925292968751;6.06999998467472;608;100 mA
29.5387399254219;0.199981689453125;0.0008831787109375;6.07999998464948;609;100 mA
29.5487399253966;0.200042724609375;0.00088165283203125;6.08999998462423;610;100 mA
29.5587399253714;0.200042724609375;0.000881347656250001;6.09999998459898;611;100 mA
29.5687399253461;0.199981689453125;0.00087890625;6.10999998457373;612;100 mA
29.5787399253209;0.199920654296875;0.00088226318359375;6.11999998454849;613;100 mA
29.5887399252956;0.199951171875;0.00088623046875;6.12999998452324;614;100 mA
29.5987399252704;0.199951171875;0.00088623046875;6.13999998449799;615;100 mA
29.6087399252451;0.199981689453125;0.00088653564453125;6.14999998447274;616;100 mA
29.6187399252199;0.199920654296875;0.00088409423828125;6.1599999844475;617;100 mA
29.6287399251946;0.20001220703125;0.000884399414062501;6.16999998442225;618;100 mA
29.6387399251694;0.199981689453125;0.00088226318359375;6.179999984397;619;100 mA
29.6487399251441;0.199981689453125;0.00088348388671875;6.18999998437175;620;100 mA
29.6587399251189;0.199951171875;0.00088165283203125;6.1999999843465;621;100 mA
29.6687399250936;0.200042724609375;0.000880126953125;6.20999998432126;622;100 mA
29.6787399250684;0.199951171875;0.0008819580078125;6.21999998429601;623;100 mA
29.6887399250431;0.20001220703125;0.000876770019531251;6.22999998427076;624;100 mA
29.6987399250179;0.199951171875;0.000878295898437501;6.23999998424551;625;100 mA
29.7087399249926;0.199981689453125;0.00088409423828125;6.24999998422027;626;100 mA
29.7187399249674;0.200042724609375;0.0008819580078125;6.25999998419502;627;100 mA
29.7287399249421;0.200042724609375;0.0008880615234375;6.26999998416977;628;100 mA
29.7387399249169;0.20001220703125;0.00088470458984375;6.27999998414452;629;100 mA
29.7487399248917;0.20001220703125;0.000887451171875001;6.28999998411928;630;100 mA
29.7587399248664;0.20001220703125;0.000885009765625;6.29999998409403;631;100 mA
29.7687399248412;0.199981689453125;0.000882873535156251;6.30999998406878;632;100 mA
29.7787399248159;0.2000732421875;0.0008837890625;6.31999998404353;633;100 mA
29.7887399247907;0.199981689453125;0.00087921142578125;6.32999998401829;634;100 mA
29.7987399247654;0.199951171875;0.00088226318359375;6.33999998399304;635;100 mA
29.8087399247402;0.200042724609375;0.00088043212890625;6.34999998396779;636;100 mA
29.8187399247149;0.199981689453125;0.00088043212890625;6.35999998394254;637;100 mA
29.8287399246897;0.199951171875;0.000884399414062501;6.3699999839173;638;100 mA
29.8387399246644;0.20001220703125;0.0008819580078125;6.37999998389205;639;100 mA
29.8487399246392;0.199981689453125;0.0008831787109375;6.3899999838668;640;100 mA
29.8587399246139;0.199981689453125;0.000880126953125;6.39999998384155;641;100 mA
29.8687399245887;0.199981689453125;0.0008837890625;6.40999998381631;642;100 mA
29.8787399245634;0.199981689453125;0.000880126953125;6.41999998379106;643;100 mA
29.8887399245382;0.199981689453125;0.000878295898437501;6.42999998376581;644;100 mA
29.8987399245129;0.199951171875;0.000879821777343751;6.43999998374056;645;100 mA
29.9087399244877;0.199981689453125;0.000878295898437501;6.44999998371532;646;100 mA
29.9187399244624;0.20001220703125;0.00087646484375;6.45999998369007;647;100 mA
29.9287399244372;0.199981689453125;0.0008770751953125;6.46999998366482;648;100 mA
29.9387399244119;0.199981689453125;0.00087432861328125;6.47999998363957;649;100 mA
29.9487399243867;0.20001220703125;0.00088165283203125;6.48999998361433;650;100 mA
29.9587399243615;0.199981689453125;0.00087890625;6.49999998358908;651;100 mA
29.9687399243362;0.200042724609375;0.00087890625;6.50999998356383;652;100 mA
29.978739924311;0.199981689453125;0.000877990722656249;6.51999998353858;653;100 mA
29.9887399242857;0.199981689453125;0.000877685546875;6.52999998351333;654;100 mA
29.9987399242605;0.19989013671875;0.0008746337890625;6.53999998348809;655;100 mA
30.0087399242352;0.199951171875;0.000872802734375;6.54999998346284;656;100 mA
30.01873992421;0.199951171875;0.00087310791015625;6.55999998343759;657;100 mA
30.0287399241847;0.199981689453125;0.000872802734375;6.56999998341234;658;100 mA
30.0387399241595;0.20001220703125;0.000872802734375;6.5799999833871;659;100 mA
30.0487399241342;0.199981689453125;0.0008746337890625;6.58999998336185;660;100 mA
30.058739924109;0.20001220703125;0.000872802734375;6.5999999833366;661;100 mA
30.0687399240837;0.200042724609375;0.000877990722656249;6.60999998331135;662;100 mA
30.0787399240585;0.199981689453125;0.00087554931640625;6.61999998328611;663;100 mA
30.0887399240332;0.199981689453125;0.000875244140625001;6.62999998326086;664;100 mA
30.098739924008;0.200042724609375;0.00087738037109375;6.63999998323561;665;100 mA
30.1087399239827;0.199981689453125;0.000876770019531251;6.64999998321036;666;100 mA
30.1187399239575;0.199951171875;0.0008758544921875;6.65999998318512;667;100 mA
30.1287399239322;0.199981689453125;0.0008746337890625;6.66999998315987;668;100 mA
30.138739923907;0.199951171875;0.0008740234375;6.67999998313462;669;100 mA
30.1487399238817;0.199981689453125;0.000873413085937499;6.68999998310937;670;100 mA
30.1587399238565;0.199951171875;0.00087554931640625;6.69999998308413;671;100 mA
30.1687399238313;0.20001220703125;0.00087432861328125;6.70999998305888;672;100 mA
30.178739923806;0.200042724609375;0.000877685546875;6.71999998303363;673;100 mA
30.1887399237808;0.199981689453125;0.000882873535156251;6.72999998300838;674;100 mA
30.1987399237555;0.199951171875;0.0008807373046875;6.73999998298314;675;100 mA
30.2087399237303;0.199981689453125;0.000881347656250001;6.74999998295789;676;100 mA
30.218739923705;0.199951171875;0.00087860107421875;6.75999998293264;677;100 mA
30.2287399236798;0.199920654296875;0.0008770751953125;6.76999998290739;678;100 mA
30.2387399236545;0.199981689453125;0.00087646484375;6.77999998288215;679;100 mA
30.2487399236293;0.199951171875;0.00087738037109375;6.7899999828569;680;100 mA
30.258739923604;0.199981689453125;0.00087646484375;6.79999998283165;681;100 mA
30.2687399235788;0.20001220703125;0.0008740234375;6.8099999828064;682;100 mA
30.2787399235535;0.199951171875;0.000875244140625001;6.81999998278116;683;100 mA
30.2887399235283;0.20001220703125;0.00087310791015625;6.82999998275591;684;100 mA
30.298739923503;0.20001220703125;0.00087432861328125;6.83999998273066;685;100 mA
30.3087399234778;0.199981689453125;0.000879516601562499;6.84999998270541;686;100 mA
30.3187399234525;0.20001220703125;0.00087921142578125;6.85999998268016;687;100 mA
30.3287399234273;0.199981689453125;0.00088226318359375;6.86999998265492;688;100 mA
30.338739923402;0.199951171875;0.00087921142578125;6.87999998262967;689;100 mA
30.3487399233768;0.199951171875;0.00088165283203125;6.88999998260442;690;100 mA
30.3587399233515;0.2000732421875;0.000880126953125;6.89999998257917;691;100 mA
30.3687399233263;0.199981689453125;0.00087738037109375;6.90999998255393;692;100 mA
30.3787399233011;0.20001220703125;0.000879516601562499;6.91999998252868;693;100 mA
30.3887399232758;0.199981689453125;0.000875244140625001;6.92999998250343;694;100 mA
30.3987399232506;0.20001220703125;0.0008770751953125;6.93999998247818;695;100 mA
30.4087399232253;0.199981689453125;0.0008758544921875;6.94999998245294;696;100 mA
30.4187399232001;0.19989013671875;0.00087646484375;6.95999998242769;697;100 mA
30.4287399231748;0.199981689453125;0.0008807373046875;6.96999998240244;698;100 mA
30.4387399231496;0.199981689453125;0.000877685546875;6.97999998237719;699;100 mA
30.4487399231243;0.20001220703125;0.000879516601562499;6.98999998235195;700;100 mA
30.4587399230991;0.20001220703125;0.000876770019531251;6.9999999823267;701;100 mA
30.4687399230738;0.199951171875;0.000880126953125;7.00999998230145;702;100 mA
30.4787399230486;0.20001220703125;0.00087890625;7.0199999822762;703;100 mA
30.4887399230233;0.199920654296875;0.0008758544921875;7.02999998225096;704;100 mA
30.4987399229981;0.20001220703125;0.00087860107421875;7.03999998222571;705;100 mA
30.5087399229728;0.199981689453125;0.0008758544921875;7.04999998220046;706;100 mA
30.5187399229476;0.199981689453125;0.0008740234375;7.05999998217521;707;100 mA
30.5287399229223;0.199920654296875;0.0008758544921875;7.06999998214997;708;100 mA
30.5387399228971;0.199981689453125;0.00087432861328125;7.07999998212472;709;100 mA
30.5487399228718;0.20001220703125;0.000882568359375;7.08999998209947;710;100 mA
30.5587399228466;0.200042724609375;0.00087921142578125;7.09999998207422;711;100 mA
30.5687399228214;0.199951171875;0.000880126953125;7.10999998204898;712;100 mA
30.5787399227961;0.199951171875;0.00087921142578125;7.11999998202373;713;100 mA
30.5887399227709;0.199981689453125;0.000878295898437501;7.12999998199848;714;100 mA
30.5987399227456;0.20001220703125;0.000877685546875;7.13999998197323;715;100 mA
30.6087399227204;0.20001220703125;0.00087554931640625;7.14999998194799;716;100 mA
30.6187399226951;0.20001220703125;0.00087493896484375;7.15999998192274;717;100 mA
30.6287399226699;0.20001220703125;0.000875244140625001;7.16999998189749;718;100 mA
30.6387399226446;0.199981689453125;0.00087493896484375;7.17999998187224;719;100 mA
30.6487399226194;0.20001220703125;0.00087615966796875;7.189999981847;720;100 mA
30.6587399225941;0.199981689453125;0.00087493896484375;7.19999998182175;721;100 mA
30.6687399225689;0.199951171875;0.000880126953125;7.2099999817965;722;100 mA
30.6787399225436;0.199920654296875;0.00087738037109375;7.21999998177125;723;100 mA
30.6887399225184;0.199981689453125;0.00087646484375;7.229999981746;724;100 mA
30.6987399224931;0.20001220703125;0.000877685546875;7.23999998172076;725;100 mA
30.7087399224679;0.199981689453125;0.00087615966796875;7.24999998169551;726;100 mA
30.7187399224426;0.20001220703125;0.00087432861328125;7.25999998167026;727;100 mA
30.7287399224174;0.20001220703125;0.00087249755859375;7.26999998164501;728;100 mA
30.7387399223921;0.199951171875;0.000867919921875;7.27999998161977;729;100 mA
30.7487399223669;0.20001220703125;0.000867614746093751;7.28999998159452;730;100 mA
30.7587399223416;0.199951171875;0.000867919921875;7.29999998156927;731;100 mA
30.7687399223164;0.199951171875;0.0008673095703125;7.30999998154402;732;100 mA
30.7787399222912;0.200042724609375;0.00086883544921875;7.31999998151878;733;100 mA
30.7887399222659;0.20001220703125;0.0008746337890625;7.32999998149353;734;100 mA
30.7987399222407;0.199981689453125;0.0008746337890625;7.33999998146828;735;100 mA
30.8087399222154;0.199981689453125;0.00087432861328125;7.34999998144303;736;100 mA
30.8187399221902;0.20001220703125;0.000871887207031249;7.35999998141779;737;100 mA
30.8287399221649;0.199951171875;0.0008709716796875;7.36999998139254;738;100 mA
30.8387399221397;0.199981689453125;0.0008709716796875;7.37999998136729;739;100 mA
30.8487399221144;0.20001220703125;0.000870666503906251;7.38999998134204;740;100 mA
30.8587399220892;0.199951171875;0.0008685302734375;7.3999999813168;741;100 mA
30.8687399220639;0.199981689453125;0.00086669921875;7.40999998129155;742;100 mA
30.8787399220387;0.20001220703125;0.0008685302734375;7.4199999812663;743;100 mA
30.8887399220134;0.20001220703125;0.000864562988281251;7.42999998124105;744;100 mA
30.8987399219882;0.20001220703125;0.00086517333984375;7.43999998121581;745;100 mA
30.9087399219629;0.199981689453125;0.000872192382812501;7.44999998119056;746;100 mA
30.9187399219377;0.2000732421875;0.000870666503906251;7.45999998116531;747;100 mA
30.9287399219124;0.20001220703125;0.0008740234375;7.46999998114006;748;100 mA
30.9387399218872;0.20001220703125;0.000870361328124999;7.47999998111482;749;100 mA
30.9487399218619;0.199981689453125;0.00087127685546875;7.48999998108957;750;100 mA
30.9587399218367;0.199981689453125;0.000867919921875;7.49999998106432;751;100 mA
30.9687399218114;0.199981689453125;0.000863037109375001;7.50999998103907;752;100 mA
30.9787399217862;0.20001220703125;0.000864257812499999;7.51999998101383;753;100 mA
30.988739921761;0.200042724609375;0.00086090087890625;7.52999998098858;754;100 mA
30.9987399217357;0.199951171875;0.000862731933593749;7.53999998096333;755;100 mA
31.0087399217105;0.200042724609375;0.00086090087890625;7.54999998093808;756;100 mA
31.0187399216852;0.20001220703125;0.000862731933593749;7.55999998091283;757;100 mA
31.02873992166;0.199951171875;0.00086944580078125;7.56999998088759;758;100 mA
31.0387399216347;0.199951171875;0.00086700439453125;7.57999998086234;759;100 mA
31.0487399216095;0.199981689453125;0.00086944580078125;7.58999998083709;760;100 mA
31.0587399215842;0.20001220703125;0.00086669921875;7.59999998081184;761;100 mA
31.068739921559;0.199981689453125;0.0008697509765625;7.6099999807866;762;100 mA
31.0787399215337;0.199951171875;0.000867614746093751;7.61999998076135;763;100 mA
31.0887399215085;0.199981689453125;0.0008648681640625;7.6299999807361;764;100 mA
31.0987399214832;0.200042724609375;0.00086700439453125;7.63999998071085;765;100 mA
31.108739921458;0.200042724609375;0.000862731933593749;7.64999998068561;766;100 mA
31.1187399214327;0.199951171875;0.0008612060546875;7.65999998066036;767;100 mA
31.1287399214075;0.199951171875;0.00086181640625;7.66999998063511;768;100 mA
31.1387399213822;0.199951171875;0.00086029052734375;7.67999998060986;769;100 mA
31.148739921357;0.20001220703125;0.00086883544921875;7.68999998058462;770;100 mA
31.1587399213317;0.20001220703125;0.00086517333984375;7.69999998055937;771;100 mA
31.1687399213065;0.20001220703125;0.000865783691406249;7.70999998053412;772;100 mA
31.1787399212812;0.20001220703125;0.000864257812499999;7.71999998050887;773;100 mA
31.188739921256;0.20001220703125;0.0008612060546875;7.72999998048363;774;100 mA
31.1987399212308;0.20001220703125;0.00086181640625;7.73999998045838;775;100 mA
31.2087399212055;0.199951171875;0.000856628417968749;7.74999998043313;776;100 mA
31.2187399211803;0.199981689453125;0.000856628417968749;7.75999998040788;777;100 mA
31.228739921155;0.199981689453125;0.000855407714843751;7.76999998038264;778;100 mA
31.2387399211298;0.20001220703125;0.0008544921875;7.77999998035739;779;100 mA
31.2487399211045;0.199981689453125;0.000856628417968749;7.78999998033214;780;100 mA
31.2587399210793;0.199951171875;0.00085357666015625;7.79999998030689;781;100 mA
31.268739921054;0.199951171875;0.000859985351562501;7.80999998028165;782;100 mA
31.2787399210288;0.20001220703125;0.000859375;7.8199999802564;783;100 mA
31.2887399210035;0.199981689453125;0.0008587646484375;7.82999998023115;784;100 mA
31.2987399209783;0.20001220703125;0.0008587646484375;7.8399999802059;785;100 mA
31.308739920953;0.20001220703125;0.0008575439453125;7.84999998018066;786;100 mA
31.3187399209278;0.199951171875;0.00085418701171875;7.85999998015541;787;100 mA
31.3287399209025;0.199951171875;0.000853271484375;7.86999998013016;788;100 mA
31.3387399208773;0.199981689453125;0.00084991455078125;7.87999998010491;789;100 mA
31.348739920852;0.199981689453125;0.000849609375;7.88999998007966;790;100 mA
31.3587399208268;0.199981689453125;0.00084991455078125;7.89999998005442;791;100 mA
31.3687399208015;0.20001220703125;0.000848999023437499;7.90999998002917;792;100 mA
31.3787399207763;0.20001220703125;0.00084991455078125;7.91999998000392;793;100 mA
31.388739920751;0.199981689453125;0.000856628417968749;7.92999997997867;794;100 mA
31.3987399207258;0.200042724609375;0.000855102539062499;7.93999997995343;795;100 mA
31.4087399207006;0.199951171875;0.000855712890625;7.94999997992818;796;100 mA
31.4187399206753;0.199951171875;0.00085205078125;7.95999997990293;797;100 mA
31.4287399206501;0.20001220703125;0.000852355957031251;7.96999997987768;798;100 mA
31.4387399206248;0.199981689453125;0.000850524902343749;7.97999997985244;799;100 mA
31.4487399205996;0.199981689453125;0.0008514404296875;7.98999997982719;800;100 mA
31.4587399205743;0.199981689453125;0.00085113525390625;7.99999997980194;801;100 mA
31.4687399205491;0.20001220703125;0.00084991455078125;8.00999997977669;802;100 mA
31.4787399205238;0.200042724609375;0.00085205078125;8.01999997975145;803;100 mA
31.4887399204986;0.199981689453125;0.0008502197265625;8.0299999797262;804;100 mA
31.4987399204733;0.20001220703125;0.000852355957031251;8.03999997970095;805;100 mA
31.5087399204481;0.199981689453125;0.000858154296874999;8.0499999796757;806;100 mA
31.5187399204228;0.199981689453125;0.000858459472656251;8.05999997965046;807;100 mA
31.5287399203976;0.199981689453125;0.00086090087890625;8.06999997962521;808;100 mA
31.5387399203723;0.20001220703125;0.00085784912109375;8.07999997959996;809;100 mA
31.5487399203471;0.199951171875;0.000859375;8.08999997957471;810;100 mA
31.5587399203218;0.199981689453125;0.000858154296874999;8.09999997954947;811;100 mA
31.5687399202966;0.20001220703125;0.00085418701171875;8.10999997952422;812;100 mA
31.5787399202713;0.199981689453125;0.000856628417968749;8.11999997949897;813;100 mA
31.5887399202461;0.20001220703125;0.000852355957031251;8.12999997947372;814;100 mA
31.5987399202209;0.199981689453125;0.0008563232421875;8.13999997944848;815;100 mA
31.6087399201956;0.199951171875;0.0008563232421875;8.14999997942323;816;100 mA
31.6187399201704;0.199981689453125;0.000858154296874999;8.15999997939798;817;100 mA
31.6287399201451;0.199951171875;0.000864257812499999;8.16999997937273;818;100 mA
31.6387399201199;0.199981689453125;0.000863037109375001;8.17999997934749;819;100 mA
31.6487399200946;0.199981689453125;0.00086639404296875;8.18999997932224;820;100 mA
31.6587399200694;0.199981689453125;0.0008636474609375;8.19999997929699;821;100 mA
31.6687399200441;0.199981689453125;0.00086669921875;8.20999997927174;822;100 mA
31.6787399200189;0.199951171875;0.0008648681640625;8.2199999792465;823;100 mA
31.6887399199936;0.20001220703125;0.000862731933593749;8.22999997922125;824;100 mA
31.6987399199684;0.199951171875;0.000865783691406249;8.239999979196;825;100 mA
31.7087399199431;0.199951171875;0.00086181640625;8.24999997917075;826;100 mA
31.7187399199179;0.20001220703125;0.00086334228515625;8.2599999791455;827;100 mA
31.7287399198926;0.200042724609375;0.000864562988281251;8.26999997912026;828;100 mA
31.7387399198674;0.199981689453125;0.0008636474609375;8.27999997909501;829;100 mA
31.7487399198421;0.199951171875;0.000872802734375;8.28999997906976;830;100 mA
31.7587399198169;0.20001220703125;0.00086944580078125;8.29999997904451;831;100 mA
31.7687399197916;0.199981689453125;0.000869140625000001;8.30999997901927;832;100 mA
31.7787399197664;0.199981689453125;0.000865478515625;8.31999997899402;833;100 mA
31.7887399197411;0.199981689453125;0.00086395263671875;8.32999997896877;834;100 mA
31.7987399197159;0.199981689453125;0.00086181640625;8.33999997894352;835;100 mA
31.8087399196907;0.199981689453125;0.0008587646484375;8.34999997891828;836;100 mA
31.8187399196654;0.199981689453125;0.0008587646484375;8.35999997889303;837;100 mA
31.8287399196402;0.199951171875;0.0008575439453125;8.36999997886778;838;100 mA
31.8387399196149;0.199981689453125;0.000858459472656251;8.37999997884253;839;100 mA
31.8487399195897;0.20001220703125;0.000861511230468751;8.38999997881729;840;100 mA
31.8587399195644;0.200042724609375;0.000858459472656251;8.39999997879204;841;100 mA
31.8687399195392;0.199981689453125;0.000865783691406249;8.40999997876679;842;100 mA
31.8787399195139;0.199951171875;0.0008648681640625;8.41999997874154;843;100 mA
31.8887399194887;0.199951171875;0.000865478515625;8.4299999787163;844;100 mA
31.8987399194634;0.199981689453125;0.0008648681640625;8.43999997869105;845;100 mA
31.9087399194382;0.199981689453125;0.000864257812499999;8.4499999786658;846;100 mA
31.9187399194129;0.199981689453125;0.000860595703125;8.45999997864055;847;100 mA
31.9287399193877;0.20001220703125;0.0008612060546875;8.46999997861531;848;100 mA
31.9387399193624;0.20001220703125;0.000858154296874999;8.47999997859006;849;100 mA
31.9487399193372;0.199981689453125;0.000858459472656251;8.48999997856481;850;100 mA
31.9587399193119;0.199981689453125;0.000859985351562501;8.49999997853956;851;100 mA
31.9687399192867;0.199981689453125;0.00086029052734375;8.50999997851432;852;100 mA
31.9787399192614;0.199951171875;0.0008612060546875;8.51999997848907;853;100 mA
31.9887399192362;0.20001220703125;0.000867919921875;8.52999997846382;854;100 mA
31.9987399192109;0.199981689453125;0.00086700439453125;8.53999997843857;855;100 mA
32.0087399191857;0.199981689453125;0.0008673095703125;8.54999997841333;856;100 mA
32.0187399191605;0.199951171875;0.0008648681640625;8.55999997838808;857;100 mA
32.0287399191352;0.200042724609375;0.000864562988281251;8.56999997836283;858;100 mA
32.03873991911;0.20001220703125;0.000861511230468751;8.57999997833758;859;100 mA
32.0487399190847;0.20001220703125;0.00086395263671875;8.58999997831233;860;100 mA
32.0587399190595;0.199981689453125;0.00086334228515625;8.59999997828709;861;100 mA
32.0687399190342;0.20001220703125;0.00086212158203125;8.60999997826184;862;100 mA
32.078739919009;0.2000732421875;0.00086395263671875;8.61999997823659;863;100 mA
32.0887399189837;0.200042724609375;0.000861511230468751;8.62999997821134;864;100 mA
32.0987399189585;0.199981689453125;0.00086334228515625;8.6399999781861;865;100 mA
32.1087399189332;0.199951171875;0.000867614746093751;8.64999997816085;866;100 mA
32.118739918908;0.199920654296875;0.00086669921875;8.6599999781356;867;100 mA
32.1287399188827;0.200042724609375;0.00086944580078125;8.66999997811035;868;100 mA
32.1387399188575;0.199951171875;0.00086517333984375;8.67999997808511;869;100 mA
32.1487399188322;0.199981689453125;0.00086639404296875;8.68999997805986;870;100 mA
32.158739918807;0.199981689453125;0.000861511230468751;8.69999997803461;871;100 mA
32.1687399187817;0.199951171875;0.0008587646484375;8.70999997800936;872;100 mA
32.1787399187565;0.199981689453125;0.000860595703125;8.71999997798412;873;100 mA
32.1887399187312;0.199981689453125;0.0008575439453125;8.72999997795887;874;100 mA
32.198739918706;0.199920654296875;0.000859985351562501;8.73999997793362;875;100 mA
32.2087399186807;0.199920654296875;0.00086090087890625;8.74999997790837;876;100 mA
32.2187399186555;0.200042724609375;0.00086090087890625;8.75999997788313;877;100 mA
32.2287399186303;0.20001220703125;0.000865478515625;8.76999997785788;878;100 mA
32.238739918605;0.199981689453125;0.00086334228515625;8.77999997783263;879;100 mA
32.2487399185798;0.20001220703125;0.000866088867187501;8.78999997780738;880;100 mA
32.2587399185545;0.20001220703125;0.000861511230468751;8.79999997778214;881;100 mA
32.2687399185293;0.199981689453125;0.000864257812499999;8.80999997775689;882;100 mA
32.278739918504;0.200042724609375;0.00086029052734375;8.81999997773164;883;100 mA
32.2887399184788;0.20001220703125;0.00085723876953125;8.82999997770639;884;100 mA
32.2987399184535;0.20001220703125;0.00085968017578125;8.83999997768115;885;100 mA
32.3087399184283;0.199951171875;0.00085601806640625;8.8499999776559;886;100 mA
32.318739918403;0.20001220703125;0.00085601806640625;8.85999997763065;887;100 mA
32.3287399183778;0.199951171875;0.000856628417968749;8.8699999776054;888;100 mA
32.3387399183525;0.199981689453125;0.0008563232421875;8.87999997758016;889;100 mA
32.3487399183273;0.199951171875;0.0008648681640625;8.88999997755491;890;100 mA
32.358739918302;0.199951171875;0.0008612060546875;8.89999997752966;891;100 mA
32.3687399182768;0.199951171875;0.00086181640625;8.90999997750441;892;100 mA
32.3787399182515;0.200042724609375;0.000859985351562501;8.91999997747916;893;100 mA
32.3887399182263;0.199951171875;0.0008563232421875;8.92999997745392;894;100 mA
32.398739918201;0.199981689453125;0.000855407714843751;8.93999997742867;895;100 mA
32.4087399181758;0.199981689453125;0.00085296630859375;8.94999997740342;896;100 mA
32.4187399181505;0.20001220703125;0.000853271484375;8.95999997737817;897;100 mA
32.4287399181253;0.199981689453125;0.00085296630859375;8.96999997735293;898;100 mA
32.4387399181001;0.199981689453125;0.0008526611328125;8.97999997732768;899;100 mA
32.4487399180748;0.199981689453125;0.000853271484375;8.98999997730243;900;100 mA
32.4587399180496;0.199951171875;0.000850524902343749;8.99999997727718;901;100 mA
32.4687399180243;0.200042724609375;0.000856933593750001;9.00999997725194;902;100 mA
32.4787399179991;0.199951171875;0.000855102539062499;9.01999997722669;903;100 mA
32.4887399179738;0.199951171875;0.00085601806640625;9.02999997720144;904;100 mA
32.4987399179486;0.199981689453125;0.000855712890625;9.03999997717619;905;100 mA
32.5087399179233;0.199951171875;0.0008563232421875;9.04999997715095;906;100 mA
32.5187399178981;0.199951171875;0.000850830078125001;9.0599999771257;907;100 mA
32.5287399178728;0.20001220703125;0.00085113525390625;9.06999997710045;908;100 mA
32.5387399178476;0.199951171875;0.000848388671875;9.0799999770752;909;100 mA
32.5487399178223;0.199981689453125;0.00084869384765625;9.08999997704996;910;100 mA
32.5587399177971;0.20001220703125;0.00084716796875;9.09999997702471;911;100 mA
32.5687399177718;0.199981689453125;0.00084716796875;9.10999997699946;912;100 mA
32.5787399177466;0.199981689453125;0.000850524902343749;9.11999997697421;913;100 mA
32.5887399177213;0.200042724609375;0.000855407714843751;9.12999997694897;914;100 mA
32.5987399176961;0.199951171875;0.00085418701171875;9.13999997692372;915;100 mA
32.6087399176708;0.20001220703125;0.000853881835937501;9.14999997689847;916;100 mA
32.6187399176456;0.199981689453125;0.00085174560546875;9.15999997687322;917;100 mA
32.6287399176204;0.20001220703125;0.000853881835937501;9.16999997684798;918;100 mA
32.6387399175951;0.199981689453125;0.00084991455078125;9.17999997682273;919;100 mA
32.6487399175699;0.199981689453125;0.00085113525390625;9.18999997679748;920;100 mA
32.6587399175446;0.199920654296875;0.00084991455078125;9.19999997677223;921;100 mA
32.6687399175194;0.20001220703125;0.000848388671875;9.20999997674699;922;100 mA
32.6787399174941;0.200042724609375;0.000849609375;9.21999997672174;923;100 mA
32.6887399174689;0.200042724609375;0.000847778320312501;9.22999997669649;924;100 mA
32.6987399174436;0.199981689453125;0.00084991455078125;9.23999997667124;925;100 mA
32.7087399174184;0.20001220703125;0.00085418701171875;9.249999976646;926;100 mA
32.7187399173931;0.199981689453125;0.00085357666015625;9.25999997662075;927;100 mA
32.7287399173679;0.199981689453125;0.000855407714843751;9.2699999765955;928;100 mA
32.7387399173426;0.199920654296875;0.00085357666015625;9.27999997657025;929;100 mA
32.7487399173174;0.199981689453125;0.000855102539062499;9.289999976545;930;100 mA
32.7587399172921;0.199951171875;0.000848999023437499;9.29999997651976;931;100 mA
32.7687399172669;0.200042724609375;0.00084869384765625;9.30999997649451;932;100 mA
32.7787399172416;0.20001220703125;0.00085174560546875;9.31999997646926;933;100 mA
32.7887399172164;0.199951171875;0.000849609375;9.32999997644401;934;100 mA
32.7987399171911;0.199981689453125;0.0008526611328125;9.33999997641877;935;100 mA
32.8087399171659;0.199920654296875;0.00085296630859375;9.34999997639352;936;100 mA
32.8187399171406;0.199981689453125;0.000855407714843751;9.35999997636827;937;100 mA
32.8287399171154;0.20001220703125;0.00085968017578125;9.36999997634302;938;100 mA
32.8387399170902;0.20001220703125;0.0008575439453125;9.37999997631778;939;100 mA
32.8487399170649;0.20001220703125;0.00085968017578125;9.38999997629253;940;100 mA
32.8587399170397;0.20001220703125;0.00085601806640625;9.39999997626728;941;100 mA
32.8687399170144;0.199981689453125;0.000858459472656251;9.40999997624203;942;100 mA
32.8787399169892;0.199981689453125;0.000856933593750001;9.41999997621679;943;100 mA
32.8887399169639;0.20001220703125;0.000853881835937501;9.42999997619154;944;100 mA
32.8987399169387;0.199981689453125;0.000856628417968749;9.43999997616629;945;100 mA
32.9087399169134;0.199981689453125;0.00085357666015625;9.44999997614104;946;100 mA
32.9187399168882;0.199981689453125;0.000855102539062499;9.4599999761158;947;100 mA
32.9287399168629;0.20001220703125;0.000856628417968749;9.46999997609055;948;100 mA
32.9387399168377;0.20001220703125;0.000860595703125;9.4799999760653;949;100 mA
32.9487399168124;0.199951171875;0.000867919921875;9.48999997604005;950;100 mA
32.9587399167872;0.199981689453125;0.00086517333984375;9.49999997601481;951;100 mA
32.9687399167619;0.20001220703125;0.000866088867187501;9.50999997598956;952;100 mA
32.9787399167367;0.20001220703125;0.000865478515625;9.51999997596431;953;100 mA
32.9887399167114;0.199920654296875;0.00086395263671875;9.52999997593906;954;100 mA
32.9987399166862;0.199981689453125;0.000864257812499999;9.53999997591382;955;100 mA
33.0087399166609;0.199981689453125;0.000863037109375001;9.54999997588857;956;100 mA
33.0187399166357;0.199981689453125;0.000864562988281251;9.55999997586332;957;100 mA
33.0287399166104;0.199981689453125;0.000864562988281251;9.56999997583807;958;100 mA
33.0387399165852;0.200042724609375;0.0008673095703125;9.57999997581283;959;100 mA
33.04873991656;0.200042724609375;0.00086822509765625;9.58999997578758;960;100 mA
33.0587399165347;0.20001220703125;0.000867919921875;9.59999997576233;961;100 mA
33.0687399165095;0.20001220703125;0.00087493896484375;9.60999997573708;962;100 mA
33.0787399164842;0.20001220703125;0.000872802734375;9.61999997571183;963;100 mA
33.088739916459;0.200042724609375;0.0008770751953125;9.62999997568659;964;100 mA
33.0987399164337;0.199951171875;0.000875244140625001;9.63999997566134;965;100 mA
33.1087399164085;0.199981689453125;0.0008740234375;9.64999997563609;966;100 mA
33.1187399163832;0.199951171875;0.00087005615234375;9.65999997561084;967;100 mA
33.128739916358;0.20001220703125;0.00087005615234375;9.6699999755856;968;100 mA
33.1387399163327;0.199981689453125;0.00086822509765625;9.67999997556035;969;100 mA
33.1487399163075;0.199981689453125;0.0008697509765625;9.6899999755351;970;100 mA
33.1587399162822;0.199981689453125;0.000867919921875;9.69999997550985;971;100 mA
33.168739916257;0.199981689453125;0.000870666503906251;9.70999997548461;972;100 mA
33.1787399162317;0.20001220703125;0.000873413085937499;9.71999997545936;973;100 mA
33.1887399162065;0.200042724609375;0.00087890625;9.72999997543411;974;100 mA
33.1987399161812;0.199920654296875;0.00087860107421875;9.73999997540886;975;100 mA
33.208739916156;0.199981689453125;0.00087921142578125;9.74999997538362;976;100 mA
33.2187399161307;0.199951171875;0.000877990722656249;9.75999997535837;977;100 mA
33.2287399161055;0.20001220703125;0.000879516601562499;9.76999997533312;978;100 mA
33.2387399160802;0.199951171875;0.00087890625;9.77999997530787;979;100 mA
33.248739916055;0.199981689453125;0.000881042480468749;9.78999997528263;980;100 mA
33.2587399160298;0.199981689453125;0.000881042480468749;9.79999997525738;981;100 mA
33.2687399160045;0.199981689453125;0.00088165283203125;9.80999997523213;982;100 mA
33.2787399159793;0.199981689453125;0.00088348388671875;9.81999997520688;983;100 mA
33.288739915954;0.199981689453125;0.0008819580078125;9.82999997518164;984;100 mA
33.2987399159288;0.199951171875;0.0008837890625;9.83999997515639;985;100 mA
33.3087399159035;0.199951171875;0.00088653564453125;9.84999997513114;986;100 mA
33.3187399158783;0.199951171875;0.0008868408203125;9.85999997510589;987;100 mA
33.328739915853;0.199920654296875;0.0008892822265625;9.86999997508065;988;100 mA
33.3387399158278;0.199981689453125;0.000885620117187499;9.8799999750554;989;100 mA
33.3487399158025;0.199981689453125;0.00088775634765625;9.88999997503015;990;100 mA
33.3587399157773;0.199981689453125;0.000882873535156251;9.8999999750049;991;100 mA
33.368739915752;0.20001220703125;0.000881347656250001;9.90999997497966;992;100 mA
33.3787399157268;0.20001220703125;0.00088348388671875;9.91999997495441;993;100 mA
33.3887399157015;0.199951171875;0.000881042480468749;9.92999997492916;994;100 mA
33.3987399156763;0.19989013671875;0.0008831787109375;9.93999997490391;995;100 mA
33.408739915651;0.199920654296875;0.000882568359375;9.94999997487866;996;100 mA
33.4187399156258;0.20001220703125;0.0008819580078125;9.95999997485342;997;100 mA
33.4287399156005;0.199981689453125;0.000885620117187499;9.96999997482817;998;100 mA
33.4387399155753;0.199981689453125;0.000882873535156251;9.97999997480292;999;100 mA
33.44873991555;0.199981689453125;0.000885925292968751;9.98999997477767;1000;100 mA
