Time (s);WE(1).Potential (V);WE(1).Current (A);Corrected time (s);Index;Current range
33.9580249142642;-0.699798583984375;-0.324005126953125;0;1;100 mA
33.968024914239;-0.699462890625;-0.240997314453125;0.00999999997475243;2;100 mA
33.9780249142137;-0.699554443359375;-0.199951171875;0.0199999999495049;3;100 mA
33.9880249141885;-0.69952392578125;-0.17462158203125;0.0299999999242573;4;100 mA
33.9980249141632;-0.699554443359375;-0.157073974609375;0.0399999998990097;5;100 mA
34.008024914138;-0.6995849609375;-0.143829345703125;0.0499999998737621;6;100 mA
34.0180249141127;-0.699615478515625;-0.133697509765625;0.0599999998485146;7;100 mA
34.0280249140875;-0.699676513671875;-0.125274658203125;0.069999999823267;8;100 mA
34.0380249140622;-0.699676513671875;-0.118408203125;0.0799999997980194;9;100 mA
34.048024914037;-0.699615478515625;-0.112640380859375;0.0899999997727718;10;100 mA
34.0580249140118;-0.69964599609375;-0.10784912109375;0.0999999997475243;11;100 mA
34.0680249139865;-0.69970703125;-0.103515625;0.109999999722277;12;100 mA
34.0780249139613;-0.69964599609375;-0.099853515625;0.119999999697029;13;100 mA
34.088024913936;-0.69970703125;-0.09661865234375;0.129999999671782;14;100 mA
34.0980249139108;-0.69970703125;-0.0936279296875;0.139999999646534;15;100 mA
34.1080249138855;-0.699737548828125;-0.091064453125;0.149999999621286;16;100 mA
34.1180249138603;-0.69970703125;-0.088623046875;0.159999999596039;17;100 mA
34.128024913835;-0.699676513671875;-0.08648681640625;0.169999999570791;18;100 mA
34.1380249138098;-0.69964599609375;-0.084747314453125;0.179999999545544;19;100 mA
34.1480249137845;-0.699676513671875;-0.08294677734375;0.189999999520296;20;100 mA
34.1580249137593;-0.69964599609375;-0.0814208984375;0.199999999495049;21;100 mA
34.168024913734;-0.699676513671875;-0.079925537109375;0.209999999469801;22;100 mA
34.1780249137088;-0.69970703125;-0.078643798828125;0.219999999444553;23;100 mA
34.1880249136835;-0.699676513671875;-0.077423095703125;0.229999999419306;24;100 mA
34.1980249136583;-0.699676513671875;-0.076385498046875;0.239999999394058;25;100 mA
34.208024913633;-0.699737548828125;-0.07537841796875;0.249999999368811;26;100 mA
34.2180249136078;-0.69970703125;-0.07440185546875;0.259999999343563;27;100 mA
34.2280249135825;-0.699676513671875;-0.0736083984375;0.269999999318316;28;100 mA
34.2380249135573;-0.69970703125;-0.0726318359375;0.279999999293068;29;100 mA
34.248024913532;-0.69970703125;-0.071746826171875;0.28999999926782;30;100 mA
34.2580249135068;-0.69976806640625;-0.071319580078125;0.299999999242573;31;100 mA
34.2680249134816;-0.69970703125;-0.070526123046875;0.309999999217325;32;100 mA
34.2780249134563;-0.69964599609375;-0.07012939453125;0.319999999192078;33;100 mA
34.2880249134311;-0.69976806640625;-0.0694580078125;0.32999999916683;34;100 mA
34.2980249134058;-0.69970703125;-0.06915283203125;0.339999999141583;35;100 mA
34.3080249133806;-0.69970703125;-0.06854248046875;0.349999999116335;36;100 mA
34.3180249133553;-0.699737548828125;-0.068206787109375;0.359999999091087;37;100 mA
34.3280249133301;-0.699737548828125;-0.067657470703125;0.36999999906584;38;100 mA
34.3380249133048;-0.699737548828125;-0.06732177734375;0.379999999040592;39;100 mA
34.3480249132796;-0.69970703125;-0.066986083984375;0.389999999015345;40;100 mA
34.3580249132543;-0.69970703125;-0.0665283203125;0.399999998990097;41;100 mA
34.3680249132291;-0.699737548828125;-0.06622314453125;0.40999999896485;42;100 mA
34.3780249132038;-0.699676513671875;-0.06610107421875;0.419999998939602;43;100 mA
34.3880249131786;-0.699798583984375;-0.0655517578125;0.429999998914354;44;100 mA
34.3980249131533;-0.699676513671875;-0.065216064453125;0.439999998889107;45;100 mA
34.4080249131281;-0.69970703125;-0.064697265625;0.449999998863859;46;100 mA
34.4180249131028;-0.69976806640625;-0.06451416015625;0.459999998838612;47;100 mA
34.4280249130776;-0.699737548828125;-0.064056396484375;0.469999998813364;48;100 mA
34.4380249130523;-0.699676513671875;-0.063873291015625;0.479999998788116;49;100 mA
34.4480249130271;-0.699737548828125;-0.06365966796875;0.489999998762869;50;100 mA
34.4580249130019;-0.699737548828125;-0.06341552734375;0.499999998737621;51;100 mA
34.4680249129766;-0.699676513671875;-0.06329345703125;0.509999998712374;52;100 mA
34.4780249129514;-0.69970703125;-0.062957763671875;0.519999998687126;53;100 mA
34.4880249129261;-0.699737548828125;-0.06268310546875;0.529999998661879;54;100 mA
34.4980249129009;-0.69970703125;-0.062835693359375;0.539999998636631;55;100 mA
34.5080249128756;-0.69970703125;-0.062591552734375;0.549999998611383;56;100 mA
34.5180249128504;-0.69970703125;-0.062469482421875;0.559999998586136;57;100 mA
34.5280249128251;-0.699676513671875;-0.062103271484375;0.569999998560888;58;100 mA
34.5380249127999;-0.69970703125;-0.06201171875;0.579999998535641;59;100 mA
34.5480249127746;-0.69976806640625;-0.0615234375;0.589999998510393;60;100 mA
34.5580249127494;-0.69970703125;-0.061309814453125;0.599999998485146;61;100 mA
34.5680249127241;-0.69970703125;-0.061248779296875;0.609999998459898;62;100 mA
34.5780249126989;-0.69970703125;-0.06103515625;0.61999999843465;63;100 mA
34.5880249126736;-0.699737548828125;-0.0609130859375;0.629999998409403;64;100 mA
34.5980249126484;-0.69964599609375;-0.060760498046875;0.639999998384155;65;100 mA
34.6080249126231;-0.699676513671875;-0.0606689453125;0.649999998358908;66;100 mA
34.6180249125979;-0.69970703125;-0.06085205078125;0.65999999833366;67;100 mA
34.6280249125726;-0.69964599609375;-0.06060791015625;0.669999998308413;68;100 mA
34.6380249125474;-0.69970703125;-0.06060791015625;0.679999998283165;69;100 mA
34.6480249125221;-0.69976806640625;-0.06048583984375;0.689999998257917;70;100 mA
34.6580249124969;-0.699676513671875;-0.060516357421875;0.69999999823267;71;100 mA
34.6680249124717;-0.69970703125;-0.060302734375;0.709999998207422;72;100 mA
34.6780249124464;-0.69970703125;-0.06024169921875;0.719999998182175;73;100 mA
34.6880249124212;-0.69970703125;-0.060211181640625;0.729999998156927;74;100 mA
34.6980249123959;-0.699737548828125;-0.05999755859375;0.73999999813168;75;100 mA
34.7080249123707;-0.69970703125;-0.060028076171875;0.749999998106432;76;100 mA
34.7180249123454;-0.699737548828125;-0.059814453125;0.759999998081184;77;100 mA
34.7280249123202;-0.69970703125;-0.059844970703125;0.769999998055937;78;100 mA
34.7380249122949;-0.69970703125;-0.060211181640625;0.779999998030689;79;100 mA
34.7480249122697;-0.69976806640625;-0.059967041015625;0.789999998005442;80;100 mA
34.7580249122444;-0.699737548828125;-0.0599365234375;0.799999997980194;81;100 mA
34.7680249122192;-0.699737548828125;-0.059722900390625;0.809999997954947;82;100 mA
34.7780249121939;-0.69976806640625;-0.059661865234375;0.819999997929699;83;100 mA
34.7880249121687;-0.699737548828125;-0.05950927734375;0.829999997904451;84;100 mA
34.7980249121434;-0.69970703125;-0.0595703125;0.839999997879204;85;100 mA
34.8080249121182;-0.699676513671875;-0.0595703125;0.849999997853956;86;100 mA
34.8180249120929;-0.69976806640625;-0.059478759765625;0.859999997828709;87;100 mA
34.8280249120677;-0.699737548828125;-0.05963134765625;0.869999997803461;88;100 mA
34.8380249120424;-0.69970703125;-0.0594482421875;0.879999997778214;89;100 mA
34.8480249120172;-0.699737548828125;-0.059356689453125;0.889999997752966;90;100 mA
34.8580249119919;-0.699798583984375;-0.059783935546875;0.899999997727718;91;100 mA
34.8680249119667;-0.69970703125;-0.059600830078125;0.909999997702471;92;100 mA
34.8780249119415;-0.69976806640625;-0.059783935546875;0.919999997677223;93;100 mA
34.8880249119162;-0.699737548828125;-0.059539794921875;0.929999997651976;94;100 mA
34.898024911891;-0.69970703125;-0.059661865234375;0.939999997626728;95;100 mA
34.9080249118657;-0.699798583984375;-0.059295654296875;0.949999997601481;96;100 mA
34.9180249118405;-0.69976806640625;-0.05926513671875;0.959999997576233;97;100 mA
34.9280249118152;-0.69976806640625;-0.05908203125;0.969999997550985;98;100 mA
34.93802491179;-0.699676513671875;-0.058990478515625;0.979999997525738;99;100 mA
34.9480249117647;-0.699676513671875;-0.05902099609375;0.98999999750049;100;100 mA
34.9580249117395;-0.69976806640625;-0.058837890625;0.999999997475243;101;100 mA
34.9680249117142;-0.699676513671875;-0.0589599609375;1.00999999745;102;100 mA
34.978024911689;-0.699737548828125;-0.059112548828125;1.01999999742475;103;100 mA
34.9880249116637;-0.69976806640625;-0.05889892578125;1.0299999973995;104;100 mA
34.9980249116385;-0.699676513671875;-0.05877685546875;1.03999999737425;105;100 mA
35.0080249116132;-0.69970703125;-0.05859375;1.049999997349;106;100 mA
35.018024911588;-0.699737548828125;-0.058746337890625;1.05999999732376;107;100 mA
35.0280249115627;-0.69970703125;-0.0584716796875;1.06999999729851;108;100 mA
35.0380249115375;-0.69970703125;-0.05853271484375;1.07999999727326;109;100 mA
35.0480249115122;-0.69970703125;-0.058502197265625;1.08999999724801;110;100 mA
35.058024911487;-0.69970703125;-0.058380126953125;1.09999999722277;111;100 mA
35.0680249114617;-0.69976806640625;-0.058380126953125;1.10999999719752;112;100 mA
35.0780249114365;-0.699737548828125;-0.05816650390625;1.11999999717227;113;100 mA
35.0880249114113;-0.69976806640625;-0.058013916015625;1.12999999714702;114;100 mA
35.098024911386;-0.69976806640625;-0.058349609375;1.13999999712178;115;100 mA
35.1080249113608;-0.699737548828125;-0.058197021484375;1.14999999709653;116;100 mA
35.1180249113355;-0.69976806640625;-0.058135986328125;1.15999999707128;117;100 mA
35.1280249113103;-0.699737548828125;-0.05792236328125;1.16999999704603;118;100 mA
35.138024911285;-0.699737548828125;-0.0579833984375;1.17999999702079;119;100 mA
35.1480249112598;-0.699737548828125;-0.057586669921875;1.18999999699554;120;100 mA
35.1580249112345;-0.69970703125;-0.057525634765625;1.19999999697029;121;100 mA
35.1680249112093;-0.69970703125;-0.057647705078125;1.20999999694504;122;100 mA
35.178024911184;-0.69970703125;-0.0576171875;1.2199999969198;123;100 mA
35.1880249111588;-0.699798583984375;-0.057647705078125;1.22999999689455;124;100 mA
35.1980249111335;-0.699737548828125;-0.057586669921875;1.2399999968693;125;100 mA
35.2080249111083;-0.699798583984375;-0.05755615234375;1.24999999684405;126;100 mA
35.218024911083;-0.69976806640625;-0.05780029296875;1.25999999681881;127;100 mA
35.2280249110578;-0.69970703125;-0.057647705078125;1.26999999679356;128;100 mA
35.2380249110325;-0.69976806640625;-0.05767822265625;1.27999999676831;129;100 mA
35.2480249110073;-0.699737548828125;-0.057708740234375;1.28999999674306;130;100 mA
35.258024910982;-0.699737548828125;-0.057861328125;1.29999999671782;131;100 mA
35.2680249109568;-0.69970703125;-0.057708740234375;1.30999999669257;132;100 mA
35.2780249109315;-0.699676513671875;-0.057708740234375;1.31999999666732;133;100 mA
35.2880249109063;-0.699737548828125;-0.057769775390625;1.32999999664207;134;100 mA
35.2980249108811;-0.69970703125;-0.057647705078125;1.33999999661683;135;100 mA
35.3080249108558;-0.69976806640625;-0.05780029296875;1.34999999659158;136;100 mA
35.3180249108306;-0.69970703125;-0.057647705078125;1.35999999656633;137;100 mA
35.3280249108053;-0.69970703125;-0.057769775390625;1.36999999654108;138;100 mA
35.3380249107801;-0.69976806640625;-0.05816650390625;1.37999999651583;139;100 mA
35.3480249107548;-0.699676513671875;-0.058013916015625;1.38999999649059;140;100 mA
35.3580249107296;-0.69970703125;-0.05810546875;1.39999999646534;141;100 mA
35.3680249107043;-0.69976806640625;-0.058013916015625;1.40999999644009;142;100 mA
35.3780249106791;-0.699737548828125;-0.058013916015625;1.41999999641484;143;100 mA
35.3880249106538;-0.69970703125;-0.05792236328125;1.4299999963896;144;100 mA
35.3980249106286;-0.699615478515625;-0.057952880859375;1.43999999636435;145;100 mA
35.4080249106033;-0.699737548828125;-0.057952880859375;1.4499999963391;146;100 mA
35.4180249105781;-0.699737548828125;-0.057830810546875;1.45999999631385;147;100 mA
35.4280249105528;-0.699676513671875;-0.057861328125;1.46999999628861;148;100 mA
35.4380249105276;-0.69970703125;-0.057647705078125;1.47999999626336;149;100 mA
35.4480249105023;-0.699737548828125;-0.057586669921875;1.48999999623811;150;100 mA
35.4580249104771;-0.699798583984375;-0.057952880859375;1.49999999621286;151;100 mA
35.4680249104518;-0.69976806640625;-0.05780029296875;1.50999999618762;152;100 mA
35.4780249104266;-0.699798583984375;-0.058074951171875;1.51999999616237;153;100 mA
35.4880249104014;-0.69976806640625;-0.0579833984375;1.52999999613712;154;100 mA
35.4980249103761;-0.699737548828125;-0.0582275390625;1.53999999611187;155;100 mA
35.5080249103509;-0.699676513671875;-0.058013916015625;1.54999999608663;156;100 mA
35.5180249103256;-0.699676513671875;-0.058074951171875;1.55999999606138;157;100 mA
35.5280249103004;-0.699676513671875;-0.058013916015625;1.56999999603613;158;100 mA
35.5380249102751;-0.69976806640625;-0.058013916015625;1.57999999601088;159;100 mA
35.5480249102499;-0.69970703125;-0.05804443359375;1.58999999598564;160;100 mA
35.5580249102246;-0.69976806640625;-0.057952880859375;1.59999999596039;161;100 mA
35.5680249101994;-0.699737548828125;-0.058135986328125;1.60999999593514;162;100 mA
35.5780249101741;-0.699737548828125;-0.058349609375;1.61999999590989;163;100 mA
35.5880249101489;-0.699737548828125;-0.05828857421875;1.62999999588465;164;100 mA
35.5980249101236;-0.69970703125;-0.058258056640625;1.6399999958594;165;100 mA
35.6080249100984;-0.699737548828125;-0.05816650390625;1.64999999583415;166;100 mA
35.6180249100731;-0.69976806640625;-0.058380126953125;1.6599999958089;167;100 mA
35.6280249100479;-0.699737548828125;-0.05816650390625;1.66999999578366;168;100 mA
35.6380249100226;-0.699737548828125;-0.058197021484375;1.67999999575841;169;100 mA
35.6480249099974;-0.699737548828125;-0.058197021484375;1.68999999573316;170;100 mA
35.6580249099721;-0.699737548828125;-0.05804443359375;1.69999999570791;171;100 mA
35.6680249099469;-0.699737548828125;-0.05804443359375;1.70999999568267;172;100 mA
35.6780249099216;-0.69976806640625;-0.057861328125;1.71999999565742;173;100 mA
35.6880249098964;-0.699737548828125;-0.0577392578125;1.72999999563217;174;100 mA
35.6980249098712;-0.699798583984375;-0.05810546875;1.73999999560692;175;100 mA
35.7080249098459;-0.699737548828125;-0.058013916015625;1.74999999558167;176;100 mA
35.7180249098207;-0.699676513671875;-0.05804443359375;1.75999999555643;177;100 mA
35.7280249097954;-0.699676513671875;-0.057891845703125;1.76999999553118;178;100 mA
35.7380249097702;-0.699798583984375;-0.0579833984375;1.77999999550593;179;100 mA
35.7480249097449;-0.69976806640625;-0.057647705078125;1.78999999548068;180;100 mA
35.7580249097197;-0.69976806640625;-0.057647705078125;1.79999999545544;181;100 mA
35.7680249096944;-0.69976806640625;-0.0577392578125;1.80999999543019;182;100 mA
35.7780249096692;-0.699737548828125;-0.05767822265625;1.81999999540494;183;100 mA
35.7880249096439;-0.69964599609375;-0.05767822265625;1.82999999537969;184;100 mA
35.7980249096187;-0.699676513671875;-0.05767822265625;1.83999999535445;185;100 mA
35.8080249095934;-0.699737548828125;-0.057586669921875;1.8499999953292;186;100 mA
35.8180249095682;-0.69976806640625;-0.057861328125;1.85999999530395;187;100 mA
35.8280249095429;-0.69976806640625;-0.057708740234375;1.8699999952787;188;100 mA
35.8380249095177;-0.69970703125;-0.05780029296875;1.87999999525346;189;100 mA
35.8480249094924;-0.699737548828125;-0.057830810546875;1.88999999522821;190;100 mA
35.8580249094672;-0.699798583984375;-0.0579833984375;1.89999999520296;191;100 mA
35.8680249094419;-0.699737548828125;-0.05792236328125;1.90999999517771;192;100 mA
35.8780249094167;-0.69970703125;-0.057952880859375;1.91999999515247;193;100 mA
35.8880249093914;-0.699737548828125;-0.0579833984375;1.92999999512722;194;100 mA
35.8980249093662;-0.69976806640625;-0.05792236328125;1.93999999510197;195;100 mA
35.908024909341;-0.69970703125;-0.05804443359375;1.94999999507672;196;100 mA
35.9180249093157;-0.699737548828125;-0.057861328125;1.95999999505148;197;100 mA
35.9280249092905;-0.699737548828125;-0.057952880859375;1.96999999502623;198;100 mA
35.9380249092652;-0.69976806640625;-0.05828857421875;1.97999999500098;199;100 mA
35.94802490924;-0.699737548828125;-0.058135986328125;1.98999999497573;200;100 mA
35.9580249092147;-0.699676513671875;-0.05816650390625;1.99999999495049;201;100 mA
35.9680249091895;-0.699676513671875;-0.058135986328125;2.00999999492524;202;100 mA
35.9780249091642;-0.69976806640625;-0.058135986328125;2.01999999489999;203;100 mA
35.988024909139;-0.69976806640625;-0.058074951171875;2.02999999487474;204;100 mA
35.9980249091137;-0.699737548828125;-0.058135986328125;2.0399999948495;205;100 mA
36.0080249090885;-0.699737548828125;-0.058135986328125;2.04999999482425;206;100 mA
36.0180249090632;-0.69970703125;-0.05804443359375;2.059999994799;207;100 mA
36.028024909038;-0.69976806640625;-0.05810546875;2.06999999477375;208;100 mA
36.0380249090127;-0.699737548828125;-0.05792236328125;2.0799999947485;209;100 mA
36.0480249089875;-0.699737548828125;-0.057861328125;2.08999999472326;210;100 mA
36.0580249089622;-0.699737548828125;-0.0582275390625;2.09999999469801;211;100 mA
36.068024908937;-0.699737548828125;-0.05810546875;2.10999999467276;212;100 mA
36.0780249089117;-0.69970703125;-0.058319091796875;2.11999999464751;213;100 mA
36.0880249088865;-0.699737548828125;-0.0582275390625;2.12999999462227;214;100 mA
36.0980249088612;-0.69976806640625;-0.05841064453125;2.13999999459702;215;100 mA
36.108024908836;-0.69970703125;-0.05816650390625;2.14999999457177;216;100 mA
36.1180249088108;-0.69970703125;-0.058197021484375;2.15999999454652;217;100 mA
36.1280249087855;-0.699737548828125;-0.05816650390625;2.16999999452128;218;100 mA
36.1380249087603;-0.699676513671875;-0.05810546875;2.17999999449603;219;100 mA
36.148024908735;-0.69970703125;-0.05816650390625;2.18999999447078;220;100 mA
36.1580249087098;-0.69964599609375;-0.058074951171875;2.19999999444553;221;100 mA
36.1680249086845;-0.699676513671875;-0.058197021484375;2.20999999442029;222;100 mA
36.1780249086593;-0.699737548828125;-0.05841064453125;2.21999999439504;223;100 mA
36.188024908634;-0.699737548828125;-0.058319091796875;2.22999999436979;224;100 mA
36.1980249086088;-0.699737548828125;-0.05828857421875;2.23999999434454;225;100 mA
36.2080249085835;-0.69970703125;-0.058197021484375;2.2499999943193;226;100 mA
36.2180249085583;-0.69976806640625;-0.058441162109375;2.25999999429405;227;100 mA
36.228024908533;-0.69970703125;-0.058197021484375;2.2699999942688;228;100 mA
36.2380249085078;-0.69976806640625;-0.05816650390625;2.27999999424355;229;100 mA
36.2480249084825;-0.699737548828125;-0.05810546875;2.28999999421831;230;100 mA
36.2580249084573;-0.69970703125;-0.057891845703125;2.29999999419306;231;100 mA
36.268024908432;-0.699737548828125;-0.057830810546875;2.30999999416781;232;100 mA
36.2780249084068;-0.69976806640625;-0.0576171875;2.31999999414256;233;100 mA
36.2880249083815;-0.69970703125;-0.0574951171875;2.32999999411732;234;100 mA
36.2980249083563;-0.699737548828125;-0.057861328125;2.33999999409207;235;100 mA
36.308024908331;-0.69970703125;-0.05780029296875;2.34999999406682;236;100 mA
36.3180249083058;-0.699737548828125;-0.05780029296875;2.35999999404157;237;100 mA
36.3280249082806;-0.69970703125;-0.05767822265625;2.36999999401633;238;100 mA
36.3380249082553;-0.69970703125;-0.05780029296875;2.37999999399108;239;100 mA
36.3480249082301;-0.699676513671875;-0.057464599609375;2.38999999396583;240;100 mA
36.3580249082048;-0.69976806640625;-0.05743408203125;2.39999999394058;241;100 mA
36.3680249081796;-0.69970703125;-0.05755615234375;2.40999999391533;242;100 mA
36.3780249081543;-0.69970703125;-0.0574951171875;2.41999999389009;243;100 mA
36.3880249081291;-0.699737548828125;-0.057464599609375;2.42999999386484;244;100 mA
36.3980249081038;-0.699737548828125;-0.057403564453125;2.43999999383959;245;100 mA
36.4080249080786;-0.699737548828125;-0.057342529296875;2.44999999381434;246;100 mA
36.4180249080533;-0.69970703125;-0.05755615234375;2.4599999937891;247;100 mA
36.4280249080281;-0.699737548828125;-0.057464599609375;2.46999999376385;248;100 mA
36.4380249080028;-0.699737548828125;-0.0574951171875;2.4799999937386;249;100 mA
36.4480249079776;-0.699676513671875;-0.0574951171875;2.48999999371335;250;100 mA
36.4580249079523;-0.699737548828125;-0.057586669921875;2.49999999368811;251;100 mA
36.4680249079271;-0.699737548828125;-0.05743408203125;2.50999999366286;252;100 mA
36.4780249079018;-0.69976806640625;-0.057403564453125;2.51999999363761;253;100 mA
36.4880249078766;-0.699737548828125;-0.057342529296875;2.52999999361236;254;100 mA
36.4980249078513;-0.69970703125;-0.057281494140625;2.53999999358712;255;100 mA
36.5080249078261;-0.69976806640625;-0.057373046875;2.54999999356187;256;100 mA
36.5180249078009;-0.69976806640625;-0.057220458984375;2.55999999353662;257;100 mA
36.5280249077756;-0.69970703125;-0.05731201171875;2.56999999351137;258;100 mA
36.5380249077504;-0.699798583984375;-0.05767822265625;2.57999999348613;259;100 mA
36.5480249077251;-0.69970703125;-0.05755615234375;2.58999999346088;260;100 mA
36.5580249076999;-0.69970703125;-0.057647705078125;2.59999999343563;261;100 mA
36.5680249076746;-0.699676513671875;-0.057525634765625;2.60999999341038;262;100 mA
36.5780249076494;-0.699737548828125;-0.057586669921875;2.61999999338514;263;100 mA
36.5880249076241;-0.699737548828125;-0.057525634765625;2.62999999335989;264;100 mA
36.5980249075989;-0.699737548828125;-0.0576171875;2.63999999333464;265;100 mA
36.6080249075736;-0.699737548828125;-0.0576171875;2.64999999330939;266;100 mA
36.6180249075484;-0.699737548828125;-0.05755615234375;2.65999999328415;267;100 mA
36.6280249075231;-0.69970703125;-0.0576171875;2.6699999932589;268;100 mA
36.6380249074979;-0.69976806640625;-0.05743408203125;2.67999999323365;269;100 mA
36.6480249074726;-0.699737548828125;-0.057373046875;2.6899999932084;270;100 mA
36.6580249074474;-0.699676513671875;-0.057647705078125;2.69999999318316;271;100 mA
36.6680249074221;-0.699737548828125;-0.057525634765625;2.70999999315791;272;100 mA
36.6780249073969;-0.69970703125;-0.057708740234375;2.71999999313266;273;100 mA
36.6880249073716;-0.69970703125;-0.057525634765625;2.72999999310741;274;100 mA
36.6980249073464;-0.69964599609375;-0.057647705078125;2.73999999308217;275;100 mA
36.7080249073211;-0.69970703125;-0.05743408203125;2.74999999305692;276;100 mA
36.7180249072959;-0.699737548828125;-0.057403564453125;2.75999999303167;277;100 mA
36.7280249072707;-0.699737548828125;-0.057403564453125;2.76999999300642;278;100 mA
36.7380249072454;-0.69976806640625;-0.057373046875;2.77999999298117;279;100 mA
36.7480249072202;-0.699737548828125;-0.057464599609375;2.78999999295593;280;100 mA
36.7580249071949;-0.69976806640625;-0.057373046875;2.79999999293068;281;100 mA
36.7680249071697;-0.699676513671875;-0.057525634765625;2.80999999290543;282;100 mA
36.7780249071444;-0.6998291015625;-0.0577392578125;2.81999999288018;283;100 mA
36.7880249071192;-0.699737548828125;-0.05767822265625;2.82999999285494;284;100 mA
36.7980249070939;-0.699737548828125;-0.057708740234375;2.83999999282969;285;100 mA
36.8080249070687;-0.69976806640625;-0.05755615234375;2.84999999280444;286;100 mA
36.8180249070434;-0.699676513671875;-0.057769775390625;2.85999999277919;287;100 mA
36.8280249070182;-0.699737548828125;-0.0574951171875;2.86999999275395;288;100 mA
36.8380249069929;-0.699737548828125;-0.0574951171875;2.8799999927287;289;100 mA
36.8480249069677;-0.69970703125;-0.057403564453125;2.88999999270345;290;100 mA
36.8580249069424;-0.69970703125;-0.057281494140625;2.8999999926782;291;100 mA
36.8680249069172;-0.69976806640625;-0.0572509765625;2.90999999265296;292;100 mA
36.8780249068919;-0.69970703125;-0.05712890625;2.91999999262771;293;100 mA
36.8880249068667;-0.699737548828125;-0.05706787109375;2.92999999260246;294;100 mA
36.8980249068414;-0.69970703125;-0.057464599609375;2.93999999257721;295;100 mA
36.9080249068162;-0.69976806640625;-0.057373046875;2.94999999255197;296;100 mA
36.9180249067909;-0.699676513671875;-0.057403564453125;2.95999999252672;297;100 mA
36.9280249067657;-0.69970703125;-0.05731201171875;2.96999999250147;298;100 mA
36.9380249067405;-0.69970703125;-0.057342529296875;2.97999999247622;299;100 mA
36.9480249067152;-0.699737548828125;-0.0570068359375;2.98999999245098;300;100 mA
36.95802490669;-0.699737548828125;-0.056976318359375;2.99999999242573;301;100 mA
36.9680249066647;-0.699798583984375;-0.0570068359375;3.00999999240048;302;100 mA
36.9780249066395;-0.699737548828125;-0.056915283203125;3.01999999237523;303;100 mA
36.9880249066142;-0.69970703125;-0.056915283203125;3.02999999234999;304;100 mA
36.998024906589;-0.69970703125;-0.056854248046875;3.03999999232474;305;100 mA
37.0080249065637;-0.69970703125;-0.056732177734375;3.04999999229949;306;100 mA
37.0180249065385;-0.69970703125;-0.0570068359375;3.05999999227424;307;100 mA
37.0280249065132;-0.69970703125;-0.056854248046875;3.069999992249;308;100 mA
37.038024906488;-0.699676513671875;-0.056854248046875;3.07999999222375;309;100 mA
37.0480249064627;-0.699737548828125;-0.056793212890625;3.0899999921985;310;100 mA
37.0580249064375;-0.699676513671875;-0.0567626953125;3.09999999217325;311;100 mA
37.0680249064122;-0.69976806640625;-0.056488037109375;3.109999992148;312;100 mA
37.078024906387;-0.69976806640625;-0.056396484375;3.11999999212276;313;100 mA
37.0880249063617;-0.699737548828125;-0.05621337890625;3.12999999209751;314;100 mA
37.0980249063365;-0.699676513671875;-0.05609130859375;3.13999999207226;315;100 mA
37.1080249063112;-0.699676513671875;-0.056121826171875;3.14999999204701;316;100 mA
37.118024906286;-0.69970703125;-0.055938720703125;3.15999999202177;317;100 mA
37.1280249062607;-0.699737548828125;-0.0560302734375;3.16999999199652;318;100 mA
37.1380249062355;-0.699676513671875;-0.056365966796875;3.17999999197127;319;100 mA
37.1480249062103;-0.69976806640625;-0.056182861328125;3.18999999194602;320;100 mA
37.158024906185;-0.69970703125;-0.056243896484375;3.19999999192078;321;100 mA
37.1680249061598;-0.69970703125;-0.056060791015625;3.20999999189553;322;100 mA
37.1780249061345;-0.699798583984375;-0.0560302734375;3.21999999187028;323;100 mA
37.1880249061093;-0.69976806640625;-0.055877685546875;3.22999999184503;324;100 mA
37.198024906084;-0.69976806640625;-0.055877685546875;3.23999999181979;325;100 mA
37.2080249060588;-0.699676513671875;-0.055816650390625;3.24999999179454;326;100 mA
37.2180249060335;-0.69976806640625;-0.055694580078125;3.25999999176929;327;100 mA
37.2280249060083;-0.699737548828125;-0.055694580078125;3.26999999174404;328;100 mA
37.238024905983;-0.69970703125;-0.05548095703125;3.2799999917188;329;100 mA
37.2480249059578;-0.69976806640625;-0.055450439453125;3.28999999169355;330;100 mA
37.2580249059325;-0.69970703125;-0.055755615234375;3.2999999916683;331;100 mA
37.2680249059073;-0.69976806640625;-0.05572509765625;3.30999999164305;332;100 mA
37.278024905882;-0.69976806640625;-0.055938720703125;3.31999999161781;333;100 mA
37.2880249058568;-0.69970703125;-0.05584716796875;3.32999999159256;334;100 mA
37.2980249058315;-0.69976806640625;-0.055999755859375;3.33999999156731;335;100 mA
37.3080249058063;-0.69970703125;-0.05584716796875;3.34999999154206;336;100 mA
37.318024905781;-0.699798583984375;-0.05584716796875;3.35999999151682;337;100 mA
37.3280249057558;-0.69970703125;-0.055877685546875;3.36999999149157;338;100 mA
37.3380249057305;-0.699676513671875;-0.05584716796875;3.37999999146632;339;100 mA
37.3480249057053;-0.69976806640625;-0.055938720703125;3.38999999144107;340;100 mA
37.3580249056801;-0.699798583984375;-0.055816650390625;3.39999999141583;341;100 mA
37.3680249056548;-0.699737548828125;-0.055938720703125;3.40999999139058;342;100 mA
37.3780249056296;-0.699798583984375;-0.056121826171875;3.41999999136533;343;100 mA
37.3880249056043;-0.699737548828125;-0.056121826171875;3.42999999134008;344;100 mA
37.3980249055791;-0.69976806640625;-0.05621337890625;3.43999999131483;345;100 mA
37.4080249055538;-0.699798583984375;-0.05621337890625;3.44999999128959;346;100 mA
37.4180249055286;-0.69976806640625;-0.056549072265625;3.45999999126434;347;100 mA
37.4280249055033;-0.69970703125;-0.056427001953125;3.46999999123909;348;100 mA
37.4380249054781;-0.69976806640625;-0.056488037109375;3.47999999121384;349;100 mA
37.4480249054528;-0.69970703125;-0.05657958984375;3.4899999911886;350;100 mA
37.4580249054276;-0.699737548828125;-0.056488037109375;3.49999999116335;351;100 mA
37.4680249054023;-0.69970703125;-0.0565185546875;3.5099999911381;352;100 mA
37.4780249053771;-0.69976806640625;-0.05645751953125;3.51999999111285;353;100 mA
37.4880249053518;-0.69970703125;-0.056396484375;3.52999999108761;354;100 mA
37.4980249053266;-0.699676513671875;-0.056732177734375;3.53999999106236;355;100 mA
37.5080249053013;-0.69976806640625;-0.05670166015625;3.54999999103711;356;100 mA
37.5180249052761;-0.699798583984375;-0.056671142578125;3.55999999101186;357;100 mA
37.5280249052508;-0.69970703125;-0.056640625;3.56999999098662;358;100 mA
37.5380249052256;-0.69970703125;-0.0567626953125;3.57999999096137;359;100 mA
37.5480249052004;-0.699737548828125;-0.05657958984375;3.58999999093612;360;100 mA
37.5580249051751;-0.699737548828125;-0.056671142578125;3.59999999091087;361;100 mA
37.5680249051499;-0.699676513671875;-0.05682373046875;3.60999999088563;362;100 mA
37.5780249051246;-0.699737548828125;-0.05682373046875;3.61999999086038;363;100 mA
37.5880249050994;-0.69976806640625;-0.056976318359375;3.62999999083513;364;100 mA
37.5980249050741;-0.69976806640625;-0.056976318359375;3.63999999080988;365;100 mA
37.6080249050489;-0.699737548828125;-0.05694580078125;3.64999999078464;366;100 mA
37.6180249050236;-0.69970703125;-0.057220458984375;3.65999999075939;367;100 mA
37.6280249049984;-0.69976806640625;-0.057098388671875;3.66999999073414;368;100 mA
37.6380249049731;-0.69976806640625;-0.057159423828125;3.67999999070889;369;100 mA
37.6480249049479;-0.699737548828125;-0.057159423828125;3.68999999068365;370;100 mA
37.6580249049226;-0.69970703125;-0.057281494140625;3.6999999906584;371;100 mA
37.6680249048974;-0.699737548828125;-0.05712890625;3.70999999063315;372;100 mA
37.6780249048721;-0.69976806640625;-0.057159423828125;3.7199999906079;373;100 mA
37.6880249048469;-0.69970703125;-0.05706787109375;3.72999999058266;374;100 mA
37.6980249048216;-0.69970703125;-0.05706787109375;3.73999999055741;375;100 mA
37.7080249047964;-0.69976806640625;-0.05718994140625;3.74999999053216;376;100 mA
37.7180249047711;-0.69970703125;-0.05706787109375;3.75999999050691;377;100 mA
37.7280249047459;-0.699737548828125;-0.057159423828125;3.76999999048167;378;100 mA
37.7380249047206;-0.699737548828125;-0.057464599609375;3.77999999045642;379;100 mA
37.7480249046954;-0.699676513671875;-0.057281494140625;3.78999999043117;380;100 mA
37.7580249046702;-0.699737548828125;-0.057281494140625;3.79999999040592;381;100 mA
37.7680249046449;-0.699737548828125;-0.05706787109375;3.80999999038067;382;100 mA
37.7780249046197;-0.699737548828125;-0.05706787109375;3.81999999035543;383;100 mA
37.7880249045944;-0.69976806640625;-0.05694580078125;3.82999999033018;384;100 mA
37.7980249045692;-0.69970703125;-0.056976318359375;3.83999999030493;385;100 mA
37.8080249045439;-0.699676513671875;-0.056976318359375;3.84999999027968;386;100 mA
37.8180249045187;-0.699737548828125;-0.056915283203125;3.85999999025444;387;100 mA
37.8280249044934;-0.69970703125;-0.056915283203125;3.86999999022919;388;100 mA
37.8380249044682;-0.69970703125;-0.056793212890625;3.87999999020394;389;100 mA
37.8480249044429;-0.699676513671875;-0.05670166015625;3.88999999017869;390;100 mA
37.8580249044177;-0.69970703125;-0.05694580078125;3.89999999015345;391;100 mA
37.8680249043924;-0.699737548828125;-0.056854248046875;3.9099999901282;392;100 mA
37.8780249043672;-0.699737548828125;-0.05694580078125;3.91999999010295;393;100 mA
37.8880249043419;-0.699737548828125;-0.05670166015625;3.9299999900777;394;100 mA
37.8980249043167;-0.699737548828125;-0.056732177734375;3.93999999005246;395;100 mA
37.9080249042914;-0.699737548828125;-0.05645751953125;3.94999999002721;396;100 mA
37.9180249042662;-0.69970703125;-0.056365966796875;3.95999999000196;397;100 mA
37.9280249042409;-0.699676513671875;-0.056365966796875;3.96999998997671;398;100 mA
37.9380249042157;-0.69970703125;-0.056304931640625;3.97999998995147;399;100 mA
37.9480249041904;-0.69976806640625;-0.056396484375;3.98999998992622;400;100 mA
37.9580249041652;-0.69976806640625;-0.056304931640625;3.99999998990097;401;100 mA
37.96802490414;-0.69970703125;-0.056427001953125;4.00999998987572;402;100 mA
37.9780249041147;-0.69970703125;-0.056610107421875;4.01999998985048;403;100 mA
37.9880249040895;-0.69976806640625;-0.0565185546875;4.02999998982523;404;100 mA
37.9980249040642;-0.69970703125;-0.056549072265625;4.03999998979998;405;100 mA
38.008024904039;-0.69970703125;-0.05645751953125;4.04999998977473;406;100 mA
38.0180249040137;-0.69970703125;-0.056671142578125;4.05999998974949;407;100 mA
38.0280249039885;-0.699798583984375;-0.056488037109375;4.06999998972424;408;100 mA
38.0380249039632;-0.699737548828125;-0.05645751953125;4.07999998969899;409;100 mA
38.048024903938;-0.699737548828125;-0.0565185546875;4.08999998967374;410;100 mA
38.0580249039127;-0.699676513671875;-0.05645751953125;4.0999999896485;411;100 mA
38.0680249038875;-0.69970703125;-0.05645751953125;4.10999998962325;412;100 mA
38.0780249038622;-0.69976806640625;-0.056365966796875;4.119999989598;413;100 mA
38.088024903837;-0.699737548828125;-0.05633544921875;4.12999998957275;414;100 mA
38.0980249038117;-0.699737548828125;-0.056640625;4.1399999895475;415;100 mA
38.1080249037865;-0.69970703125;-0.056549072265625;4.14999998952226;416;100 mA
38.1180249037612;-0.699737548828125;-0.056488037109375;4.15999998949701;417;100 mA
38.128024903736;-0.69970703125;-0.056396484375;4.16999998947176;418;100 mA
38.1380249037107;-0.69970703125;-0.056427001953125;4.17999998944651;419;100 mA
38.1480249036855;-0.699737548828125;-0.05621337890625;4.18999998942127;420;100 mA
38.1580249036602;-0.69976806640625;-0.05621337890625;4.19999998939602;421;100 mA
38.168024903635;-0.69976806640625;-0.0562744140625;4.20999998937077;422;100 mA
38.1780249036098;-0.699737548828125;-0.0562744140625;4.21999998934552;423;100 mA
38.1880249035845;-0.69970703125;-0.05633544921875;4.22999998932028;424;100 mA
38.1980249035593;-0.699737548828125;-0.05621337890625;4.23999998929503;425;100 mA
38.208024903534;-0.699737548828125;-0.056121826171875;4.24999998926978;426;100 mA
38.2180249035088;-0.69970703125;-0.056427001953125;4.25999998924453;427;100 mA
38.2280249034835;-0.69970703125;-0.056304931640625;4.26999998921929;428;100 mA
38.2380249034583;-0.699737548828125;-0.056396484375;4.27999998919404;429;100 mA
38.248024903433;-0.699676513671875;-0.056365966796875;4.28999998916879;430;100 mA
38.2580249034078;-0.699798583984375;-0.056427001953125;4.29999998914354;431;100 mA
38.2680249033825;-0.699737548828125;-0.05621337890625;4.3099999891183;432;100 mA
38.2780249033573;-0.699737548828125;-0.056243896484375;4.31999998909305;433;100 mA
38.288024903332;-0.69976806640625;-0.056060791015625;4.3299999890678;434;100 mA
38.2980249033068;-0.699737548828125;-0.0560302734375;4.33999998904255;435;100 mA
38.3080249032815;-0.699737548828125;-0.056060791015625;4.34999998901731;436;100 mA
38.3180249032563;-0.69970703125;-0.055938720703125;4.35999998899206;437;100 mA
38.328024903231;-0.69970703125;-0.05596923828125;4.36999998896681;438;100 mA
38.3380249032058;-0.69976806640625;-0.056243896484375;4.37999998894156;439;100 mA
38.3480249031805;-0.699676513671875;-0.05609130859375;4.38999998891632;440;100 mA
38.3580249031553;-0.69976806640625;-0.05615234375;4.39999998889107;441;100 mA
38.36802490313;-0.699737548828125;-0.0560302734375;4.40999998886582;442;100 mA
38.3780249031048;-0.69976806640625;-0.056060791015625;4.41999998884057;443;100 mA
38.3880249030796;-0.69970703125;-0.05596923828125;4.42999998881533;444;100 mA
38.3980249030543;-0.699737548828125;-0.0560302734375;4.43999998879008;445;100 mA
38.4080249030291;-0.699676513671875;-0.055999755859375;4.44999998876483;446;100 mA
38.4180249030038;-0.699737548828125;-0.055908203125;4.45999998873958;447;100 mA
38.4280249029786;-0.69976806640625;-0.055877685546875;4.46999998871433;448;100 mA
38.4380249029533;-0.69976806640625;-0.055694580078125;4.47999998868909;449;100 mA
38.4480249029281;-0.699737548828125;-0.055633544921875;4.48999998866384;450;100 mA
38.4580249029028;-0.69970703125;-0.055908203125;4.49999998863859;451;100 mA
38.4680249028776;-0.699737548828125;-0.055877685546875;4.50999998861334;452;100 mA
38.4780249028523;-0.699737548828125;-0.05596923828125;4.5199999885881;453;100 mA
38.4880249028271;-0.699737548828125;-0.055877685546875;4.52999998856285;454;100 mA
38.4980249028018;-0.69976806640625;-0.055999755859375;4.5399999885376;455;100 mA
38.5080249027766;-0.69970703125;-0.055816650390625;4.54999998851235;456;100 mA
38.5180249027513;-0.699737548828125;-0.0557861328125;4.55999998848711;457;100 mA
38.5280249027261;-0.699798583984375;-0.055908203125;4.56999998846186;458;100 mA
38.5380249027008;-0.699737548828125;-0.055877685546875;4.57999998843661;459;100 mA
38.5480249026756;-0.699737548828125;-0.055908203125;4.58999998841136;460;100 mA
38.5580249026503;-0.699737548828125;-0.055816650390625;4.59999998838612;461;100 mA
38.5680249026251;-0.699737548828125;-0.05584716796875;4.60999998836087;462;100 mA
38.5780249025999;-0.69976806640625;-0.05596923828125;4.61999998833562;463;100 mA
38.5880249025746;-0.69970703125;-0.055877685546875;4.62999998831037;464;100 mA
38.5980249025494;-0.699676513671875;-0.05584716796875;4.63999998828513;465;100 mA
38.6080249025241;-0.699737548828125;-0.0557861328125;4.64999998825988;466;100 mA
38.6180249024989;-0.69970703125;-0.0560302734375;4.65999998823463;467;100 mA
38.6280249024736;-0.69976806640625;-0.055908203125;4.66999998820938;468;100 mA
38.6380249024484;-0.699737548828125;-0.05596923828125;4.67999998818414;469;100 mA
38.6480249024231;-0.69970703125;-0.056121826171875;4.68999998815889;470;100 mA
38.6580249023979;-0.69970703125;-0.05609130859375;4.69999998813364;471;100 mA
38.6680249023726;-0.699676513671875;-0.05621337890625;4.70999998810839;472;100 mA
38.6780249023474;-0.699737548828125;-0.05615234375;4.71999998808315;473;100 mA
38.6880249023221;-0.69970703125;-0.056243896484375;4.7299999880579;474;100 mA
38.6980249022969;-0.699676513671875;-0.05657958984375;4.73999998803265;475;100 mA
38.7080249022716;-0.699737548828125;-0.05657958984375;4.7499999880074;476;100 mA
38.7180249022464;-0.699737548828125;-0.05657958984375;4.75999998798216;477;100 mA
38.7280249022211;-0.69970703125;-0.056488037109375;4.76999998795691;478;100 mA
38.7380249021959;-0.69964599609375;-0.0565185546875;4.77999998793166;479;100 mA
38.7480249021706;-0.699798583984375;-0.056365966796875;4.78999998790641;480;100 mA
38.7580249021454;-0.699737548828125;-0.056396484375;4.79999998788116;481;100 mA
38.7680249021201;-0.69970703125;-0.05645751953125;4.80999998785592;482;100 mA
38.7780249020949;-0.69970703125;-0.056488037109375;4.81999998783067;483;100 mA
38.7880249020697;-0.69970703125;-0.05657958984375;4.82999998780542;484;100 mA
38.7980249020444;-0.69970703125;-0.056488037109375;4.83999998778017;485;100 mA
38.8080249020192;-0.69976806640625;-0.05645751953125;4.84999998775493;486;100 mA
38.8180249019939;-0.69970703125;-0.0567626953125;4.85999998772968;487;100 mA
38.8280249019687;-0.69970703125;-0.05670166015625;4.86999998770443;488;100 mA
38.8380249019434;-0.69970703125;-0.056854248046875;4.87999998767918;489;100 mA
38.8480249019182;-0.69970703125;-0.05682373046875;4.88999998765394;490;100 mA
38.8580249018929;-0.69976806640625;-0.056915283203125;4.89999998762869;491;100 mA
38.8680249018677;-0.69970703125;-0.056671142578125;4.90999998760344;492;100 mA
38.8780249018424;-0.699737548828125;-0.05670166015625;4.91999998757819;493;100 mA
38.8880249018172;-0.69976806640625;-0.056549072265625;4.92999998755295;494;100 mA
38.8980249017919;-0.69976806640625;-0.056549072265625;4.9399999875277;495;100 mA
38.9080249017667;-0.699737548828125;-0.05657958984375;4.94999998750245;496;100 mA
38.9180249017414;-0.69970703125;-0.0565185546875;4.9599999874772;497;100 mA
38.9280249017162;-0.699737548828125;-0.05657958984375;4.96999998745196;498;100 mA
38.9380249016909;-0.699737548828125;-0.056854248046875;4.97999998742671;499;100 mA
38.9480249016657;-0.699737548828125;-0.056732177734375;4.98999998740146;500;100 mA
38.9580249016404;-0.699737548828125;-0.0567626953125;4.99999998737621;501;100 mA
38.9680249016152;-0.699737548828125;-0.056640625;5.00999998735097;502;100 mA
38.9780249015899;-0.699737548828125;-0.05670166015625;5.01999998732572;503;100 mA
38.9880249015647;-0.69976806640625;-0.05657958984375;5.02999998730047;504;100 mA
38.9980249015395;-0.699737548828125;-0.056640625;5.03999998727522;505;100 mA
39.0080249015142;-0.699676513671875;-0.056640625;5.04999998724998;506;100 mA
39.018024901489;-0.699737548828125;-0.056610107421875;5.05999998722473;507;100 mA
39.0280249014637;-0.69976806640625;-0.056640625;5.06999998719948;508;100 mA
39.0380249014385;-0.699737548828125;-0.0565185546875;5.07999998717423;509;100 mA
39.0480249014132;-0.699737548828125;-0.05645751953125;5.08999998714899;510;100 mA
39.058024901388;-0.69976806640625;-0.05670166015625;5.09999998712374;511;100 mA
39.0680249013627;-0.699676513671875;-0.056610107421875;5.10999998709849;512;100 mA
39.0780249013375;-0.69970703125;-0.056640625;5.11999998707324;513;100 mA
39.0880249013122;-0.69970703125;-0.056427001953125;5.129999987048;514;100 mA
39.098024901287;-0.69976806640625;-0.056488037109375;5.13999998702275;515;100 mA
39.1080249012617;-0.69970703125;-0.056243896484375;5.1499999869975;516;100 mA
39.1180249012365;-0.699676513671875;-0.05621337890625;5.15999998697225;517;100 mA
39.1280249012112;-0.69970703125;-0.05633544921875;5.169999986947;518;100 mA
39.138024901186;-0.69976806640625;-0.0562744140625;5.17999998692176;519;100 mA
39.1480249011607;-0.69976806640625;-0.056365966796875;5.18999998689651;520;100 mA
39.1580249011355;-0.699737548828125;-0.05633544921875;5.19999998687126;521;100 mA
39.1680249011102;-0.69970703125;-0.056396484375;5.20999998684601;522;100 mA
39.178024901085;-0.699737548828125;-0.0565185546875;5.21999998682077;523;100 mA
39.1880249010597;-0.69970703125;-0.056427001953125;5.22999998679552;524;100 mA
39.1980249010345;-0.69976806640625;-0.05645751953125;5.23999998677027;525;100 mA
39.2080249010093;-0.69976806640625;-0.05633544921875;5.24999998674502;526;100 mA
39.218024900984;-0.699737548828125;-0.056488037109375;5.25999998671978;527;100 mA
39.2280249009588;-0.699798583984375;-0.05633544921875;5.26999998669453;528;100 mA
39.2380249009335;-0.699737548828125;-0.056304931640625;5.27999998666928;529;100 mA
39.2480249009083;-0.699737548828125;-0.056396484375;5.28999998664403;530;100 mA
39.258024900883;-0.699798583984375;-0.056304931640625;5.29999998661879;531;100 mA
39.2680249008578;-0.699737548828125;-0.056396484375;5.30999998659354;532;100 mA
39.2780249008325;-0.69970703125;-0.056304931640625;5.31999998656829;533;100 mA
39.2880249008073;-0.699737548828125;-0.05633544921875;5.32999998654304;534;100 mA
39.298024900782;-0.69976806640625;-0.056640625;5.3399999865178;535;100 mA
39.3080249007568;-0.699737548828125;-0.0565185546875;5.34999998649255;536;100 mA
39.3180249007315;-0.69976806640625;-0.0565185546875;5.3599999864673;537;100 mA
39.3280249007063;-0.69970703125;-0.056427001953125;5.36999998644205;538;100 mA
39.338024900681;-0.69976806640625;-0.056427001953125;5.37999998641681;539;100 mA
39.3480249006558;-0.69970703125;-0.0562744140625;5.38999998639156;540;100 mA
39.3580249006305;-0.699676513671875;-0.056304931640625;5.39999998636631;541;100 mA
39.3680249006053;-0.69964599609375;-0.056365966796875;5.40999998634106;542;100 mA
39.37802490058;-0.699737548828125;-0.05633544921875;5.41999998631582;543;100 mA
39.3880249005548;-0.69970703125;-0.056427001953125;5.42999998629057;544;100 mA
39.3980249005295;-0.69976806640625;-0.0562744140625;5.43999998626532;545;100 mA
39.4080249005043;-0.69976806640625;-0.056182861328125;5.44999998624007;546;100 mA
39.4180249004791;-0.69976806640625;-0.05645751953125;5.45999998621483;547;100 mA
39.4280249004538;-0.699737548828125;-0.056304931640625;5.46999998618958;548;100 mA
39.4380249004286;-0.69976806640625;-0.056427001953125;5.47999998616433;549;100 mA
39.4480249004033;-0.699798583984375;-0.05633544921875;5.48999998613908;550;100 mA
39.4580249003781;-0.69976806640625;-0.056396484375;5.49999998611383;551;100 mA
39.4680249003528;-0.69964599609375;-0.05615234375;5.50999998608859;552;100 mA
39.4780249003276;-0.69976806640625;-0.056182861328125;5.51999998606334;553;100 mA
39.4880249003023;-0.699676513671875;-0.0560302734375;5.52999998603809;554;100 mA
39.4980249002771;-0.699737548828125;-0.0560302734375;5.53999998601284;555;100 mA
39.5080249002518;-0.699737548828125;-0.05609130859375;5.5499999859876;556;100 mA
39.5180249002266;-0.69970703125;-0.0560302734375;5.55999998596235;557;100 mA
39.5280249002013;-0.699737548828125;-0.05609130859375;5.5699999859371;558;100 mA
39.5380249001761;-0.699737548828125;-0.056365966796875;5.57999998591185;559;100 mA
39.5480249001508;-0.69970703125;-0.05621337890625;5.58999998588661;560;100 mA
39.5580249001256;-0.699737548828125;-0.056243896484375;5.59999998586136;561;100 mA
39.5680249001003;-0.699737548828125;-0.05615234375;5.60999998583611;562;100 mA
39.5780249000751;-0.69976806640625;-0.0562744140625;5.61999998581086;563;100 mA
39.5880249000498;-0.69970703125;-0.05621337890625;5.62999998578562;564;100 mA
39.5980249000246;-0.699798583984375;-0.056304931640625;5.63999998576037;565;100 mA
39.6080248999994;-0.69976806640625;-0.056365966796875;5.64999998573512;566;100 mA
39.6180248999741;-0.69970703125;-0.0562744140625;5.65999998570987;567;100 mA
39.6280248999489;-0.69970703125;-0.05633544921875;5.66999998568463;568;100 mA
39.6380248999236;-0.699737548828125;-0.056243896484375;5.67999998565938;569;100 mA
39.6480248998984;-0.699676513671875;-0.056243896484375;5.68999998563413;570;100 mA
39.6580248998731;-0.699737548828125;-0.056549072265625;5.69999998560888;571;100 mA
39.6680248998479;-0.69976806640625;-0.056549072265625;5.70999998558364;572;100 mA
39.6780248998226;-0.69970703125;-0.056640625;5.71999998555839;573;100 mA
39.6880248997974;-0.69970703125;-0.056549072265625;5.72999998553314;574;100 mA
39.6980248997721;-0.69970703125;-0.056640625;5.73999998550789;575;100 mA
39.7080248997469;-0.69976806640625;-0.056488037109375;5.74999998548265;576;100 mA
39.7180248997216;-0.69970703125;-0.05645751953125;5.7599999854574;577;100 mA
39.7280248996964;-0.69970703125;-0.05657958984375;5.76999998543215;578;100 mA
39.7380248996711;-0.69976806640625;-0.056488037109375;5.7799999854069;579;100 mA
39.7480248996459;-0.69976806640625;-0.056488037109375;5.78999998538166;580;100 mA
39.7580248996206;-0.699737548828125;-0.056396484375;5.79999998535641;581;100 mA
39.7680248995954;-0.69976806640625;-0.056396484375;5.80999998533116;582;100 mA
39.7780248995701;-0.69970703125;-0.056549072265625;5.81999998530591;583;100 mA
39.7880248995449;-0.69970703125;-0.056488037109375;5.82999998528066;584;100 mA
39.7980248995196;-0.699737548828125;-0.056549072265625;5.83999998525542;585;100 mA
39.8080248994944;-0.69970703125;-0.05645751953125;5.84999998523017;586;100 mA
39.8180248994692;-0.699737548828125;-0.056610107421875;5.85999998520492;587;100 mA
39.8280248994439;-0.699676513671875;-0.056488037109375;5.86999998517967;588;100 mA
39.8380248994187;-0.69970703125;-0.056488037109375;5.87999998515443;589;100 mA
39.8480248993934;-0.69976806640625;-0.05657958984375;5.88999998512918;590;100 mA
39.8580248993682;-0.699737548828125;-0.05645751953125;5.89999998510393;591;100 mA
39.8680248993429;-0.699737548828125;-0.0565185546875;5.90999998507868;592;100 mA
39.8780248993177;-0.699798583984375;-0.056396484375;5.91999998505344;593;100 mA
39.8880248992924;-0.69970703125;-0.056396484375;5.92999998502819;594;100 mA
39.8980248992672;-0.69976806640625;-0.056671142578125;5.93999998500294;595;100 mA
39.9080248992419;-0.699737548828125;-0.056610107421875;5.94999998497769;596;100 mA
39.9180248992167;-0.69976806640625;-0.056671142578125;5.95999998495245;597;100 mA
39.9280248991914;-0.69970703125;-0.056671142578125;5.9699999849272;598;100 mA
39.9380248991662;-0.699737548828125;-0.056732177734375;5.97999998490195;599;100 mA
39.9480248991409;-0.69976806640625;-0.056640625;5.9899999848767;600;100 mA
39.9580248991157;-0.699737548828125;-0.05670166015625;5.99999998485146;601;100 mA
39.9680248990904;-0.699798583984375;-0.056793212890625;6.00999998482621;602;100 mA
39.9780248990652;-0.69976806640625;-0.0567626953125;6.01999998480096;603;100 mA
39.9880248990399;-0.69976806640625;-0.05682373046875;6.02999998477571;604;100 mA
39.9980248990147;-0.699737548828125;-0.056732177734375;6.03999998475047;605;100 mA
40.0080248989894;-0.69970703125;-0.056610107421875;6.04999998472522;606;100 mA
40.0180248989642;-0.699737548828125;-0.056854248046875;6.05999998469997;607;100 mA
40.028024898939;-0.69976806640625;-0.056732177734375;6.06999998467472;608;100 mA
40.0380248989137;-0.699737548828125;-0.05682373046875;6.07999998464948;609;100 mA
40.0480248988885;-0.699737548828125;-0.056732177734375;6.08999998462423;610;100 mA
40.0580248988632;-0.699737548828125;-0.056884765625;6.09999998459898;611;100 mA
40.068024898838;-0.6998291015625;-0.056671142578125;6.10999998457373;612;100 mA
40.0780248988127;-0.699737548828125;-0.056732177734375;6.11999998454849;613;100 mA
40.0880248987875;-0.69976806640625;-0.05657958984375;6.12999998452324;614;100 mA
40.0980248987622;-0.699737548828125;-0.056610107421875;6.13999998449799;615;100 mA
40.108024898737;-0.69976806640625;-0.056640625;6.14999998447274;616;100 mA
40.1180248987117;-0.69970703125;-0.05657958984375;6.1599999844475;617;100 mA
40.1280248986865;-0.69976806640625;-0.056640625;6.16999998442225;618;100 mA
40.1380248986612;-0.69976806640625;-0.05682373046875;6.179999984397;619;100 mA
40.148024898636;-0.69976806640625;-0.056640625;6.18999998437175;620;100 mA
40.1580248986107;-0.699676513671875;-0.056610107421875;6.1999999843465;621;100 mA
40.1680248985855;-0.699737548828125;-0.05645751953125;6.20999998432126;622;100 mA
40.1780248985602;-0.699737548828125;-0.056488037109375;6.21999998429601;623;100 mA
40.188024898535;-0.69970703125;-0.056304931640625;6.22999998427076;624;100 mA
40.1980248985097;-0.69976806640625;-0.05633544921875;6.23999998424551;625;100 mA
40.2080248984845;-0.69970703125;-0.0562744140625;6.24999998422027;626;100 mA
40.2180248984592;-0.699737548828125;-0.056182861328125;6.25999998419502;627;100 mA
40.228024898434;-0.699737548828125;-0.05615234375;6.26999998416977;628;100 mA
40.2380248984088;-0.699737548828125;-0.0560302734375;6.27999998414452;629;100 mA
40.2480248983835;-0.69976806640625;-0.05596923828125;6.28999998411928;630;100 mA
40.2580248983583;-0.699737548828125;-0.05621337890625;6.29999998409403;631;100 mA
40.268024898333;-0.699737548828125;-0.056121826171875;6.30999998406878;632;100 mA
40.2780248983078;-0.699737548828125;-0.05609130859375;6.31999998404353;633;100 mA
40.2880248982825;-0.699798583984375;-0.055877685546875;6.32999998401829;634;100 mA
40.2980248982573;-0.699737548828125;-0.055877685546875;6.33999998399304;635;100 mA
40.308024898232;-0.69970703125;-0.05560302734375;6.34999998396779;636;100 mA
40.3180248982068;-0.699798583984375;-0.0555419921875;6.35999998394254;637;100 mA
40.3280248981815;-0.69976806640625;-0.05560302734375;6.3699999839173;638;100 mA
40.3380248981563;-0.699737548828125;-0.055511474609375;6.37999998389205;639;100 mA
40.348024898131;-0.699737548828125;-0.05548095703125;6.3899999838668;640;100 mA
40.3580248981058;-0.69964599609375;-0.055389404296875;6.39999998384155;641;100 mA
40.3680248980805;-0.699676513671875;-0.055328369140625;6.40999998381631;642;100 mA
40.3780248980553;-0.699737548828125;-0.05548095703125;6.41999998379106;643;100 mA
40.38802489803;-0.69970703125;-0.05535888671875;6.42999998376581;644;100 mA
40.3980248980048;-0.699737548828125;-0.055419921875;6.43999998374056;645;100 mA
40.4080248979795;-0.699737548828125;-0.0552978515625;6.44999998371532;646;100 mA
40.4180248979543;-0.699798583984375;-0.055419921875;6.45999998369007;647;100 mA
40.428024897929;-0.69976806640625;-0.0552978515625;6.46999998366482;648;100 mA
40.4380248979038;-0.69970703125;-0.055267333984375;6.47999998363957;649;100 mA
40.4480248978786;-0.699737548828125;-0.055328369140625;6.48999998361433;650;100 mA
40.4580248978533;-0.69976806640625;-0.055206298828125;6.49999998358908;651;100 mA
40.4680248978281;-0.699676513671875;-0.05523681640625;6.50999998356383;652;100 mA
40.4780248978028;-0.699737548828125;-0.05511474609375;6.51999998353858;653;100 mA
40.4880248977776;-0.699737548828125;-0.05511474609375;6.52999998351333;654;100 mA
40.4980248977523;-0.69976806640625;-0.055328369140625;6.53999998348809;655;100 mA
40.5080248977271;-0.699737548828125;-0.055206298828125;6.54999998346284;656;100 mA
40.5180248977018;-0.699737548828125;-0.055206298828125;6.55999998343759;657;100 mA
40.5280248976766;-0.69976806640625;-0.05511474609375;6.56999998341234;658;100 mA
40.5380248976513;-0.69976806640625;-0.0550537109375;6.5799999833871;659;100 mA
40.5480248976261;-0.69976806640625;-0.05499267578125;6.58999998336185;660;100 mA
40.5580248976008;-0.699737548828125;-0.055023193359375;6.5999999833366;661;100 mA
40.5680248975756;-0.699737548828125;-0.055084228515625;6.60999998331135;662;100 mA
40.5780248975503;-0.69970703125;-0.0550537109375;6.61999998328611;663;100 mA
40.5880248975251;-0.69970703125;-0.05517578125;6.62999998326086;664;100 mA
40.5980248974998;-0.699798583984375;-0.0550537109375;6.63999998323561;665;100 mA
40.6080248974746;-0.699737548828125;-0.054962158203125;6.64999998321036;666;100 mA
40.6180248974493;-0.69976806640625;-0.05523681640625;6.65999998318512;667;100 mA
40.6280248974241;-0.699676513671875;-0.055145263671875;6.66999998315987;668;100 mA
40.6380248973989;-0.69970703125;-0.0552978515625;6.67999998313462;669;100 mA
40.6480248973736;-0.699798583984375;-0.055206298828125;6.68999998310937;670;100 mA
40.6580248973484;-0.69970703125;-0.0552978515625;6.69999998308413;671;100 mA
40.6680248973231;-0.69976806640625;-0.05511474609375;6.70999998305888;672;100 mA
40.6780248972979;-0.699676513671875;-0.05517578125;6.71999998303363;673;100 mA
40.6880248972726;-0.69970703125;-0.055084228515625;6.72999998300838;674;100 mA
40.6980248972474;-0.69970703125;-0.055084228515625;6.73999998298314;675;100 mA
40.7080248972221;-0.69976806640625;-0.055084228515625;6.74999998295789;676;100 mA
40.7180248971969;-0.699737548828125;-0.055023193359375;6.75999998293264;677;100 mA
40.7280248971716;-0.69976806640625;-0.055084228515625;6.76999998290739;678;100 mA
40.7380248971464;-0.699737548828125;-0.0552978515625;6.77999998288215;679;100 mA
40.7480248971211;-0.699737548828125;-0.05523681640625;6.7899999828569;680;100 mA
40.7580248970959;-0.699737548828125;-0.055206298828125;6.79999998283165;681;100 mA
40.7680248970706;-0.69976806640625;-0.05517578125;6.8099999828064;682;100 mA
40.7780248970454;-0.699737548828125;-0.0552978515625;6.81999998278116;683;100 mA
40.7880248970201;-0.69970703125;-0.055145263671875;6.82999998275591;684;100 mA
40.7980248969949;-0.69970703125;-0.05523681640625;6.83999998273066;685;100 mA
40.8080248969696;-0.699737548828125;-0.05523681640625;6.84999998270541;686;100 mA
40.8180248969444;-0.699737548828125;-0.05517578125;6.85999998268016;687;100 mA
40.8280248969191;-0.69970703125;-0.05517578125;6.86999998265492;688;100 mA
40.8380248968939;-0.699737548828125;-0.055023193359375;6.87999998262967;689;100 mA
40.8480248968687;-0.699737548828125;-0.054931640625;6.88999998260442;690;100 mA
40.8580248968434;-0.699737548828125;-0.055145263671875;6.89999998257917;691;100 mA
40.8680248968182;-0.699737548828125;-0.055084228515625;6.90999998255393;692;100 mA
40.8780248967929;-0.69970703125;-0.055084228515625;6.91999998252868;693;100 mA
40.8880248967677;-0.69970703125;-0.054931640625;6.92999998250343;694;100 mA
40.8980248967424;-0.69976806640625;-0.05499267578125;6.93999998247818;695;100 mA
40.9080248967172;-0.699737548828125;-0.0548095703125;6.94999998245294;696;100 mA
40.9180248966919;-0.699798583984375;-0.0548095703125;6.95999998242769;697;100 mA
40.9280248966667;-0.699676513671875;-0.054931640625;6.96999998240244;698;100 mA
40.9380248966414;-0.69970703125;-0.054931640625;6.97999998237719;699;100 mA
40.9480248966162;-0.69970703125;-0.055023193359375;6.98999998235195;700;100 mA
40.9580248965909;-0.699737548828125;-0.055023193359375;6.9999999823267;701;100 mA
40.9680248965657;-0.69976806640625;-0.055023193359375;7.00999998230145;702;100 mA
40.9780248965404;-0.69976806640625;-0.05517578125;7.0199999822762;703;100 mA
40.9880248965152;-0.69976806640625;-0.055084228515625;7.02999998225096;704;100 mA
40.9980248964899;-0.69976806640625;-0.05511474609375;7.03999998222571;705;100 mA
41.0080248964647;-0.699737548828125;-0.0550537109375;7.04999998220046;706;100 mA
41.0180248964394;-0.699737548828125;-0.055145263671875;7.05999998217521;707;100 mA
41.0280248964142;-0.69976806640625;-0.055084228515625;7.06999998214997;708;100 mA
41.0380248963889;-0.699737548828125;-0.055084228515625;7.07999998212472;709;100 mA
41.0480248963637;-0.69976806640625;-0.05517578125;7.08999998209947;710;100 mA
41.0580248963385;-0.69976806640625;-0.05511474609375;7.09999998207422;711;100 mA
41.0680248963132;-0.699737548828125;-0.055267333984375;7.10999998204898;712;100 mA
41.078024896288;-0.699737548828125;-0.055206298828125;7.11999998202373;713;100 mA
41.0880248962627;-0.699737548828125;-0.0552978515625;7.12999998199848;714;100 mA
41.0980248962375;-0.69976806640625;-0.055572509765625;7.13999998197323;715;100 mA
41.1080248962122;-0.699676513671875;-0.0555419921875;7.14999998194799;716;100 mA
41.118024896187;-0.69970703125;-0.05560302734375;7.15999998192274;717;100 mA
41.1280248961617;-0.69970703125;-0.0555419921875;7.16999998189749;718;100 mA
41.1380248961365;-0.699737548828125;-0.055511474609375;7.17999998187224;719;100 mA
41.1480248961112;-0.699737548828125;-0.05548095703125;7.189999981847;720;100 mA
41.158024896086;-0.699676513671875;-0.055511474609375;7.19999998182175;721;100 mA
41.1680248960607;-0.69970703125;-0.055572509765625;7.2099999817965;722;100 mA
41.1780248960355;-0.69976806640625;-0.055572509765625;7.21999998177125;723;100 mA
41.1880248960102;-0.69970703125;-0.0556640625;7.229999981746;724;100 mA
41.198024895985;-0.69976806640625;-0.055633544921875;7.23999998172076;725;100 mA
41.2080248959597;-0.699737548828125;-0.05560302734375;7.24999998169551;726;100 mA
41.2180248959345;-0.699676513671875;-0.055877685546875;7.25999998167026;727;100 mA
41.2280248959092;-0.699737548828125;-0.055816650390625;7.26999998164501;728;100 mA
41.238024895884;-0.69970703125;-0.055999755859375;7.27999998161977;729;100 mA
41.2480248958587;-0.69970703125;-0.055908203125;7.28999998159452;730;100 mA
41.2580248958335;-0.699737548828125;-0.055999755859375;7.29999998156927;731;100 mA
41.2680248958083;-0.699737548828125;-0.055816650390625;7.30999998154402;732;100 mA
41.278024895783;-0.699737548828125;-0.0557861328125;7.31999998151878;733;100 mA
41.2880248957578;-0.69970703125;-0.055694580078125;7.32999998149353;734;100 mA
41.2980248957325;-0.69976806640625;-0.0556640625;7.33999998146828;735;100 mA
41.3080248957073;-0.69976806640625;-0.055633544921875;7.34999998144303;736;100 mA
41.318024895682;-0.69976806640625;-0.055572509765625;7.35999998141779;737;100 mA
41.3280248956568;-0.69976806640625;-0.055633544921875;7.36999998139254;738;100 mA
41.3380248956315;-0.699737548828125;-0.0557861328125;7.37999998136729;739;100 mA
41.3480248956063;-0.699737548828125;-0.055694580078125;7.38999998134204;740;100 mA
41.358024895581;-0.699737548828125;-0.0556640625;7.3999999813168;741;100 mA
41.3680248955558;-0.69970703125;-0.055572509765625;7.40999998129155;742;100 mA
41.3780248955305;-0.699737548828125;-0.05572509765625;7.4199999812663;743;100 mA
41.3880248955053;-0.69970703125;-0.05560302734375;7.42999998124105;744;100 mA
41.39802489548;-0.69976806640625;-0.05572509765625;7.43999998121581;745;100 mA
41.4080248954548;-0.69976806640625;-0.05572509765625;7.44999998119056;746;100 mA
41.4180248954295;-0.69976806640625;-0.05572509765625;7.45999998116531;747;100 mA
41.4280248954043;-0.69976806640625;-0.05572509765625;7.46999998114006;748;100 mA
41.438024895379;-0.69976806640625;-0.055633544921875;7.47999998111482;749;100 mA
41.4480248953538;-0.69976806640625;-0.0555419921875;7.48999998108957;750;100 mA
41.4580248953285;-0.69970703125;-0.055755615234375;7.49999998106432;751;100 mA
41.4680248953033;-0.699737548828125;-0.055633544921875;7.50999998103907;752;100 mA
41.4780248952781;-0.699676513671875;-0.055572509765625;7.51999998101383;753;100 mA
41.4880248952528;-0.69970703125;-0.055389404296875;7.52999998098858;754;100 mA
41.4980248952276;-0.69976806640625;-0.055450439453125;7.53999998096333;755;100 mA
41.5080248952023;-0.699798583984375;-0.055206298828125;7.54999998093808;756;100 mA
41.5180248951771;-0.69976806640625;-0.05517578125;7.55999998091283;757;100 mA
41.5280248951518;-0.6998291015625;-0.0552978515625;7.56999998088759;758;100 mA
41.5380248951266;-0.69976806640625;-0.055267333984375;7.57999998086234;759;100 mA
41.5480248951013;-0.699737548828125;-0.0552978515625;7.58999998083709;760;100 mA
41.5580248950761;-0.699737548828125;-0.055267333984375;7.59999998081184;761;100 mA
41.5680248950508;-0.699737548828125;-0.05523681640625;7.6099999807866;762;100 mA
41.5780248950256;-0.699676513671875;-0.055328369140625;7.61999998076135;763;100 mA
41.5880248950003;-0.699737548828125;-0.05523681640625;7.6299999807361;764;100 mA
41.5980248949751;-0.69976806640625;-0.055206298828125;7.63999998071085;765;100 mA
41.6080248949498;-0.699798583984375;-0.05517578125;7.64999998068561;766;100 mA
41.6180248949246;-0.69976806640625;-0.05523681640625;7.65999998066036;767;100 mA
41.6280248948993;-0.699676513671875;-0.05511474609375;7.66999998063511;768;100 mA
41.6380248948741;-0.699676513671875;-0.05517578125;7.67999998060986;769;100 mA
41.6480248948488;-0.699737548828125;-0.055206298828125;7.68999998058462;770;100 mA
41.6580248948236;-0.699737548828125;-0.055145263671875;7.69999998055937;771;100 mA
41.6680248947984;-0.69976806640625;-0.055267333984375;7.70999998053412;772;100 mA
41.6780248947731;-0.699737548828125;-0.055145263671875;7.71999998050887;773;100 mA
41.6880248947479;-0.69976806640625;-0.055145263671875;7.72999998048363;774;100 mA
41.6980248947226;-0.699737548828125;-0.055389404296875;7.73999998045838;775;100 mA
41.7080248946974;-0.69976806640625;-0.055267333984375;7.74999998043313;776;100 mA
41.7180248946721;-0.69976806640625;-0.0552978515625;7.75999998040788;777;100 mA
41.7280248946469;-0.699737548828125;-0.055206298828125;7.76999998038264;778;100 mA
41.7380248946216;-0.69976806640625;-0.05517578125;7.77999998035739;779;100 mA
41.7480248945964;-0.69976806640625;-0.055084228515625;7.78999998033214;780;100 mA
41.7580248945711;-0.699737548828125;-0.055145263671875;7.79999998030689;781;100 mA
41.7680248945459;-0.69976806640625;-0.055206298828125;7.80999998028165;782;100 mA
41.7780248945206;-0.699676513671875;-0.05517578125;7.8199999802564;783;100 mA
41.7880248944954;-0.69976806640625;-0.05523681640625;7.82999998023115;784;100 mA
41.7980248944701;-0.699737548828125;-0.05511474609375;7.8399999802059;785;100 mA
41.8080248944449;-0.69976806640625;-0.055023193359375;7.84999998018066;786;100 mA
41.8180248944196;-0.69970703125;-0.05523681640625;7.85999998015541;787;100 mA
41.8280248943944;-0.69976806640625;-0.055145263671875;7.86999998013016;788;100 mA
41.8380248943691;-0.699737548828125;-0.055267333984375;7.87999998010491;789;100 mA
41.8480248943439;-0.69970703125;-0.055206298828125;7.88999998007966;790;100 mA
41.8580248943186;-0.699737548828125;-0.0552978515625;7.89999998005442;791;100 mA
41.8680248942934;-0.699798583984375;-0.055145263671875;7.90999998002917;792;100 mA
41.8780248942682;-0.69970703125;-0.05523681640625;7.91999998000392;793;100 mA
41.8880248942429;-0.699676513671875;-0.05517578125;7.92999997997867;794;100 mA
41.8980248942177;-0.699737548828125;-0.055206298828125;7.93999997995343;795;100 mA
41.9080248941924;-0.699737548828125;-0.05523681640625;7.94999997992818;796;100 mA
41.9180248941672;-0.69976806640625;-0.055145263671875;7.95999997990293;797;100 mA
41.9280248941419;-0.69970703125;-0.055206298828125;7.96999997987768;798;100 mA
41.9380248941167;-0.699737548828125;-0.0552978515625;7.97999997985244;799;100 mA
41.9480248940914;-0.699737548828125;-0.05523681640625;7.98999997982719;800;100 mA
41.9580248940662;-0.699737548828125;-0.05517578125;7.99999997980194;801;100 mA
41.9680248940409;-0.69976806640625;-0.055084228515625;8.00999997977669;802;100 mA
41.9780248940157;-0.699737548828125;-0.05523681640625;8.01999997975145;803;100 mA
41.9880248939904;-0.69970703125;-0.05511474609375;8.0299999797262;804;100 mA
41.9980248939652;-0.69970703125;-0.055206298828125;8.03999997970095;805;100 mA
42.0080248939399;-0.699737548828125;-0.055267333984375;8.0499999796757;806;100 mA
42.0180248939147;-0.69976806640625;-0.0552978515625;8.05999997965046;807;100 mA
42.0280248938894;-0.699737548828125;-0.055328369140625;8.06999997962521;808;100 mA
42.0380248938642;-0.699737548828125;-0.0552978515625;8.07999997959996;809;100 mA
42.0480248938389;-0.699676513671875;-0.055267333984375;8.08999997957471;810;100 mA
42.0580248938137;-0.69976806640625;-0.055511474609375;8.09999997954947;811;100 mA
42.0680248937884;-0.699737548828125;-0.05548095703125;8.10999997952422;812;100 mA
42.0780248937632;-0.699737548828125;-0.055419921875;8.11999997949897;813;100 mA
42.088024893738;-0.69976806640625;-0.0552978515625;8.12999997947372;814;100 mA
42.0980248937127;-0.699676513671875;-0.055328369140625;8.13999997944848;815;100 mA
42.1080248936875;-0.69976806640625;-0.05511474609375;8.14999997942323;816;100 mA
42.1180248936622;-0.69976806640625;-0.055084228515625;8.15999997939798;817;100 mA
42.128024893637;-0.69976806640625;-0.055206298828125;8.16999997937273;818;100 mA
42.1380248936117;-0.69976806640625;-0.05517578125;8.17999997934749;819;100 mA
42.1480248935865;-0.699737548828125;-0.05523681640625;8.18999997932224;820;100 mA
42.1580248935612;-0.699676513671875;-0.05523681640625;8.19999997929699;821;100 mA
42.168024893536;-0.69970703125;-0.055267333984375;8.20999997927174;822;100 mA
42.1780248935107;-0.69976806640625;-0.055419921875;8.2199999792465;823;100 mA
42.1880248934855;-0.69970703125;-0.05535888671875;8.22999997922125;824;100 mA
42.1980248934602;-0.699798583984375;-0.055389404296875;8.239999979196;825;100 mA
42.208024893435;-0.69970703125;-0.05535888671875;8.24999997917075;826;100 mA
42.2180248934097;-0.69970703125;-0.055389404296875;8.2599999791455;827;100 mA
42.2280248933845;-0.69970703125;-0.05523681640625;8.26999997912026;828;100 mA
42.2380248933592;-0.69976806640625;-0.05517578125;8.27999997909501;829;100 mA
42.248024893334;-0.69970703125;-0.05517578125;8.28999997906976;830;100 mA
42.2580248933087;-0.69970703125;-0.055084228515625;8.29999997904451;831;100 mA
42.2680248932835;-0.69976806640625;-0.05517578125;8.30999997901927;832;100 mA
42.2780248932582;-0.69970703125;-0.0550537109375;8.31999997899402;833;100 mA
42.288024893233;-0.699737548828125;-0.05511474609375;8.32999997896877;834;100 mA
42.2980248932078;-0.699737548828125;-0.05535888671875;8.33999997894352;835;100 mA
42.3080248931825;-0.69970703125;-0.055267333984375;8.34999997891828;836;100 mA
42.3180248931573;-0.69976806640625;-0.055328369140625;8.35999997889303;837;100 mA
42.328024893132;-0.69970703125;-0.05517578125;8.36999997886778;838;100 mA
42.3380248931068;-0.69970703125;-0.05511474609375;8.37999997884253;839;100 mA
42.3480248930815;-0.699798583984375;-0.05499267578125;8.38999997881729;840;100 mA
42.3580248930563;-0.69970703125;-0.05499267578125;8.39999997879204;841;100 mA
42.368024893031;-0.699737548828125;-0.05499267578125;8.40999997876679;842;100 mA
42.3780248930058;-0.699737548828125;-0.054931640625;8.41999997874154;843;100 mA
42.3880248929805;-0.69970703125;-0.054962158203125;8.4299999787163;844;100 mA
42.3980248929553;-0.69976806640625;-0.05487060546875;8.43999997869105;845;100 mA
42.40802489293;-0.69970703125;-0.054840087890625;8.4499999786658;846;100 mA
42.4180248929048;-0.69976806640625;-0.0550537109375;8.45999997864055;847;100 mA
42.4280248928795;-0.69976806640625;-0.055023193359375;8.46999997861531;848;100 mA
42.4380248928543;-0.69970703125;-0.055145263671875;8.47999997859006;849;100 mA
42.448024892829;-0.69970703125;-0.0550537109375;8.48999997856481;850;100 mA
42.4580248928038;-0.699737548828125;-0.055084228515625;8.49999997853956;851;100 mA
42.4680248927785;-0.69970703125;-0.054931640625;8.50999997851432;852;100 mA
42.4780248927533;-0.699737548828125;-0.054901123046875;8.51999997848907;853;100 mA
42.488024892728;-0.699676513671875;-0.054840087890625;8.52999997846382;854;100 mA
42.4980248927028;-0.699737548828125;-0.054840087890625;8.53999997843857;855;100 mA
42.5080248926776;-0.699737548828125;-0.05487060546875;8.54999997841333;856;100 mA
42.5180248926523;-0.699737548828125;-0.054779052734375;8.55999997838808;857;100 mA
42.5280248926271;-0.69976806640625;-0.05487060546875;8.56999997836283;858;100 mA
42.5380248926018;-0.69976806640625;-0.055023193359375;8.57999997833758;859;100 mA
42.5480248925766;-0.69976806640625;-0.054962158203125;8.58999997831233;860;100 mA
42.5580248925513;-0.69970703125;-0.054962158203125;8.59999997828709;861;100 mA
42.5680248925261;-0.69976806640625;-0.054840087890625;8.60999997826184;862;100 mA
42.5780248925008;-0.699798583984375;-0.05499267578125;8.61999997823659;863;100 mA
42.5880248924756;-0.699676513671875;-0.0548095703125;8.62999997821134;864;100 mA
42.5980248924503;-0.69970703125;-0.054779052734375;8.6399999781861;865;100 mA
42.6080248924251;-0.69976806640625;-0.054779052734375;8.64999997816085;866;100 mA
42.6180248923998;-0.699676513671875;-0.054718017578125;8.6599999781356;867;100 mA
42.6280248923746;-0.69970703125;-0.054718017578125;8.66999997811035;868;100 mA
42.6380248923493;-0.699737548828125;-0.054656982421875;8.67999997808511;869;100 mA
42.6480248923241;-0.69970703125;-0.054595947265625;8.68999997805986;870;100 mA
42.6580248922988;-0.69970703125;-0.054840087890625;8.69999997803461;871;100 mA
42.6680248922736;-0.69970703125;-0.0548095703125;8.70999997800936;872;100 mA
42.6780248922483;-0.69976806640625;-0.0548095703125;8.71999997798412;873;100 mA
42.6880248922231;-0.699737548828125;-0.05474853515625;8.72999997795887;874;100 mA
42.6980248921979;-0.69976806640625;-0.054779052734375;8.73999997793362;875;100 mA
42.7080248921726;-0.699737548828125;-0.05462646484375;8.74999997790837;876;100 mA
42.7180248921474;-0.699737548828125;-0.054656982421875;8.75999997788313;877;100 mA
42.7280248921221;-0.69970703125;-0.05474853515625;8.76999997785788;878;100 mA
42.7380248920969;-0.699737548828125;-0.05474853515625;8.77999997783263;879;100 mA
42.7480248920716;-0.69970703125;-0.05487060546875;8.78999997780738;880;100 mA
42.7580248920464;-0.69970703125;-0.054840087890625;8.79999997778214;881;100 mA
42.7680248920211;-0.699737548828125;-0.05487060546875;8.80999997775689;882;100 mA
42.7780248919959;-0.699798583984375;-0.055023193359375;8.81999997773164;883;100 mA
42.7880248919706;-0.69976806640625;-0.054962158203125;8.82999997770639;884;100 mA
42.7980248919454;-0.699737548828125;-0.0550537109375;8.83999997768115;885;100 mA
42.8080248919201;-0.699737548828125;-0.0550537109375;8.8499999776559;886;100 mA
42.8180248918949;-0.69970703125;-0.05511474609375;8.85999997763065;887;100 mA
42.8280248918696;-0.699676513671875;-0.055023193359375;8.8699999776054;888;100 mA
42.8380248918444;-0.69976806640625;-0.055023193359375;8.87999997758016;889;100 mA
42.8480248918191;-0.699737548828125;-0.055084228515625;8.88999997755491;890;100 mA
42.8580248917939;-0.69976806640625;-0.05511474609375;8.89999997752966;891;100 mA
42.8680248917686;-0.69976806640625;-0.0552978515625;8.90999997750441;892;100 mA
42.8780248917434;-0.69970703125;-0.05523681640625;8.91999997747916;893;100 mA
42.8880248917181;-0.69976806640625;-0.0552978515625;8.92999997745392;894;100 mA
42.8980248916929;-0.69970703125;-0.055572509765625;8.93999997742867;895;100 mA
42.9080248916677;-0.69976806640625;-0.055511474609375;8.94999997740342;896;100 mA
42.9180248916424;-0.69964599609375;-0.05560302734375;8.95999997737817;897;100 mA
42.9280248916172;-0.699737548828125;-0.055572509765625;8.96999997735293;898;100 mA
42.9380248915919;-0.69976806640625;-0.055572509765625;8.97999997732768;899;100 mA
42.9480248915667;-0.69970703125;-0.055572509765625;8.98999997730243;900;100 mA
42.9580248915414;-0.699737548828125;-0.0556640625;8.99999997727718;901;100 mA
42.9680248915162;-0.699798583984375;-0.055755615234375;9.00999997725194;902;100 mA
42.9780248914909;-0.69976806640625;-0.0557861328125;9.01999997722669;903;100 mA
42.9880248914657;-0.699676513671875;-0.055877685546875;9.02999997720144;904;100 mA
42.9980248914404;-0.699798583984375;-0.055816650390625;9.03999997717619;905;100 mA
43.0080248914152;-0.699737548828125;-0.055816650390625;9.04999997715095;906;100 mA
43.0180248913899;-0.699798583984375;-0.05609130859375;9.0599999771257;907;100 mA
43.0280248913647;-0.69970703125;-0.0560302734375;9.06999997710045;908;100 mA
43.0380248913394;-0.69970703125;-0.056182861328125;9.0799999770752;909;100 mA
43.0480248913142;-0.699798583984375;-0.056121826171875;9.08999997704996;910;100 mA
43.0580248912889;-0.699798583984375;-0.05621337890625;9.09999997702471;911;100 mA
43.0680248912637;-0.69976806640625;-0.05609130859375;9.10999997699946;912;100 mA
43.0780248912384;-0.699737548828125;-0.056060791015625;9.11999997697421;913;100 mA
43.0880248912132;-0.699737548828125;-0.056060791015625;9.12999997694897;914;100 mA
43.0980248911879;-0.699798583984375;-0.055999755859375;9.13999997692372;915;100 mA
43.1080248911627;-0.699737548828125;-0.05596923828125;9.14999997689847;916;100 mA
43.1180248911375;-0.69976806640625;-0.055877685546875;9.15999997687322;917;100 mA
43.1280248911122;-0.69976806640625;-0.055938720703125;9.16999997684798;918;100 mA
43.138024891087;-0.69970703125;-0.055999755859375;9.17999997682273;919;100 mA
43.1480248910617;-0.699798583984375;-0.055938720703125;9.18999997679748;920;100 mA
43.1580248910365;-0.699737548828125;-0.055938720703125;9.19999997677223;921;100 mA
43.1680248910112;-0.699798583984375;-0.05584716796875;9.20999997674699;922;100 mA
43.178024890986;-0.69970703125;-0.055999755859375;9.21999997672174;923;100 mA
43.1880248909607;-0.69976806640625;-0.055877685546875;9.22999997669649;924;100 mA
43.1980248909355;-0.699676513671875;-0.055877685546875;9.23999997667124;925;100 mA
43.2080248909102;-0.699737548828125;-0.055877685546875;9.249999976646;926;100 mA
43.218024890885;-0.69976806640625;-0.0557861328125;9.25999997662075;927;100 mA
43.2280248908597;-0.699737548828125;-0.05572509765625;9.2699999765955;928;100 mA
43.2380248908345;-0.699798583984375;-0.05560302734375;9.27999997657025;929;100 mA
43.2480248908092;-0.69976806640625;-0.055511474609375;9.289999976545;930;100 mA
43.258024890784;-0.69970703125;-0.055694580078125;9.29999997651976;931;100 mA
43.2680248907587;-0.69976806640625;-0.05560302734375;9.30999997649451;932;100 mA
43.2780248907335;-0.699737548828125;-0.0555419921875;9.31999997646926;933;100 mA
43.2880248907082;-0.69976806640625;-0.055419921875;9.32999997644401;934;100 mA
43.298024890683;-0.699676513671875;-0.055389404296875;9.33999997641877;935;100 mA
43.3080248906577;-0.699737548828125;-0.055206298828125;9.34999997639352;936;100 mA
43.3180248906325;-0.69970703125;-0.05517578125;9.35999997636827;937;100 mA
43.3280248906073;-0.699737548828125;-0.05523681640625;9.36999997634302;938;100 mA
43.338024890582;-0.699676513671875;-0.05517578125;9.37999997631778;939;100 mA
43.3480248905568;-0.69976806640625;-0.055206298828125;9.38999997629253;940;100 mA
43.3580248905315;-0.69970703125;-0.055145263671875;9.39999997626728;941;100 mA
43.3680248905063;-0.69976806640625;-0.055084228515625;9.40999997624203;942;100 mA
43.378024890481;-0.699737548828125;-0.05523681640625;9.41999997621679;943;100 mA
43.3880248904558;-0.699737548828125;-0.05517578125;9.42999997619154;944;100 mA
43.3980248904305;-0.699737548828125;-0.05523681640625;9.43999997616629;945;100 mA
43.4080248904053;-0.699737548828125;-0.05517578125;9.44999997614104;946;100 mA
43.41802489038;-0.69970703125;-0.05517578125;9.4599999761158;947;100 mA
43.4280248903548;-0.699676513671875;-0.05499267578125;9.46999997609055;948;100 mA
43.4380248903295;-0.699737548828125;-0.054962158203125;9.4799999760653;949;100 mA
43.4480248903043;-0.699676513671875;-0.054901123046875;9.48999997604005;950;100 mA
43.458024890279;-0.6998291015625;-0.0548095703125;9.49999997601481;951;100 mA
43.4680248902538;-0.699737548828125;-0.054840087890625;9.50999997598956;952;100 mA
43.4780248902285;-0.69970703125;-0.05474853515625;9.51999997596431;953;100 mA
43.4880248902033;-0.699737548828125;-0.054779052734375;9.52999997593906;954;100 mA
43.498024890178;-0.699737548828125;-0.05499267578125;9.53999997591382;955;100 mA
43.5080248901528;-0.69976806640625;-0.054901123046875;9.54999997588857;956;100 mA
43.5180248901275;-0.69976806640625;-0.05499267578125;9.55999997586332;957;100 mA
43.5280248901023;-0.69970703125;-0.054931640625;9.56999997583807;958;100 mA
43.5380248900771;-0.69970703125;-0.05487060546875;9.57999997581283;959;100 mA
43.5480248900518;-0.69976806640625;-0.054779052734375;9.58999997578758;960;100 mA
43.5580248900266;-0.699676513671875;-0.054779052734375;9.59999997576233;961;100 mA
43.5680248900013;-0.69976806640625;-0.054779052734375;9.60999997573708;962;100 mA
43.5780248899761;-0.699737548828125;-0.0546875;9.61999997571183;963;100 mA
43.5880248899508;-0.69970703125;-0.0546875;9.62999997568659;964;100 mA
43.5980248899256;-0.699676513671875;-0.054534912109375;9.63999997566134;965;100 mA
43.6080248899003;-0.699737548828125;-0.054473876953125;9.64999997563609;966;100 mA
43.6180248898751;-0.69970703125;-0.054656982421875;9.65999997561084;967;100 mA
43.6280248898498;-0.699737548828125;-0.05462646484375;9.6699999755856;968;100 mA
43.6380248898246;-0.699737548828125;-0.054779052734375;9.67999997556035;969;100 mA
43.6480248897993;-0.699737548828125;-0.0546875;9.6899999755351;970;100 mA
43.6580248897741;-0.69970703125;-0.054779052734375;9.69999997550985;971;100 mA
43.6680248897488;-0.699676513671875;-0.05462646484375;9.70999997548461;972;100 mA
43.6780248897236;-0.699737548828125;-0.0545654296875;9.71999997545936;973;100 mA
43.6880248896983;-0.69970703125;-0.0545654296875;9.72999997543411;974;100 mA
43.6980248896731;-0.699737548828125;-0.054473876953125;9.73999997540886;975;100 mA
43.7080248896478;-0.69970703125;-0.054473876953125;9.74999997538362;976;100 mA
43.7180248896226;-0.69970703125;-0.05438232421875;9.75999997535837;977;100 mA
43.7280248895974;-0.699737548828125;-0.054443359375;9.76999997533312;978;100 mA
43.7380248895721;-0.69976806640625;-0.0545654296875;9.77999997530787;979;100 mA
43.7480248895469;-0.699737548828125;-0.05450439453125;9.78999997528263;980;100 mA
43.7580248895216;-0.69970703125;-0.05450439453125;9.79999997525738;981;100 mA
43.7680248894964;-0.699676513671875;-0.054412841796875;9.80999997523213;982;100 mA
43.7780248894711;-0.699676513671875;-0.0545654296875;9.81999997520688;983;100 mA
43.7880248894459;-0.69976806640625;-0.054412841796875;9.82999997518164;984;100 mA
43.7980248894206;-0.699737548828125;-0.05438232421875;9.83999997515639;985;100 mA
43.8080248893954;-0.69976806640625;-0.054351806640625;9.84999997513114;986;100 mA
43.8180248893701;-0.69976806640625;-0.05426025390625;9.85999997510589;987;100 mA
43.8280248893449;-0.69976806640625;-0.05419921875;9.86999997508065;988;100 mA
43.8380248893196;-0.69976806640625;-0.054107666015625;9.8799999750554;989;100 mA
43.8480248892944;-0.699737548828125;-0.0540771484375;9.88999997503015;990;100 mA
43.8580248892691;-0.699737548828125;-0.0543212890625;9.8999999750049;991;100 mA
43.8680248892439;-0.69976806640625;-0.054290771484375;9.90999997497966;992;100 mA
43.8780248892186;-0.69976806640625;-0.05426025390625;9.91999997495441;993;100 mA
43.8880248891934;-0.699737548828125;-0.054168701171875;9.92999997492916;994;100 mA
43.8980248891681;-0.69964599609375;-0.054168701171875;9.93999997490391;995;100 mA
43.9080248891429;-0.69970703125;-0.053955078125;9.94999997487866;996;100 mA
43.9180248891176;-0.699737548828125;-0.053924560546875;9.95999997485342;997;100 mA
43.9280248890924;-0.69976806640625;-0.053955078125;9.96999997482817;998;100 mA
43.9380248890672;-0.69970703125;-0.053924560546875;9.97999997480292;999;100 mA
43.9480248890419;-0.699798583984375;-0.05389404296875;9.98999997477767;1000;100 mA
