Time (s);WE(1).Potential (V);WE(1).Current (A);Corrected time (s);Index;Current range
74.6243518115916;-0.79986572265625;-0.341400146484375;0;1;100 mA
74.6343518115664;-0.79986572265625;-0.251373291015625;0.00999999997475243;2;100 mA
74.6443518115411;-0.8001708984375;-0.208221435546875;0.0199999999495049;3;100 mA
74.6543518115159;-0.799560546875;-0.18157958984375;0.0299999999242573;4;100 mA
74.6643518114906;-0.799560546875;-0.16302490234375;0.0399999998990097;5;100 mA
74.6743518114654;-0.79925537109375;-0.149261474609375;0.0499999998737621;6;100 mA
74.6843518114401;-0.79986572265625;-0.1383056640625;0.0599999998485146;7;100 mA
74.6943518114149;-0.79925537109375;-0.129638671875;0.069999999823267;8;100 mA
74.7043518113896;-0.79986572265625;-0.122161865234375;0.0799999997980194;9;100 mA
74.7143518113644;-0.79986572265625;-0.115997314453125;0.0899999997727718;10;100 mA
74.7243518113391;-0.799560546875;-0.11077880859375;0.0999999997475243;11;100 mA
74.7343518113139;-0.79986572265625;-0.106170654296875;0.109999999722277;12;100 mA
74.7443518112887;-0.79925537109375;-0.10223388671875;0.119999999697029;13;100 mA
74.7543518112634;-0.79925537109375;-0.098724365234375;0.129999999671782;14;100 mA
74.7643518112382;-0.79925537109375;-0.095672607421875;0.139999999646534;15;100 mA
74.7743518112129;-0.799560546875;-0.092864990234375;0.149999999621286;16;100 mA
74.7843518111877;-0.8001708984375;-0.090423583984375;0.159999999596039;17;100 mA
74.7943518111624;-0.79986572265625;-0.088409423828125;0.169999999570791;18;100 mA
74.8043518111372;-0.79925537109375;-0.08642578125;0.179999999545544;19;100 mA
74.8143518111119;-0.799560546875;-0.0848388671875;0.189999999520296;20;100 mA
74.8243518110867;-0.799560546875;-0.083099365234375;0.199999999495049;21;100 mA
74.8343518110614;-0.799560546875;-0.081695556640625;0.209999999469801;22;100 mA
74.8443518110362;-0.79925537109375;-0.0802001953125;0.219999999444553;23;100 mA
74.8543518110109;-0.7989501953125;-0.078857421875;0.229999999419306;24;100 mA
74.8643518109857;-0.79925537109375;-0.07769775390625;0.239999999394058;25;100 mA
74.8743518109604;-0.799560546875;-0.076507568359375;0.249999999368811;26;100 mA
74.8843518109352;-0.799560546875;-0.075531005859375;0.259999999343563;27;100 mA
74.8943518109099;-0.79925537109375;-0.074615478515625;0.269999999318316;28;100 mA
74.9043518108847;-0.79925537109375;-0.073883056640625;0.279999999293068;29;100 mA
74.9143518108594;-0.799560546875;-0.073272705078125;0.28999999926782;30;100 mA
74.9243518108342;-0.799560546875;-0.07257080078125;0.299999999242573;31;100 mA
74.9343518108089;-0.79925537109375;-0.072021484375;0.309999999217325;32;100 mA
74.9443518107837;-0.79986572265625;-0.071319580078125;0.319999999192078;33;100 mA
74.9543518107585;-0.79925537109375;-0.070953369140625;0.32999999916683;34;100 mA
74.9643518107332;-0.8001708984375;-0.070220947265625;0.339999999141583;35;100 mA
74.974351810708;-0.79925537109375;-0.069671630859375;0.349999999116335;36;100 mA
74.9843518106827;-0.79925537109375;-0.069183349609375;0.359999999091087;37;100 mA
74.9943518106575;-0.8001708984375;-0.06854248046875;0.36999999906584;38;100 mA
75.0043518106322;-0.79925537109375;-0.068023681640625;0.379999999040592;39;100 mA
75.014351810607;-0.79925537109375;-0.06756591796875;0.389999999015345;40;100 mA
75.0243518105817;-0.799560546875;-0.067169189453125;0.399999998990097;41;100 mA
75.0343518105565;-0.79986572265625;-0.067138671875;0.40999999896485;42;100 mA
75.0443518105312;-0.79986572265625;-0.066802978515625;0.419999998939602;43;100 mA
75.054351810506;-0.799560546875;-0.06658935546875;0.429999998914354;44;100 mA
75.0643518104807;-0.799560546875;-0.06622314453125;0.439999998889107;45;100 mA
75.0743518104555;-0.79986572265625;-0.065948486328125;0.449999998863859;46;100 mA
75.0843518104302;-0.79925537109375;-0.06549072265625;0.459999998838612;47;100 mA
75.094351810405;-0.79925537109375;-0.065155029296875;0.469999998813364;48;100 mA
75.1043518103797;-0.79925537109375;-0.06500244140625;0.479999998788116;49;100 mA
75.1143518103545;-0.799560546875;-0.064605712890625;0.489999998762869;50;100 mA
75.1243518103292;-0.79986572265625;-0.06439208984375;0.499999998737621;51;100 mA
75.134351810304;-0.799560546875;-0.064178466796875;0.509999998712374;52;100 mA
75.1443518102787;-0.79986572265625;-0.06396484375;0.519999998687126;53;100 mA
75.1543518102535;-0.79986572265625;-0.064117431640625;0.529999998661879;54;100 mA
75.1643518102283;-0.799560546875;-0.063751220703125;0.539999998636631;55;100 mA
75.174351810203;-0.7989501953125;-0.0638427734375;0.549999998611383;56;100 mA
75.1843518101778;-0.79986572265625;-0.06365966796875;0.559999998586136;57;100 mA
75.1943518101525;-0.79925537109375;-0.063629150390625;0.569999998560888;58;100 mA
75.2043518101273;-0.79925537109375;-0.06329345703125;0.579999998535641;59;100 mA
75.214351810102;-0.79986572265625;-0.0631103515625;0.589999998510393;60;100 mA
75.2243518100768;-0.79925537109375;-0.06280517578125;0.599999998485146;61;100 mA
75.2343518100515;-0.799560546875;-0.062469482421875;0.609999998459898;62;100 mA
75.2443518100263;-0.799560546875;-0.062286376953125;0.61999999843465;63;100 mA
75.254351810001;-0.799560546875;-0.06201171875;0.629999998409403;64;100 mA
75.2643518099758;-0.799560546875;-0.061981201171875;0.639999998384155;65;100 mA
75.2743518099505;-0.79986572265625;-0.062347412109375;0.649999998358908;66;100 mA
75.2843518099253;-0.79986572265625;-0.06201171875;0.65999999833366;67;100 mA
75.2943518099;-0.7989501953125;-0.06219482421875;0.669999998308413;68;100 mA
75.3043518098748;-0.799560546875;-0.061981201171875;0.679999998283165;69;100 mA
75.3143518098495;-0.79986572265625;-0.061981201171875;0.689999998257917;70;100 mA
75.3243518098243;-0.8001708984375;-0.061798095703125;0.69999999823267;71;100 mA
75.334351809799;-0.799560546875;-0.061767578125;0.709999998207422;72;100 mA
75.3443518097738;-0.79986572265625;-0.061676025390625;0.719999998182175;73;100 mA
75.3543518097486;-0.79925537109375;-0.061431884765625;0.729999998156927;74;100 mA
75.3643518097233;-0.799560546875;-0.061279296875;0.73999999813168;75;100 mA
75.3743518096981;-0.79925537109375;-0.061065673828125;0.749999998106432;76;100 mA
75.3843518096728;-0.799560546875;-0.06097412109375;0.759999998081184;77;100 mA
75.3943518096476;-0.79925537109375;-0.06134033203125;0.769999998055937;78;100 mA
75.4043518096223;-0.79986572265625;-0.06121826171875;0.779999998030689;79;100 mA
75.4143518095971;-0.799560546875;-0.06134033203125;0.789999998005442;80;100 mA
75.4243518095718;-0.79986572265625;-0.061126708984375;0.799999997980194;81;100 mA
75.4343518095466;-0.799560546875;-0.0611572265625;0.809999997954947;82;100 mA
75.4443518095213;-0.79925537109375;-0.06085205078125;0.819999997929699;83;100 mA
75.4543518094961;-0.799560546875;-0.060577392578125;0.829999997904451;84;100 mA
75.4643518094708;-0.799560546875;-0.06060791015625;0.839999997879204;85;100 mA
75.4743518094456;-0.79925537109375;-0.06036376953125;0.849999997853956;86;100 mA
75.4843518094203;-0.799560546875;-0.060333251953125;0.859999997828709;87;100 mA
75.4943518093951;-0.79986572265625;-0.06024169921875;0.869999997803461;88;100 mA
75.5043518093698;-0.799560546875;-0.060302734375;0.879999997778214;89;100 mA
75.5143518093446;-0.79925537109375;-0.06048583984375;0.889999997752966;90;100 mA
75.5243518093193;-0.79925537109375;-0.06036376953125;0.899999997727718;91;100 mA
75.5343518092941;-0.799560546875;-0.060455322265625;0.909999997702471;92;100 mA
75.5443518092688;-0.799560546875;-0.060302734375;0.919999997677223;93;100 mA
75.5543518092436;-0.79986572265625;-0.060546875;0.929999997651976;94;100 mA
75.5643518092184;-0.799560546875;-0.06036376953125;0.939999997626728;95;100 mA
75.5743518091931;-0.79925537109375;-0.060272216796875;0.949999997601481;96;100 mA
75.5843518091679;-0.799560546875;-0.06036376953125;0.959999997576233;97;100 mA
75.5943518091426;-0.799560546875;-0.060150146484375;0.969999997550985;98;100 mA
75.6043518091174;-0.799560546875;-0.060150146484375;0.979999997525738;99;100 mA
75.6143518090921;-0.79925537109375;-0.060150146484375;0.98999999750049;100;100 mA
75.6243518090669;-0.79986572265625;-0.060150146484375;0.999999997475243;101;100 mA
75.6343518090416;-0.79986572265625;-0.060577392578125;1.00999999745;102;100 mA
75.6443518090164;-0.79986572265625;-0.060455322265625;1.01999999742475;103;100 mA
75.6543518089911;-0.799560546875;-0.060516357421875;1.0299999973995;104;100 mA
75.6643518089659;-0.79986572265625;-0.0604248046875;1.03999999737425;105;100 mA
75.6743518089406;-0.79986572265625;-0.0604248046875;1.049999997349;106;100 mA
75.6843518089154;-0.7989501953125;-0.06024169921875;1.05999999732376;107;100 mA
75.6943518088901;-0.79925537109375;-0.06011962890625;1.06999999729851;108;100 mA
75.7043518088649;-0.799560546875;-0.06024169921875;1.07999999727326;109;100 mA
75.7143518088396;-0.79925537109375;-0.060028076171875;1.08999999724801;110;100 mA
75.7243518088144;-0.7989501953125;-0.06011962890625;1.09999999722277;111;100 mA
75.7343518087891;-0.799560546875;-0.060028076171875;1.10999999719752;112;100 mA
75.7443518087639;-0.79925537109375;-0.059967041015625;1.11999999717227;113;100 mA
75.7543518087386;-0.79925537109375;-0.06036376953125;1.12999999714702;114;100 mA
75.7643518087134;-0.799560546875;-0.06011962890625;1.13999999712178;115;100 mA
75.7743518086882;-0.79986572265625;-0.060394287109375;1.14999999709653;116;100 mA
75.7843518086629;-0.79925537109375;-0.060302734375;1.15999999707128;117;100 mA
75.7943518086377;-0.799560546875;-0.060516357421875;1.16999999704603;118;100 mA
75.8043518086124;-0.79925537109375;-0.06036376953125;1.17999999702079;119;100 mA
75.8143518085872;-0.8001708984375;-0.060455322265625;1.18999999699554;120;100 mA
75.8243518085619;-0.79925537109375;-0.060394287109375;1.19999999697029;121;100 mA
75.8343518085367;-0.79986572265625;-0.060394287109375;1.20999999694504;122;100 mA
75.8443518085114;-0.79864501953125;-0.06048583984375;1.2199999969198;123;100 mA
75.8543518084862;-0.79986572265625;-0.060516357421875;1.22999999689455;124;100 mA
75.8643518084609;-0.79925537109375;-0.06072998046875;1.2399999968693;125;100 mA
75.8743518084357;-0.8001708984375;-0.061279296875;1.24999999684405;126;100 mA
75.8843518084104;-0.79925537109375;-0.06109619140625;1.25999999681881;127;100 mA
75.8943518083852;-0.79925537109375;-0.061370849609375;1.26999999679356;128;100 mA
75.9043518083599;-0.79925537109375;-0.06121826171875;1.27999999676831;129;100 mA
75.9143518083347;-0.79925537109375;-0.0614013671875;1.28999999674306;130;100 mA
75.9243518083094;-0.79925537109375;-0.06134033203125;1.29999999671782;131;100 mA
75.9343518082842;-0.799560546875;-0.061431884765625;1.30999999669257;132;100 mA
75.9443518082589;-0.799560546875;-0.0615234375;1.31999999666732;133;100 mA
75.9543518082337;-0.799560546875;-0.061370849609375;1.32999999664207;134;100 mA
75.9643518082084;-0.799560546875;-0.06134033203125;1.33999999661683;135;100 mA
75.9743518081832;-0.79986572265625;-0.061248779296875;1.34999999659158;136;100 mA
75.984351808158;-0.799560546875;-0.061248779296875;1.35999999656633;137;100 mA
75.9943518081327;-0.79925537109375;-0.0616455078125;1.36999999654108;138;100 mA
76.0043518081075;-0.799560546875;-0.061676025390625;1.37999999651583;139;100 mA
76.0143518080822;-0.79925537109375;-0.0618896484375;1.38999999649059;140;100 mA
76.024351808057;-0.799560546875;-0.061737060546875;1.39999999646534;141;100 mA
76.0343518080317;-0.799560546875;-0.06182861328125;1.40999999644009;142;100 mA
76.0443518080065;-0.79986572265625;-0.0616455078125;1.41999999641484;143;100 mA
76.0543518079812;-0.79986572265625;-0.06146240234375;1.4299999963896;144;100 mA
76.064351807956;-0.799560546875;-0.06158447265625;1.43999999636435;145;100 mA
76.0743518079307;-0.79925537109375;-0.0614013671875;1.4499999963391;146;100 mA
76.0843518079055;-0.79925537109375;-0.061431884765625;1.45999999631385;147;100 mA
76.0943518078802;-0.799560546875;-0.061431884765625;1.46999999628861;148;100 mA
76.104351807855;-0.79925537109375;-0.061553955078125;1.47999999626336;149;100 mA
76.1143518078297;-0.79925537109375;-0.061798095703125;1.48999999623811;150;100 mA
76.1243518078045;-0.799560546875;-0.061737060546875;1.49999999621286;151;100 mA
76.1343518077792;-0.799560546875;-0.061920166015625;1.50999999618762;152;100 mA
76.144351807754;-0.799560546875;-0.061767578125;1.51999999616237;153;100 mA
76.1543518077287;-0.7989501953125;-0.061981201171875;1.52999999613712;154;100 mA
76.1643518077035;-0.79986572265625;-0.061767578125;1.53999999611187;155;100 mA
76.1743518076782;-0.79925537109375;-0.061553955078125;1.54999999608663;156;100 mA
76.184351807653;-0.799560546875;-0.061553955078125;1.55999999606138;157;100 mA
76.1943518076278;-0.799560546875;-0.06121826171875;1.56999999603613;158;100 mA
76.2043518076025;-0.799560546875;-0.061126708984375;1.57999999601088;159;100 mA
76.2143518075773;-0.79986572265625;-0.06103515625;1.58999999598564;160;100 mA
76.224351807552;-0.79925537109375;-0.06109619140625;1.59999999596039;161;100 mA
76.2343518075268;-0.799560546875;-0.061492919921875;1.60999999593514;162;100 mA
76.2443518075015;-0.79986572265625;-0.061370849609375;1.61999999590989;163;100 mA
76.2543518074763;-0.79925537109375;-0.061492919921875;1.62999999588465;164;100 mA
76.264351807451;-0.79925537109375;-0.061431884765625;1.6399999958594;165;100 mA
76.2743518074258;-0.799560546875;-0.06146240234375;1.64999999583415;166;100 mA
76.2843518074005;-0.799560546875;-0.061309814453125;1.6599999958089;167;100 mA
76.2943518073753;-0.79986572265625;-0.061248779296875;1.66999999578366;168;100 mA
76.30435180735;-0.799560546875;-0.061370849609375;1.67999999575841;169;100 mA
76.3143518073248;-0.79925537109375;-0.06121826171875;1.68999999573316;170;100 mA
76.3243518072995;-0.79925537109375;-0.061309814453125;1.69999999570791;171;100 mA
76.3343518072743;-0.799560546875;-0.06121826171875;1.70999999568267;172;100 mA
76.344351807249;-0.799560546875;-0.06121826171875;1.71999999565742;173;100 mA
76.3543518072238;-0.79986572265625;-0.0616455078125;1.72999999563217;174;100 mA
76.3643518071985;-0.799560546875;-0.061492919921875;1.73999999560692;175;100 mA
76.3743518071733;-0.79925537109375;-0.06182861328125;1.74999999558167;176;100 mA
76.3843518071481;-0.79925537109375;-0.06170654296875;1.75999999555643;177;100 mA
76.3943518071228;-0.79925537109375;-0.06182861328125;1.76999999553118;178;100 mA
76.4043518070976;-0.79925537109375;-0.06146240234375;1.77999999550593;179;100 mA
76.4143518070723;-0.799560546875;-0.061370849609375;1.78999999548068;180;100 mA
76.4243518070471;-0.79925537109375;-0.061065673828125;1.79999999545544;181;100 mA
76.4343518070218;-0.79925537109375;-0.060821533203125;1.80999999543019;182;100 mA
76.4443518069966;-0.799560546875;-0.060638427734375;1.81999999540494;183;100 mA
76.4543518069713;-0.799560546875;-0.060455322265625;1.82999999537969;184;100 mA
76.4643518069461;-0.799560546875;-0.0604248046875;1.83999999535445;185;100 mA
76.4743518069208;-0.79986572265625;-0.060699462890625;1.8499999953292;186;100 mA
76.4843518068956;-0.79925537109375;-0.06036376953125;1.85999999530395;187;100 mA
76.4943518068703;-0.79925537109375;-0.0604248046875;1.8699999952787;188;100 mA
76.5043518068451;-0.799560546875;-0.0601806640625;1.87999999525346;189;100 mA
76.5143518068198;-0.799560546875;-0.060211181640625;1.88999999522821;190;100 mA
76.5243518067946;-0.799560546875;-0.059967041015625;1.89999999520296;191;100 mA
76.5343518067693;-0.79925537109375;-0.059906005859375;1.90999999517771;192;100 mA
76.5443518067441;-0.79925537109375;-0.059814453125;1.91999999515247;193;100 mA
76.5543518067188;-0.799560546875;-0.059539794921875;1.92999999512722;194;100 mA
76.5643518066936;-0.79925537109375;-0.05938720703125;1.93999999510197;195;100 mA
76.5743518066683;-0.799560546875;-0.059173583984375;1.94999999507672;196;100 mA
76.5843518066431;-0.799560546875;-0.059051513671875;1.95999999505148;197;100 mA
76.5943518066179;-0.7989501953125;-0.059356689453125;1.96999999502623;198;100 mA
76.6043518065926;-0.79986572265625;-0.05926513671875;1.97999999500098;199;100 mA
76.6143518065674;-0.79925537109375;-0.059356689453125;1.98999999497573;200;100 mA
76.6243518065421;-0.8001708984375;-0.0592041015625;1.99999999495049;201;100 mA
76.6343518065169;-0.799560546875;-0.0592041015625;2.00999999492524;202;100 mA
76.6443518064916;-0.799560546875;-0.058990478515625;2.01999999489999;203;100 mA
76.6543518064664;-0.799560546875;-0.058807373046875;2.02999999487474;204;100 mA
76.6643518064411;-0.7989501953125;-0.058929443359375;2.0399999948495;205;100 mA
76.6743518064159;-0.8001708984375;-0.058685302734375;2.04999999482425;206;100 mA
76.6843518063906;-0.8001708984375;-0.05865478515625;2.059999994799;207;100 mA
76.6943518063654;-0.799560546875;-0.05859375;2.06999999477375;208;100 mA
76.7043518063401;-0.799560546875;-0.058563232421875;2.0799999947485;209;100 mA
76.7143518063149;-0.79925537109375;-0.058746337890625;2.08999999472326;210;100 mA
76.7243518062896;-0.799560546875;-0.05859375;2.09999999469801;211;100 mA
76.7343518062644;-0.79986572265625;-0.0587158203125;2.10999999467276;212;100 mA
76.7443518062391;-0.799560546875;-0.058624267578125;2.11999999464751;213;100 mA
76.7543518062139;-0.799560546875;-0.058807373046875;2.12999999462227;214;100 mA
76.7643518061886;-0.799560546875;-0.0587158203125;2.13999999459702;215;100 mA
76.7743518061634;-0.799560546875;-0.05865478515625;2.14999999457177;216;100 mA
76.7843518061381;-0.79986572265625;-0.058807373046875;2.15999999454652;217;100 mA
76.7943518061129;-0.79925537109375;-0.05859375;2.16999999452128;218;100 mA
76.8043518060877;-0.799560546875;-0.0587158203125;2.17999999449603;219;100 mA
76.8143518060624;-0.79925537109375;-0.05865478515625;2.18999999447078;220;100 mA
76.8243518060372;-0.79986572265625;-0.058807373046875;2.19999999444553;221;100 mA
76.8343518060119;-0.79986572265625;-0.059234619140625;2.20999999442029;222;100 mA
76.8443518059867;-0.79986572265625;-0.05914306640625;2.21999999439504;223;100 mA
76.8543518059614;-0.799560546875;-0.05926513671875;2.22999999436979;224;100 mA
76.8643518059362;-0.79925537109375;-0.059173583984375;2.23999999434454;225;100 mA
76.8743518059109;-0.79986572265625;-0.05914306640625;2.2499999943193;226;100 mA
76.8843518058857;-0.799560546875;-0.05908203125;2.25999999429405;227;100 mA
76.8943518058604;-0.79925537109375;-0.059051513671875;2.2699999942688;228;100 mA
76.9043518058352;-0.799560546875;-0.05914306640625;2.27999999424355;229;100 mA
76.9143518058099;-0.79925537109375;-0.058990478515625;2.28999999421831;230;100 mA
76.9243518057847;-0.799560546875;-0.05908203125;2.29999999419306;231;100 mA
76.9343518057594;-0.799560546875;-0.058990478515625;2.30999999416781;232;100 mA
76.9443518057342;-0.799560546875;-0.058929443359375;2.31999999414256;233;100 mA
76.9543518057089;-0.799560546875;-0.059326171875;2.32999999411732;234;100 mA
76.9643518056837;-0.79925537109375;-0.05914306640625;2.33999999409207;235;100 mA
76.9743518056584;-0.79986572265625;-0.05938720703125;2.34999999406682;236;100 mA
76.9843518056332;-0.79925537109375;-0.059234619140625;2.35999999404157;237;100 mA
76.9943518056079;-0.799560546875;-0.059326171875;2.36999999401633;238;100 mA
77.0043518055827;-0.79925537109375;-0.05908203125;2.37999999399108;239;100 mA
77.0143518055575;-0.79925537109375;-0.05908203125;2.38999999396583;240;100 mA
77.0243518055322;-0.799560546875;-0.0589599609375;2.39999999394058;241;100 mA
77.034351805507;-0.799560546875;-0.05889892578125;2.40999999391533;242;100 mA
77.0443518054817;-0.79925537109375;-0.05889892578125;2.41999999389009;243;100 mA
77.0543518054565;-0.79925537109375;-0.058868408203125;2.42999999386484;244;100 mA
77.0643518054312;-0.799560546875;-0.05902099609375;2.43999999383959;245;100 mA
77.074351805406;-0.79925537109375;-0.059326171875;2.44999999381434;246;100 mA
77.0843518053807;-0.799560546875;-0.059173583984375;2.4599999937891;247;100 mA
77.0943518053555;-0.79925537109375;-0.059234619140625;2.46999999376385;248;100 mA
77.1043518053302;-0.799560546875;-0.059051513671875;2.4799999937386;249;100 mA
77.114351805305;-0.799560546875;-0.059173583984375;2.48999999371335;250;100 mA
77.1243518052797;-0.79925537109375;-0.0589599609375;2.49999999368811;251;100 mA
77.1343518052545;-0.79986572265625;-0.058990478515625;2.50999999366286;252;100 mA
77.1443518052292;-0.79925537109375;-0.0589599609375;2.51999999363761;253;100 mA
77.154351805204;-0.799560546875;-0.058807373046875;2.52999999361236;254;100 mA
77.1643518051787;-0.79986572265625;-0.0587158203125;2.53999999358712;255;100 mA
77.1743518051535;-0.799560546875;-0.058624267578125;2.54999999356187;256;100 mA
77.1843518051282;-0.79925537109375;-0.058624267578125;2.55999999353662;257;100 mA
77.194351805103;-0.799560546875;-0.058929443359375;2.56999999351137;258;100 mA
77.2043518050777;-0.79925537109375;-0.058929443359375;2.57999999348613;259;100 mA
77.2143518050525;-0.799560546875;-0.05902099609375;2.58999999346088;260;100 mA
77.2243518050273;-0.79925537109375;-0.05889892578125;2.59999999343563;261;100 mA
77.234351805002;-0.799560546875;-0.058929443359375;2.60999999341038;262;100 mA
77.2443518049768;-0.799560546875;-0.0587158203125;2.61999999338514;263;100 mA
77.2543518049515;-0.79864501953125;-0.058563232421875;2.62999999335989;264;100 mA
77.2643518049263;-0.799560546875;-0.058746337890625;2.63999999333464;265;100 mA
77.274351804901;-0.799560546875;-0.05865478515625;2.64999999330939;266;100 mA
77.2843518048758;-0.79925537109375;-0.058685302734375;2.65999999328415;267;100 mA
77.2943518048505;-0.79925537109375;-0.05877685546875;2.6699999932589;268;100 mA
77.3043518048253;-0.79925537109375;-0.058868408203125;2.67999999323365;269;100 mA
77.3143518048;-0.8001708984375;-0.0592041015625;2.6899999932084;270;100 mA
77.3243518047748;-0.799560546875;-0.0592041015625;2.69999999318316;271;100 mA
77.3343518047495;-0.799560546875;-0.059478759765625;2.70999999315791;272;100 mA
77.3443518047243;-0.7989501953125;-0.059539794921875;2.71999999313266;273;100 mA
77.354351804699;-0.799560546875;-0.05975341796875;2.72999999310741;274;100 mA
77.3643518046738;-0.79925537109375;-0.059722900390625;2.73999999308217;275;100 mA
77.3743518046485;-0.8001708984375;-0.059661865234375;2.74999999305692;276;100 mA
77.3843518046233;-0.79925537109375;-0.05975341796875;2.75999999303167;277;100 mA
77.394351804598;-0.799560546875;-0.059539794921875;2.76999999300642;278;100 mA
77.4043518045728;-0.79986572265625;-0.059600830078125;2.77999999298117;279;100 mA
77.4143518045476;-0.79986572265625;-0.05950927734375;2.78999999295593;280;100 mA
77.4243518045223;-0.8001708984375;-0.05963134765625;2.79999999293068;281;100 mA
77.4343518044971;-0.799560546875;-0.06005859375;2.80999999290543;282;100 mA
77.4443518044718;-0.79925537109375;-0.05999755859375;2.81999999288018;283;100 mA
77.4543518044466;-0.79986572265625;-0.060211181640625;2.82999999285494;284;100 mA
77.4643518044213;-0.79986572265625;-0.06024169921875;2.83999999282969;285;100 mA
77.4743518043961;-0.79925537109375;-0.060272216796875;2.84999999280444;286;100 mA
77.4843518043708;-0.7989501953125;-0.060211181640625;2.85999999277919;287;100 mA
77.4943518043456;-0.799560546875;-0.060211181640625;2.86999999275395;288;100 mA
77.5043518043203;-0.79986572265625;-0.06024169921875;2.8799999927287;289;100 mA
77.5143518042951;-0.799560546875;-0.06005859375;2.88999999270345;290;100 mA
77.5243518042698;-0.799560546875;-0.060028076171875;2.8999999926782;291;100 mA
77.5343518042446;-0.7989501953125;-0.059844970703125;2.90999999265296;292;100 mA
77.5443518042193;-0.79986572265625;-0.05975341796875;2.91999999262771;293;100 mA
77.5543518041941;-0.79986572265625;-0.060089111328125;2.92999999260246;294;100 mA
77.5643518041688;-0.7989501953125;-0.059967041015625;2.93999999257721;295;100 mA
77.5743518041436;-0.799560546875;-0.060272216796875;2.94999999255197;296;100 mA
77.5843518041183;-0.799560546875;-0.06011962890625;2.95999999252672;297;100 mA
77.5943518040931;-0.799560546875;-0.060272216796875;2.96999999250147;298;100 mA
77.6043518040678;-0.79925537109375;-0.06005859375;2.97999999247622;299;100 mA
77.6143518040426;-0.79925537109375;-0.059967041015625;2.98999999245098;300;100 mA
77.6243518040174;-0.79925537109375;-0.059783935546875;2.99999999242573;301;100 mA
77.6343518039921;-0.79925537109375;-0.05963134765625;3.00999999240048;302;100 mA
77.6443518039669;-0.799560546875;-0.05950927734375;3.01999999237523;303;100 mA
77.6543518039416;-0.79986572265625;-0.059356689453125;3.02999999234999;304;100 mA
77.6643518039164;-0.799560546875;-0.05938720703125;3.03999999232474;305;100 mA
77.6743518038911;-0.799560546875;-0.059600830078125;3.04999999229949;306;100 mA
77.6843518038659;-0.799560546875;-0.059478759765625;3.05999999227424;307;100 mA
77.6943518038406;-0.79925537109375;-0.059600830078125;3.069999992249;308;100 mA
77.7043518038154;-0.799560546875;-0.0595703125;3.07999999222375;309;100 mA
77.7143518037901;-0.799560546875;-0.05975341796875;3.0899999921985;310;100 mA
77.7243518037649;-0.799560546875;-0.05963134765625;3.09999999217325;311;100 mA
77.7343518037396;-0.7989501953125;-0.05975341796875;3.109999992148;312;100 mA
77.7443518037144;-0.799560546875;-0.059814453125;3.11999999212276;313;100 mA
77.7543518036891;-0.799560546875;-0.059722900390625;3.12999999209751;314;100 mA
77.7643518036639;-0.79925537109375;-0.059661865234375;3.13999999207226;315;100 mA
77.7743518036386;-0.79925537109375;-0.059539794921875;3.14999999204701;316;100 mA
77.7843518036134;-0.7989501953125;-0.059478759765625;3.15999999202177;317;100 mA
77.7943518035881;-0.799560546875;-0.059783935546875;3.16999999199652;318;100 mA
77.8043518035629;-0.79925537109375;-0.059783935546875;3.17999999197127;319;100 mA
77.8143518035376;-0.79925537109375;-0.0599365234375;3.18999999194602;320;100 mA
77.8243518035124;-0.799560546875;-0.059844970703125;3.19999999192078;321;100 mA
77.8343518034872;-0.79925537109375;-0.05987548828125;3.20999999189553;322;100 mA
77.8443518034619;-0.79925537109375;-0.05963134765625;3.21999999187028;323;100 mA
77.8543518034367;-0.799560546875;-0.059539794921875;3.22999999184503;324;100 mA
77.8643518034114;-0.79925537109375;-0.059661865234375;3.23999999181979;325;100 mA
77.8743518033862;-0.799560546875;-0.05950927734375;3.24999999179454;326;100 mA
77.8843518033609;-0.799560546875;-0.0594482421875;3.25999999176929;327;100 mA
77.8943518033357;-0.79925537109375;-0.059478759765625;3.26999999174404;328;100 mA
77.9043518033104;-0.79925537109375;-0.0594482421875;3.2799999917188;329;100 mA
77.9143518032852;-0.799560546875;-0.059661865234375;3.28999999169355;330;100 mA
77.9243518032599;-0.79925537109375;-0.059539794921875;3.2999999916683;331;100 mA
77.9343518032347;-0.79986572265625;-0.05975341796875;3.30999999164305;332;100 mA
77.9443518032094;-0.799560546875;-0.059844970703125;3.31999999161781;333;100 mA
77.9543518031842;-0.799560546875;-0.060028076171875;3.32999999159256;334;100 mA
77.9643518031589;-0.8001708984375;-0.059967041015625;3.33999999156731;335;100 mA
77.9743518031337;-0.79986572265625;-0.0599365234375;3.34999999154206;336;100 mA
77.9843518031084;-0.79925537109375;-0.06005859375;3.35999999151682;337;100 mA
77.9943518030832;-0.79986572265625;-0.05987548828125;3.36999999149157;338;100 mA
78.0043518030579;-0.799560546875;-0.059967041015625;3.37999999146632;339;100 mA
78.0143518030327;-0.79925537109375;-0.059783935546875;3.38999999144107;340;100 mA
78.0243518030074;-0.799560546875;-0.059844970703125;3.39999999141583;341;100 mA
78.0343518029822;-0.8001708984375;-0.06011962890625;3.40999999139058;342;100 mA
78.044351802957;-0.7989501953125;-0.059906005859375;3.41999999136533;343;100 mA
78.0543518029317;-0.79925537109375;-0.059967041015625;3.42999999134008;344;100 mA
78.0643518029065;-0.799560546875;-0.059814453125;3.43999999131483;345;100 mA
78.0743518028812;-0.8001708984375;-0.05975341796875;3.44999999128959;346;100 mA
78.084351802856;-0.799560546875;-0.0596923828125;3.45999999126434;347;100 mA
78.0943518028307;-0.79986572265625;-0.0596923828125;3.46999999123909;348;100 mA
78.1043518028055;-0.79864501953125;-0.059783935546875;3.47999999121384;349;100 mA
78.1143518027802;-0.799560546875;-0.059661865234375;3.4899999911886;350;100 mA
78.124351802755;-0.79986572265625;-0.059661865234375;3.49999999116335;351;100 mA
78.1343518027297;-0.799560546875;-0.059539794921875;3.5099999911381;352;100 mA
78.1443518027045;-0.79986572265625;-0.059417724609375;3.51999999111285;353;100 mA
78.1543518026792;-0.799560546875;-0.0596923828125;3.52999999108761;354;100 mA
78.164351802654;-0.79986572265625;-0.05950927734375;3.53999999106236;355;100 mA
78.1743518026287;-0.799560546875;-0.059722900390625;3.54999999103711;356;100 mA
78.1843518026035;-0.799560546875;-0.059478759765625;3.55999999101186;357;100 mA
78.1943518025782;-0.79986572265625;-0.05950927734375;3.56999999098662;358;100 mA
78.204351802553;-0.799560546875;-0.05926513671875;3.57999999096137;359;100 mA
78.2143518025277;-0.799560546875;-0.059173583984375;3.58999999093612;360;100 mA
78.2243518025025;-0.79925537109375;-0.059112548828125;3.59999999091087;361;100 mA
78.2343518024772;-0.79925537109375;-0.05902099609375;3.60999999088563;362;100 mA
78.244351802452;-0.79986572265625;-0.05908203125;3.61999999086038;363;100 mA
78.2543518024268;-0.799560546875;-0.059051513671875;3.62999999083513;364;100 mA
78.2643518024015;-0.799560546875;-0.059173583984375;3.63999999080988;365;100 mA
78.2743518023763;-0.79986572265625;-0.05938720703125;3.64999999078464;366;100 mA
78.284351802351;-0.79925537109375;-0.059326171875;3.65999999075939;367;100 mA
78.2943518023258;-0.79986572265625;-0.059417724609375;3.66999999073414;368;100 mA
78.3043518023005;-0.79925537109375;-0.05926513671875;3.67999999070889;369;100 mA
78.3143518022753;-0.79925537109375;-0.05938720703125;3.68999999068365;370;100 mA
78.32435180225;-0.79925537109375;-0.0592041015625;3.6999999906584;371;100 mA
78.3343518022248;-0.8001708984375;-0.059234619140625;3.70999999063315;372;100 mA
78.3443518021995;-0.79986572265625;-0.05926513671875;3.7199999906079;373;100 mA
78.3543518021743;-0.79925537109375;-0.059173583984375;3.72999999058266;374;100 mA
78.364351802149;-0.79925537109375;-0.059112548828125;3.73999999055741;375;100 mA
78.3743518021238;-0.799560546875;-0.059051513671875;3.74999999053216;376;100 mA
78.3843518020985;-0.799560546875;-0.0589599609375;3.75999999050691;377;100 mA
78.3943518020733;-0.8001708984375;-0.05926513671875;3.76999999048167;378;100 mA
78.404351802048;-0.79925537109375;-0.059173583984375;3.77999999045642;379;100 mA
78.4143518020228;-0.799560546875;-0.059173583984375;3.78999999043117;380;100 mA
78.4243518019975;-0.799560546875;-0.058990478515625;3.79999999040592;381;100 mA
78.4343518019723;-0.79925537109375;-0.0589599609375;3.80999999038067;382;100 mA
78.4443518019471;-0.799560546875;-0.058624267578125;3.81999999035543;383;100 mA
78.4543518019218;-0.79925537109375;-0.0584716796875;3.82999999033018;384;100 mA
78.4643518018966;-0.799560546875;-0.05853271484375;3.83999999030493;385;100 mA
78.4743518018713;-0.79925537109375;-0.058380126953125;3.84999999027968;386;100 mA
78.4843518018461;-0.79986572265625;-0.058349609375;3.85999999025444;387;100 mA
78.4943518018208;-0.79925537109375;-0.058319091796875;3.86999999022919;388;100 mA
78.5043518017956;-0.79925537109375;-0.058258056640625;3.87999999020394;389;100 mA
78.5143518017703;-0.79925537109375;-0.0584716796875;3.88999999017869;390;100 mA
78.5243518017451;-0.799560546875;-0.05828857421875;3.89999999015345;391;100 mA
78.5343518017198;-0.79925537109375;-0.05841064453125;3.9099999901282;392;100 mA
78.5443518016946;-0.799560546875;-0.058319091796875;3.91999999010295;393;100 mA
78.5543518016693;-0.79986572265625;-0.058349609375;3.9299999900777;394;100 mA
78.5643518016441;-0.79986572265625;-0.058197021484375;3.93999999005246;395;100 mA
78.5743518016188;-0.79925537109375;-0.058074951171875;3.94999999002721;396;100 mA
78.5843518015936;-0.799560546875;-0.058074951171875;3.95999999000196;397;100 mA
78.5943518015683;-0.799560546875;-0.057891845703125;3.96999998997671;398;100 mA
78.6043518015431;-0.799560546875;-0.05792236328125;3.97999998995147;399;100 mA
78.6143518015178;-0.79925537109375;-0.057769775390625;3.98999998992622;400;100 mA
78.6243518014926;-0.79986572265625;-0.057830810546875;3.99999998990097;401;100 mA
78.6343518014673;-0.799560546875;-0.058135986328125;4.00999998987572;402;100 mA
78.6443518014421;-0.799560546875;-0.057952880859375;4.01999998985048;403;100 mA
78.6543518014169;-0.79986572265625;-0.058074951171875;4.02999998982523;404;100 mA
78.6643518013916;-0.799560546875;-0.057891845703125;4.03999998979998;405;100 mA
78.6743518013664;-0.799560546875;-0.057830810546875;4.04999998977473;406;100 mA
78.6843518013411;-0.79986572265625;-0.0577392578125;4.05999998974949;407;100 mA
78.6943518013159;-0.79986572265625;-0.057708740234375;4.06999998972424;408;100 mA
78.7043518012906;-0.799560546875;-0.057708740234375;4.07999998969899;409;100 mA
78.7143518012654;-0.799560546875;-0.057525634765625;4.08999998967374;410;100 mA
78.7243518012401;-0.79925537109375;-0.057464599609375;4.0999999896485;411;100 mA
78.7343518012149;-0.799560546875;-0.05731201171875;4.10999998962325;412;100 mA
78.7443518011896;-0.79986572265625;-0.057220458984375;4.119999989598;413;100 mA
78.7543518011644;-0.799560546875;-0.0574951171875;4.12999998957275;414;100 mA
78.7643518011391;-0.799560546875;-0.057403564453125;4.1399999895475;415;100 mA
78.7743518011139;-0.79925537109375;-0.0576171875;4.14999998952226;416;100 mA
78.7843518010886;-0.799560546875;-0.057464599609375;4.15999998949701;417;100 mA
78.7943518010634;-0.79925537109375;-0.057525634765625;4.16999998947176;418;100 mA
78.8043518010381;-0.799560546875;-0.05731201171875;4.17999998944651;419;100 mA
78.8143518010129;-0.79925537109375;-0.057220458984375;4.18999998942127;420;100 mA
78.8243518009876;-0.7989501953125;-0.05718994140625;4.19999998939602;421;100 mA
78.8343518009624;-0.79925537109375;-0.05706787109375;4.20999998937077;422;100 mA
78.8443518009371;-0.79925537109375;-0.057037353515625;4.21999998934552;423;100 mA
78.8543518009119;-0.79925537109375;-0.056976318359375;4.22999998932028;424;100 mA
78.8643518008867;-0.799560546875;-0.0570068359375;4.23999998929503;425;100 mA
78.8743518008614;-0.79986572265625;-0.057159423828125;4.24999998926978;426;100 mA
78.8843518008362;-0.7989501953125;-0.057098388671875;4.25999998924453;427;100 mA
78.8943518008109;-0.79925537109375;-0.05712890625;4.26999998921929;428;100 mA
78.9043518007857;-0.799560546875;-0.057037353515625;4.27999998919404;429;100 mA
78.9143518007604;-0.799560546875;-0.057220458984375;4.28999998916879;430;100 mA
78.9243518007352;-0.79925537109375;-0.056976318359375;4.29999998914354;431;100 mA
78.9343518007099;-0.799560546875;-0.056976318359375;4.3099999891183;432;100 mA
78.9443518006847;-0.7989501953125;-0.0570068359375;4.31999998909305;433;100 mA
78.9543518006594;-0.8001708984375;-0.056915283203125;4.3299999890678;434;100 mA
78.9643518006342;-0.799560546875;-0.056884765625;4.33999998904255;435;100 mA
78.9743518006089;-0.799560546875;-0.056884765625;4.34999998901731;436;100 mA
78.9843518005837;-0.79925537109375;-0.056854248046875;4.35999998899206;437;100 mA
78.9943518005584;-0.799560546875;-0.05718994140625;4.36999998896681;438;100 mA
79.0043518005332;-0.79986572265625;-0.05718994140625;4.37999998894156;439;100 mA
79.0143518005079;-0.799560546875;-0.057220458984375;4.38999998891632;440;100 mA
79.0243518004827;-0.7989501953125;-0.057098388671875;4.39999998889107;441;100 mA
79.0343518004574;-0.79925537109375;-0.057098388671875;4.40999998886582;442;100 mA
79.0443518004322;-0.799560546875;-0.05682373046875;4.41999998884057;443;100 mA
79.0543518004069;-0.79925537109375;-0.0567626953125;4.42999998881533;444;100 mA
79.0643518003817;-0.799560546875;-0.056854248046875;4.43999998879008;445;100 mA
79.0743518003565;-0.79986572265625;-0.0567626953125;4.44999998876483;446;100 mA
79.0843518003312;-0.799560546875;-0.0567626953125;4.45999998873958;447;100 mA
79.094351800306;-0.799560546875;-0.0567626953125;4.46999998871433;448;100 mA
79.1043518002807;-0.79925537109375;-0.056793212890625;4.47999998868909;449;100 mA
79.1143518002555;-0.799560546875;-0.0570068359375;4.48999998866384;450;100 mA
79.1243518002302;-0.799560546875;-0.056915283203125;4.49999998863859;451;100 mA
79.134351800205;-0.799560546875;-0.057098388671875;4.50999998861334;452;100 mA
79.1443518001797;-0.79925537109375;-0.057098388671875;4.5199999885881;453;100 mA
79.1543518001545;-0.79986572265625;-0.057220458984375;4.52999998856285;454;100 mA
79.1643518001292;-0.79925537109375;-0.05712890625;4.5399999885376;455;100 mA
79.174351800104;-0.799560546875;-0.057098388671875;4.54999998851235;456;100 mA
79.1843518000787;-0.799560546875;-0.057159423828125;4.55999998848711;457;100 mA
79.1943518000535;-0.79925537109375;-0.05706787109375;4.56999998846186;458;100 mA
79.2043518000282;-0.799560546875;-0.057159423828125;4.57999998843661;459;100 mA
79.214351800003;-0.79986572265625;-0.057037353515625;4.58999998841136;460;100 mA
79.2243517999777;-0.799560546875;-0.057098388671875;4.59999998838612;461;100 mA
79.2343517999525;-0.799560546875;-0.05743408203125;4.60999998836087;462;100 mA
79.2443517999272;-0.79925537109375;-0.05731201171875;4.61999998833562;463;100 mA
79.254351799902;-0.79925537109375;-0.057464599609375;4.62999998831037;464;100 mA
79.2643517998767;-0.799560546875;-0.057342529296875;4.63999998828513;465;100 mA
79.2743517998515;-0.79925537109375;-0.057373046875;4.64999998825988;466;100 mA
79.2843517998263;-0.79986572265625;-0.05731201171875;4.65999998823463;467;100 mA
79.294351799801;-0.799560546875;-0.057342529296875;4.66999998820938;468;100 mA
79.3043517997758;-0.8001708984375;-0.057403564453125;4.67999998818414;469;100 mA
79.3143517997505;-0.7989501953125;-0.057281494140625;4.68999998815889;470;100 mA
79.3243517997253;-0.799560546875;-0.05731201171875;4.69999998813364;471;100 mA
79.3343517997;-0.79925537109375;-0.057220458984375;4.70999998810839;472;100 mA
79.3443517996748;-0.79925537109375;-0.057220458984375;4.71999998808315;473;100 mA
79.3543517996495;-0.7989501953125;-0.057525634765625;4.7299999880579;474;100 mA
79.3643517996243;-0.79925537109375;-0.057464599609375;4.73999998803265;475;100 mA
79.374351799599;-0.799560546875;-0.057769775390625;4.7499999880074;476;100 mA
79.3843517995738;-0.79925537109375;-0.05767822265625;4.75999998798216;477;100 mA
79.3943517995485;-0.799560546875;-0.057830810546875;4.76999998795691;478;100 mA
79.4043517995233;-0.79925537109375;-0.0577392578125;4.77999998793166;479;100 mA
79.414351799498;-0.79925537109375;-0.05767822265625;4.78999998790641;480;100 mA
79.4243517994728;-0.79986572265625;-0.0577392578125;4.79999998788116;481;100 mA
79.4343517994475;-0.7989501953125;-0.05767822265625;4.80999998785592;482;100 mA
79.4443517994223;-0.79925537109375;-0.057647705078125;4.81999998783067;483;100 mA
79.454351799397;-0.79986572265625;-0.057586669921875;4.82999998780542;484;100 mA
79.4643517993718;-0.79986572265625;-0.05767822265625;4.83999998778017;485;100 mA
79.4743517993466;-0.799560546875;-0.057769775390625;4.84999998775493;486;100 mA
79.4843517993213;-0.79925537109375;-0.0577392578125;4.85999998772968;487;100 mA
79.4943517992961;-0.79986572265625;-0.05780029296875;4.86999998770443;488;100 mA
79.5043517992708;-0.79986572265625;-0.05767822265625;4.87999998767918;489;100 mA
79.5143517992456;-0.79986572265625;-0.057830810546875;4.88999998765394;490;100 mA
79.5243517992203;-0.799560546875;-0.0576171875;4.89999998762869;491;100 mA
79.5343517991951;-0.7989501953125;-0.0576171875;4.90999998760344;492;100 mA
79.5443517991698;-0.79986572265625;-0.057586669921875;4.91999998757819;493;100 mA
79.5543517991446;-0.79986572265625;-0.057464599609375;4.92999998755295;494;100 mA
79.5643517991193;-0.79925537109375;-0.057373046875;4.9399999875277;495;100 mA
79.5743517990941;-0.799560546875;-0.05731201171875;4.94999998750245;496;100 mA
79.5843517990688;-0.799560546875;-0.057220458984375;4.9599999874772;497;100 mA
79.5943517990436;-0.79986572265625;-0.05755615234375;4.96999998745196;498;100 mA
79.6043517990183;-0.799560546875;-0.05755615234375;4.97999998742671;499;100 mA
79.6143517989931;-0.79925537109375;-0.05767822265625;4.98999998740146;500;100 mA
79.6243517989678;-0.79925537109375;-0.057647705078125;4.99999998737621;501;100 mA
79.6343517989426;-0.799560546875;-0.057769775390625;5.00999998735097;502;100 mA
79.6443517989173;-0.799560546875;-0.0576171875;5.01999998732572;503;100 mA
79.6543517988921;-0.799560546875;-0.0576171875;5.02999998730047;504;100 mA
79.6643517988668;-0.799560546875;-0.057769775390625;5.03999998727522;505;100 mA
79.6743517988416;-0.799560546875;-0.057708740234375;5.04999998724998;506;100 mA
79.6843517988164;-0.799560546875;-0.057708740234375;5.05999998722473;507;100 mA
79.6943517987911;-0.7989501953125;-0.057647705078125;5.06999998719948;508;100 mA
79.7043517987659;-0.799560546875;-0.057586669921875;5.07999998717423;509;100 mA
79.7143517987406;-0.7989501953125;-0.0577392578125;5.08999998714899;510;100 mA
79.7243517987154;-0.79864501953125;-0.05755615234375;5.09999998712374;511;100 mA
79.7343517986901;-0.799560546875;-0.057647705078125;5.10999998709849;512;100 mA
79.7443517986649;-0.799560546875;-0.057586669921875;5.11999998707324;513;100 mA
79.7543517986396;-0.79986572265625;-0.057586669921875;5.129999987048;514;100 mA
79.7643517986144;-0.799560546875;-0.057403564453125;5.13999998702275;515;100 mA
79.7743517985891;-0.79925537109375;-0.057342529296875;5.1499999869975;516;100 mA
79.7843517985639;-0.79925537109375;-0.05731201171875;5.15999998697225;517;100 mA
79.7943517985386;-0.79986572265625;-0.057220458984375;5.169999986947;518;100 mA
79.8043517985134;-0.79986572265625;-0.0572509765625;5.17999998692176;519;100 mA
79.8143517984881;-0.79925537109375;-0.05712890625;5.18999998689651;520;100 mA
79.8243517984629;-0.799560546875;-0.057159423828125;5.19999998687126;521;100 mA
79.8343517984376;-0.799560546875;-0.05743408203125;5.20999998684601;522;100 mA
79.8443517984124;-0.799560546875;-0.0572509765625;5.21999998682077;523;100 mA
79.8543517983871;-0.799560546875;-0.057373046875;5.22999998679552;524;100 mA
79.8643517983619;-0.8001708984375;-0.057220458984375;5.23999998677027;525;100 mA
79.8743517983366;-0.79925537109375;-0.057159423828125;5.24999998674502;526;100 mA
79.8843517983114;-0.7989501953125;-0.057098388671875;5.25999998671978;527;100 mA
79.8943517982862;-0.799560546875;-0.057098388671875;5.26999998669453;528;100 mA
79.9043517982609;-0.79986572265625;-0.057098388671875;5.27999998666928;529;100 mA
79.9143517982357;-0.799560546875;-0.056976318359375;5.28999998664403;530;100 mA
79.9243517982104;-0.79986572265625;-0.05694580078125;5.29999998661879;531;100 mA
79.9343517981852;-0.799560546875;-0.056793212890625;5.30999998659354;532;100 mA
79.9443517981599;-0.799560546875;-0.056732177734375;5.31999998656829;533;100 mA
79.9543517981347;-0.79925537109375;-0.056976318359375;5.32999998654304;534;100 mA
79.9643517981094;-0.799560546875;-0.056884765625;5.3399999865178;535;100 mA
79.9743517980842;-0.799560546875;-0.057098388671875;5.34999998649255;536;100 mA
79.9843517980589;-0.79925537109375;-0.056976318359375;5.3599999864673;537;100 mA
79.9943517980337;-0.799560546875;-0.057037353515625;5.36999998644205;538;100 mA
80.0043517980084;-0.799560546875;-0.056915283203125;5.37999998641681;539;100 mA
80.0143517979832;-0.799560546875;-0.056854248046875;5.38999998639156;540;100 mA
80.0243517979579;-0.8001708984375;-0.056915283203125;5.39999998636631;541;100 mA
80.0343517979327;-0.799560546875;-0.05682373046875;5.40999998634106;542;100 mA
80.0443517979074;-0.79925537109375;-0.056793212890625;5.41999998631582;543;100 mA
80.0543517978822;-0.79925537109375;-0.0567626953125;5.42999998629057;544;100 mA
80.0643517978569;-0.799560546875;-0.056793212890625;5.43999998626532;545;100 mA
80.0743517978317;-0.79925537109375;-0.056915283203125;5.44999998624007;546;100 mA
80.0843517978064;-0.799560546875;-0.056854248046875;5.45999998621483;547;100 mA
80.0943517977812;-0.79925537109375;-0.056854248046875;5.46999998618958;548;100 mA
80.104351797756;-0.799560546875;-0.056793212890625;5.47999998616433;549;100 mA
80.1143517977307;-0.799560546875;-0.056976318359375;5.48999998613908;550;100 mA
80.1243517977055;-0.799560546875;-0.05682373046875;5.49999998611383;551;100 mA
80.1343517976802;-0.799560546875;-0.05682373046875;5.50999998608859;552;100 mA
80.144351797655;-0.79986572265625;-0.056854248046875;5.51999998606334;553;100 mA
80.1543517976297;-0.79925537109375;-0.0567626953125;5.52999998603809;554;100 mA
80.1643517976045;-0.79925537109375;-0.056732177734375;5.53999998601284;555;100 mA
80.1743517975792;-0.799560546875;-0.056671142578125;5.5499999859876;556;100 mA
80.184351797554;-0.799560546875;-0.056610107421875;5.55999998596235;557;100 mA
80.1943517975287;-0.79925537109375;-0.056884765625;5.5699999859371;558;100 mA
80.2043517975035;-0.799560546875;-0.056793212890625;5.57999998591185;559;100 mA
80.2143517974782;-0.79986572265625;-0.056793212890625;5.58999998588661;560;100 mA
80.224351797453;-0.79925537109375;-0.05670166015625;5.59999998586136;561;100 mA
80.2343517974277;-0.79986572265625;-0.056732177734375;5.60999998583611;562;100 mA
80.2443517974025;-0.7989501953125;-0.056549072265625;5.61999998581086;563;100 mA
80.2543517973772;-0.79986572265625;-0.056488037109375;5.62999998578562;564;100 mA
80.264351797352;-0.80047607421875;-0.05657958984375;5.63999998576037;565;100 mA
80.2743517973267;-0.799560546875;-0.056488037109375;5.64999998573512;566;100 mA
80.2843517973015;-0.799560546875;-0.056488037109375;5.65999998570987;567;100 mA
80.2943517972762;-0.799560546875;-0.05645751953125;5.66999998568463;568;100 mA
80.304351797251;-0.79925537109375;-0.056396484375;5.67999998565938;569;100 mA
80.3143517972258;-0.799560546875;-0.05657958984375;5.68999998563413;570;100 mA
80.3243517972005;-0.79925537109375;-0.056427001953125;5.69999998560888;571;100 mA
80.3343517971753;-0.79986572265625;-0.056549072265625;5.70999998558364;572;100 mA
80.34435179715;-0.7989501953125;-0.056488037109375;5.71999998555839;573;100 mA
80.3543517971248;-0.799560546875;-0.0565185546875;5.72999998553314;574;100 mA
80.3643517970995;-0.79925537109375;-0.056396484375;5.73999998550789;575;100 mA
80.3743517970743;-0.79925537109375;-0.056365966796875;5.74999998548265;576;100 mA
80.384351797049;-0.79925537109375;-0.056304931640625;5.7599999854574;577;100 mA
80.3943517970238;-0.79986572265625;-0.056182861328125;5.76999998543215;578;100 mA
80.4043517969985;-0.799560546875;-0.05621337890625;5.7799999854069;579;100 mA
80.4143517969733;-0.799560546875;-0.056060791015625;5.78999998538166;580;100 mA
80.424351796948;-0.799560546875;-0.056060791015625;5.79999998535641;581;100 mA
80.4343517969228;-0.799560546875;-0.0562744140625;5.80999998533116;582;100 mA
80.4443517968975;-0.79925537109375;-0.056060791015625;5.81999998530591;583;100 mA
80.4543517968723;-0.799560546875;-0.056121826171875;5.82999998528066;584;100 mA
80.464351796847;-0.79925537109375;-0.055999755859375;5.83999998525542;585;100 mA
80.4743517968218;-0.79925537109375;-0.05596923828125;5.84999998523017;586;100 mA
80.4843517967965;-0.79986572265625;-0.055938720703125;5.85999998520492;587;100 mA
80.4943517967713;-0.79925537109375;-0.05596923828125;5.86999998517967;588;100 mA
80.5043517967461;-0.79986572265625;-0.055999755859375;5.87999998515443;589;100 mA
80.5143517967208;-0.7989501953125;-0.055908203125;5.88999998512918;590;100 mA
80.5243517966956;-0.799560546875;-0.055908203125;5.89999998510393;591;100 mA
80.5343517966703;-0.799560546875;-0.0557861328125;5.90999998507868;592;100 mA
80.5443517966451;-0.799560546875;-0.05572509765625;5.91999998505344;593;100 mA
80.5543517966198;-0.79986572265625;-0.055908203125;5.92999998502819;594;100 mA
80.5643517965946;-0.79986572265625;-0.055816650390625;5.93999998500294;595;100 mA
80.5743517965693;-0.799560546875;-0.055938720703125;5.94999998497769;596;100 mA
80.5843517965441;-0.79925537109375;-0.055816650390625;5.95999998495245;597;100 mA
80.5943517965188;-0.79925537109375;-0.055877685546875;5.9699999849272;598;100 mA
80.6043517964936;-0.79986572265625;-0.055694580078125;5.97999998490195;599;100 mA
80.6143517964683;-0.799560546875;-0.055572509765625;5.9899999848767;600;100 mA
80.6243517964431;-0.79986572265625;-0.055633544921875;5.99999998485146;601;100 mA
80.6343517964178;-0.79925537109375;-0.05548095703125;6.00999998482621;602;100 mA
80.6443517963926;-0.799560546875;-0.055389404296875;6.01999998480096;603;100 mA
80.6543517963673;-0.79925537109375;-0.0552978515625;6.02999998477571;604;100 mA
80.6643517963421;-0.79986572265625;-0.0552978515625;6.03999998475047;605;100 mA
80.6743517963168;-0.799560546875;-0.05535888671875;6.04999998472522;606;100 mA
80.6843517962916;-0.79986572265625;-0.0552978515625;6.05999998469997;607;100 mA
80.6943517962663;-0.799560546875;-0.0552978515625;6.06999998467472;608;100 mA
80.7043517962411;-0.799560546875;-0.055206298828125;6.07999998464948;609;100 mA
80.7143517962159;-0.7989501953125;-0.055419921875;6.08999998462423;610;100 mA
80.7243517961906;-0.79986572265625;-0.0552978515625;6.09999998459898;611;100 mA
80.7343517961654;-0.79925537109375;-0.0552978515625;6.10999998457373;612;100 mA
80.7443517961401;-0.799560546875;-0.05535888671875;6.11999998454849;613;100 mA
80.7543517961149;-0.7989501953125;-0.055267333984375;6.12999998452324;614;100 mA
80.7643517960896;-0.799560546875;-0.05523681640625;6.13999998449799;615;100 mA
80.7743517960644;-0.799560546875;-0.055206298828125;6.14999998447274;616;100 mA
80.7843517960391;-0.79986572265625;-0.055206298828125;6.1599999844475;617;100 mA
80.7943517960139;-0.799560546875;-0.055450439453125;6.16999998442225;618;100 mA
80.8043517959886;-0.799560546875;-0.055389404296875;6.179999984397;619;100 mA
80.8143517959634;-0.799560546875;-0.055389404296875;6.18999998437175;620;100 mA
80.8243517959381;-0.799560546875;-0.0552978515625;6.1999999843465;621;100 mA
80.8343517959129;-0.799560546875;-0.0552978515625;6.20999998432126;622;100 mA
80.8443517958876;-0.799560546875;-0.055145263671875;6.21999998429601;623;100 mA
80.8543517958624;-0.79925537109375;-0.05511474609375;6.22999998427076;624;100 mA
80.8643517958371;-0.799560546875;-0.055206298828125;6.23999998424551;625;100 mA
80.8743517958119;-0.799560546875;-0.055145263671875;6.24999998422027;626;100 mA
80.8843517957866;-0.799560546875;-0.05517578125;6.25999998419502;627;100 mA
80.8943517957614;-0.79925537109375;-0.055145263671875;6.26999998416977;628;100 mA
80.9043517957361;-0.79925537109375;-0.055084228515625;6.27999998414452;629;100 mA
80.9143517957109;-0.799560546875;-0.055328369140625;6.28999998411928;630;100 mA
80.9243517956857;-0.79925537109375;-0.05517578125;6.29999998409403;631;100 mA
80.9343517956604;-0.799560546875;-0.055328369140625;6.30999998406878;632;100 mA
80.9443517956352;-0.799560546875;-0.05523681640625;6.31999998404353;633;100 mA
80.9543517956099;-0.799560546875;-0.05523681640625;6.32999998401829;634;100 mA
80.9643517955847;-0.799560546875;-0.055084228515625;6.33999998399304;635;100 mA
80.9743517955594;-0.799560546875;-0.055084228515625;6.34999998396779;636;100 mA
80.9843517955342;-0.799560546875;-0.055023193359375;6.35999998394254;637;100 mA
80.9943517955089;-0.799560546875;-0.054962158203125;6.3699999839173;638;100 mA
81.0043517954837;-0.79925537109375;-0.055023193359375;6.37999998389205;639;100 mA
81.0143517954584;-0.79986572265625;-0.054962158203125;6.3899999838668;640;100 mA
81.0243517954332;-0.79986572265625;-0.05499267578125;6.39999998384155;641;100 mA
81.0343517954079;-0.799560546875;-0.0552978515625;6.40999998381631;642;100 mA
81.0443517953827;-0.79986572265625;-0.055084228515625;6.41999998379106;643;100 mA
81.0543517953574;-0.799560546875;-0.05517578125;6.42999998376581;644;100 mA
81.0643517953322;-0.8001708984375;-0.05499267578125;6.43999998374056;645;100 mA
81.0743517953069;-0.79986572265625;-0.054962158203125;6.44999998371532;646;100 mA
81.0843517952817;-0.799560546875;-0.054840087890625;6.45999998369007;647;100 mA
81.0943517952564;-0.79925537109375;-0.05487060546875;6.46999998366482;648;100 mA
81.1043517952312;-0.799560546875;-0.05487060546875;6.47999998363957;649;100 mA
81.1143517952059;-0.799560546875;-0.054779052734375;6.48999998361433;650;100 mA
81.1243517951807;-0.799560546875;-0.054779052734375;6.49999998358908;651;100 mA
81.1343517951555;-0.8001708984375;-0.05474853515625;6.50999998356383;652;100 mA
81.1443517951302;-0.79925537109375;-0.054779052734375;6.51999998353858;653;100 mA
81.154351795105;-0.799560546875;-0.0550537109375;6.52999998351333;654;100 mA
81.1643517950797;-0.79986572265625;-0.0550537109375;6.53999998348809;655;100 mA
81.1743517950545;-0.799560546875;-0.055206298828125;6.54999998346284;656;100 mA
81.1843517950292;-0.8001708984375;-0.055084228515625;6.55999998343759;657;100 mA
81.194351795004;-0.79986572265625;-0.055084228515625;6.56999998341234;658;100 mA
81.2043517949787;-0.799560546875;-0.054931640625;6.5799999833871;659;100 mA
81.2143517949535;-0.7989501953125;-0.054779052734375;6.58999998336185;660;100 mA
81.2243517949282;-0.79925537109375;-0.054840087890625;6.5999999833366;661;100 mA
81.234351794903;-0.79986572265625;-0.0546875;6.60999998331135;662;100 mA
81.2443517948777;-0.8001708984375;-0.054656982421875;6.61999998328611;663;100 mA
81.2543517948525;-0.8001708984375;-0.05462646484375;6.62999998326086;664;100 mA
81.2643517948272;-0.79925537109375;-0.0546875;6.63999998323561;665;100 mA
81.274351794802;-0.79986572265625;-0.05487060546875;6.64999998321036;666;100 mA
81.2843517947767;-0.799560546875;-0.054840087890625;6.65999998318512;667;100 mA
81.2943517947515;-0.799560546875;-0.054901123046875;6.66999998315987;668;100 mA
81.3043517947262;-0.79986572265625;-0.0548095703125;6.67999998313462;669;100 mA
81.314351794701;-0.79925537109375;-0.054962158203125;6.68999998310937;670;100 mA
81.3243517946757;-0.799560546875;-0.0548095703125;6.69999998308413;671;100 mA
81.3343517946505;-0.799560546875;-0.05474853515625;6.70999998305888;672;100 mA
81.3443517946253;-0.7989501953125;-0.05474853515625;6.71999998303363;673;100 mA
81.3543517946;-0.79925537109375;-0.05462646484375;6.72999998300838;674;100 mA
81.3643517945748;-0.79925537109375;-0.054595947265625;6.73999998298314;675;100 mA
81.3743517945495;-0.799560546875;-0.054595947265625;6.74999998295789;676;100 mA
81.3843517945243;-0.799560546875;-0.0546875;6.75999998293264;677;100 mA
81.394351794499;-0.79986572265625;-0.055023193359375;6.76999998290739;678;100 mA
81.4043517944738;-0.79925537109375;-0.055023193359375;6.77999998288215;679;100 mA
81.4143517944485;-0.799560546875;-0.05511474609375;6.7899999828569;680;100 mA
81.4243517944233;-0.79986572265625;-0.0550537109375;6.79999998283165;681;100 mA
81.434351794398;-0.79986572265625;-0.055023193359375;6.8099999828064;682;100 mA
81.4443517943728;-0.7989501953125;-0.054901123046875;6.81999998278116;683;100 mA
81.4543517943475;-0.79925537109375;-0.05487060546875;6.82999998275591;684;100 mA
81.4643517943223;-0.799560546875;-0.054901123046875;6.83999998273066;685;100 mA
81.474351794297;-0.79925537109375;-0.0548095703125;6.84999998270541;686;100 mA
81.4843517942718;-0.79925537109375;-0.0548095703125;6.85999998268016;687;100 mA
81.4943517942465;-0.799560546875;-0.0548095703125;6.86999998265492;688;100 mA
81.5043517942213;-0.799560546875;-0.0548095703125;6.87999998262967;689;100 mA
81.514351794196;-0.799560546875;-0.05511474609375;6.88999998260442;690;100 mA
81.5243517941708;-0.7989501953125;-0.055145263671875;6.89999998257917;691;100 mA
81.5343517941456;-0.79986572265625;-0.05535888671875;6.90999998255393;692;100 mA
81.5443517941203;-0.799560546875;-0.055389404296875;6.91999998252868;693;100 mA
81.5543517940951;-0.79925537109375;-0.055511474609375;6.92999998250343;694;100 mA
81.5643517940698;-0.8001708984375;-0.055450439453125;6.93999998247818;695;100 mA
81.5743517940446;-0.79986572265625;-0.055511474609375;6.94999998245294;696;100 mA
81.5843517940193;-0.799560546875;-0.055511474609375;6.95999998242769;697;100 mA
81.5943517939941;-0.79986572265625;-0.05548095703125;6.96999998240244;698;100 mA
81.6043517939688;-0.799560546875;-0.055572509765625;6.97999998237719;699;100 mA
81.6143517939436;-0.7989501953125;-0.0555419921875;6.98999998235195;700;100 mA
81.6243517939183;-0.799560546875;-0.05560302734375;6.9999999823267;701;100 mA
81.6343517938931;-0.79986572265625;-0.05584716796875;7.00999998230145;702;100 mA
81.6443517938678;-0.799560546875;-0.055694580078125;7.0199999822762;703;100 mA
81.6543517938426;-0.79925537109375;-0.055755615234375;7.02999998225096;704;100 mA
81.6643517938173;-0.79925537109375;-0.05560302734375;7.03999998222571;705;100 mA
81.6743517937921;-0.799560546875;-0.055572509765625;7.04999998220046;706;100 mA
81.6843517937668;-0.799560546875;-0.055450439453125;7.05999998217521;707;100 mA
81.6943517937416;-0.799560546875;-0.055450439453125;7.06999998214997;708;100 mA
81.7043517937163;-0.799560546875;-0.05548095703125;7.07999998212472;709;100 mA
81.7143517936911;-0.79925537109375;-0.055419921875;7.08999998209947;710;100 mA
81.7243517936658;-0.799560546875;-0.055419921875;7.09999998207422;711;100 mA
81.7343517936406;-0.799560546875;-0.055450439453125;7.10999998204898;712;100 mA
81.7443517936154;-0.79986572265625;-0.055511474609375;7.11999998202373;713;100 mA
81.7543517935901;-0.799560546875;-0.055816650390625;7.12999998199848;714;100 mA
81.7643517935649;-0.79925537109375;-0.055877685546875;7.13999998197323;715;100 mA
81.7743517935396;-0.8001708984375;-0.056121826171875;7.14999998194799;716;100 mA
81.7843517935144;-0.799560546875;-0.056060791015625;7.15999998192274;717;100 mA
81.7943517934891;-0.8001708984375;-0.05615234375;7.16999998189749;718;100 mA
81.8043517934639;-0.799560546875;-0.05609130859375;7.17999998187224;719;100 mA
81.8143517934386;-0.79925537109375;-0.055999755859375;7.189999981847;720;100 mA
81.8243517934134;-0.799560546875;-0.056121826171875;7.19999998182175;721;100 mA
81.8343517933881;-0.799560546875;-0.055999755859375;7.2099999817965;722;100 mA
81.8443517933629;-0.799560546875;-0.05596923828125;7.21999998177125;723;100 mA
81.8543517933376;-0.79986572265625;-0.055938720703125;7.229999981746;724;100 mA
81.8643517933124;-0.79986572265625;-0.05596923828125;7.23999998172076;725;100 mA
81.8743517932871;-0.799560546875;-0.05609130859375;7.24999998169551;726;100 mA
81.8843517932619;-0.799560546875;-0.0560302734375;7.25999998167026;727;100 mA
81.8943517932366;-0.79986572265625;-0.05609130859375;7.26999998164501;728;100 mA
81.9043517932114;-0.7989501953125;-0.055999755859375;7.27999998161977;729;100 mA
81.9143517931861;-0.799560546875;-0.05609130859375;7.28999998159452;730;100 mA
81.9243517931609;-0.799560546875;-0.055999755859375;7.29999998156927;731;100 mA
81.9343517931356;-0.799560546875;-0.055938720703125;7.30999998154402;732;100 mA
81.9443517931104;-0.79986572265625;-0.055999755859375;7.31999998151878;733;100 mA
81.9543517930852;-0.79925537109375;-0.055908203125;7.32999998149353;734;100 mA
81.9643517930599;-0.799560546875;-0.055908203125;7.33999998146828;735;100 mA
81.9743517930347;-0.799560546875;-0.055908203125;7.34999998144303;736;100 mA
81.9843517930094;-0.79925537109375;-0.055999755859375;7.35999998141779;737;100 mA
81.9943517929842;-0.79925537109375;-0.05633544921875;7.36999998139254;738;100 mA
82.0043517929589;-0.79925537109375;-0.056304931640625;7.37999998136729;739;100 mA
82.0143517929337;-0.79986572265625;-0.056427001953125;7.38999998134204;740;100 mA
82.0243517929084;-0.79986572265625;-0.056365966796875;7.3999999813168;741;100 mA
82.0343517928832;-0.79925537109375;-0.056365966796875;7.40999998129155;742;100 mA
82.0443517928579;-0.799560546875;-0.05633544921875;7.4199999812663;743;100 mA
82.0543517928327;-0.799560546875;-0.05633544921875;7.42999998124105;744;100 mA
82.0643517928074;-0.79925537109375;-0.056427001953125;7.43999998121581;745;100 mA
82.0743517927822;-0.79925537109375;-0.05633544921875;7.44999998119056;746;100 mA
82.0843517927569;-0.79864501953125;-0.056396484375;7.45999998116531;747;100 mA
82.0943517927317;-0.799560546875;-0.056396484375;7.46999998114006;748;100 mA
82.1043517927064;-0.79925537109375;-0.056396484375;7.47999998111482;749;100 mA
82.1143517926812;-0.79925537109375;-0.0567626953125;7.48999998108957;750;100 mA
82.1243517926559;-0.79986572265625;-0.056732177734375;7.49999998106432;751;100 mA
82.1343517926307;-0.8001708984375;-0.056976318359375;7.50999998103907;752;100 mA
82.1443517926054;-0.799560546875;-0.05694580078125;7.51999998101383;753;100 mA
82.1543517925802;-0.79925537109375;-0.05706787109375;7.52999998098858;754;100 mA
82.164351792555;-0.79925537109375;-0.056976318359375;7.53999998096333;755;100 mA
82.1743517925297;-0.799560546875;-0.057037353515625;7.54999998093808;756;100 mA
82.1843517925045;-0.799560546875;-0.0570068359375;7.55999998091283;757;100 mA
82.1943517924792;-0.79925537109375;-0.0570068359375;7.56999998088759;758;100 mA
82.204351792454;-0.799560546875;-0.05706787109375;7.57999998086234;759;100 mA
82.2143517924287;-0.799560546875;-0.057037353515625;7.58999998083709;760;100 mA
82.2243517924035;-0.79925537109375;-0.057098388671875;7.59999998081184;761;100 mA
82.2343517923782;-0.799560546875;-0.057403564453125;7.6099999807866;762;100 mA
82.244351792353;-0.799560546875;-0.05731201171875;7.61999998076135;763;100 mA
82.2543517923277;-0.79925537109375;-0.057464599609375;7.6299999807361;764;100 mA
82.2643517923025;-0.8001708984375;-0.057373046875;7.63999998071085;765;100 mA
82.2743517922772;-0.79986572265625;-0.057464599609375;7.64999998068561;766;100 mA
82.284351792252;-0.79925537109375;-0.057373046875;7.65999998066036;767;100 mA
82.2943517922267;-0.799560546875;-0.057373046875;7.66999998063511;768;100 mA
82.3043517922015;-0.79986572265625;-0.057403564453125;7.67999998060986;769;100 mA
82.3143517921762;-0.799560546875;-0.057342529296875;7.68999998058462;770;100 mA
82.324351792151;-0.799560546875;-0.05731201171875;7.69999998055937;771;100 mA
82.3343517921257;-0.799560546875;-0.057281494140625;7.70999998053412;772;100 mA
82.3443517921005;-0.79925537109375;-0.0572509765625;7.71999998050887;773;100 mA
82.3543517920752;-0.799560546875;-0.0574951171875;7.72999998048363;774;100 mA
82.36435179205;-0.79986572265625;-0.057525634765625;7.73999998045838;775;100 mA
82.3743517920248;-0.799560546875;-0.05767822265625;7.74999998043313;776;100 mA
82.3843517919995;-0.7989501953125;-0.0576171875;7.75999998040788;777;100 mA
82.3943517919743;-0.79925537109375;-0.05767822265625;7.76999998038264;778;100 mA
82.404351791949;-0.79925537109375;-0.05755615234375;7.77999998035739;779;100 mA
82.4143517919238;-0.79986572265625;-0.05743408203125;7.78999998033214;780;100 mA
82.4243517918985;-0.79925537109375;-0.0574951171875;7.79999998030689;781;100 mA
82.4343517918733;-0.79925537109375;-0.057342529296875;7.80999998028165;782;100 mA
82.444351791848;-0.79925537109375;-0.057281494140625;7.8199999802564;783;100 mA
82.4543517918228;-0.79925537109375;-0.0572509765625;7.82999998023115;784;100 mA
82.4643517917975;-0.79986572265625;-0.0572509765625;7.8399999802059;785;100 mA
82.4743517917723;-0.799560546875;-0.057403564453125;7.84999998018066;786;100 mA
82.484351791747;-0.79925537109375;-0.057403564453125;7.85999998015541;787;100 mA
82.4943517917218;-0.799560546875;-0.0574951171875;7.86999998013016;788;100 mA
82.5043517916965;-0.79925537109375;-0.05743408203125;7.87999998010491;789;100 mA
82.5143517916713;-0.799560546875;-0.057525634765625;7.88999998007966;790;100 mA
82.524351791646;-0.79925537109375;-0.05743408203125;7.89999998005442;791;100 mA
82.5343517916208;-0.8001708984375;-0.057342529296875;7.90999998002917;792;100 mA
82.5443517915955;-0.799560546875;-0.05731201171875;7.91999998000392;793;100 mA
82.5543517915703;-0.79986572265625;-0.05712890625;7.92999997997867;794;100 mA
82.5643517915451;-0.79986572265625;-0.057037353515625;7.93999997995343;795;100 mA
82.5743517915198;-0.79925537109375;-0.056915283203125;7.94999997992818;796;100 mA
82.5843517914946;-0.79925537109375;-0.056915283203125;7.95999997990293;797;100 mA
82.5943517914693;-0.79986572265625;-0.05712890625;7.96999997987768;798;100 mA
82.6043517914441;-0.79925537109375;-0.05706787109375;7.97999997985244;799;100 mA
82.6143517914188;-0.79986572265625;-0.057098388671875;7.98999997982719;800;100 mA
82.6243517913936;-0.79986572265625;-0.05694580078125;7.99999997980194;801;100 mA
82.6343517913683;-0.79925537109375;-0.056915283203125;8.00999997977669;802;100 mA
82.6443517913431;-0.799560546875;-0.056793212890625;8.01999997975145;803;100 mA
82.6543517913178;-0.79925537109375;-0.056732177734375;8.0299999797262;804;100 mA
82.6643517912926;-0.799560546875;-0.056732177734375;8.03999997970095;805;100 mA
82.6743517912673;-0.7989501953125;-0.05657958984375;8.0499999796757;806;100 mA
82.6843517912421;-0.79986572265625;-0.05657958984375;8.05999997965046;807;100 mA
82.6943517912168;-0.79986572265625;-0.05645751953125;8.06999997962521;808;100 mA
82.7043517911916;-0.799560546875;-0.056396484375;8.07999997959996;809;100 mA
82.7143517911663;-0.7989501953125;-0.056610107421875;8.08999997957471;810;100 mA
82.7243517911411;-0.79925537109375;-0.0565185546875;8.09999997954947;811;100 mA
82.7343517911158;-0.799560546875;-0.056671142578125;8.10999997952422;812;100 mA
82.7443517910906;-0.799560546875;-0.0565185546875;8.11999997949897;813;100 mA
82.7543517910653;-0.799560546875;-0.0565185546875;8.12999997947372;814;100 mA
82.7643517910401;-0.79986572265625;-0.05633544921875;8.13999997944848;815;100 mA
82.7743517910149;-0.79986572265625;-0.0562744140625;8.14999997942323;816;100 mA
82.7843517909896;-0.799560546875;-0.05615234375;8.15999997939798;817;100 mA
82.7943517909644;-0.79925537109375;-0.056060791015625;8.16999997937273;818;100 mA
82.8043517909391;-0.79925537109375;-0.0560302734375;8.17999997934749;819;100 mA
82.8143517909139;-0.799560546875;-0.05596923828125;8.18999997932224;820;100 mA
82.8243517908886;-0.79986572265625;-0.055999755859375;8.19999997929699;821;100 mA
82.8343517908634;-0.7989501953125;-0.05621337890625;8.20999997927174;822;100 mA
82.8443517908381;-0.799560546875;-0.056182861328125;8.2199999792465;823;100 mA
82.8543517908129;-0.79986572265625;-0.0562744140625;8.22999997922125;824;100 mA
82.8643517907876;-0.799560546875;-0.05615234375;8.239999979196;825;100 mA
82.8743517907624;-0.79925537109375;-0.056182861328125;8.24999997917075;826;100 mA
82.8843517907371;-0.79986572265625;-0.0560302734375;8.2599999791455;827;100 mA
82.8943517907119;-0.8001708984375;-0.055999755859375;8.26999997912026;828;100 mA
82.9043517906866;-0.8001708984375;-0.05596923828125;8.27999997909501;829;100 mA
82.9143517906614;-0.79986572265625;-0.055877685546875;8.28999997906976;830;100 mA
82.9243517906361;-0.79986572265625;-0.055816650390625;8.29999997904451;831;100 mA
82.9343517906109;-0.79925537109375;-0.05572509765625;8.30999997901927;832;100 mA
82.9443517905856;-0.799560546875;-0.055694580078125;8.31999997899402;833;100 mA
82.9543517905604;-0.8001708984375;-0.055877685546875;8.32999997896877;834;100 mA
82.9643517905351;-0.79986572265625;-0.055877685546875;8.33999997894352;835;100 mA
82.9743517905099;-0.799560546875;-0.05596923828125;8.34999997891828;836;100 mA
82.9843517904847;-0.799560546875;-0.05584716796875;8.35999997889303;837;100 mA
82.9943517904594;-0.79864501953125;-0.05584716796875;8.36999997886778;838;100 mA
83.0043517904342;-0.79986572265625;-0.0556640625;8.37999997884253;839;100 mA
83.0143517904089;-0.799560546875;-0.055511474609375;8.38999997881729;840;100 mA
83.0243517903837;-0.799560546875;-0.0555419921875;8.39999997879204;841;100 mA
83.0343517903584;-0.7989501953125;-0.055389404296875;8.40999997876679;842;100 mA
83.0443517903332;-0.79986572265625;-0.0552978515625;8.41999997874154;843;100 mA
83.0543517903079;-0.79925537109375;-0.055267333984375;8.4299999787163;844;100 mA
83.0643517902827;-0.799560546875;-0.055267333984375;8.43999997869105;845;100 mA
83.0743517902574;-0.79925537109375;-0.055389404296875;8.4499999786658;846;100 mA
83.0843517902322;-0.79925537109375;-0.05535888671875;8.45999997864055;847;100 mA
83.0943517902069;-0.79986572265625;-0.055419921875;8.46999997861531;848;100 mA
83.1043517901817;-0.79925537109375;-0.055328369140625;8.47999997859006;849;100 mA
83.1143517901564;-0.799560546875;-0.055389404296875;8.48999997856481;850;100 mA
83.1243517901312;-0.799560546875;-0.05535888671875;8.49999997853956;851;100 mA
83.1343517901059;-0.8001708984375;-0.0552978515625;8.50999997851432;852;100 mA
83.1443517900807;-0.799560546875;-0.055328369140625;8.51999997848907;853;100 mA
83.1543517900554;-0.79925537109375;-0.05517578125;8.52999997846382;854;100 mA
83.1643517900302;-0.79925537109375;-0.055206298828125;8.53999997843857;855;100 mA
83.1743517900049;-0.79925537109375;-0.055145263671875;8.54999997841333;856;100 mA
83.1843517899797;-0.799560546875;-0.055206298828125;8.55999997838808;857;100 mA
83.1943517899545;-0.79986572265625;-0.055450439453125;8.56999997836283;858;100 mA
83.2043517899292;-0.79986572265625;-0.055450439453125;8.57999997833758;859;100 mA
83.214351789904;-0.799560546875;-0.0555419921875;8.58999997831233;860;100 mA
83.2243517898787;-0.79986572265625;-0.055450439453125;8.59999997828709;861;100 mA
83.2343517898535;-0.799560546875;-0.055419921875;8.60999997826184;862;100 mA
83.2443517898282;-0.799560546875;-0.055328369140625;8.61999997823659;863;100 mA
83.254351789803;-0.799560546875;-0.055328369140625;8.62999997821134;864;100 mA
83.2643517897777;-0.799560546875;-0.0552978515625;8.6399999781861;865;100 mA
83.2743517897525;-0.8001708984375;-0.05517578125;8.64999997816085;866;100 mA
83.2843517897272;-0.79925537109375;-0.05517578125;8.6599999781356;867;100 mA
83.294351789702;-0.79925537109375;-0.055084228515625;8.66999997811035;868;100 mA
83.3043517896767;-0.799560546875;-0.0550537109375;8.67999997808511;869;100 mA
83.3143517896515;-0.799560546875;-0.055328369140625;8.68999997805986;870;100 mA
83.3243517896262;-0.799560546875;-0.055328369140625;8.69999997803461;871;100 mA
83.334351789601;-0.79986572265625;-0.0555419921875;8.70999997800936;872;100 mA
83.3443517895757;-0.79986572265625;-0.055450439453125;8.71999997798412;873;100 mA
83.3543517895505;-0.79986572265625;-0.055511474609375;8.72999997795887;874;100 mA
83.3643517895252;-0.799560546875;-0.05535888671875;8.73999997793362;875;100 mA
83.3743517895;-0.799560546875;-0.0552978515625;8.74999997790837;876;100 mA
83.3843517894747;-0.799560546875;-0.05517578125;8.75999997788313;877;100 mA
83.3943517894495;-0.79925537109375;-0.0550537109375;8.76999997785788;878;100 mA
83.4043517894243;-0.79925537109375;-0.055023193359375;8.77999997783263;879;100 mA
83.414351789399;-0.79925537109375;-0.054931640625;8.78999997780738;880;100 mA
83.4243517893738;-0.79925537109375;-0.054901123046875;8.79999997778214;881;100 mA
83.4343517893485;-0.79986572265625;-0.0550537109375;8.80999997775689;882;100 mA
83.4443517893233;-0.799560546875;-0.05499267578125;8.81999997773164;883;100 mA
83.454351789298;-0.799560546875;-0.055023193359375;8.82999997770639;884;100 mA
83.4643517892728;-0.79925537109375;-0.054901123046875;8.83999997768115;885;100 mA
83.4743517892475;-0.799560546875;-0.05499267578125;8.8499999776559;886;100 mA
83.4843517892223;-0.799560546875;-0.05487060546875;8.85999997763065;887;100 mA
83.494351789197;-0.79925537109375;-0.054840087890625;8.8699999776054;888;100 mA
83.5043517891718;-0.79986572265625;-0.0548095703125;8.87999997758016;889;100 mA
83.5143517891465;-0.79925537109375;-0.05474853515625;8.88999997755491;890;100 mA
83.5243517891213;-0.79986572265625;-0.05474853515625;8.89999997752966;891;100 mA
83.534351789096;-0.799560546875;-0.054718017578125;8.90999997750441;892;100 mA
83.5443517890708;-0.799560546875;-0.054718017578125;8.91999997747916;893;100 mA
83.5543517890455;-0.79925537109375;-0.054931640625;8.92999997745392;894;100 mA
83.5643517890203;-0.799560546875;-0.054931640625;8.93999997742867;895;100 mA
83.574351788995;-0.799560546875;-0.054962158203125;8.94999997740342;896;100 mA
83.5843517889698;-0.79925537109375;-0.05487060546875;8.95999997737817;897;100 mA
83.5943517889446;-0.799560546875;-0.054901123046875;8.96999997735293;898;100 mA
83.6043517889193;-0.799560546875;-0.054718017578125;8.97999997732768;899;100 mA
83.6143517888941;-0.799560546875;-0.054595947265625;8.98999997730243;900;100 mA
83.6243517888688;-0.799560546875;-0.054656982421875;8.99999997727718;901;100 mA
83.6343517888436;-0.79864501953125;-0.0545654296875;9.00999997725194;902;100 mA
83.6443517888183;-0.7989501953125;-0.054534912109375;9.01999997722669;903;100 mA
83.6543517887931;-0.79986572265625;-0.0545654296875;9.02999997720144;904;100 mA
83.6643517887678;-0.799560546875;-0.054595947265625;9.03999997717619;905;100 mA
83.6743517887426;-0.79986572265625;-0.054718017578125;9.04999997715095;906;100 mA
83.6843517887173;-0.799560546875;-0.054718017578125;9.0599999771257;907;100 mA
83.6943517886921;-0.799560546875;-0.054779052734375;9.06999997710045;908;100 mA
83.7043517886668;-0.799560546875;-0.05474853515625;9.0799999770752;909;100 mA
83.7143517886416;-0.799560546875;-0.054779052734375;9.08999997704996;910;100 mA
83.7243517886163;-0.799560546875;-0.05474853515625;9.09999997702471;911;100 mA
83.7343517885911;-0.799560546875;-0.0546875;9.10999997699946;912;100 mA
83.7443517885658;-0.799560546875;-0.05474853515625;9.11999997697421;913;100 mA
83.7543517885406;-0.79925537109375;-0.054595947265625;9.12999997694897;914;100 mA
83.7643517885153;-0.79925537109375;-0.054656982421875;9.13999997692372;915;100 mA
83.7743517884901;-0.79925537109375;-0.054656982421875;9.14999997689847;916;100 mA
83.7843517884648;-0.799560546875;-0.054718017578125;9.15999997687322;917;100 mA
83.7943517884396;-0.79986572265625;-0.05499267578125;9.16999997684798;918;100 mA
83.8043517884144;-0.799560546875;-0.054962158203125;9.17999997682273;919;100 mA
83.8143517883891;-0.799560546875;-0.055084228515625;9.18999997679748;920;100 mA
83.8243517883639;-0.799560546875;-0.054962158203125;9.19999997677223;921;100 mA
83.8343517883386;-0.79925537109375;-0.054901123046875;9.20999997674699;922;100 mA
83.8443517883134;-0.799560546875;-0.054840087890625;9.21999997672174;923;100 mA
83.8543517882881;-0.79986572265625;-0.054840087890625;9.22999997669649;924;100 mA
83.8643517882629;-0.79925537109375;-0.054840087890625;9.23999997667124;925;100 mA
83.8743517882376;-0.799560546875;-0.054718017578125;9.249999976646;926;100 mA
83.8843517882124;-0.799560546875;-0.05474853515625;9.25999997662075;927;100 mA
83.8943517881871;-0.79925537109375;-0.0546875;9.2699999765955;928;100 mA
83.9043517881619;-0.79925537109375;-0.054656982421875;9.27999997657025;929;100 mA
83.9143517881366;-0.79986572265625;-0.05487060546875;9.289999976545;930;100 mA
83.9243517881114;-0.799560546875;-0.054840087890625;9.29999997651976;931;100 mA
83.9343517880861;-0.799560546875;-0.055023193359375;9.30999997649451;932;100 mA
83.9443517880609;-0.799560546875;-0.054901123046875;9.31999997646926;933;100 mA
83.9543517880356;-0.799560546875;-0.054931640625;9.32999997644401;934;100 mA
83.9643517880104;-0.8001708984375;-0.054779052734375;9.33999997641877;935;100 mA
83.9743517879851;-0.79925537109375;-0.054718017578125;9.34999997639352;936;100 mA
83.9843517879599;-0.79925537109375;-0.054656982421875;9.35999997636827;937;100 mA
83.9943517879346;-0.79986572265625;-0.0545654296875;9.36999997634302;938;100 mA
84.0043517879094;-0.799560546875;-0.054534912109375;9.37999997631778;939;100 mA
84.0143517878842;-0.799560546875;-0.054473876953125;9.38999997629253;940;100 mA
84.0243517878589;-0.79986572265625;-0.054534912109375;9.39999997626728;941;100 mA
84.0343517878337;-0.799560546875;-0.054718017578125;9.40999997624203;942;100 mA
84.0443517878084;-0.799560546875;-0.054656982421875;9.41999997621679;943;100 mA
84.0543517877832;-0.799560546875;-0.0546875;9.42999997619154;944;100 mA
84.0643517877579;-0.799560546875;-0.054534912109375;9.43999997616629;945;100 mA
84.0743517877327;-0.799560546875;-0.0545654296875;9.44999997614104;946;100 mA
84.0843517877074;-0.79925537109375;-0.05438232421875;9.4599999761158;947;100 mA
84.0943517876822;-0.79986572265625;-0.054351806640625;9.46999997609055;948;100 mA
84.1043517876569;-0.7989501953125;-0.0543212890625;9.4799999760653;949;100 mA
84.1143517876317;-0.799560546875;-0.054229736328125;9.48999997604005;950;100 mA
84.1243517876064;-0.79925537109375;-0.05419921875;9.49999997601481;951;100 mA
84.1343517875812;-0.79986572265625;-0.05413818359375;9.50999997598956;952;100 mA
84.1443517875559;-0.7989501953125;-0.05413818359375;9.51999997596431;953;100 mA
84.1543517875307;-0.79925537109375;-0.054351806640625;9.52999997593906;954;100 mA
84.1643517875054;-0.79925537109375;-0.054351806640625;9.53999997591382;955;100 mA
84.1743517874802;-0.799560546875;-0.054412841796875;9.54999997588857;956;100 mA
84.1843517874549;-0.79986572265625;-0.0543212890625;9.55999997586332;957;100 mA
84.1943517874297;-0.79925537109375;-0.054351806640625;9.56999997583807;958;100 mA
84.2043517874044;-0.799560546875;-0.05419921875;9.57999997581283;959;100 mA
84.2143517873792;-0.79925537109375;-0.054107666015625;9.58999997578758;960;100 mA
84.224351787354;-0.799560546875;-0.054168701171875;9.59999997576233;961;100 mA
84.2343517873287;-0.799560546875;-0.054107666015625;9.60999997573708;962;100 mA
84.2443517873035;-0.79986572265625;-0.0540771484375;9.61999997571183;963;100 mA
84.2543517872782;-0.7989501953125;-0.05413818359375;9.62999997568659;964;100 mA
84.264351787253;-0.799560546875;-0.05419921875;9.63999997566134;965;100 mA
84.2743517872277;-0.799560546875;-0.05438232421875;9.64999997563609;966;100 mA
84.2843517872025;-0.799560546875;-0.05438232421875;9.65999997561084;967;100 mA
84.2943517871772;-0.8001708984375;-0.05450439453125;9.6699999755856;968;100 mA
84.304351787152;-0.79986572265625;-0.05450439453125;9.67999997556035;969;100 mA
84.3143517871267;-0.79925537109375;-0.0545654296875;9.6899999755351;970;100 mA
84.3243517871015;-0.79925537109375;-0.05450439453125;9.69999997550985;971;100 mA
84.3343517870762;-0.799560546875;-0.054443359375;9.70999997548461;972;100 mA
84.344351787051;-0.7989501953125;-0.054443359375;9.71999997545936;973;100 mA
84.3543517870257;-0.79986572265625;-0.05438232421875;9.72999997543411;974;100 mA
84.3643517870005;-0.799560546875;-0.054412841796875;9.73999997540886;975;100 mA
84.3743517869752;-0.799560546875;-0.054412841796875;9.74999997538362;976;100 mA
84.38435178695;-0.799560546875;-0.054534912109375;9.75999997535837;977;100 mA
84.3943517869247;-0.799560546875;-0.054840087890625;9.76999997533312;978;100 mA
84.4043517868995;-0.79986572265625;-0.05487060546875;9.77999997530787;979;100 mA
84.4143517868742;-0.8001708984375;-0.05499267578125;9.78999997528263;980;100 mA
84.424351786849;-0.799560546875;-0.054962158203125;9.79999997525738;981;100 mA
84.4343517868238;-0.79986572265625;-0.05499267578125;9.80999997523213;982;100 mA
84.4443517867985;-0.79986572265625;-0.054962158203125;9.81999997520688;983;100 mA
84.4543517867733;-0.79986572265625;-0.05499267578125;9.82999997518164;984;100 mA
84.464351786748;-0.799560546875;-0.055023193359375;9.83999997515639;985;100 mA
84.4743517867228;-0.7989501953125;-0.054962158203125;9.84999997513114;986;100 mA
84.4843517866975;-0.79925537109375;-0.05499267578125;9.85999997510589;987;100 mA
84.4943517866723;-0.7989501953125;-0.054962158203125;9.86999997508065;988;100 mA
84.504351786647;-0.79925537109375;-0.05499267578125;9.8799999750554;989;100 mA
84.5143517866218;-0.799560546875;-0.0552978515625;9.88999997503015;990;100 mA
84.5243517865965;-0.79986572265625;-0.055328369140625;9.8999999750049;991;100 mA
84.5343517865713;-0.79986572265625;-0.055572509765625;9.90999997497966;992;100 mA
84.544351786546;-0.799560546875;-0.055511474609375;9.91999997495441;993;100 mA
84.5543517865208;-0.799560546875;-0.055633544921875;9.92999997492916;994;100 mA
84.5643517864955;-0.79925537109375;-0.0555419921875;9.93999997490391;995;100 mA
84.5743517864703;-0.799560546875;-0.0555419921875;9.94999997487866;996;100 mA
84.584351786445;-0.799560546875;-0.0555419921875;9.95999997485342;997;100 mA
84.5943517864198;-0.799560546875;-0.055511474609375;9.96999997482817;998;100 mA
84.6043517863945;-0.79925537109375;-0.055511474609375;9.97999997480292;999;100 mA
84.6143517863693;-0.799560546875;-0.0555419921875;9.98999997477767;1000;100 mA
