Time (s);WE(1).Potential (V);WE(1).Current (A);Corrected time (s);Index;Current range
115.644250708026;-0.9002685546875;-0.34881591796875;0;1;100 mA
115.654250708001;-0.899658203125;-0.2569580078125;0.00999999997475243;2;100 mA
115.664250707976;-0.899658203125;-0.212615966796875;0.0199999999495049;3;100 mA
115.674250707951;-0.89996337890625;-0.185028076171875;0.0299999999242573;4;100 mA
115.684250707925;-0.89935302734375;-0.165985107421875;0.0399999998990097;5;100 mA
115.6942507079;-0.899658203125;-0.151580810546875;0.0499999998737621;6;100 mA
115.704250707875;-0.89935302734375;-0.140289306640625;0.0599999998485146;7;100 mA
115.71425070785;-0.899658203125;-0.131195068359375;0.069999999823267;8;100 mA
115.724250707824;-0.89996337890625;-0.12384033203125;0.0799999997980194;9;100 mA
115.734250707799;-0.89935302734375;-0.11749267578125;0.0899999997727718;10;100 mA
115.744250707774;-0.89996337890625;-0.1121826171875;0.0999999997475243;11;100 mA
115.754250707749;-0.9002685546875;-0.1075439453125;0.109999999722277;12;100 mA
115.764250707723;-0.89935302734375;-0.10369873046875;0.119999999697029;13;100 mA
115.774250707698;-0.899658203125;-0.100189208984375;0.129999999671782;14;100 mA
115.784250707673;-0.89935302734375;-0.0970458984375;0.139999999646534;15;100 mA
115.794250707648;-0.89935302734375;-0.094390869140625;0.149999999621286;16;100 mA
115.804250707622;-0.899658203125;-0.092041015625;0.159999999596039;17;100 mA
115.814250707597;-0.89935302734375;-0.089752197265625;0.169999999570791;18;100 mA
115.824250707572;-0.89935302734375;-0.087738037109375;0.179999999545544;19;100 mA
115.834250707547;-0.9002685546875;-0.08599853515625;0.189999999520296;20;100 mA
115.844250707521;-0.899658203125;-0.08441162109375;0.199999999495049;21;100 mA
115.854250707496;-0.89935302734375;-0.082855224609375;0.209999999469801;22;100 mA
115.864250707471;-0.899658203125;-0.081512451171875;0.219999999444553;23;100 mA
115.874250707446;-0.899658203125;-0.0802001953125;0.229999999419306;24;100 mA
115.88425070742;-0.89935302734375;-0.0789794921875;0.239999999394058;25;100 mA
115.894250707395;-0.899658203125;-0.077911376953125;0.249999999368811;26;100 mA
115.90425070737;-0.89935302734375;-0.076751708984375;0.259999999343563;27;100 mA
115.914250707345;-0.899658203125;-0.07574462890625;0.269999999318316;28;100 mA
115.924250707319;-0.899658203125;-0.075103759765625;0.279999999293068;29;100 mA
115.934250707294;-0.89935302734375;-0.07427978515625;0.28999999926782;30;100 mA
115.944250707269;-0.89935302734375;-0.07354736328125;0.299999999242573;31;100 mA
115.954250707244;-0.89935302734375;-0.07281494140625;0.309999999217325;32;100 mA
115.964250707218;-0.8990478515625;-0.07220458984375;0.319999999192078;33;100 mA
115.974250707193;-0.8990478515625;-0.07135009765625;0.32999999916683;34;100 mA
115.984250707168;-0.8990478515625;-0.070770263671875;0.339999999141583;35;100 mA
115.994250707143;-0.89996337890625;-0.0703125;0.349999999116335;36;100 mA
116.004250707117;-0.899658203125;-0.069915771484375;0.359999999091087;37;100 mA
116.014250707092;-0.899658203125;-0.069427490234375;0.36999999906584;38;100 mA
116.024250707067;-0.89996337890625;-0.069061279296875;0.379999999040592;39;100 mA
116.034250707042;-0.899658203125;-0.0687255859375;0.389999999015345;40;100 mA
116.044250707016;-0.8990478515625;-0.0684814453125;0.399999998990097;41;100 mA
116.054250706991;-0.89935302734375;-0.068206787109375;0.40999999896485;42;100 mA
116.064250706966;-0.899658203125;-0.0677490234375;0.419999998939602;43;100 mA
116.074250706941;-0.899658203125;-0.067626953125;0.429999998914354;44;100 mA
116.084250706915;-0.8990478515625;-0.06732177734375;0.439999998889107;45;100 mA
116.09425070689;-0.899658203125;-0.066925048828125;0.449999998863859;46;100 mA
116.104250706865;-0.89935302734375;-0.066558837890625;0.459999998838612;47;100 mA
116.11425070684;-0.8990478515625;-0.066253662109375;0.469999998813364;48;100 mA
116.124250706814;-0.89935302734375;-0.06597900390625;0.479999998788116;49;100 mA
116.134250706789;-0.89996337890625;-0.0657958984375;0.489999998762869;50;100 mA
116.144250706764;-0.899658203125;-0.06549072265625;0.499999998737621;51;100 mA
116.154250706739;-0.8990478515625;-0.06536865234375;0.509999998712374;52;100 mA
116.164250706713;-0.899658203125;-0.06549072265625;0.519999998687126;53;100 mA
116.174250706688;-0.899658203125;-0.06536865234375;0.529999998661879;54;100 mA
116.184250706663;-0.89935302734375;-0.06512451171875;0.539999998636631;55;100 mA
116.194250706638;-0.899658203125;-0.064971923828125;0.549999998611383;56;100 mA
116.204250706612;-0.89996337890625;-0.064697265625;0.559999998586136;57;100 mA
116.214250706587;-0.89935302734375;-0.06439208984375;0.569999998560888;58;100 mA
116.224250706562;-0.899658203125;-0.064208984375;0.579999998535641;59;100 mA
116.234250706537;-0.899658203125;-0.06396484375;0.589999998510393;60;100 mA
116.244250706511;-0.89996337890625;-0.063873291015625;0.599999998485146;61;100 mA
116.254250706486;-0.899658203125;-0.063751220703125;0.609999998459898;62;100 mA
116.264250706461;-0.8990478515625;-0.06353759765625;0.61999999843465;63;100 mA
116.274250706436;-0.89935302734375;-0.063385009765625;0.629999998409403;64;100 mA
116.28425070641;-0.89935302734375;-0.063568115234375;0.639999998384155;65;100 mA
116.294250706385;-0.899658203125;-0.0634765625;0.649999998358908;66;100 mA
116.30425070636;-0.89935302734375;-0.063568115234375;0.65999999833366;67;100 mA
116.314250706335;-0.899658203125;-0.063507080078125;0.669999998308413;68;100 mA
116.324250706309;-0.899658203125;-0.06353759765625;0.679999998283165;69;100 mA
116.334250706284;-0.89935302734375;-0.063232421875;0.689999998257917;70;100 mA
116.344250706259;-0.8990478515625;-0.06317138671875;0.69999999823267;71;100 mA
116.354250706234;-0.89935302734375;-0.062835693359375;0.709999998207422;72;100 mA
116.364250706209;-0.899658203125;-0.06292724609375;0.719999998182175;73;100 mA
116.374250706183;-0.899658203125;-0.062835693359375;0.729999998156927;74;100 mA
116.384250706158;-0.89996337890625;-0.06268310546875;0.73999999813168;75;100 mA
116.394250706133;-0.899658203125;-0.062896728515625;0.749999998106432;76;100 mA
116.404250706108;-0.89935302734375;-0.063018798828125;0.759999998081184;77;100 mA
116.414250706082;-0.89874267578125;-0.062957763671875;0.769999998055937;78;100 mA
116.424250706057;-0.89996337890625;-0.062835693359375;0.779999998030689;79;100 mA
116.434250706032;-0.89935302734375;-0.06280517578125;0.789999998005442;80;100 mA
116.444250706007;-0.89935302734375;-0.06292724609375;0.799999997980194;81;100 mA
116.454250705981;-0.8990478515625;-0.062744140625;0.809999997954947;82;100 mA
116.464250705956;-0.9002685546875;-0.06280517578125;0.819999997929699;83;100 mA
116.474250705931;-0.899658203125;-0.062744140625;0.829999997904451;84;100 mA
116.484250705906;-0.89935302734375;-0.0628662109375;0.839999997879204;85;100 mA
116.49425070588;-0.89935302734375;-0.06298828125;0.849999997853956;86;100 mA
116.504250705855;-0.899658203125;-0.062896728515625;0.859999997828709;87;100 mA
116.51425070583;-0.8990478515625;-0.06304931640625;0.869999997803461;88;100 mA
116.524250705805;-0.89996337890625;-0.063507080078125;0.879999997778214;89;100 mA
116.534250705779;-0.89935302734375;-0.063568115234375;0.889999997752966;90;100 mA
116.544250705754;-0.89935302734375;-0.06353759765625;0.899999997727718;91;100 mA
116.554250705729;-0.8990478515625;-0.06341552734375;0.909999997702471;92;100 mA
116.564250705704;-0.899658203125;-0.063446044921875;0.919999997677223;93;100 mA
116.574250705678;-0.89996337890625;-0.063018798828125;0.929999997651976;94;100 mA
116.584250705653;-0.89935302734375;-0.063018798828125;0.939999997626728;95;100 mA
116.594250705628;-0.899658203125;-0.062957763671875;0.949999997601481;96;100 mA
116.604250705603;-0.8990478515625;-0.06298828125;0.959999997576233;97;100 mA
116.614250705577;-0.89935302734375;-0.06292724609375;0.969999997550985;98;100 mA
116.624250705552;-0.89935302734375;-0.063018798828125;0.979999997525738;99;100 mA
116.634250705527;-0.899658203125;-0.063140869140625;0.98999999750049;100;100 mA
116.644250705502;-0.899658203125;-0.06341552734375;0.999999997475243;101;100 mA
116.654250705476;-0.899658203125;-0.0635986328125;1.00999999745;102;100 mA
116.664250705451;-0.899658203125;-0.06341552734375;1.01999999742475;103;100 mA
116.674250705426;-0.89935302734375;-0.0635986328125;1.0299999973995;104;100 mA
116.684250705401;-0.89935302734375;-0.06353759765625;1.03999999737425;105;100 mA
116.694250705375;-0.899658203125;-0.063385009765625;1.049999997349;106;100 mA
116.70425070535;-0.89996337890625;-0.063232421875;1.05999999732376;107;100 mA
116.714250705325;-0.89935302734375;-0.063079833984375;1.06999999729851;108;100 mA
116.7242507053;-0.899658203125;-0.062957763671875;1.07999999727326;109;100 mA
116.734250705274;-0.899658203125;-0.06298828125;1.08999999724801;110;100 mA
116.744250705249;-0.89935302734375;-0.06280517578125;1.09999999722277;111;100 mA
116.754250705224;-0.89935302734375;-0.062896728515625;1.10999999719752;112;100 mA
116.764250705199;-0.89935302734375;-0.06317138671875;1.11999999717227;113;100 mA
116.774250705173;-0.89996337890625;-0.063201904296875;1.12999999714702;114;100 mA
116.784250705148;-0.89935302734375;-0.06304931640625;1.13999999712178;115;100 mA
116.794250705123;-0.899658203125;-0.063018798828125;1.14999999709653;116;100 mA
116.804250705098;-0.89935302734375;-0.0628662109375;1.15999999707128;117;100 mA
116.814250705072;-0.899658203125;-0.06268310546875;1.16999999704603;118;100 mA
116.824250705047;-0.89996337890625;-0.062652587890625;1.17999999702079;119;100 mA
116.834250705022;-0.899658203125;-0.06256103515625;1.18999999699554;120;100 mA
116.844250704997;-0.8990478515625;-0.062530517578125;1.19999999697029;121;100 mA
116.854250704971;-0.899658203125;-0.062530517578125;1.20999999694504;122;100 mA
116.864250704946;-0.89935302734375;-0.0623779296875;1.2199999969198;123;100 mA
116.874250704921;-0.89935302734375;-0.06231689453125;1.22999999689455;124;100 mA
116.884250704896;-0.89996337890625;-0.06256103515625;1.2399999968693;125;100 mA
116.89425070487;-0.89935302734375;-0.062530517578125;1.24999999684405;126;100 mA
116.904250704845;-0.8990478515625;-0.062591552734375;1.25999999681881;127;100 mA
116.91425070482;-0.89935302734375;-0.062591552734375;1.26999999679356;128;100 mA
116.924250704795;-0.89935302734375;-0.06268310546875;1.27999999676831;129;100 mA
116.934250704769;-0.899658203125;-0.0623779296875;1.28999999674306;130;100 mA
116.944250704744;-0.899658203125;-0.0623779296875;1.29999999671782;131;100 mA
116.954250704719;-0.8990478515625;-0.062225341796875;1.30999999669257;132;100 mA
116.964250704694;-0.8990478515625;-0.062347412109375;1.31999999666732;133;100 mA
116.974250704668;-0.899658203125;-0.06243896484375;1.32999999664207;134;100 mA
116.984250704643;-0.89935302734375;-0.0623779296875;1.33999999661683;135;100 mA
116.994250704618;-0.899658203125;-0.062713623046875;1.34999999659158;136;100 mA
117.004250704593;-0.89996337890625;-0.062896728515625;1.35999999656633;137;100 mA
117.014250704567;-0.89935302734375;-0.062957763671875;1.36999999654108;138;100 mA
117.024250704542;-0.89935302734375;-0.0628662109375;1.37999999651583;139;100 mA
117.034250704517;-0.89996337890625;-0.0628662109375;1.38999999649059;140;100 mA
117.044250704492;-0.9002685546875;-0.063018798828125;1.39999999646534;141;100 mA
117.054250704466;-0.8990478515625;-0.062744140625;1.40999999644009;142;100 mA
117.064250704441;-0.9002685546875;-0.062744140625;1.41999999641484;143;100 mA
117.074250704416;-0.89996337890625;-0.0626220703125;1.4299999963896;144;100 mA
117.084250704391;-0.89996337890625;-0.062652587890625;1.43999999636435;145;100 mA
117.094250704365;-0.9002685546875;-0.0626220703125;1.4499999963391;146;100 mA
117.10425070434;-0.89935302734375;-0.0625;1.45999999631385;147;100 mA
117.114250704315;-0.899658203125;-0.062591552734375;1.46999999628861;148;100 mA
117.12425070429;-0.899658203125;-0.06292724609375;1.47999999626336;149;100 mA
117.134250704264;-0.899658203125;-0.063018798828125;1.48999999623811;150;100 mA
117.144250704239;-0.8990478515625;-0.062835693359375;1.49999999621286;151;100 mA
117.154250704214;-0.899658203125;-0.062774658203125;1.50999999618762;152;100 mA
117.164250704189;-0.8990478515625;-0.062713623046875;1.51999999616237;153;100 mA
117.174250704163;-0.899658203125;-0.062255859375;1.52999999613712;154;100 mA
117.184250704138;-0.89935302734375;-0.062164306640625;1.53999999611187;155;100 mA
117.194250704113;-0.8990478515625;-0.062103271484375;1.54999999608663;156;100 mA
117.204250704088;-0.9002685546875;-0.0621337890625;1.55999999606138;157;100 mA
117.214250704062;-0.899658203125;-0.06207275390625;1.56999999603613;158;100 mA
117.224250704037;-0.89935302734375;-0.0621337890625;1.57999999601088;159;100 mA
117.234250704012;-0.89935302734375;-0.0621337890625;1.58999999598564;160;100 mA
117.244250703987;-0.89996337890625;-0.062408447265625;1.59999999596039;161;100 mA
117.254250703961;-0.89996337890625;-0.062469482421875;1.60999999593514;162;100 mA
117.264250703936;-0.899658203125;-0.06231689453125;1.61999999590989;163;100 mA
117.274250703911;-0.8990478515625;-0.06243896484375;1.62999999588465;164;100 mA
117.284250703886;-0.8990478515625;-0.06231689453125;1.6399999958594;165;100 mA
117.29425070386;-0.8990478515625;-0.062103271484375;1.64999999583415;166;100 mA
117.304250703835;-0.899658203125;-0.061920166015625;1.6599999958089;167;100 mA
117.31425070381;-0.89996337890625;-0.06170654296875;1.66999999578366;168;100 mA
117.324250703785;-0.8990478515625;-0.0616455078125;1.67999999575841;169;100 mA
117.334250703759;-0.899658203125;-0.06158447265625;1.68999999573316;170;100 mA
117.344250703734;-0.899658203125;-0.061370849609375;1.69999999570791;171;100 mA
117.354250703709;-0.899658203125;-0.06146240234375;1.70999999568267;172;100 mA
117.364250703684;-0.89935302734375;-0.061737060546875;1.71999999565742;173;100 mA
117.374250703659;-0.899658203125;-0.06170654296875;1.72999999563217;174;100 mA
117.384250703633;-0.899658203125;-0.0616455078125;1.73999999560692;175;100 mA
117.394250703608;-0.899658203125;-0.06158447265625;1.74999999558167;176;100 mA
117.404250703583;-0.8990478515625;-0.06146240234375;1.75999999555643;177;100 mA
117.414250703558;-0.899658203125;-0.061370849609375;1.76999999553118;178;100 mA
117.424250703532;-0.89935302734375;-0.061309814453125;1.77999999550593;179;100 mA
117.434250703507;-0.8990478515625;-0.061248779296875;1.78999999548068;180;100 mA
117.444250703482;-0.89935302734375;-0.06121826171875;1.79999999545544;181;100 mA
117.454250703457;-0.89935302734375;-0.061248779296875;1.80999999543019;182;100 mA
117.464250703431;-0.899658203125;-0.06109619140625;1.81999999540494;183;100 mA
117.474250703406;-0.899658203125;-0.061065673828125;1.82999999537969;184;100 mA
117.484250703381;-0.899658203125;-0.061309814453125;1.83999999535445;185;100 mA
117.494250703356;-0.89935302734375;-0.061187744140625;1.8499999953292;186;100 mA
117.50425070333;-0.899658203125;-0.061248779296875;1.85999999530395;187;100 mA
117.514250703305;-0.89935302734375;-0.061065673828125;1.8699999952787;188;100 mA
117.52425070328;-0.899658203125;-0.061065673828125;1.87999999525346;189;100 mA
117.534250703255;-0.899658203125;-0.060699462890625;1.88999999522821;190;100 mA
117.544250703229;-0.8990478515625;-0.060577392578125;1.89999999520296;191;100 mA
117.554250703204;-0.899658203125;-0.06036376953125;1.90999999517771;192;100 mA
117.564250703179;-0.89996337890625;-0.060455322265625;1.91999999515247;193;100 mA
117.574250703154;-0.89935302734375;-0.060516357421875;1.92999999512722;194;100 mA
117.584250703128;-0.89935302734375;-0.0604248046875;1.93999999510197;195;100 mA
117.594250703103;-0.899658203125;-0.060699462890625;1.94999999507672;196;100 mA
117.604250703078;-0.899658203125;-0.060882568359375;1.95999999505148;197;100 mA
117.614250703053;-0.89935302734375;-0.0609130859375;1.96999999502623;198;100 mA
117.624250703027;-0.89996337890625;-0.060791015625;1.97999999500098;199;100 mA
117.634250703002;-0.89935302734375;-0.06072998046875;1.98999999497573;200;100 mA
117.644250702977;-0.89996337890625;-0.060791015625;1.99999999495049;201;100 mA
117.654250702952;-0.89996337890625;-0.0604248046875;2.00999999492524;202;100 mA
117.664250702926;-0.8990478515625;-0.060333251953125;2.01999999489999;203;100 mA
117.674250702901;-0.89935302734375;-0.0601806640625;2.02999999487474;204;100 mA
117.684250702876;-0.899658203125;-0.060089111328125;2.0399999948495;205;100 mA
117.694250702851;-0.89935302734375;-0.06005859375;2.04999999482425;206;100 mA
117.704250702825;-0.899658203125;-0.0599365234375;2.059999994799;207;100 mA
117.7142507028;-0.8990478515625;-0.059967041015625;2.06999999477375;208;100 mA
117.724250702775;-0.89935302734375;-0.060333251953125;2.0799999947485;209;100 mA
117.73425070275;-0.899658203125;-0.0604248046875;2.08999999472326;210;100 mA
117.744250702724;-0.899658203125;-0.060272216796875;2.09999999469801;211;100 mA
117.754250702699;-0.89935302734375;-0.060302734375;2.10999999467276;212;100 mA
117.764250702674;-0.899658203125;-0.060272216796875;2.11999999464751;213;100 mA
117.774250702649;-0.9002685546875;-0.0599365234375;2.12999999462227;214;100 mA
117.784250702623;-0.89935302734375;-0.0599365234375;2.13999999459702;215;100 mA
117.794250702598;-0.89996337890625;-0.05987548828125;2.14999999457177;216;100 mA
117.804250702573;-0.89996337890625;-0.059967041015625;2.15999999454652;217;100 mA
117.814250702548;-0.89935302734375;-0.059967041015625;2.16999999452128;218;100 mA
117.824250702522;-0.8990478515625;-0.059967041015625;2.17999999449603;219;100 mA
117.834250702497;-0.89935302734375;-0.059967041015625;2.18999999447078;220;100 mA
117.844250702472;-0.89935302734375;-0.060211181640625;2.19999999444553;221;100 mA
117.854250702447;-0.899658203125;-0.060211181640625;2.20999999442029;222;100 mA
117.864250702421;-0.899658203125;-0.06011962890625;2.21999999439504;223;100 mA
117.874250702396;-0.8990478515625;-0.06024169921875;2.22999999436979;224;100 mA
117.884250702371;-0.899658203125;-0.06011962890625;2.23999999434454;225;100 mA
117.894250702346;-0.89935302734375;-0.059844970703125;2.2499999943193;226;100 mA
117.90425070232;-0.89935302734375;-0.0596923828125;2.25999999429405;227;100 mA
117.914250702295;-0.8990478515625;-0.059478759765625;2.2699999942688;228;100 mA
117.92425070227;-0.89935302734375;-0.05950927734375;2.27999999424355;229;100 mA
117.934250702245;-0.89935302734375;-0.059539794921875;2.28999999421831;230;100 mA
117.944250702219;-0.89935302734375;-0.059478759765625;2.29999999419306;231;100 mA
117.954250702194;-0.89996337890625;-0.0596923828125;2.30999999416781;232;100 mA
117.964250702169;-0.899658203125;-0.060028076171875;2.31999999414256;233;100 mA
117.974250702144;-0.899658203125;-0.06005859375;2.32999999411732;234;100 mA
117.984250702118;-0.8990478515625;-0.05999755859375;2.33999999409207;235;100 mA
117.994250702093;-0.89996337890625;-0.05999755859375;2.34999999406682;236;100 mA
118.004250702068;-0.899658203125;-0.059814453125;2.35999999404157;237;100 mA
118.014250702043;-0.89935302734375;-0.059722900390625;2.36999999401633;238;100 mA
118.024250702017;-0.89935302734375;-0.059600830078125;2.37999999399108;239;100 mA
118.034250701992;-0.899658203125;-0.059478759765625;2.38999999396583;240;100 mA
118.044250701967;-0.8990478515625;-0.059417724609375;2.39999999394058;241;100 mA
118.054250701942;-0.89996337890625;-0.0594482421875;2.40999999391533;242;100 mA
118.064250701916;-0.899658203125;-0.059295654296875;2.41999999389009;243;100 mA
118.074250701891;-0.89996337890625;-0.059326171875;2.42999999386484;244;100 mA
118.084250701866;-0.8990478515625;-0.05963134765625;2.43999999383959;245;100 mA
118.094250701841;-0.89935302734375;-0.05963134765625;2.44999999381434;246;100 mA
118.104250701815;-0.89996337890625;-0.0596923828125;2.4599999937891;247;100 mA
118.11425070179;-0.899658203125;-0.05963134765625;2.46999999376385;248;100 mA
118.124250701765;-0.89935302734375;-0.05963134765625;2.4799999937386;249;100 mA
118.13425070174;-0.89935302734375;-0.059295654296875;2.48999999371335;250;100 mA
118.144250701714;-0.89935302734375;-0.059173583984375;2.49999999368811;251;100 mA
118.154250701689;-0.899658203125;-0.0589599609375;2.50999999366286;252;100 mA
118.164250701664;-0.8990478515625;-0.0589599609375;2.51999999363761;253;100 mA
118.174250701639;-0.899658203125;-0.0589599609375;2.52999999361236;254;100 mA
118.184250701613;-0.899658203125;-0.058837890625;2.53999999358712;255;100 mA
118.194250701588;-0.899658203125;-0.05908203125;2.54999999356187;256;100 mA
118.204250701563;-0.8990478515625;-0.059234619140625;2.55999999353662;257;100 mA
118.214250701538;-0.899658203125;-0.059234619140625;2.56999999351137;258;100 mA
118.224250701512;-0.89874267578125;-0.059112548828125;2.57999999348613;259;100 mA
118.234250701487;-0.89935302734375;-0.05908203125;2.58999999346088;260;100 mA
118.244250701462;-0.89935302734375;-0.059234619140625;2.59999999343563;261;100 mA
118.254250701437;-0.899658203125;-0.058990478515625;2.60999999341038;262;100 mA
118.264250701411;-0.89935302734375;-0.058990478515625;2.61999999338514;263;100 mA
118.274250701386;-0.89996337890625;-0.0589599609375;2.62999999335989;264;100 mA
118.284250701361;-0.89935302734375;-0.0589599609375;2.63999999333464;265;100 mA
118.294250701336;-0.899658203125;-0.058929443359375;2.64999999330939;266;100 mA
118.30425070131;-0.899658203125;-0.058837890625;2.65999999328415;267;100 mA
118.314250701285;-0.89996337890625;-0.05889892578125;2.6699999932589;268;100 mA
118.32425070126;-0.89996337890625;-0.05926513671875;2.67999999323365;269;100 mA
118.334250701235;-0.899658203125;-0.059326171875;2.6899999932084;270;100 mA
118.344250701209;-0.899658203125;-0.05908203125;2.69999999318316;271;100 mA
118.354250701184;-0.9002685546875;-0.0589599609375;2.70999999315791;272;100 mA
118.364250701159;-0.89996337890625;-0.058807373046875;2.71999999313266;273;100 mA
118.374250701134;-0.89996337890625;-0.058349609375;2.72999999310741;274;100 mA
118.384250701108;-0.899658203125;-0.058258056640625;2.73999999308217;275;100 mA
118.394250701083;-0.89996337890625;-0.058197021484375;2.74999999305692;276;100 mA
118.404250701058;-0.89996337890625;-0.058258056640625;2.75999999303167;277;100 mA
118.414250701033;-0.89996337890625;-0.0582275390625;2.76999999300642;278;100 mA
118.424250701008;-0.89935302734375;-0.0582275390625;2.77999999298117;279;100 mA
118.434250700982;-0.899658203125;-0.058319091796875;2.78999999295593;280;100 mA
118.444250700957;-0.89935302734375;-0.05865478515625;2.79999999293068;281;100 mA
118.454250700932;-0.89935302734375;-0.05877685546875;2.80999999290543;282;100 mA
118.464250700907;-0.89996337890625;-0.058837890625;2.81999999288018;283;100 mA
118.474250700881;-0.899658203125;-0.059051513671875;2.82999999285494;284;100 mA
118.484250700856;-0.899658203125;-0.058990478515625;2.83999999282969;285;100 mA
118.494250700831;-0.89935302734375;-0.058807373046875;2.84999999280444;286;100 mA
118.504250700806;-0.899658203125;-0.058746337890625;2.85999999277919;287;100 mA
118.51425070078;-0.89935302734375;-0.05853271484375;2.86999999275395;288;100 mA
118.524250700755;-0.89935302734375;-0.05853271484375;2.8799999927287;289;100 mA
118.53425070073;-0.89935302734375;-0.058563232421875;2.88999999270345;290;100 mA
118.544250700705;-0.89935302734375;-0.058502197265625;2.8999999926782;291;100 mA
118.554250700679;-0.899658203125;-0.058685302734375;2.90999999265296;292;100 mA
118.564250700654;-0.899658203125;-0.05908203125;2.91999999262771;293;100 mA
118.574250700629;-0.8990478515625;-0.059051513671875;2.92999999260246;294;100 mA
118.584250700604;-0.89935302734375;-0.059112548828125;2.93999999257721;295;100 mA
118.594250700578;-0.89935302734375;-0.05914306640625;2.94999999255197;296;100 mA
118.604250700553;-0.89935302734375;-0.059051513671875;2.95999999252672;297;100 mA
118.614250700528;-0.89935302734375;-0.059051513671875;2.96999999250147;298;100 mA
118.624250700503;-0.899658203125;-0.058990478515625;2.97999999247622;299;100 mA
118.634250700477;-0.89935302734375;-0.0589599609375;2.98999999245098;300;100 mA
118.644250700452;-0.899658203125;-0.058990478515625;2.99999999242573;301;100 mA
118.654250700427;-0.899658203125;-0.05902099609375;3.00999999240048;302;100 mA
118.664250700402;-0.899658203125;-0.0589599609375;3.01999999237523;303;100 mA
118.674250700376;-0.89935302734375;-0.059112548828125;3.02999999234999;304;100 mA
118.684250700351;-0.899658203125;-0.059478759765625;3.03999999232474;305;100 mA
118.694250700326;-0.89935302734375;-0.0595703125;3.04999999229949;306;100 mA
118.704250700301;-0.8990478515625;-0.0596923828125;3.05999999227424;307;100 mA
118.714250700275;-0.899658203125;-0.0596923828125;3.069999992249;308;100 mA
118.72425070025;-0.899658203125;-0.059783935546875;3.07999999222375;309;100 mA
118.734250700225;-0.899658203125;-0.0595703125;3.0899999921985;310;100 mA
118.7442507002;-0.89935302734375;-0.05950927734375;3.09999999217325;311;100 mA
118.754250700174;-0.89935302734375;-0.0594482421875;3.109999992148;312;100 mA
118.764250700149;-0.9002685546875;-0.059539794921875;3.11999999212276;313;100 mA
118.774250700124;-0.89935302734375;-0.05963134765625;3.12999999209751;314;100 mA
118.784250700099;-0.89935302734375;-0.059539794921875;3.13999999207226;315;100 mA
118.794250700073;-0.89935302734375;-0.059814453125;3.14999999204701;316;100 mA
118.804250700048;-0.89935302734375;-0.060028076171875;3.15999999202177;317;100 mA
118.814250700023;-0.89935302734375;-0.06011962890625;3.16999999199652;318;100 mA
118.824250699998;-0.89935302734375;-0.06005859375;3.17999999197127;319;100 mA
118.834250699972;-0.89935302734375;-0.06005859375;3.18999999194602;320;100 mA
118.844250699947;-0.899658203125;-0.060272216796875;3.19999999192078;321;100 mA
118.854250699922;-0.899658203125;-0.060089111328125;3.20999999189553;322;100 mA
118.864250699897;-0.89996337890625;-0.060211181640625;3.21999999187028;323;100 mA
118.874250699871;-0.899658203125;-0.060211181640625;3.22999999184503;324;100 mA
118.884250699846;-0.899658203125;-0.060272216796875;3.23999999181979;325;100 mA
118.894250699821;-0.89935302734375;-0.060333251953125;3.24999999179454;326;100 mA
118.904250699796;-0.89874267578125;-0.060302734375;3.25999999176929;327;100 mA
118.91425069977;-0.899658203125;-0.060455322265625;3.26999999174404;328;100 mA
118.924250699745;-0.899658203125;-0.0609130859375;3.2799999917188;329;100 mA
118.93425069972;-0.899658203125;-0.061126708984375;3.28999999169355;330;100 mA
118.944250699695;-0.89935302734375;-0.06103515625;3.2999999916683;331;100 mA
118.954250699669;-0.89935302734375;-0.061126708984375;3.30999999164305;332;100 mA
118.964250699644;-0.899658203125;-0.061126708984375;3.31999999161781;333;100 mA
118.974250699619;-0.8990478515625;-0.06085205078125;3.32999999159256;334;100 mA
118.984250699594;-0.899658203125;-0.060943603515625;3.33999999156731;335;100 mA
118.994250699568;-0.89996337890625;-0.06097412109375;3.34999999154206;336;100 mA
119.004250699543;-0.899658203125;-0.061126708984375;3.35999999151682;337;100 mA
119.014250699518;-0.89935302734375;-0.0611572265625;3.36999999149157;338;100 mA
119.024250699493;-0.899658203125;-0.0611572265625;3.37999999146632;339;100 mA
119.034250699467;-0.89935302734375;-0.0611572265625;3.38999999144107;340;100 mA
119.044250699442;-0.89874267578125;-0.0614013671875;3.39999999141583;341;100 mA
119.054250699417;-0.8990478515625;-0.06146240234375;3.40999999139058;342;100 mA
119.064250699392;-0.89996337890625;-0.061431884765625;3.41999999136533;343;100 mA
119.074250699366;-0.899658203125;-0.061614990234375;3.42999999134008;344;100 mA
119.084250699341;-0.899658203125;-0.061492919921875;3.43999999131483;345;100 mA
119.094250699316;-0.899658203125;-0.061279296875;3.44999999128959;346;100 mA
119.104250699291;-0.899658203125;-0.061187744140625;3.45999999126434;347;100 mA
119.114250699265;-0.89935302734375;-0.060943603515625;3.46999999123909;348;100 mA
119.12425069924;-0.89935302734375;-0.061004638671875;3.47999999121384;349;100 mA
119.134250699215;-0.89874267578125;-0.06103515625;3.4899999911886;350;100 mA
119.14425069919;-0.899658203125;-0.060943603515625;3.49999999116335;351;100 mA
119.154250699164;-0.899658203125;-0.0611572265625;3.5099999911381;352;100 mA
119.164250699139;-0.8990478515625;-0.061492919921875;3.51999999111285;353;100 mA
119.174250699114;-0.89996337890625;-0.0614013671875;3.52999999108761;354;100 mA
119.184250699089;-0.899658203125;-0.0614013671875;3.53999999106236;355;100 mA
119.194250699063;-0.8990478515625;-0.06134033203125;3.54999999103711;356;100 mA
119.204250699038;-0.89935302734375;-0.061187744140625;3.55999999101186;357;100 mA
119.214250699013;-0.899658203125;-0.061065673828125;3.56999999098662;358;100 mA
119.224250698988;-0.89935302734375;-0.060943603515625;3.57999999096137;359;100 mA
119.234250698962;-0.89996337890625;-0.060821533203125;3.58999999093612;360;100 mA
119.244250698937;-0.89874267578125;-0.060760498046875;3.59999999091087;361;100 mA
119.254250698912;-0.899658203125;-0.06072998046875;3.60999999088563;362;100 mA
119.264250698887;-0.89935302734375;-0.060577392578125;3.61999999086038;363;100 mA
119.274250698861;-0.89935302734375;-0.060638427734375;3.62999999083513;364;100 mA
119.284250698836;-0.899658203125;-0.0609130859375;3.63999999080988;365;100 mA
119.294250698811;-0.89996337890625;-0.060943603515625;3.64999999078464;366;100 mA
119.304250698786;-0.8990478515625;-0.061004638671875;3.65999999075939;367;100 mA
119.31425069876;-0.899658203125;-0.06097412109375;3.66999999073414;368;100 mA
119.324250698735;-0.899658203125;-0.06097412109375;3.67999999070889;369;100 mA
119.33425069871;-0.899658203125;-0.06072998046875;3.68999999068365;370;100 mA
119.344250698685;-0.899658203125;-0.060638427734375;3.6999999906584;371;100 mA
119.354250698659;-0.89935302734375;-0.060546875;3.70999999063315;372;100 mA
119.364250698634;-0.8990478515625;-0.060546875;3.7199999906079;373;100 mA
119.374250698609;-0.8990478515625;-0.060577392578125;3.72999999058266;374;100 mA
119.384250698584;-0.899658203125;-0.0604248046875;3.73999999055741;375;100 mA
119.394250698558;-0.89935302734375;-0.06060791015625;3.74999999053216;376;100 mA
119.404250698533;-0.89935302734375;-0.060791015625;3.75999999050691;377;100 mA
119.414250698508;-0.899658203125;-0.060882568359375;3.76999999048167;378;100 mA
119.424250698483;-0.89935302734375;-0.060821533203125;3.77999999045642;379;100 mA
119.434250698458;-0.8990478515625;-0.06085205078125;3.78999999043117;380;100 mA
119.444250698432;-0.89935302734375;-0.061004638671875;3.79999999040592;381;100 mA
119.454250698407;-0.899658203125;-0.060821533203125;3.80999999038067;382;100 mA
119.464250698382;-0.89996337890625;-0.060791015625;3.81999999035543;383;100 mA
119.474250698357;-0.89935302734375;-0.060791015625;3.82999999033018;384;100 mA
119.484250698331;-0.89935302734375;-0.060699462890625;3.83999999030493;385;100 mA
119.494250698306;-0.8990478515625;-0.060699462890625;3.84999999027968;386;100 mA
119.504250698281;-0.89935302734375;-0.060577392578125;3.85999999025444;387;100 mA
119.514250698256;-0.89935302734375;-0.0606689453125;3.86999999022919;388;100 mA
119.52425069823;-0.89935302734375;-0.06097412109375;3.87999999020394;389;100 mA
119.534250698205;-0.899658203125;-0.061126708984375;3.88999999017869;390;100 mA
119.54425069818;-0.89935302734375;-0.061065673828125;3.89999999015345;391;100 mA
119.554250698155;-0.899658203125;-0.06121826171875;3.9099999901282;392;100 mA
119.564250698129;-0.899658203125;-0.061187744140625;3.91999999010295;393;100 mA
119.574250698104;-0.899658203125;-0.06097412109375;3.9299999900777;394;100 mA
119.584250698079;-0.899658203125;-0.06097412109375;3.93999999005246;395;100 mA
119.594250698054;-0.89935302734375;-0.06097412109375;3.94999999002721;396;100 mA
119.604250698028;-0.89935302734375;-0.06097412109375;3.95999999000196;397;100 mA
119.614250698003;-0.899658203125;-0.0609130859375;3.96999998997671;398;100 mA
119.624250697978;-0.89996337890625;-0.060791015625;3.97999998995147;399;100 mA
119.634250697953;-0.899658203125;-0.060699462890625;3.98999998992622;400;100 mA
119.644250697927;-0.89935302734375;-0.060882568359375;3.99999998990097;401;100 mA
119.654250697902;-0.899658203125;-0.06085205078125;4.00999998987572;402;100 mA
119.664250697877;-0.8990478515625;-0.0609130859375;4.01999998985048;403;100 mA
119.674250697852;-0.899658203125;-0.06103515625;4.02999998982523;404;100 mA
119.684250697826;-0.899658203125;-0.061004638671875;4.03999998979998;405;100 mA
119.694250697801;-0.89996337890625;-0.06072998046875;4.04999998977473;406;100 mA
119.704250697776;-0.899658203125;-0.0606689453125;4.05999998974949;407;100 mA
119.714250697751;-0.899658203125;-0.060394287109375;4.06999998972424;408;100 mA
119.724250697725;-0.89935302734375;-0.060455322265625;4.07999998969899;409;100 mA
119.7342506977;-0.89935302734375;-0.06036376953125;4.08999998967374;410;100 mA
119.744250697675;-0.89935302734375;-0.060211181640625;4.0999999896485;411;100 mA
119.75425069765;-0.899658203125;-0.060272216796875;4.10999998962325;412;100 mA
119.764250697624;-0.899658203125;-0.060455322265625;4.119999989598;413;100 mA
119.774250697599;-0.899658203125;-0.060302734375;4.12999998957275;414;100 mA
119.784250697574;-0.89996337890625;-0.060211181640625;4.1399999895475;415;100 mA
119.794250697549;-0.89935302734375;-0.0601806640625;4.14999998952226;416;100 mA
119.804250697523;-0.899658203125;-0.060089111328125;4.15999998949701;417;100 mA
119.814250697498;-0.89935302734375;-0.05999755859375;4.16999998947176;418;100 mA
119.824250697473;-0.89996337890625;-0.059906005859375;4.17999998944651;419;100 mA
119.834250697448;-0.899658203125;-0.05975341796875;4.18999998942127;420;100 mA
119.844250697422;-0.89935302734375;-0.059722900390625;4.19999998939602;421;100 mA
119.854250697397;-0.899658203125;-0.0596923828125;4.20999998937077;422;100 mA
119.864250697372;-0.89996337890625;-0.05950927734375;4.21999998934552;423;100 mA
119.874250697347;-0.89935302734375;-0.05950927734375;4.22999998932028;424;100 mA
119.884250697321;-0.89935302734375;-0.0596923828125;4.23999998929503;425;100 mA
119.894250697296;-0.89935302734375;-0.059661865234375;4.24999998926978;426;100 mA
119.904250697271;-0.8990478515625;-0.05963134765625;4.25999998924453;427;100 mA
119.914250697246;-0.89935302734375;-0.0595703125;4.26999998921929;428;100 mA
119.92425069722;-0.899658203125;-0.059600830078125;4.27999998919404;429;100 mA
119.934250697195;-0.899658203125;-0.059356689453125;4.28999998916879;430;100 mA
119.94425069717;-0.899658203125;-0.059295654296875;4.29999998914354;431;100 mA
119.954250697145;-0.899658203125;-0.0592041015625;4.3099999891183;432;100 mA
119.964250697119;-0.9002685546875;-0.059234619140625;4.31999998909305;433;100 mA
119.974250697094;-0.899658203125;-0.059234619140625;4.3299999890678;434;100 mA
119.984250697069;-0.899658203125;-0.059112548828125;4.33999998904255;435;100 mA
119.994250697044;-0.89935302734375;-0.0592041015625;4.34999998901731;436;100 mA
120.004250697018;-0.89935302734375;-0.059326171875;4.35999998899206;437;100 mA
120.014250696993;-0.89935302734375;-0.05926513671875;4.36999998896681;438;100 mA
120.024250696968;-0.899658203125;-0.05914306640625;4.37999998894156;439;100 mA
120.034250696943;-0.8990478515625;-0.059112548828125;4.38999998891632;440;100 mA
120.044250696917;-0.89996337890625;-0.059173583984375;4.39999998889107;441;100 mA
120.054250696892;-0.89935302734375;-0.0589599609375;4.40999998886582;442;100 mA
120.064250696867;-0.89935302734375;-0.058929443359375;4.41999998884057;443;100 mA
120.074250696842;-0.89935302734375;-0.058868408203125;4.42999998881533;444;100 mA
120.084250696816;-0.899658203125;-0.05877685546875;4.43999998879008;445;100 mA
120.094250696791;-0.89935302734375;-0.058746337890625;4.44999998876483;446;100 mA
120.104250696766;-0.89935302734375;-0.05859375;4.45999998873958;447;100 mA
120.114250696741;-0.8990478515625;-0.058563232421875;4.46999998871433;448;100 mA
120.124250696715;-0.9002685546875;-0.058807373046875;4.47999998868909;449;100 mA
120.13425069669;-0.899658203125;-0.05889892578125;4.48999998866384;450;100 mA
120.144250696665;-0.8990478515625;-0.058685302734375;4.49999998863859;451;100 mA
120.15425069664;-0.89935302734375;-0.0587158203125;4.50999998861334;452;100 mA
120.164250696614;-0.89874267578125;-0.05859375;4.5199999885881;453;100 mA
120.174250696589;-0.8990478515625;-0.058349609375;4.52999998856285;454;100 mA
120.184250696564;-0.899658203125;-0.058380126953125;4.5399999885376;455;100 mA
120.194250696539;-0.89935302734375;-0.05841064453125;4.54999998851235;456;100 mA
120.204250696513;-0.899658203125;-0.0584716796875;4.55999998848711;457;100 mA
120.214250696488;-0.899658203125;-0.0584716796875;4.56999998846186;458;100 mA
120.224250696463;-0.89935302734375;-0.058380126953125;4.57999998843661;459;100 mA
120.234250696438;-0.899658203125;-0.05828857421875;4.58999998841136;460;100 mA
120.244250696412;-0.8990478515625;-0.058502197265625;4.59999998838612;461;100 mA
120.254250696387;-0.899658203125;-0.058441162109375;4.60999998836087;462;100 mA
120.264250696362;-0.899658203125;-0.0584716796875;4.61999998833562;463;100 mA
120.274250696337;-0.9002685546875;-0.058624267578125;4.62999998831037;464;100 mA
120.284250696311;-0.899658203125;-0.058624267578125;4.63999998828513;465;100 mA
120.294250696286;-0.89996337890625;-0.05841064453125;4.64999998825988;466;100 mA
120.304250696261;-0.89996337890625;-0.05841064453125;4.65999998823463;467;100 mA
120.314250696236;-0.899658203125;-0.0582275390625;4.66999998820938;468;100 mA
120.32425069621;-0.89935302734375;-0.058380126953125;4.67999998818414;469;100 mA
120.334250696185;-0.899658203125;-0.05841064453125;4.68999998815889;470;100 mA
120.34425069616;-0.89935302734375;-0.058380126953125;4.69999998813364;471;100 mA
120.354250696135;-0.89935302734375;-0.058502197265625;4.70999998810839;472;100 mA
120.364250696109;-0.89935302734375;-0.05877685546875;4.71999998808315;473;100 mA
120.374250696084;-0.89935302734375;-0.0587158203125;4.7299999880579;474;100 mA
120.384250696059;-0.899658203125;-0.058746337890625;4.73999998803265;475;100 mA
120.394250696034;-0.89935302734375;-0.058837890625;4.7499999880074;476;100 mA
120.404250696008;-0.899658203125;-0.05889892578125;4.75999998798216;477;100 mA
120.414250695983;-0.899658203125;-0.05889892578125;4.76999998795691;478;100 mA
120.424250695958;-0.89935302734375;-0.058868408203125;4.77999998793166;479;100 mA
120.434250695933;-0.8990478515625;-0.058868408203125;4.78999998790641;480;100 mA
120.444250695907;-0.89935302734375;-0.05889892578125;4.79999998788116;481;100 mA
120.454250695882;-0.89935302734375;-0.0589599609375;4.80999998785592;482;100 mA
120.464250695857;-0.89935302734375;-0.058868408203125;4.81999998783067;483;100 mA
120.474250695832;-0.89996337890625;-0.058868408203125;4.82999998780542;484;100 mA
120.484250695807;-0.8990478515625;-0.05908203125;4.83999998778017;485;100 mA
120.494250695781;-0.89935302734375;-0.059112548828125;4.84999998775493;486;100 mA
120.504250695756;-0.899658203125;-0.05908203125;4.85999998772968;487;100 mA
120.514250695731;-0.89935302734375;-0.059051513671875;4.86999998770443;488;100 mA
120.524250695706;-0.8990478515625;-0.059112548828125;4.87999998767918;489;100 mA
120.53425069568;-0.899658203125;-0.058868408203125;4.88999998765394;490;100 mA
120.544250695655;-0.899658203125;-0.058807373046875;4.89999998762869;491;100 mA
120.55425069563;-0.899658203125;-0.058807373046875;4.90999998760344;492;100 mA
120.564250695605;-0.89996337890625;-0.058868408203125;4.91999998757819;493;100 mA
120.574250695579;-0.89996337890625;-0.058929443359375;4.92999998755295;494;100 mA
120.584250695554;-0.89935302734375;-0.05889892578125;4.9399999875277;495;100 mA
120.594250695529;-0.89935302734375;-0.059051513671875;4.94999998750245;496;100 mA
120.604250695504;-0.89935302734375;-0.059234619140625;4.9599999874772;497;100 mA
120.614250695478;-0.899658203125;-0.059326171875;4.96999998745196;498;100 mA
120.624250695453;-0.899658203125;-0.05926513671875;4.97999998742671;499;100 mA
120.634250695428;-0.89996337890625;-0.05938720703125;4.98999998740146;500;100 mA
120.644250695403;-0.89935302734375;-0.059600830078125;4.99999998737621;501;100 mA
120.654250695377;-0.89996337890625;-0.0595703125;5.00999998735097;502;100 mA
120.664250695352;-0.89935302734375;-0.05963134765625;5.01999998732572;503;100 mA
120.674250695327;-0.899658203125;-0.0596923828125;5.02999998730047;504;100 mA
120.684250695302;-0.899658203125;-0.0596923828125;5.03999998727522;505;100 mA
120.694250695276;-0.89935302734375;-0.059722900390625;5.04999998724998;506;100 mA
120.704250695251;-0.89935302734375;-0.059600830078125;5.05999998722473;507;100 mA
120.714250695226;-0.89996337890625;-0.05963134765625;5.06999998719948;508;100 mA
120.724250695201;-0.8990478515625;-0.05987548828125;5.07999998717423;509;100 mA
120.734250695175;-0.899658203125;-0.05999755859375;5.08999998714899;510;100 mA
120.74425069515;-0.89935302734375;-0.05987548828125;5.09999998712374;511;100 mA
120.754250695125;-0.89935302734375;-0.0599365234375;5.10999998709849;512;100 mA
120.7642506951;-0.899658203125;-0.059906005859375;5.11999998707324;513;100 mA
120.774250695074;-0.899658203125;-0.059844970703125;5.129999987048;514;100 mA
120.784250695049;-0.899658203125;-0.0599365234375;5.13999998702275;515;100 mA
120.794250695024;-0.899658203125;-0.05999755859375;5.1499999869975;516;100 mA
120.804250694999;-0.89935302734375;-0.060089111328125;5.15999998697225;517;100 mA
120.814250694973;-0.899658203125;-0.06005859375;5.169999986947;518;100 mA
120.824250694948;-0.899658203125;-0.059967041015625;5.17999998692176;519;100 mA
120.834250694923;-0.8990478515625;-0.059906005859375;5.18999998689651;520;100 mA
120.844250694898;-0.899658203125;-0.060089111328125;5.19999998687126;521;100 mA
120.854250694872;-0.899658203125;-0.06011962890625;5.20999998684601;522;100 mA
120.864250694847;-0.8990478515625;-0.06024169921875;5.21999998682077;523;100 mA
120.874250694822;-0.8990478515625;-0.0604248046875;5.22999998679552;524;100 mA
120.884250694797;-0.89935302734375;-0.0604248046875;5.23999998677027;525;100 mA
120.894250694771;-0.899658203125;-0.060211181640625;5.24999998674502;526;100 mA
120.904250694746;-0.89935302734375;-0.0601806640625;5.25999998671978;527;100 mA
120.914250694721;-0.89935302734375;-0.059967041015625;5.26999998669453;528;100 mA
120.924250694696;-0.89935302734375;-0.060089111328125;5.27999998666928;529;100 mA
120.93425069467;-0.899658203125;-0.059967041015625;5.28999998664403;530;100 mA
120.944250694645;-0.89935302734375;-0.059844970703125;5.29999998661879;531;100 mA
120.95425069462;-0.899658203125;-0.05987548828125;5.30999998659354;532;100 mA
120.964250694595;-0.899658203125;-0.060028076171875;5.31999998656829;533;100 mA
120.974250694569;-0.89935302734375;-0.059967041015625;5.32999998654304;534;100 mA
120.984250694544;-0.89935302734375;-0.059906005859375;5.3399999865178;535;100 mA
120.994250694519;-0.89874267578125;-0.059967041015625;5.34999998649255;536;100 mA
121.004250694494;-0.8990478515625;-0.059967041015625;5.3599999864673;537;100 mA
121.014250694468;-0.89996337890625;-0.059906005859375;5.36999998644205;538;100 mA
121.024250694443;-0.89935302734375;-0.059783935546875;5.37999998641681;539;100 mA
121.034250694418;-0.8990478515625;-0.059661865234375;5.38999998639156;540;100 mA
121.044250694393;-0.89935302734375;-0.0595703125;5.39999998636631;541;100 mA
121.054250694367;-0.899658203125;-0.059539794921875;5.40999998634106;542;100 mA
121.064250694342;-0.89935302734375;-0.059356689453125;5.41999998631582;543;100 mA
121.074250694317;-0.89935302734375;-0.059295654296875;5.42999998629057;544;100 mA
121.084250694292;-0.899658203125;-0.059478759765625;5.43999998626532;545;100 mA
121.094250694266;-0.89935302734375;-0.05938720703125;5.44999998624007;546;100 mA
121.104250694241;-0.89935302734375;-0.059326171875;5.45999998621483;547;100 mA
121.114250694216;-0.89935302734375;-0.059295654296875;5.46999998618958;548;100 mA
121.124250694191;-0.89935302734375;-0.059326171875;5.47999998616433;549;100 mA
121.134250694165;-0.89935302734375;-0.05908203125;5.48999998613908;550;100 mA
121.14425069414;-0.8990478515625;-0.0589599609375;5.49999998611383;551;100 mA
121.154250694115;-0.89935302734375;-0.058837890625;5.50999998608859;552;100 mA
121.16425069409;-0.89935302734375;-0.05877685546875;5.51999998606334;553;100 mA
121.174250694064;-0.89935302734375;-0.058685302734375;5.52999998603809;554;100 mA
121.184250694039;-0.899658203125;-0.058563232421875;5.53999998601284;555;100 mA
121.194250694014;-0.89996337890625;-0.05853271484375;5.5499999859876;556;100 mA
121.204250693989;-0.899658203125;-0.058624267578125;5.55999998596235;557;100 mA
121.214250693963;-0.8990478515625;-0.05859375;5.5699999859371;558;100 mA
121.224250693938;-0.9002685546875;-0.058441162109375;5.57999998591185;559;100 mA
121.234250693913;-0.899658203125;-0.0584716796875;5.58999998588661;560;100 mA
121.244250693888;-0.899658203125;-0.0584716796875;5.59999998586136;561;100 mA
121.254250693862;-0.899658203125;-0.058319091796875;5.60999998583611;562;100 mA
121.264250693837;-0.8990478515625;-0.0582275390625;5.61999998581086;563;100 mA
121.274250693812;-0.899658203125;-0.058197021484375;5.62999998578562;564;100 mA
121.284250693787;-0.89935302734375;-0.05810546875;5.63999998576037;565;100 mA
121.294250693761;-0.89935302734375;-0.058074951171875;5.64999998573512;566;100 mA
121.304250693736;-0.89935302734375;-0.057891845703125;5.65999998570987;567;100 mA
121.314250693711;-0.89935302734375;-0.057891845703125;5.66999998568463;568;100 mA
121.324250693686;-0.899658203125;-0.05804443359375;5.67999998565938;569;100 mA
121.33425069366;-0.899658203125;-0.05810546875;5.68999998563413;570;100 mA
121.344250693635;-0.899658203125;-0.0579833984375;5.69999998560888;571;100 mA
121.35425069361;-0.899658203125;-0.0579833984375;5.70999998558364;572;100 mA
121.364250693585;-0.8990478515625;-0.05780029296875;5.71999998555839;573;100 mA
121.374250693559;-0.8990478515625;-0.057647705078125;5.72999998553314;574;100 mA
121.384250693534;-0.899658203125;-0.057586669921875;5.73999998550789;575;100 mA
121.394250693509;-0.899658203125;-0.057586669921875;5.74999998548265;576;100 mA
121.404250693484;-0.89996337890625;-0.057586669921875;5.7599999854574;577;100 mA
121.414250693458;-0.8990478515625;-0.057586669921875;5.76999998543215;578;100 mA
121.424250693433;-0.899658203125;-0.057464599609375;5.7799999854069;579;100 mA
121.434250693408;-0.899658203125;-0.057373046875;5.78999998538166;580;100 mA
121.444250693383;-0.899658203125;-0.057586669921875;5.79999998535641;581;100 mA
121.454250693357;-0.89935302734375;-0.0576171875;5.80999998533116;582;100 mA
121.464250693332;-0.89935302734375;-0.057708740234375;5.81999998530591;583;100 mA
121.474250693307;-0.89996337890625;-0.057830810546875;5.82999998528066;584;100 mA
121.484250693282;-0.899658203125;-0.057830810546875;5.83999998525542;585;100 mA
121.494250693257;-0.89935302734375;-0.05767822265625;5.84999998523017;586;100 mA
121.504250693231;-0.89935302734375;-0.05767822265625;5.85999998520492;587;100 mA
121.514250693206;-0.89996337890625;-0.057525634765625;5.86999998517967;588;100 mA
121.524250693181;-0.89874267578125;-0.0576171875;5.87999998515443;589;100 mA
121.534250693156;-0.89935302734375;-0.057586669921875;5.88999998512918;590;100 mA
121.54425069313;-0.899658203125;-0.0574951171875;5.89999998510393;591;100 mA
121.554250693105;-0.899658203125;-0.057586669921875;5.90999998507868;592;100 mA
121.56425069308;-0.8990478515625;-0.0577392578125;5.91999998505344;593;100 mA
121.574250693055;-0.89935302734375;-0.0577392578125;5.92999998502819;594;100 mA
121.584250693029;-0.899658203125;-0.057708740234375;5.93999998500294;595;100 mA
121.594250693004;-0.89935302734375;-0.05780029296875;5.94999998497769;596;100 mA
121.604250692979;-0.89996337890625;-0.057830810546875;5.95999998495245;597;100 mA
121.614250692954;-0.89935302734375;-0.05767822265625;5.9699999849272;598;100 mA
121.624250692928;-0.89996337890625;-0.057586669921875;5.97999998490195;599;100 mA
121.634250692903;-0.89935302734375;-0.0574951171875;5.9899999848767;600;100 mA
121.644250692878;-0.899658203125;-0.05743408203125;5.99999998485146;601;100 mA
121.654250692853;-0.89935302734375;-0.057373046875;6.00999998482621;602;100 mA
121.664250692827;-0.899658203125;-0.0572509765625;6.01999998480096;603;100 mA
121.674250692802;-0.89935302734375;-0.0572509765625;6.02999998477571;604;100 mA
121.684250692777;-0.89935302734375;-0.057464599609375;6.03999998475047;605;100 mA
121.694250692752;-0.89935302734375;-0.057525634765625;6.04999998472522;606;100 mA
121.704250692726;-0.899658203125;-0.05743408203125;6.05999998469997;607;100 mA
121.714250692701;-0.899658203125;-0.05743408203125;6.06999998467472;608;100 mA
121.724250692676;-0.8990478515625;-0.05743408203125;6.07999998464948;609;100 mA
121.734250692651;-0.89935302734375;-0.057098388671875;6.08999998462423;610;100 mA
121.744250692625;-0.899658203125;-0.057037353515625;6.09999998459898;611;100 mA
121.7542506926;-0.89935302734375;-0.05694580078125;6.10999998457373;612;100 mA
121.764250692575;-0.8990478515625;-0.056884765625;6.11999998454849;613;100 mA
121.77425069255;-0.89996337890625;-0.05682373046875;6.12999998452324;614;100 mA
121.784250692524;-0.9002685546875;-0.056732177734375;6.13999998449799;615;100 mA
121.794250692499;-0.899658203125;-0.056793212890625;6.14999998447274;616;100 mA
121.804250692474;-0.89935302734375;-0.056884765625;6.1599999844475;617;100 mA
121.814250692449;-0.899658203125;-0.056976318359375;6.16999998442225;618;100 mA
121.824250692423;-0.899658203125;-0.056854248046875;6.179999984397;619;100 mA
121.834250692398;-0.899658203125;-0.056976318359375;6.18999998437175;620;100 mA
121.844250692373;-0.89935302734375;-0.056976318359375;6.1999999843465;621;100 mA
121.854250692348;-0.899658203125;-0.05682373046875;6.20999998432126;622;100 mA
121.864250692322;-0.899658203125;-0.056732177734375;6.21999998429601;623;100 mA
121.874250692297;-0.899658203125;-0.056671142578125;6.22999998427076;624;100 mA
121.884250692272;-0.89935302734375;-0.05657958984375;6.23999998424551;625;100 mA
121.894250692247;-0.899658203125;-0.05657958984375;6.24999998422027;626;100 mA
121.904250692221;-0.89935302734375;-0.056427001953125;6.25999998419502;627;100 mA
121.914250692196;-0.89935302734375;-0.056488037109375;6.26999998416977;628;100 mA
121.924250692171;-0.899658203125;-0.0567626953125;6.27999998414452;629;100 mA
121.934250692146;-0.89935302734375;-0.056854248046875;6.28999998411928;630;100 mA
121.94425069212;-0.89996337890625;-0.05682373046875;6.29999998409403;631;100 mA
121.954250692095;-0.89935302734375;-0.056915283203125;6.30999998406878;632;100 mA
121.96425069207;-0.899658203125;-0.056915283203125;6.31999998404353;633;100 mA
121.974250692045;-0.899658203125;-0.056854248046875;6.32999998401829;634;100 mA
121.984250692019;-0.89996337890625;-0.05694580078125;6.33999998399304;635;100 mA
121.994250691994;-0.89935302734375;-0.056976318359375;6.34999998396779;636;100 mA
122.004250691969;-0.899658203125;-0.0570068359375;6.35999998394254;637;100 mA
122.014250691944;-0.899658203125;-0.0570068359375;6.3699999839173;638;100 mA
122.024250691918;-0.8990478515625;-0.056854248046875;6.37999998389205;639;100 mA
122.034250691893;-0.899658203125;-0.056793212890625;6.3899999838668;640;100 mA
122.044250691868;-0.89935302734375;-0.05694580078125;6.39999998384155;641;100 mA
122.054250691843;-0.89996337890625;-0.05694580078125;6.40999998381631;642;100 mA
122.064250691817;-0.89996337890625;-0.057037353515625;6.41999998379106;643;100 mA
122.074250691792;-0.89935302734375;-0.057098388671875;6.42999998376581;644;100 mA
122.084250691767;-0.899658203125;-0.05712890625;6.43999998374056;645;100 mA
122.094250691742;-0.8990478515625;-0.0570068359375;6.44999998371532;646;100 mA
122.104250691716;-0.899658203125;-0.05706787109375;6.45999998369007;647;100 mA
122.114250691691;-0.8990478515625;-0.0570068359375;6.46999998366482;648;100 mA
122.124250691666;-0.89935302734375;-0.05712890625;6.47999998363957;649;100 mA
122.134250691641;-0.89874267578125;-0.057159423828125;6.48999998361433;650;100 mA
122.144250691615;-0.8990478515625;-0.05706787109375;6.49999998358908;651;100 mA
122.15425069159;-0.8990478515625;-0.057159423828125;6.50999998356383;652;100 mA
122.164250691565;-0.8990478515625;-0.057281494140625;6.51999998353858;653;100 mA
122.17425069154;-0.89996337890625;-0.05731201171875;6.52999998351333;654;100 mA
122.184250691514;-0.89996337890625;-0.057281494140625;6.53999998348809;655;100 mA
122.194250691489;-0.899658203125;-0.057373046875;6.54999998346284;656;100 mA
122.204250691464;-0.899658203125;-0.057464599609375;6.55999998343759;657;100 mA
122.214250691439;-0.9002685546875;-0.057342529296875;6.56999998341234;658;100 mA
122.224250691413;-0.89996337890625;-0.057342529296875;6.5799999833871;659;100 mA
122.234250691388;-0.899658203125;-0.057281494140625;6.58999998336185;660;100 mA
122.244250691363;-0.89935302734375;-0.05731201171875;6.5999999833366;661;100 mA
122.254250691338;-0.8990478515625;-0.057281494140625;6.60999998331135;662;100 mA
122.264250691312;-0.8990478515625;-0.057159423828125;6.61999998328611;663;100 mA
122.274250691287;-0.89935302734375;-0.057159423828125;6.62999998326086;664;100 mA
122.284250691262;-0.89935302734375;-0.057403564453125;6.63999998323561;665;100 mA
122.294250691237;-0.89935302734375;-0.057464599609375;6.64999998321036;666;100 mA
122.304250691211;-0.89935302734375;-0.057403564453125;6.65999998318512;667;100 mA
122.314250691186;-0.89935302734375;-0.057525634765625;6.66999998315987;668;100 mA
122.324250691161;-0.89996337890625;-0.057586669921875;6.67999998313462;669;100 mA
122.334250691136;-0.89935302734375;-0.057342529296875;6.68999998310937;670;100 mA
122.34425069111;-0.89996337890625;-0.05731201171875;6.69999998308413;671;100 mA
122.354250691085;-0.899658203125;-0.0572509765625;6.70999998305888;672;100 mA
122.36425069106;-0.899658203125;-0.0572509765625;6.71999998303363;673;100 mA
122.374250691035;-0.89935302734375;-0.05718994140625;6.72999998300838;674;100 mA
122.384250691009;-0.899658203125;-0.05712890625;6.73999998298314;675;100 mA
122.394250690984;-0.89935302734375;-0.057098388671875;6.74999998295789;676;100 mA
122.404250690959;-0.89935302734375;-0.057220458984375;6.75999998293264;677;100 mA
122.414250690934;-0.899658203125;-0.057281494140625;6.76999998290739;678;100 mA
122.424250690908;-0.89935302734375;-0.05718994140625;6.77999998288215;679;100 mA
122.434250690883;-0.89935302734375;-0.057342529296875;6.7899999828569;680;100 mA
122.444250690858;-0.89935302734375;-0.057403564453125;6.79999998283165;681;100 mA
122.454250690833;-0.8990478515625;-0.05731201171875;6.8099999828064;682;100 mA
122.464250690807;-0.89935302734375;-0.05718994140625;6.81999998278116;683;100 mA
122.474250690782;-0.89935302734375;-0.057098388671875;6.82999998275591;684;100 mA
122.484250690757;-0.8990478515625;-0.0570068359375;6.83999998273066;685;100 mA
122.494250690732;-0.89874267578125;-0.05694580078125;6.84999998270541;686;100 mA
122.504250690706;-0.89935302734375;-0.0567626953125;6.85999998268016;687;100 mA
122.514250690681;-0.899658203125;-0.056793212890625;6.86999998265492;688;100 mA
122.524250690656;-0.89935302734375;-0.05694580078125;6.87999998262967;689;100 mA
122.534250690631;-0.8990478515625;-0.056976318359375;6.88999998260442;690;100 mA
122.544250690606;-0.89935302734375;-0.056884765625;6.89999998257917;691;100 mA
122.55425069058;-0.899658203125;-0.056854248046875;6.90999998255393;692;100 mA
122.564250690555;-0.89935302734375;-0.0567626953125;6.91999998252868;693;100 mA
122.57425069053;-0.89935302734375;-0.056671142578125;6.92999998250343;694;100 mA
122.584250690505;-0.8990478515625;-0.056671142578125;6.93999998247818;695;100 mA
122.594250690479;-0.89935302734375;-0.05657958984375;6.94999998245294;696;100 mA
122.604250690454;-0.89996337890625;-0.0565185546875;6.95999998242769;697;100 mA
122.614250690429;-0.89935302734375;-0.05645751953125;6.96999998240244;698;100 mA
122.624250690404;-0.89935302734375;-0.0562744140625;6.97999998237719;699;100 mA
122.634250690378;-0.89996337890625;-0.056182861328125;6.98999998235195;700;100 mA
122.644250690353;-0.899658203125;-0.056365966796875;6.9999999823267;701;100 mA
122.654250690328;-0.89935302734375;-0.056365966796875;7.00999998230145;702;100 mA
122.664250690303;-0.899658203125;-0.05645751953125;7.0199999822762;703;100 mA
122.674250690277;-0.899658203125;-0.05645751953125;7.02999998225096;704;100 mA
122.684250690252;-0.8990478515625;-0.05645751953125;7.03999998222571;705;100 mA
122.694250690227;-0.89935302734375;-0.0562744140625;7.04999998220046;706;100 mA
122.704250690202;-0.89935302734375;-0.056243896484375;7.05999998217521;707;100 mA
122.714250690176;-0.899658203125;-0.056121826171875;7.06999998214997;708;100 mA
122.724250690151;-0.899658203125;-0.05615234375;7.07999998212472;709;100 mA
122.734250690126;-0.89935302734375;-0.05609130859375;7.08999998209947;710;100 mA
122.744250690101;-0.89935302734375;-0.05596923828125;7.09999998207422;711;100 mA
122.754250690075;-0.89935302734375;-0.0560302734375;7.10999998204898;712;100 mA
122.76425069005;-0.899658203125;-0.056121826171875;7.11999998202373;713;100 mA
122.774250690025;-0.89935302734375;-0.056121826171875;7.12999998199848;714;100 mA
122.78425069;-0.89935302734375;-0.0560302734375;7.13999998197323;715;100 mA
122.794250689974;-0.899658203125;-0.05609130859375;7.14999998194799;716;100 mA
122.804250689949;-0.89996337890625;-0.056121826171875;7.15999998192274;717;100 mA
122.814250689924;-0.89935302734375;-0.05596923828125;7.16999998189749;718;100 mA
122.824250689899;-0.89996337890625;-0.055908203125;7.17999998187224;719;100 mA
122.834250689873;-0.8990478515625;-0.055877685546875;7.189999981847;720;100 mA
122.844250689848;-0.89935302734375;-0.05584716796875;7.19999998182175;721;100 mA
122.854250689823;-0.8990478515625;-0.055816650390625;7.2099999817965;722;100 mA
122.864250689798;-0.899658203125;-0.05572509765625;7.21999998177125;723;100 mA
122.874250689772;-0.899658203125;-0.055694580078125;7.229999981746;724;100 mA
122.884250689747;-0.899658203125;-0.05596923828125;7.23999998172076;725;100 mA
122.894250689722;-0.89996337890625;-0.055999755859375;7.24999998169551;726;100 mA
122.904250689697;-0.899658203125;-0.05596923828125;7.25999998167026;727;100 mA
122.914250689671;-0.8990478515625;-0.0560302734375;7.26999998164501;728;100 mA
122.924250689646;-0.89935302734375;-0.05609130859375;7.27999998161977;729;100 mA
122.934250689621;-0.89935302734375;-0.055908203125;7.28999998159452;730;100 mA
122.944250689596;-0.899658203125;-0.055938720703125;7.29999998156927;731;100 mA
122.95425068957;-0.89935302734375;-0.055938720703125;7.30999998154402;732;100 mA
122.964250689545;-0.899658203125;-0.055938720703125;7.31999998151878;733;100 mA
122.97425068952;-0.899658203125;-0.055877685546875;7.32999998149353;734;100 mA
122.984250689495;-0.89935302734375;-0.055816650390625;7.33999998146828;735;100 mA
122.994250689469;-0.89935302734375;-0.0557861328125;7.34999998144303;736;100 mA
123.004250689444;-0.89996337890625;-0.055938720703125;7.35999998141779;737;100 mA
123.014250689419;-0.89996337890625;-0.055999755859375;7.36999998139254;738;100 mA
123.024250689394;-0.8990478515625;-0.055938720703125;7.37999998136729;739;100 mA
123.034250689368;-0.8990478515625;-0.05609130859375;7.38999998134204;740;100 mA
123.044250689343;-0.899658203125;-0.056121826171875;7.3999999813168;741;100 mA
123.054250689318;-0.9002685546875;-0.0560302734375;7.40999998129155;742;100 mA
123.064250689293;-0.89935302734375;-0.055999755859375;7.4199999812663;743;100 mA
123.074250689267;-0.899658203125;-0.055938720703125;7.42999998124105;744;100 mA
123.084250689242;-0.899658203125;-0.055877685546875;7.43999998121581;745;100 mA
123.094250689217;-0.89996337890625;-0.055877685546875;7.44999998119056;746;100 mA
123.104250689192;-0.89996337890625;-0.055755615234375;7.45999998116531;747;100 mA
123.114250689166;-0.89996337890625;-0.0557861328125;7.46999998114006;748;100 mA
123.124250689141;-0.899658203125;-0.05596923828125;7.47999998111482;749;100 mA
123.134250689116;-0.89935302734375;-0.055999755859375;7.48999998108957;750;100 mA
123.144250689091;-0.899658203125;-0.055999755859375;7.49999998106432;751;100 mA
123.154250689065;-0.89935302734375;-0.0560302734375;7.50999998103907;752;100 mA
123.16425068904;-0.89996337890625;-0.055999755859375;7.51999998101383;753;100 mA
123.174250689015;-0.89935302734375;-0.05596923828125;7.52999998098858;754;100 mA
123.18425068899;-0.89996337890625;-0.05596923828125;7.53999998096333;755;100 mA
123.194250688964;-0.89935302734375;-0.055938720703125;7.54999998093808;756;100 mA
123.204250688939;-0.8990478515625;-0.055877685546875;7.55999998091283;757;100 mA
123.214250688914;-0.89935302734375;-0.055816650390625;7.56999998088759;758;100 mA
123.224250688889;-0.89935302734375;-0.0556640625;7.57999998086234;759;100 mA
123.234250688863;-0.89935302734375;-0.055633544921875;7.58999998083709;760;100 mA
123.244250688838;-0.899658203125;-0.055816650390625;7.59999998081184;761;100 mA
123.254250688813;-0.899658203125;-0.05584716796875;7.6099999807866;762;100 mA
123.264250688788;-0.8990478515625;-0.05596923828125;7.61999998076135;763;100 mA
123.274250688762;-0.899658203125;-0.0560302734375;7.6299999807361;764;100 mA
123.284250688737;-0.89935302734375;-0.05609130859375;7.63999998071085;765;100 mA
123.294250688712;-0.8990478515625;-0.055938720703125;7.64999998068561;766;100 mA
123.304250688687;-0.899658203125;-0.055908203125;7.65999998066036;767;100 mA
123.314250688661;-0.89935302734375;-0.055816650390625;7.66999998063511;768;100 mA
123.324250688636;-0.89935302734375;-0.055816650390625;7.67999998060986;769;100 mA
123.334250688611;-0.89935302734375;-0.055694580078125;7.68999998058462;770;100 mA
123.344250688586;-0.89935302734375;-0.0555419921875;7.69999998055937;771;100 mA
123.35425068856;-0.899658203125;-0.05560302734375;7.70999998053412;772;100 mA
123.364250688535;-0.899658203125;-0.055694580078125;7.71999998050887;773;100 mA
123.37425068851;-0.899658203125;-0.055694580078125;7.72999998048363;774;100 mA
123.384250688485;-0.8990478515625;-0.055633544921875;7.73999998045838;775;100 mA
123.394250688459;-0.899658203125;-0.05572509765625;7.74999998043313;776;100 mA
123.404250688434;-0.899658203125;-0.05584716796875;7.75999998040788;777;100 mA
123.414250688409;-0.89996337890625;-0.0557861328125;7.76999998038264;778;100 mA
123.424250688384;-0.899658203125;-0.05584716796875;7.77999998035739;779;100 mA
123.434250688358;-0.899658203125;-0.055816650390625;7.78999998033214;780;100 mA
123.444250688333;-0.8990478515625;-0.055816650390625;7.79999998030689;781;100 mA
123.454250688308;-0.89935302734375;-0.05572509765625;7.80999998028165;782;100 mA
123.464250688283;-0.899658203125;-0.055633544921875;7.8199999802564;783;100 mA
123.474250688257;-0.899658203125;-0.055633544921875;7.82999998023115;784;100 mA
123.484250688232;-0.89996337890625;-0.05584716796875;7.8399999802059;785;100 mA
123.494250688207;-0.89935302734375;-0.055908203125;7.84999998018066;786;100 mA
123.504250688182;-0.89935302734375;-0.055816650390625;7.85999998015541;787;100 mA
123.514250688156;-0.89935302734375;-0.05584716796875;7.86999998013016;788;100 mA
123.524250688131;-0.89935302734375;-0.05584716796875;7.87999998010491;789;100 mA
123.534250688106;-0.89935302734375;-0.0556640625;7.88999998007966;790;100 mA
123.544250688081;-0.89935302734375;-0.055694580078125;7.89999998005442;791;100 mA
123.554250688056;-0.89996337890625;-0.0556640625;7.90999998002917;792;100 mA
123.56425068803;-0.899658203125;-0.05572509765625;7.91999998000392;793;100 mA
123.574250688005;-0.8990478515625;-0.055694580078125;7.92999997997867;794;100 mA
123.58425068798;-0.89935302734375;-0.0556640625;7.93999997995343;795;100 mA
123.594250687955;-0.899658203125;-0.0556640625;7.94999997992818;796;100 mA
123.604250687929;-0.89935302734375;-0.055816650390625;7.95999997990293;797;100 mA
123.614250687904;-0.89935302734375;-0.055938720703125;7.96999997987768;798;100 mA
123.624250687879;-0.89996337890625;-0.055938720703125;7.97999997985244;799;100 mA
123.634250687854;-0.89996337890625;-0.056121826171875;7.98999997982719;800;100 mA
123.644250687828;-0.8990478515625;-0.05609130859375;7.99999997980194;801;100 mA
123.654250687803;-0.899658203125;-0.055999755859375;8.00999997977669;802;100 mA
123.664250687778;-0.89935302734375;-0.055938720703125;8.01999997975145;803;100 mA
123.674250687753;-0.899658203125;-0.055816650390625;8.0299999797262;804;100 mA
123.684250687727;-0.899658203125;-0.055816650390625;8.03999997970095;805;100 mA
123.694250687702;-0.899658203125;-0.055816650390625;8.0499999796757;806;100 mA
123.704250687677;-0.89996337890625;-0.055694580078125;8.05999997965046;807;100 mA
123.714250687652;-0.89935302734375;-0.055755615234375;8.06999997962521;808;100 mA
123.724250687626;-0.899658203125;-0.055938720703125;8.07999997959996;809;100 mA
123.734250687601;-0.89935302734375;-0.05596923828125;8.08999997957471;810;100 mA
123.744250687576;-0.89935302734375;-0.055938720703125;8.09999997954947;811;100 mA
123.754250687551;-0.899658203125;-0.05596923828125;8.10999997952422;812;100 mA
123.764250687525;-0.899658203125;-0.055908203125;8.11999997949897;813;100 mA
123.7742506875;-0.89996337890625;-0.05584716796875;8.12999997947372;814;100 mA
123.784250687475;-0.899658203125;-0.055816650390625;8.13999997944848;815;100 mA
123.79425068745;-0.89874267578125;-0.05572509765625;8.14999997942323;816;100 mA
123.804250687424;-0.89935302734375;-0.055694580078125;8.15999997939798;817;100 mA
123.814250687399;-0.8990478515625;-0.0556640625;8.16999997937273;818;100 mA
123.824250687374;-0.89996337890625;-0.055511474609375;8.17999997934749;819;100 mA
123.834250687349;-0.89935302734375;-0.05548095703125;8.18999997932224;820;100 mA
123.844250687323;-0.89935302734375;-0.055633544921875;8.19999997929699;821;100 mA
123.854250687298;-0.89935302734375;-0.05560302734375;8.20999997927174;822;100 mA
123.864250687273;-0.89935302734375;-0.0556640625;8.2199999792465;823;100 mA
123.874250687248;-0.899658203125;-0.055633544921875;8.22999997922125;824;100 mA
123.884250687222;-0.89935302734375;-0.055633544921875;8.239999979196;825;100 mA
123.894250687197;-0.89935302734375;-0.05548095703125;8.24999997917075;826;100 mA
123.904250687172;-0.89935302734375;-0.055419921875;8.2599999791455;827;100 mA
123.914250687147;-0.899658203125;-0.055389404296875;8.26999997912026;828;100 mA
123.924250687121;-0.89935302734375;-0.05535888671875;8.27999997909501;829;100 mA
123.934250687096;-0.89935302734375;-0.0552978515625;8.28999997906976;830;100 mA
123.944250687071;-0.89996337890625;-0.05517578125;8.29999997904451;831;100 mA
123.954250687046;-0.89935302734375;-0.055267333984375;8.30999997901927;832;100 mA
123.96425068702;-0.8990478515625;-0.055389404296875;8.31999997899402;833;100 mA
123.974250686995;-0.89935302734375;-0.055419921875;8.32999997896877;834;100 mA
123.98425068697;-0.89935302734375;-0.055328369140625;8.33999997894352;835;100 mA
123.994250686945;-0.89996337890625;-0.055328369140625;8.34999997891828;836;100 mA
124.004250686919;-0.899658203125;-0.055389404296875;8.35999997889303;837;100 mA
124.014250686894;-0.899658203125;-0.055267333984375;8.36999997886778;838;100 mA
124.024250686869;-0.8990478515625;-0.055267333984375;8.37999997884253;839;100 mA
124.034250686844;-0.899658203125;-0.05523681640625;8.38999997881729;840;100 mA
124.044250686818;-0.899658203125;-0.05517578125;8.39999997879204;841;100 mA
124.054250686793;-0.89935302734375;-0.05511474609375;8.40999997876679;842;100 mA
124.064250686768;-0.8990478515625;-0.055023193359375;8.41999997874154;843;100 mA
124.074250686743;-0.89996337890625;-0.055023193359375;8.4299999787163;844;100 mA
124.084250686717;-0.8990478515625;-0.055267333984375;8.43999997869105;845;100 mA
124.094250686692;-0.899658203125;-0.055389404296875;8.4499999786658;846;100 mA
124.104250686667;-0.89935302734375;-0.05535888671875;8.45999997864055;847;100 mA
124.114250686642;-0.89996337890625;-0.05535888671875;8.46999997861531;848;100 mA
124.124250686616;-0.899658203125;-0.055328369140625;8.47999997859006;849;100 mA
124.134250686591;-0.899658203125;-0.055084228515625;8.48999997856481;850;100 mA
124.144250686566;-0.899658203125;-0.055084228515625;8.49999997853956;851;100 mA
124.154250686541;-0.899658203125;-0.055023193359375;8.50999997851432;852;100 mA
124.164250686515;-0.899658203125;-0.0550537109375;8.51999997848907;853;100 mA
124.17425068649;-0.8990478515625;-0.05499267578125;8.52999997846382;854;100 mA
124.184250686465;-0.899658203125;-0.054901123046875;8.53999997843857;855;100 mA
124.19425068644;-0.899658203125;-0.05487060546875;8.54999997841333;856;100 mA
124.204250686414;-0.89935302734375;-0.05499267578125;8.55999997838808;857;100 mA
124.214250686389;-0.89935302734375;-0.055084228515625;8.56999997836283;858;100 mA
124.224250686364;-0.89935302734375;-0.0550537109375;8.57999997833758;859;100 mA
124.234250686339;-0.89935302734375;-0.05517578125;8.58999997831233;860;100 mA
124.244250686313;-0.89935302734375;-0.05511474609375;8.59999997828709;861;100 mA
124.254250686288;-0.899658203125;-0.054962158203125;8.60999997826184;862;100 mA
124.264250686263;-0.899658203125;-0.054901123046875;8.61999997823659;863;100 mA
124.274250686238;-0.89935302734375;-0.054779052734375;8.62999997821134;864;100 mA
124.284250686212;-0.89874267578125;-0.054779052734375;8.6399999781861;865;100 mA
124.294250686187;-0.89935302734375;-0.0548095703125;8.64999997816085;866;100 mA
124.304250686162;-0.89996337890625;-0.054718017578125;8.6599999781356;867;100 mA
124.314250686137;-0.89935302734375;-0.054779052734375;8.66999997811035;868;100 mA
124.324250686111;-0.8990478515625;-0.054931640625;8.67999997808511;869;100 mA
124.334250686086;-0.8990478515625;-0.054962158203125;8.68999997805986;870;100 mA
124.344250686061;-0.89935302734375;-0.054931640625;8.69999997803461;871;100 mA
124.354250686036;-0.89996337890625;-0.054962158203125;8.70999997800936;872;100 mA
124.36425068601;-0.89935302734375;-0.054931640625;8.71999997798412;873;100 mA
124.374250685985;-0.89996337890625;-0.05487060546875;8.72999997795887;874;100 mA
124.38425068596;-0.8990478515625;-0.054840087890625;8.73999997793362;875;100 mA
124.394250685935;-0.89935302734375;-0.05474853515625;8.74999997790837;876;100 mA
124.404250685909;-0.899658203125;-0.054718017578125;8.75999997788313;877;100 mA
124.414250685884;-0.899658203125;-0.054718017578125;8.76999997785788;878;100 mA
124.424250685859;-0.89935302734375;-0.05462646484375;8.77999997783263;879;100 mA
124.434250685834;-0.899658203125;-0.05462646484375;8.78999997780738;880;100 mA
124.444250685808;-0.89935302734375;-0.0548095703125;8.79999997778214;881;100 mA
124.454250685783;-0.899658203125;-0.0548095703125;8.80999997775689;882;100 mA
124.464250685758;-0.899658203125;-0.054840087890625;8.81999997773164;883;100 mA
124.474250685733;-0.89996337890625;-0.0548095703125;8.82999997770639;884;100 mA
124.484250685707;-0.89996337890625;-0.05487060546875;8.83999997768115;885;100 mA
124.494250685682;-0.8990478515625;-0.054779052734375;8.8499999776559;886;100 mA
124.504250685657;-0.89935302734375;-0.054718017578125;8.85999997763065;887;100 mA
124.514250685632;-0.89935302734375;-0.054656982421875;8.8699999776054;888;100 mA
124.524250685606;-0.899658203125;-0.054656982421875;8.87999997758016;889;100 mA
124.534250685581;-0.8990478515625;-0.05462646484375;8.88999997755491;890;100 mA
124.544250685556;-0.89935302734375;-0.054534912109375;8.89999997752966;891;100 mA
124.554250685531;-0.899658203125;-0.05462646484375;8.90999997750441;892;100 mA
124.564250685505;-0.89935302734375;-0.054718017578125;8.91999997747916;893;100 mA
124.57425068548;-0.89996337890625;-0.054718017578125;8.92999997745392;894;100 mA
124.584250685455;-0.89935302734375;-0.054656982421875;8.93999997742867;895;100 mA
124.59425068543;-0.899658203125;-0.054656982421875;8.94999997740342;896;100 mA
124.604250685405;-0.899658203125;-0.05474853515625;8.95999997737817;897;100 mA
124.614250685379;-0.89935302734375;-0.054656982421875;8.96999997735293;898;100 mA
124.624250685354;-0.8990478515625;-0.054656982421875;8.97999997732768;899;100 mA
124.634250685329;-0.89996337890625;-0.05462646484375;8.98999997730243;900;100 mA
124.644250685304;-0.89996337890625;-0.0545654296875;8.99999997727718;901;100 mA
124.654250685278;-0.899658203125;-0.05450439453125;9.00999997725194;902;100 mA
124.664250685253;-0.899658203125;-0.05438232421875;9.01999997722669;903;100 mA
124.674250685228;-0.89996337890625;-0.054351806640625;9.02999997720144;904;100 mA
124.684250685203;-0.89996337890625;-0.054595947265625;9.03999997717619;905;100 mA
124.694250685177;-0.89935302734375;-0.054656982421875;9.04999997715095;906;100 mA
124.704250685152;-0.899658203125;-0.054595947265625;9.0599999771257;907;100 mA
124.714250685127;-0.89996337890625;-0.05462646484375;9.06999997710045;908;100 mA
124.724250685102;-0.8990478515625;-0.05462646484375;9.0799999770752;909;100 mA
124.734250685076;-0.89935302734375;-0.05450439453125;9.08999997704996;910;100 mA
124.744250685051;-0.899658203125;-0.054534912109375;9.09999997702471;911;100 mA
124.754250685026;-0.899658203125;-0.05450439453125;9.10999997699946;912;100 mA
124.764250685001;-0.899658203125;-0.0545654296875;9.11999997697421;913;100 mA
124.774250684975;-0.899658203125;-0.054534912109375;9.12999997694897;914;100 mA
124.78425068495;-0.8990478515625;-0.054473876953125;9.13999997692372;915;100 mA
124.794250684925;-0.89935302734375;-0.054412841796875;9.14999997689847;916;100 mA
124.8042506849;-0.89935302734375;-0.054534912109375;9.15999997687322;917;100 mA
124.814250684874;-0.89935302734375;-0.05462646484375;9.16999997684798;918;100 mA
124.824250684849;-0.899658203125;-0.054656982421875;9.17999997682273;919;100 mA
124.834250684824;-0.89935302734375;-0.0548095703125;9.18999997679748;920;100 mA
124.844250684799;-0.899658203125;-0.0548095703125;9.19999997677223;921;100 mA
124.854250684773;-0.89935302734375;-0.054718017578125;9.20999997674699;922;100 mA
124.864250684748;-0.8990478515625;-0.054718017578125;9.21999997672174;923;100 mA
124.874250684723;-0.89935302734375;-0.054595947265625;9.22999997669649;924;100 mA
124.884250684698;-0.899658203125;-0.05462646484375;9.23999997667124;925;100 mA
124.894250684672;-0.899658203125;-0.054656982421875;9.249999976646;926;100 mA
124.904250684647;-0.89996337890625;-0.054534912109375;9.25999997662075;927;100 mA
124.914250684622;-0.89935302734375;-0.054595947265625;9.2699999765955;928;100 mA
124.924250684597;-0.89935302734375;-0.054718017578125;9.27999997657025;929;100 mA
124.934250684571;-0.899658203125;-0.05474853515625;9.289999976545;930;100 mA
124.944250684546;-0.8990478515625;-0.05474853515625;9.29999997651976;931;100 mA
124.954250684521;-0.8990478515625;-0.054779052734375;9.30999997649451;932;100 mA
124.964250684496;-0.8990478515625;-0.05474853515625;9.31999997646926;933;100 mA
124.97425068447;-0.8990478515625;-0.054718017578125;9.32999997644401;934;100 mA
124.984250684445;-0.899658203125;-0.054718017578125;9.33999997641877;935;100 mA
124.99425068442;-0.89935302734375;-0.054656982421875;9.34999997639352;936;100 mA
125.004250684395;-0.899658203125;-0.054595947265625;9.35999997636827;937;100 mA
125.014250684369;-0.8990478515625;-0.054595947265625;9.36999997634302;938;100 mA
125.024250684344;-0.89935302734375;-0.054473876953125;9.37999997631778;939;100 mA
125.034250684319;-0.899658203125;-0.054412841796875;9.38999997629253;940;100 mA
125.044250684294;-0.89935302734375;-0.0545654296875;9.39999997626728;941;100 mA
125.054250684268;-0.89935302734375;-0.054534912109375;9.40999997624203;942;100 mA
125.064250684243;-0.89935302734375;-0.0545654296875;9.41999997621679;943;100 mA
125.074250684218;-0.899658203125;-0.0545654296875;9.42999997619154;944;100 mA
125.084250684193;-0.899658203125;-0.0545654296875;9.43999997616629;945;100 mA
125.094250684167;-0.89935302734375;-0.054473876953125;9.44999997614104;946;100 mA
125.104250684142;-0.89935302734375;-0.05438232421875;9.4599999761158;947;100 mA
125.114250684117;-0.89935302734375;-0.054351806640625;9.46999997609055;948;100 mA
125.124250684092;-0.899658203125;-0.054351806640625;9.4799999760653;949;100 mA
125.134250684066;-0.8990478515625;-0.0543212890625;9.48999997604005;950;100 mA
125.144250684041;-0.89935302734375;-0.05426025390625;9.49999997601481;951;100 mA
125.154250684016;-0.89935302734375;-0.0543212890625;9.50999997598956;952;100 mA
125.164250683991;-0.89935302734375;-0.054412841796875;9.51999997596431;953;100 mA
125.174250683965;-0.899658203125;-0.054443359375;9.52999997593906;954;100 mA
125.18425068394;-0.89935302734375;-0.05438232421875;9.53999997591382;955;100 mA
125.194250683915;-0.89935302734375;-0.054412841796875;9.54999997588857;956;100 mA
125.20425068389;-0.89935302734375;-0.05450439453125;9.55999997586332;957;100 mA
125.214250683864;-0.89935302734375;-0.05438232421875;9.56999997583807;958;100 mA
125.224250683839;-0.899658203125;-0.05438232421875;9.57999997581283;959;100 mA
125.234250683814;-0.89935302734375;-0.054412841796875;9.58999997578758;960;100 mA
125.244250683789;-0.8990478515625;-0.054351806640625;9.59999997576233;961;100 mA
125.254250683763;-0.89996337890625;-0.054351806640625;9.60999997573708;962;100 mA
125.264250683738;-0.899658203125;-0.05426025390625;9.61999997571183;963;100 mA
125.274250683713;-0.89935302734375;-0.05426025390625;9.62999997568659;964;100 mA
125.284250683688;-0.9002685546875;-0.054443359375;9.63999997566134;965;100 mA
125.294250683662;-0.89996337890625;-0.05450439453125;9.64999997563609;966;100 mA
125.304250683637;-0.8990478515625;-0.05438232421875;9.65999997561084;967;100 mA
125.314250683612;-0.89935302734375;-0.05438232421875;9.6699999755856;968;100 mA
125.324250683587;-0.899658203125;-0.054351806640625;9.67999997556035;969;100 mA
125.334250683561;-0.89935302734375;-0.05419921875;9.6899999755351;970;100 mA
125.344250683536;-0.899658203125;-0.05419921875;9.69999997550985;971;100 mA
125.354250683511;-0.89935302734375;-0.05419921875;9.70999997548461;972;100 mA
125.364250683486;-0.89935302734375;-0.054229736328125;9.71999997545936;973;100 mA
125.37425068346;-0.89996337890625;-0.05419921875;9.72999997543411;974;100 mA
125.384250683435;-0.89996337890625;-0.05413818359375;9.73999997540886;975;100 mA
125.39425068341;-0.89935302734375;-0.054107666015625;9.74999997538362;976;100 mA
125.404250683385;-0.9002685546875;-0.05426025390625;9.75999997535837;977;100 mA
125.414250683359;-0.8990478515625;-0.0543212890625;9.76999997533312;978;100 mA
125.424250683334;-0.899658203125;-0.0543212890625;9.77999997530787;979;100 mA
125.434250683309;-0.899658203125;-0.054412841796875;9.78999997528263;980;100 mA
125.444250683284;-0.89996337890625;-0.054351806640625;9.79999997525738;981;100 mA
125.454250683258;-0.8990478515625;-0.05419921875;9.80999997523213;982;100 mA
125.464250683233;-0.8990478515625;-0.05413818359375;9.81999997520688;983;100 mA
125.474250683208;-0.899658203125;-0.05401611328125;9.82999997518164;984;100 mA
125.484250683183;-0.899658203125;-0.0540771484375;9.83999997515639;985;100 mA
125.494250683157;-0.89935302734375;-0.054107666015625;9.84999997513114;986;100 mA
125.504250683132;-0.8990478515625;-0.0540771484375;9.85999997510589;987;100 mA
125.514250683107;-0.8990478515625;-0.054168701171875;9.86999997508065;988;100 mA
125.524250683082;-0.89935302734375;-0.054412841796875;9.8799999750554;989;100 mA
125.534250683056;-0.899658203125;-0.054412841796875;9.88999997503015;990;100 mA
125.544250683031;-0.89996337890625;-0.054412841796875;9.8999999750049;991;100 mA
125.554250683006;-0.899658203125;-0.054412841796875;9.90999997497966;992;100 mA
125.564250682981;-0.89935302734375;-0.054351806640625;9.91999997495441;993;100 mA
125.574250682955;-0.89935302734375;-0.05426025390625;9.92999997492916;994;100 mA
125.58425068293;-0.899658203125;-0.05419921875;9.93999997490391;995;100 mA
125.594250682905;-0.89874267578125;-0.0540771484375;9.94999997487866;996;100 mA
125.60425068288;-0.89935302734375;-0.05401611328125;9.95999997485342;997;100 mA
125.614250682855;-0.8990478515625;-0.05401611328125;9.96999997482817;998;100 mA
125.624250682829;-0.89996337890625;-0.053924560546875;9.97999997480292;999;100 mA
125.634250682804;-0.899658203125;-0.053924560546875;9.98999997477767;1000;100 mA
