Time (s);WE(1).Potential (V);WE(1).Current (A);Corrected time (s);Index;Current range
0.514165998701856;0.400634765625;0.01517333984375;0;1;100 mA
0.524165998676608;0.400634765625;0.0109344482421875;0.00999999997475243;2;100 mA
0.53416599865136;0.4005126953125;0.008563232421875;0.0199999999495049;3;100 mA
0.544165998626113;0.400604248046875;0.0072021484375;0.0299999999242573;4;100 mA
0.554165998600865;0.40057373046875;0.00623779296875;0.0399999998990097;5;100 mA
0.564165998575618;0.400543212890625;0.005462646484375;0.0499999998737621;6;100 mA
0.57416599855037;0.400665283203125;0.0049224853515625;0.0599999998485146;7;100 mA
0.584165998525123;0.400421142578125;0.004510498046875;0.069999999823267;8;100 mA
0.594165998499875;0.400604248046875;0.0041351318359375;0.0799999997980194;9;100 mA
0.604165998474627;0.4005126953125;0.0038250732421875;0.0899999997727718;10;100 mA
0.61416599844938;0.400604248046875;0.003607177734375;0.0999999997475243;11;100 mA
0.624165998424132;0.40057373046875;0.00343109130859375;0.109999999722277;12;100 mA
0.634165998398885;0.400665283203125;0.00316162109375;0.119999999697029;13;100 mA
0.644165998373637;0.400726318359375;0.00306182861328125;0.129999999671782;14;100 mA
0.65416599834839;0.400604248046875;0.00294586181640625;0.139999999646534;15;100 mA
0.664165998323142;0.400604248046875;0.00277252197265625;0.149999999621286;16;100 mA
0.674165998297894;0.400665283203125;0.0026641845703125;0.159999999596039;17;100 mA
0.684165998272647;0.400543212890625;0.0025848388671875;0.169999999570791;18;100 mA
0.694165998247399;0.400604248046875;0.0025457763671875;0.179999999545544;19;100 mA
0.704165998222152;0.400665283203125;0.00237152099609375;0.189999999520296;20;100 mA
0.714165998196904;0.40057373046875;0.00235748291015625;0.199999999495049;21;100 mA
0.724165998171657;0.400634765625;0.00229095458984375;0.209999999469801;22;100 mA
0.734165998146409;0.4005126953125;0.0022027587890625;0.219999999444553;23;100 mA
0.744165998121161;0.40069580078125;0.0021392822265625;0.229999999419306;24;100 mA
0.754165998095914;0.40045166015625;0.00213897705078125;0.239999999394058;25;100 mA
0.764165998070666;0.400604248046875;0.0020660400390625;0.249999999368811;26;100 mA
0.774165998045419;0.400604248046875;0.001983642578125;0.259999999343563;27;100 mA
0.784165998020171;0.40057373046875;0.0019720458984375;0.269999999318316;28;100 mA
0.794165997994924;0.400604248046875;0.0019586181640625;0.279999999293068;29;100 mA
0.804165997969676;0.400482177734375;0.001861572265625;0.28999999926782;30;100 mA
0.814165997944428;0.400665283203125;0.0018115234375;0.299999999242573;31;100 mA
0.824165997919181;0.400482177734375;0.0018426513671875;0.309999999217325;32;100 mA
0.834165997893933;0.400604248046875;0.001756591796875;0.319999999192078;33;100 mA
0.844165997868686;0.400543212890625;0.00173309326171875;0.32999999916683;34;100 mA
0.854165997843438;0.400482177734375;0.00172454833984375;0.339999999141583;35;100 mA
0.864165997818191;0.400543212890625;0.0017169189453125;0.349999999116335;36;100 mA
0.874165997792943;0.40069580078125;0.00162841796875;0.359999999091087;37;100 mA
0.884165997767695;0.400421142578125;0.00164886474609375;0.36999999906584;38;100 mA
0.894165997742448;0.40057373046875;0.00166412353515625;0.379999999040592;39;100 mA
0.9041659977172;0.40057373046875;0.00159576416015625;0.389999999015345;40;100 mA
0.914165997691953;0.40057373046875;0.00155792236328125;0.399999998990097;41;100 mA
0.924165997666705;0.400543212890625;0.00158111572265625;0.40999999896485;42;100 mA
0.934165997641458;0.4005126953125;0.00157257080078125;0.419999998939602;43;100 mA
0.94416599761621;0.400604248046875;0.00149505615234375;0.429999998914354;44;100 mA
0.954165997590962;0.400482177734375;0.00151702880859375;0.439999998889107;45;100 mA
0.964165997565715;0.400665283203125;0.00150390625;0.449999998863859;46;100 mA
0.974165997540467;0.40045166015625;0.00147186279296875;0.459999998838612;47;100 mA
0.98416599751522;0.4005126953125;0.00143829345703125;0.469999998813364;48;100 mA
0.994165997489972;0.4005126953125;0.00148162841796875;0.479999998788116;49;100 mA
1.00416599746472;0.40045166015625;0.00144317626953125;0.489999998762869;50;100 mA
1.01416599743948;0.4005126953125;0.00138885498046875;0.499999998737621;51;100 mA
1.02416599741423;0.400482177734375;0.00143463134765625;0.509999998712374;52;100 mA
1.03416599738898;0.400543212890625;0.00141845703125;0.519999998687126;53;100 mA
1.04416599736373;0.400543212890625;0.0013787841796875;0.529999998661879;54;100 mA
1.05416599733849;0.40045166015625;0.00135223388671875;0.539999998636631;55;100 mA
1.06416599731324;0.400482177734375;0.0014044189453125;0.549999998611383;56;100 mA
1.07416599728799;0.40057373046875;0.0013531494140625;0.559999998586136;57;100 mA
1.08416599726274;0.400482177734375;0.00133270263671875;0.569999998560888;58;100 mA
1.0941659972375;0.4005126953125;0.00134918212890625;0.579999998535641;59;100 mA
1.10416599721225;0.400421142578125;0.001358642578125;0.589999998510393;60;100 mA
1.114165997187;0.400634765625;0.00127655029296875;0.599999998485146;61;100 mA
1.12416599716175;0.400482177734375;0.00130859375;0.609999998459898;62;100 mA
1.13416599713651;0.400543212890625;0.0013226318359375;0.61999999843465;63;100 mA
1.14416599711126;0.40057373046875;0.00128082275390625;0.629999998409403;64;100 mA
1.15416599708601;0.40045166015625;0.0012652587890625;0.639999998384155;65;100 mA
1.16416599706076;0.400634765625;0.00126922607421875;0.649999998358908;66;100 mA
1.17416599703552;0.400421142578125;0.0012939453125;0.65999999833366;67;100 mA
1.18416599701027;0.400604248046875;0.00120635986328125;0.669999998308413;68;100 mA
1.19416599698502;0.400543212890625;0.00127197265625;0.679999998283165;69;100 mA
1.20416599695977;0.400665283203125;0.00125;0.689999998257917;70;100 mA
1.21416599693453;0.40057373046875;0.001217041015625;0.69999999823267;71;100 mA
1.22416599690928;0.4005126953125;0.0012060546875;0.709999998207422;72;100 mA
1.23416599688403;0.40045166015625;0.00123809814453125;0.719999998182175;73;100 mA
1.24416599685878;0.4005126953125;0.00121337890625;0.729999998156927;74;100 mA
1.25416599683354;0.40057373046875;0.0011553955078125;0.73999999813168;75;100 mA
1.26416599680829;0.4005126953125;0.00118499755859375;0.749999998106432;76;100 mA
1.27416599678304;0.40045166015625;0.00120635986328125;0.759999998081184;77;100 mA
1.28416599675779;0.400543212890625;0.00115509033203125;0.769999998055937;78;100 mA
1.29416599673254;0.400634765625;0.00114227294921875;0.779999998030689;79;100 mA
1.3041659967073;0.4005126953125;0.0011907958984375;0.789999998005442;80;100 mA
1.31416599668205;0.40069580078125;0.0011376953125;0.799999997980194;81;100 mA
1.3241659966568;0.400421142578125;0.00114593505859375;0.809999997954947;82;100 mA
1.33416599663155;0.400543212890625;0.0011328125;0.819999997929699;83;100 mA
1.34416599660631;0.40045166015625;0.00118377685546875;0.829999997904451;84;100 mA
1.35416599658106;0.400665283203125;0.001085205078125;0.839999997879204;85;100 mA
1.36416599655581;0.40057373046875;0.00113006591796875;0.849999997853956;86;100 mA
1.37416599653056;0.400543212890625;0.00115753173828125;0.859999997828709;87;100 mA
1.38416599650532;0.400665283203125;0.00111083984375;0.869999997803461;88;100 mA
1.39416599648007;0.40057373046875;0.0011126708984375;0.879999997778214;89;100 mA
1.40416599645482;0.400665283203125;0.001131591796875;0.889999997752966;90;100 mA
1.41416599642957;0.400543212890625;0.00116485595703125;0.899999997727718;91;100 mA
1.42416599640433;0.400634765625;0.0010858154296875;0.909999997702471;92;100 mA
1.43416599637908;0.400543212890625;0.0011328125;0.919999997677223;93;100 mA
1.44416599635383;0.400634765625;0.0011370849609375;0.929999997651976;94;100 mA
1.45416599632858;0.400543212890625;0.0011151123046875;0.939999997626728;95;100 mA
1.46416599630334;0.40069580078125;0.00107879638671875;0.949999997601481;96;100 mA
1.47416599627809;0.400390625;0.00115020751953125;0.959999997576233;97;100 mA
1.48416599625284;0.400665283203125;0.0011004638671875;0.969999997550985;98;100 mA
1.49416599622759;0.400543212890625;0.0010736083984375;0.979999997525738;99;100 mA
1.50416599620235;0.400604248046875;0.00111175537109375;0.98999999750049;100;100 mA
1.5141659961771;0.400665283203125;0.00110687255859375;0.999999997475243;101;100 mA
1.52416599615185;0.4005126953125;0.00107757568359375;1.00999999745;102;100 mA
1.5341659961266;0.400726318359375;0.0010504150390625;1.01999999742475;103;100 mA
1.54416599610136;0.40045166015625;0.00111480712890625;1.0299999973995;104;100 mA
1.55416599607611;0.4007568359375;0.00105560302734375;1.03999999737425;105;100 mA
1.56416599605086;0.4005126953125;0.00105743408203125;1.049999997349;106;100 mA
1.57416599602561;0.400665283203125;0.0010760498046875;1.05999999732376;107;100 mA
1.58416599600037;0.40057373046875;0.0010943603515625;1.06999999729851;108;100 mA
1.59416599597512;0.40069580078125;0.00102874755859375;1.07999999727326;109;100 mA
1.60416599594987;0.400665283203125;0.00107818603515625;1.08999999724801;110;100 mA
1.61416599592462;0.400604248046875;0.00109710693359375;1.09999999722277;111;100 mA
1.62416599589938;0.400634765625;0.00105712890625;1.10999999719752;112;100 mA
1.63416599587413;0.400634765625;0.0010345458984375;1.11999999717227;113;100 mA
1.64416599584888;0.400604248046875;0.001083984375;1.12999999714702;114;100 mA
1.65416599582363;0.400634765625;0.00109222412109375;1.13999999712178;115;100 mA
1.66416599579838;0.400604248046875;0.00103302001953125;1.14999999709653;116;100 mA
1.67416599577314;0.400604248046875;0.001090087890625;1.15999999707128;117;100 mA
1.68416599574789;0.400604248046875;0.00108001708984375;1.16999999704603;118;100 mA
1.69416599572264;0.400543212890625;0.00107147216796875;1.17999999702079;119;100 mA
1.70416599569739;0.400726318359375;0.0010546875;1.18999999699554;120;100 mA
1.71416599567215;0.400421142578125;0.00110748291015625;1.19999999697029;121;100 mA
1.7241659956469;0.40057373046875;0.00107452392578125;1.20999999694504;122;100 mA
1.73416599562165;0.400604248046875;0.00103973388671875;1.2199999969198;123;100 mA
1.7441659955964;0.40057373046875;0.0010919189453125;1.22999999689455;124;100 mA
1.75416599557116;0.400604248046875;0.0011053466796875;1.2399999968693;125;100 mA
1.76416599554591;0.400543212890625;0.00105072021484375;1.24999999684405;126;100 mA
1.77416599552066;0.400604248046875;0.00105682373046875;1.25999999681881;127;100 mA
1.78416599549541;0.4005126953125;0.00109771728515625;1.26999999679356;128;100 mA
1.79416599547017;0.400604248046875;0.0010540771484375;1.27999999676831;129;100 mA
1.80416599544492;0.400604248046875;0.00105255126953125;1.28999999674306;130;100 mA
1.81416599541967;0.400543212890625;0.001055908203125;1.29999999671782;131;100 mA
1.82416599539442;0.400543212890625;0.00108856201171875;1.30999999669257;132;100 mA
1.83416599536918;0.400726318359375;0.00099853515625;1.31999999666732;133;100 mA
1.84416599534393;0.4005126953125;0.0010711669921875;1.32999999664207;134;100 mA
1.85416599531868;0.400665283203125;0.0010650634765625;1.33999999661683;135;100 mA
1.86416599529343;0.400543212890625;0.00103607177734375;1.34999999659158;136;100 mA
1.87416599526819;0.40069580078125;0.001024169921875;1.35999999656633;137;100 mA
1.88416599524294;0.4005126953125;0.0010467529296875;1.36999999654108;138;100 mA
1.89416599521769;0.4005126953125;0.00107513427734375;1.37999999651583;139;100 mA
1.90416599519244;0.400634765625;0.0010113525390625;1.38999999649059;140;100 mA
1.9141659951672;0.40045166015625;0.00105255126953125;1.39999999646534;141;100 mA
1.92416599514195;0.400604248046875;0.001053466796875;1.40999999644009;142;100 mA
1.9341659951167;0.400482177734375;0.00102691650390625;1.41999999641484;143;100 mA
1.94416599509145;0.400604248046875;0.00101715087890625;1.4299999963896;144;100 mA
1.95416599506621;0.400421142578125;0.00107421875;1.43999999636435;145;100 mA
1.96416599504096;0.4005126953125;0.00102813720703125;1.4499999963391;146;100 mA
1.97416599501571;0.4005126953125;0.00100494384765625;1.45999999631385;147;100 mA
1.98416599499046;0.400390625;0.0010382080078125;1.46999999628861;148;100 mA
1.99416599496521;0.4005126953125;0.00107757568359375;1.47999999626336;149;100 mA
2.00416599493997;0.4005126953125;0.000995483398437499;1.48999999623811;150;100 mA
2.01416599491472;0.40045166015625;0.001007080078125;1.49999999621286;151;100 mA
2.02416599488947;0.400482177734375;0.00105743408203125;1.50999999618762;152;100 mA
2.03416599486422;0.40057373046875;0.000988159179687501;1.51999999616237;153;100 mA
2.04416599483898;0.400421142578125;0.00100830078125;1.52999999613712;154;100 mA
2.05416599481373;0.400482177734375;0.001009521484375;1.53999999611187;155;100 mA
2.06416599478848;0.400482177734375;0.001033935546875;1.54999999608663;156;100 mA
2.07416599476323;0.40069580078125;0.000965576171875;1.55999999606138;157;100 mA
2.08416599473799;0.40045166015625;0.00100738525390625;1.56999999603613;158;100 mA
2.09416599471274;0.40057373046875;0.0010345458984375;1.57999999601088;159;100 mA
2.10416599468749;0.400543212890625;0.00099395751953125;1.58999999598564;160;100 mA
2.11416599466224;0.400482177734375;0.00097869873046875;1.59999999596039;161;100 mA
2.124165994637;0.400604248046875;0.00101318359375;1.60999999593514;162;100 mA
2.13416599461175;0.400482177734375;0.0010198974609375;1.61999999590989;163;100 mA
2.1441659945865;0.400604248046875;0.000958251953125;1.62999999588465;164;100 mA
2.15416599456125;0.40045166015625;0.00100982666015625;1.6399999958594;165;100 mA
2.16416599453601;0.400604248046875;0.00101165771484375;1.64999999583415;166;100 mA
2.17416599451076;0.400543212890625;0.000985107421875001;1.6599999958089;167;100 mA
2.18416599448551;0.400482177734375;0.000957641601562501;1.66999999578366;168;100 mA
2.19416599446026;0.40045166015625;0.00102386474609375;1.67999999575841;169;100 mA
2.20416599443502;0.4005126953125;0.0009796142578125;1.68999999573316;170;100 mA
2.21416599440977;0.4005126953125;0.000955810546874999;1.69999999570791;171;100 mA
2.22416599438452;0.400543212890625;0.00099609375;1.70999999568267;172;100 mA
2.23416599435927;0.400421142578125;0.0009967041015625;1.71999999565742;173;100 mA
2.24416599433403;0.40057373046875;0.00095794677734375;1.72999999563217;174;100 mA
2.25416599430878;0.400482177734375;0.00095977783203125;1.73999999560692;175;100 mA
2.26416599428353;0.4005126953125;0.000989685058593751;1.74999999558167;176;100 mA
2.27416599425828;0.400665283203125;0.000951538085937501;1.75999999555643;177;100 mA
2.28416599423304;0.400482177734375;0.0009527587890625;1.76999999553118;178;100 mA
2.29416599420779;0.400665283203125;0.000965576171875;1.77999999550593;179;100 mA
2.30416599418254;0.400421142578125;0.000992736816406251;1.78999999548068;180;100 mA
2.31416599415729;0.400604248046875;0.00090789794921875;1.79999999545544;181;100 mA
2.32416599413204;0.4005126953125;0.00097808837890625;1.80999999543019;182;100 mA
2.3341659941068;0.40057373046875;0.000977172851562499;1.81999999540494;183;100 mA
2.34416599408155;0.400604248046875;0.000953369140625;1.82999999537969;184;100 mA
2.3541659940563;0.400604248046875;0.00093109130859375;1.83999999535445;185;100 mA
2.36416599403105;0.400665283203125;0.0009686279296875;1.8499999953292;186;100 mA
2.37416599400581;0.400604248046875;0.00098602294921875;1.85999999530395;187;100 mA
2.38416599398056;0.400543212890625;0.000925292968749999;1.8699999952787;188;100 mA
2.39416599395531;0.40045166015625;0.0009808349609375;1.87999999525346;189;100 mA
2.40416599393006;0.400665283203125;0.00096923828125;1.88999999522821;190;100 mA
2.41416599390482;0.40057373046875;0.000950927734375;1.89999999520296;191;100 mA
2.42416599387957;0.400634765625;0.0009356689453125;1.90999999517771;192;100 mA
2.43416599385432;0.400421142578125;0.00099151611328125;1.91999999515247;193;100 mA
2.44416599382907;0.400634765625;0.0009564208984375;1.92999999512722;194;100 mA
2.45416599380383;0.400482177734375;0.000932922363281249;1.93999999510197;195;100 mA
2.46416599377858;0.400665283203125;0.000954284667968749;1.94999999507672;196;100 mA
2.47416599375333;0.400543212890625;0.00098236083984375;1.95999999505148;197;100 mA
2.48416599372808;0.400543212890625;0.000916748046875;1.96999999502623;198;100 mA
2.49416599370284;0.400665283203125;0.00093994140625;1.97999999500098;199;100 mA
2.50416599367759;0.400482177734375;0.000963745117187501;1.98999999497573;200;100 mA
2.51416599365234;0.400665283203125;0.00091400146484375;1.99999999495049;201;100 mA
2.52416599362709;0.400543212890625;0.000919494628906251;2.00999999492524;202;100 mA
2.53416599360185;0.400634765625;0.0009246826171875;2.01999999489999;203;100 mA
2.5441659935766;0.40057373046875;0.000968322753906251;2.02999999487474;204;100 mA
2.55416599355135;0.400665283203125;0.000887145996093749;2.0399999948495;205;100 mA
2.5641659935261;0.40069580078125;0.000941162109375;2.04999999482425;206;100 mA
2.57416599350086;0.400604248046875;0.000957641601562501;2.059999994799;207;100 mA
2.58416599347561;0.400604248046875;0.000913391113281251;2.06999999477375;208;100 mA
2.59416599345036;0.400726318359375;0.0009197998046875;2.0799999947485;209;100 mA
2.60416599342511;0.400634765625;0.000953063964843751;2.08999999472326;210;100 mA
2.61416599339987;0.400726318359375;0.000957336425781249;2.09999999469801;211;100 mA
2.62416599337462;0.400634765625;0.0009136962890625;2.10999999467276;212;100 mA
2.63416599334937;0.400543212890625;0.0009503173828125;2.11999999464751;213;100 mA
2.64416599332412;0.400634765625;0.000968017578125;2.12999999462227;214;100 mA
2.65416599329888;0.4005126953125;0.000939331054687501;2.13999999459702;215;100 mA
2.66416599327363;0.4007568359375;0.0009295654296875;2.14999999457177;216;100 mA
2.67416599324838;0.400482177734375;0.000986633300781251;2.15999999454652;217;100 mA
2.68416599322313;0.400604248046875;0.00094451904296875;2.16999999452128;218;100 mA
2.69416599319788;0.40057373046875;0.00091705322265625;2.17999999449603;219;100 mA
2.70416599317264;0.400543212890625;0.000946655273437499;2.18999999447078;220;100 mA
2.71416599314739;0.400543212890625;0.000960693359375001;2.19999999444553;221;100 mA
2.72416599312214;0.4005126953125;0.000919189453124999;2.20999999442029;222;100 mA
2.73416599309689;0.400634765625;0.0009063720703125;2.21999999439504;223;100 mA
2.74416599307165;0.40057373046875;0.000959167480468751;2.22999999436979;224;100 mA
2.7541659930464;0.400665283203125;0.00091217041015625;2.23999999434454;225;100 mA
2.76416599302115;0.400604248046875;0.000914306640625;2.2499999943193;226;100 mA
2.7741659929959;0.40045166015625;0.0009381103515625;2.25999999429405;227;100 mA
2.78416599297066;0.40057373046875;0.0009503173828125;2.2699999942688;228;100 mA
2.79416599294541;0.40069580078125;0.000884399414062501;2.27999999424355;229;100 mA
2.80416599292016;0.400482177734375;0.0009429931640625;2.28999999421831;230;100 mA
2.81416599289491;0.400634765625;0.000943908691406251;2.29999999419306;231;100 mA
2.82416599286967;0.40057373046875;0.000924072265625001;2.30999999416781;232;100 mA
2.83416599284442;0.400665283203125;0.000894775390624999;2.31999999414256;233;100 mA
2.84416599281917;0.400482177734375;0.00093841552734375;2.32999999411732;234;100 mA
2.85416599279392;0.40057373046875;0.000954589843750001;2.33999999409207;235;100 mA
2.86416599276868;0.400634765625;0.00089385986328125;2.34999999406682;236;100 mA
2.87416599274343;0.400360107421875;0.0009490966796875;2.35999999404157;237;100 mA
2.88416599271818;0.400634765625;0.00093841552734375;2.36999999401633;238;100 mA
2.89416599269293;0.400482177734375;0.00093719482421875;2.37999999399108;239;100 mA
2.90416599266769;0.400604248046875;0.00090057373046875;2.38999999396583;240;100 mA
2.91416599264244;0.400421142578125;0.00097015380859375;2.39999999394058;241;100 mA
2.92416599261719;0.400543212890625;0.000917663574218749;2.40999999391533;242;100 mA
2.93416599259194;0.4005126953125;0.0008990478515625;2.41999999389009;243;100 mA
2.9441659925667;0.40045166015625;0.00092987060546875;2.42999999386484;244;100 mA
2.95416599254145;0.400482177734375;0.000946655273437499;2.43999999383959;245;100 mA
2.9641659925162;0.400543212890625;0.000885620117187499;2.44999999381434;246;100 mA
2.97416599249095;0.400421142578125;0.000901184082031251;2.4599999937891;247;100 mA
2.98416599246571;0.40057373046875;0.00092498779296875;2.46999999376385;248;100 mA
2.99416599244046;0.40057373046875;0.0008819580078125;2.4799999937386;249;100 mA
3.00416599241521;0.40045166015625;0.00088531494140625;2.48999999371335;250;100 mA
3.01416599238996;0.4005126953125;0.000892028808593751;2.49999999368811;251;100 mA
3.02416599236471;0.400482177734375;0.000914916992187501;2.50999999366286;252;100 mA
3.03416599233947;0.400634765625;0.000836181640625;2.51999999363761;253;100 mA
3.04416599231422;0.40045166015625;0.000899658203125001;2.52999999361236;254;100 mA
3.05416599228897;0.40057373046875;0.00089691162109375;2.53999999358712;255;100 mA
3.06416599226372;0.40057373046875;0.00087158203125;2.54999999356187;256;100 mA
3.07416599223848;0.400482177734375;0.0008587646484375;2.55999999353662;257;100 mA
3.08416599221323;0.4005126953125;0.0008917236328125;2.56999999351137;258;100 mA
3.09416599218798;0.400543212890625;0.000911865234375001;2.57999999348613;259;100 mA
3.10416599216273;0.400634765625;0.00087127685546875;2.58999999346088;260;100 mA
3.11416599213749;0.40045166015625;0.000910339355468751;2.59999999343563;261;100 mA
3.12416599211224;0.400634765625;0.000904541015625;2.60999999341038;262;100 mA
3.13416599208699;0.400543212890625;0.000892028808593751;2.61999999338514;263;100 mA
3.14416599206174;0.400543212890625;0.000881347656250001;2.62999999335989;264;100 mA
3.1541659920365;0.400421142578125;0.000942077636718749;2.63999999333464;265;100 mA
3.16416599201125;0.4005126953125;0.000888977050781251;2.64999999330939;266;100 mA
3.174165991986;0.400482177734375;0.000882568359375;2.65999999328415;267;100 mA
3.18416599196075;0.400482177734375;0.0009014892578125;2.6699999932589;268;100 mA
3.19416599193551;0.400421142578125;0.000926513671875;2.67999999323365;269;100 mA
3.20416599191026;0.400604248046875;0.000860595703125;2.6899999932084;270;100 mA
3.21416599188501;0.400543212890625;0.0008587646484375;2.69999999318316;271;100 mA
3.22416599185976;0.400421142578125;0.000909423828125;2.70999999315791;272;100 mA
3.23416599183452;0.400665283203125;0.000867919921875;2.71999999313266;273;100 mA
3.24416599180927;0.40045166015625;0.0008697509765625;2.72999999310741;274;100 mA
3.25416599178402;0.400665283203125;0.00087890625;2.73999999308217;275;100 mA
3.26416599175877;0.400421142578125;0.00089996337890625;2.74999999305692;276;100 mA
3.27416599173353;0.400665283203125;0.00083831787109375;2.75999999303167;277;100 mA
3.28416599170828;0.400482177734375;0.000884399414062501;2.76999999300642;278;100 mA
3.29416599168303;0.400665283203125;0.000892333984375;2.77999999298117;279;100 mA
3.30416599165778;0.40069580078125;0.000870666503906251;2.78999999295593;280;100 mA
3.31416599163254;0.40057373046875;0.000860595703125;2.79999999293068;281;100 mA
3.32416599160729;0.40057373046875;0.00090057373046875;2.80999999290543;282;100 mA
3.33416599158204;0.400634765625;0.00090545654296875;2.81999999288018;283;100 mA
3.34416599155679;0.400604248046875;0.00085357666015625;2.82999999285494;284;100 mA
3.35416599153154;0.40057373046875;0.00091400146484375;2.83999999282969;285;100 mA
3.3641659915063;0.400604248046875;0.00089569091796875;2.84999999280444;286;100 mA
3.37416599148105;0.400543212890625;0.000887145996093749;2.85999999277919;287;100 mA
3.3841659914558;0.400604248046875;0.000858154296874999;2.86999999275395;288;100 mA
3.39416599143055;0.40032958984375;0.000936279296875001;2.8799999927287;289;100 mA
3.40416599140531;0.400665283203125;0.0008892822265625;2.88999999270345;290;100 mA
3.41416599138006;0.4005126953125;0.000866088867187501;2.8999999926782;291;100 mA
3.42416599135481;0.40069580078125;0.000892333984375;2.90999999265296;292;100 mA
3.43416599132956;0.4005126953125;0.00091278076171875;2.91999999262771;293;100 mA
3.44416599130432;0.400604248046875;0.00086639404296875;2.92999999260246;294;100 mA
3.45416599127907;0.400634765625;0.00088836669921875;2.93999999257721;295;100 mA
3.46416599125382;0.4005126953125;0.000902404785156249;2.94999999255197;296;100 mA
3.47416599122857;0.400726318359375;0.0008758544921875;2.95999999252672;297;100 mA
3.48416599120333;0.40057373046875;0.00086029052734375;2.96999999250147;298;100 mA
3.49416599117808;0.40069580078125;0.000887145996093749;2.97999999247622;299;100 mA
3.50416599115283;0.400665283203125;0.00090606689453125;2.98999999245098;300;100 mA
3.51416599112758;0.400726318359375;0.00084075927734375;2.99999999242573;301;100 mA
3.52416599110234;0.400634765625;0.000916137695312499;3.00999999240048;302;100 mA
3.53416599107709;0.400665283203125;0.000896301269531249;3.01999999237523;303;100 mA
3.54416599105184;0.40057373046875;0.00087432861328125;3.02999999234999;304;100 mA
3.55416599102659;0.400726318359375;0.0008575439453125;3.03999999232474;305;100 mA
3.56416599100135;0.40057373046875;0.0008831787109375;3.04999999229949;306;100 mA
3.5741659909761;0.400634765625;0.000900878906249999;3.05999999227424;307;100 mA
3.58416599095085;0.400543212890625;0.000847778320312501;3.069999992249;308;100 mA
3.5941659909256;0.400543212890625;0.000896606445312501;3.07999999222375;309;100 mA
3.60416599090036;0.400665283203125;0.00089141845703125;3.0899999921985;310;100 mA
3.61416599087511;0.400482177734375;0.0008740234375;3.09999999217325;311;100 mA
3.62416599084986;0.4007568359375;0.0008648681640625;3.109999992148;312;100 mA
3.63416599082461;0.400421142578125;0.00091278076171875;3.11999999212276;313;100 mA
3.64416599079937;0.400634765625;0.00086944580078125;3.12999999209751;314;100 mA
3.65416599077412;0.400543212890625;0.00084564208984375;3.13999999207226;315;100 mA
3.66416599074887;0.400543212890625;0.00086181640625;3.14999999204701;316;100 mA
3.67416599072362;0.400543212890625;0.0008990478515625;3.15999999202177;317;100 mA
3.68416599069838;0.400543212890625;0.00083465576171875;3.16999999199652;318;100 mA
3.69416599067313;0.40057373046875;0.000853881835937501;3.17999999197127;319;100 mA
3.70416599064788;0.40057373046875;0.00087890625;3.18999999194602;320;100 mA
3.71416599062263;0.400604248046875;0.00083953857421875;3.19999999192078;321;100 mA
3.72416599059738;0.400543212890625;0.00085601806640625;3.20999999189553;322;100 mA
3.73416599057214;0.40045166015625;0.000853881835937501;3.21999999187028;323;100 mA
3.74416599054689;0.400543212890625;0.000898132324218751;3.22999999184503;324;100 mA
3.75416599052164;0.4007568359375;0.000809631347656251;3.23999999181979;325;100 mA
3.76416599049639;0.400421142578125;0.00087249755859375;3.24999999179454;326;100 mA
3.77416599047115;0.400634765625;0.00088836669921875;3.25999999176929;327;100 mA
3.7841659904459;0.400482177734375;0.0008563232421875;3.26999999174404;328;100 mA
3.79416599042065;0.400604248046875;0.000838623046875001;3.2799999917188;329;100 mA
3.8041659903954;0.40045166015625;0.0008837890625;3.28999999169355;330;100 mA
3.81416599037016;0.40057373046875;0.000880126953125;3.2999999916683;331;100 mA
3.82416599034491;0.400604248046875;0.000855407714843751;3.30999999164305;332;100 mA
3.83416599031966;0.400421142578125;0.000873718261718751;3.31999999161781;333;100 mA
3.84416599029441;0.400543212890625;0.000887451171875001;3.32999999159256;334;100 mA
3.85416599026917;0.400482177734375;0.000863037109375001;3.33999999156731;335;100 mA
3.86416599024392;0.4005126953125;0.00084075927734375;3.34999999154206;336;100 mA
3.87416599021867;0.400421142578125;0.00090789794921875;3.35999999151682;337;100 mA
3.88416599019342;0.40045166015625;0.00085205078125;3.36999999149157;338;100 mA
3.89416599016818;0.400482177734375;0.00086669921875;3.37999999146632;339;100 mA
3.90416599014293;0.400482177734375;0.00086822509765625;3.38999999144107;340;100 mA
3.91416599011768;0.40045166015625;0.00089691162109375;3.39999999141583;341;100 mA
3.92416599009243;0.4005126953125;0.000848388671875;3.40999999139058;342;100 mA
3.93416599006719;0.400390625;0.000849609375;3.41999999136533;343;100 mA
3.94416599004194;0.4005126953125;0.000882568359375;3.42999999134008;344;100 mA
3.95416599001669;0.400543212890625;0.0008441162109375;3.43999999131483;345;100 mA
3.96416598999144;0.40045166015625;0.000843200683593751;3.44999999128959;346;100 mA
3.9741659899662;0.400543212890625;0.00085906982421875;3.45999999126434;347;100 mA
3.98416598994095;0.400421142578125;0.00087860107421875;3.46999999123909;348;100 mA
3.9941659899157;0.400665283203125;0.0008135986328125;3.47999999121384;349;100 mA
4.00416598989045;0.400421142578125;0.00086700439453125;3.4899999911886;350;100 mA
4.01416598986521;0.400604248046875;0.00085906982421875;3.49999999116335;351;100 mA
4.02416598983996;0.4005126953125;0.000855407714843751;3.5099999911381;352;100 mA
4.03416598981471;0.40057373046875;0.000820007324218749;3.51999999111285;353;100 mA
4.04416598978946;0.400634765625;0.00086944580078125;3.52999999108761;354;100 mA
4.05416598976421;0.4005126953125;0.00086212158203125;3.53999999106236;355;100 mA
4.06416598973897;0.400482177734375;0.0008251953125;3.54999999103711;356;100 mA
4.07416598971372;0.40045166015625;0.000859375;3.55999999101186;357;100 mA
4.08416598968847;0.400543212890625;0.00085357666015625;3.56999999098662;358;100 mA
4.09416598966322;0.40057373046875;0.00084686279296875;3.57999999096137;359;100 mA
4.10416598963798;0.400604248046875;0.00082733154296875;3.58999999093612;360;100 mA
4.11416598961273;0.400421142578125;0.00088165283203125;3.59999999091087;361;100 mA
4.12416598958748;0.400634765625;0.00083740234375;3.60999999088563;362;100 mA
4.13416598956223;0.400421142578125;0.00082061767578125;3.61999999086038;363;100 mA
4.14416598953699;0.400543212890625;0.000841369628906249;3.62999999083513;364;100 mA
4.15416598951174;0.40045166015625;0.00087432861328125;3.63999999080988;365;100 mA
4.16416598948649;0.400604248046875;0.00081817626953125;3.64999999078464;366;100 mA
4.17416598946124;0.400482177734375;0.000847778320312501;3.65999999075939;367;100 mA
4.184165989436;0.40057373046875;0.000855102539062499;3.66999999073414;368;100 mA
4.19416598941075;0.400665283203125;0.00083282470703125;3.67999999070889;369;100 mA
4.2041659893855;0.400421142578125;0.000832519531250001;3.68999999068365;370;100 mA
4.21416598936025;0.40069580078125;0.00084442138671875;3.6999999906584;371;100 mA
4.22416598933501;0.40057373046875;0.00087646484375;3.70999999063315;372;100 mA
4.23416598930976;0.400726318359375;0.00079010009765625;3.7199999906079;373;100 mA
4.24416598928451;0.40057373046875;0.00086181640625;3.72999999058266;374;100 mA
4.25416598925926;0.400634765625;0.000858154296874999;3.73999999055741;375;100 mA
4.26416598923402;0.400665283203125;0.00084259033203125;3.74999999053216;376;100 mA
4.27416598920877;0.40069580078125;0.00083343505859375;3.75999999050691;377;100 mA
4.28416598918352;0.400665283203125;0.000865783691406249;3.76999999048167;378;100 mA
4.29416598915827;0.400665283203125;0.000873718261718751;3.77999999045642;379;100 mA
4.30416598913303;0.400634765625;0.00083465576171875;3.78999999043117;380;100 mA
4.31416598910778;0.400604248046875;0.000867919921875;3.79999999040592;381;100 mA
4.32416598908253;0.400634765625;0.000882873535156251;3.80999999038067;382;100 mA
4.33416598905728;0.40057373046875;0.000855407714843751;3.81999999035543;383;100 mA
4.34416598903204;0.400726318359375;0.000840148925781251;3.82999999033018;384;100 mA
4.35416598900679;0.400421142578125;0.00090606689453125;3.83999999030493;385;100 mA
4.36416598898154;0.40069580078125;0.000847778320312501;3.84999999027968;386;100 mA
4.37416598895629;0.4005126953125;0.000850524902343749;3.85999999025444;387;100 mA
4.38416598893104;0.40069580078125;0.00084503173828125;3.86999999022919;388;100 mA
4.3941659889058;0.40057373046875;0.00089447021484375;3.87999999020394;389;100 mA
4.40416598888055;0.4005126953125;0.0008392333984375;3.88999999017869;390;100 mA
4.4141659888553;0.400665283203125;0.00084686279296875;3.89999999015345;391;100 mA
4.42416598883005;0.4005126953125;0.000870666503906251;3.9099999901282;392;100 mA
4.43416598880481;0.400634765625;0.000833740234374999;3.91999999010295;393;100 mA
4.44416598877956;0.4005126953125;0.0008636474609375;3.9299999900777;394;100 mA
4.45416598875431;0.400604248046875;0.00085357666015625;3.93999999005246;395;100 mA
4.46416598872906;0.400634765625;0.00086700439453125;3.94999999002721;396;100 mA
4.47416598870382;0.400665283203125;0.0008135986328125;3.95999999000196;397;100 mA
4.48416598867857;0.400604248046875;0.000860595703125;3.96999998997671;398;100 mA
4.49416598865332;0.40069580078125;0.000871887207031249;3.97999998995147;399;100 mA
4.50416598862807;0.400543212890625;0.00085174560546875;3.98999998992622;400;100 mA
4.51416598860283;0.4007568359375;0.00082427978515625;3.99999998990097;401;100 mA
4.52416598857758;0.4005126953125;0.00087249755859375;4.00999998987572;402;100 mA
4.53416598855233;0.400634765625;0.000856628417968749;4.01999998985048;403;100 mA
4.54416598852708;0.400634765625;0.0008349609375;4.02999998982523;404;100 mA
4.55416598850184;0.40045166015625;0.0008624267578125;4.03999998979998;405;100 mA
4.56416598847659;0.400634765625;0.000859375;4.04999998977473;406;100 mA
4.57416598845134;0.4005126953125;0.0008502197265625;4.05999998974949;407;100 mA
4.58416598842609;0.400634765625;0.00081329345703125;4.06999998972424;408;100 mA
4.59416598840085;0.400421142578125;0.000884399414062501;4.07999998969899;409;100 mA
4.6041659883756;0.400634765625;0.000827636718749999;4.08999998967374;410;100 mA
4.61416598835035;0.400543212890625;0.00082550048828125;4.0999999896485;411;100 mA
4.6241659883251;0.4005126953125;0.00083648681640625;4.10999998962325;412;100 mA
4.63416598829986;0.40057373046875;0.0008465576171875;4.119999989598;413;100 mA
4.64416598827461;0.4005126953125;0.000809326171874999;4.12999998957275;414;100 mA
4.65416598824936;0.40045166015625;0.000830993652343751;4.1399999895475;415;100 mA
4.66416598822411;0.400634765625;0.0008392333984375;4.14999998952226;416;100 mA
4.67416598819887;0.400482177734375;0.00082305908203125;4.15999998949701;417;100 mA
4.68416598817362;0.400482177734375;0.00080902099609375;4.16999998947176;418;100 mA
4.69416598814837;0.400482177734375;0.00082275390625;4.17999998944651;419;100 mA
4.70416598812312;0.400482177734375;0.00085174560546875;4.18999998942127;420;100 mA
4.71416598809788;0.400726318359375;0.0007855224609375;4.19999998939602;421;100 mA
4.72416598807263;0.40045166015625;0.00084381103515625;4.20999998937077;422;100 mA
4.73416598804738;0.40069580078125;0.00082977294921875;4.21999998934552;423;100 mA
4.74416598802213;0.40045166015625;0.0008380126953125;4.22999998932028;424;100 mA
4.75416598799688;0.40057373046875;0.000794677734375;4.23999998929503;425;100 mA
4.76416598797164;0.40057373046875;0.00083770751953125;4.24999998926978;426;100 mA
4.77416598794639;0.4005126953125;0.000834045410156251;4.25999998924453;427;100 mA
4.78416598792114;0.400634765625;0.00079925537109375;4.26999998921929;428;100 mA
4.79416598789589;0.400360107421875;0.000844726562500001;4.27999998919404;429;100 mA
4.80416598787065;0.40057373046875;0.000840148925781251;4.28999998916879;430;100 mA
4.8141659878454;0.400482177734375;0.000823974609375;4.29999998914354;431;100 mA
4.82416598782015;0.400482177734375;0.000816650390625;4.3099999891183;432;100 mA
4.8341659877949;0.40045166015625;0.00086334228515625;4.31999998909305;433;100 mA
4.84416598776966;0.40045166015625;0.00083343505859375;4.3299999890678;434;100 mA
4.85416598774441;0.4005126953125;0.000816650390625;4.33999998904255;435;100 mA
4.86416598771916;0.4005126953125;0.0008270263671875;4.34999998901731;436;100 mA
4.87416598769391;0.400390625;0.0008648681640625;4.35999998899206;437;100 mA
4.88416598766867;0.400543212890625;0.000804443359375;4.36999998896681;438;100 mA
4.89416598764342;0.40045166015625;0.000824584960937499;4.37999998894156;439;100 mA
4.90416598761817;0.40057373046875;0.00084716796875;4.38999998891632;440;100 mA
4.91416598759292;0.40057373046875;0.00081329345703125;4.39999998889107;441;100 mA
4.92416598756768;0.400482177734375;0.000823364257812501;4.40999998886582;442;100 mA
4.93416598754243;0.400604248046875;0.00082550048828125;4.41999998884057;443;100 mA
4.94416598751718;0.40045166015625;0.000853271484375;4.42999998881533;444;100 mA
4.95416598749193;0.400604248046875;0.00079193115234375;4.43999998879008;445;100 mA
4.96416598746669;0.400543212890625;0.000843505859375;4.44999998876483;446;100 mA
4.97416598744144;0.400604248046875;0.000844726562500001;4.45999998873958;447;100 mA
4.98416598741619;0.400604248046875;0.00083160400390625;4.46999998871433;448;100 mA
4.99416598739094;0.400604248046875;0.000804748535156249;4.47999998868909;449;100 mA
5.0041659873657;0.40057373046875;0.000848388671875;4.48999998866384;450;100 mA
5.01416598734045;0.4005126953125;0.00084075927734375;4.49999998863859;451;100 mA
5.0241659873152;0.400543212890625;0.00081756591796875;4.50999998861334;452;100 mA
5.03416598728995;0.400543212890625;0.000838623046875001;4.5199999885881;453;100 mA
5.04416598726471;0.400634765625;0.000848999023437499;4.52999998856285;454;100 mA
5.05416598723946;0.400543212890625;0.000836181640625;4.5399999885376;455;100 mA
5.06416598721421;0.400604248046875;0.00080230712890625;4.54999998851235;456;100 mA
5.07416598718896;0.400421142578125;0.00087432861328125;4.55999998848711;457;100 mA
5.08416598716371;0.400634765625;0.000821533203125;4.56999998846186;458;100 mA
5.09416598713847;0.40045166015625;0.000826416015625001;4.57999998843661;459;100 mA
5.10416598711322;0.400634765625;0.00082977294921875;4.58999998841136;460;100 mA
5.11416598708797;0.400543212890625;0.00086517333984375;4.59999998838612;461;100 mA
5.12416598706272;0.400604248046875;0.00080902099609375;4.60999998836087;462;100 mA
5.13416598703748;0.400604248046875;0.00082275390625;4.61999998833562;463;100 mA
5.14416598701223;0.400604248046875;0.000847473144531249;4.62999998831037;464;100 mA
5.15416598698698;0.400665283203125;0.00081634521484375;4.63999998828513;465;100 mA
5.16416598696173;0.40057373046875;0.00081207275390625;4.64999998825988;466;100 mA
5.17416598693649;0.40069580078125;0.000826416015625001;4.65999998823463;467;100 mA
5.18416598691124;0.400604248046875;0.000840148925781251;4.66999998820938;468;100 mA
5.19416598688599;0.400665283203125;0.00078704833984375;4.67999998818414;469;100 mA
5.20416598686074;0.400665283203125;0.0008282470703125;4.68999998815889;470;100 mA
5.2141659868355;0.40069580078125;0.00082366943359375;4.69999998813364;471;100 mA
5.22416598681025;0.400604248046875;0.00081390380859375;4.70999998810839;472;100 mA
5.234165986785;0.4007568359375;0.000773010253906251;4.71999998808315;473;100 mA
5.24416598675975;0.400634765625;0.00083740234375;4.7299999880579;474;100 mA
5.25416598673451;0.400634765625;0.00082855224609375;4.73999998803265;475;100 mA
5.26416598670926;0.40057373046875;0.000791015625;4.7499999880074;476;100 mA
5.27416598668401;0.40057373046875;0.0008270263671875;4.75999998798216;477;100 mA
5.28416598665876;0.40069580078125;0.0008270263671875;4.76999998795691;478;100 mA
5.29416598663352;0.400482177734375;0.000826416015625001;4.77999998793166;479;100 mA
5.30416598660827;0.400726318359375;0.000791015625;4.78999998790641;480;100 mA
5.31416598658302;0.400421142578125;0.0008544921875;4.79999998788116;481;100 mA
5.32416598655777;0.400634765625;0.00082061767578125;4.80999998785592;482;100 mA
5.33416598653253;0.4005126953125;0.000791015625;4.81999998783067;483;100 mA
5.34416598650728;0.40057373046875;0.0008135986328125;4.82999998780542;484;100 mA
5.35416598648203;0.40057373046875;0.00085205078125;4.83999998778017;485;100 mA
5.36416598645678;0.40057373046875;0.00078399658203125;4.84999998775493;486;100 mA
5.37416598643154;0.400604248046875;0.00082122802734375;4.85999998772968;487;100 mA
5.38416598640629;0.400634765625;0.00081329345703125;4.86999998770443;488;100 mA
5.39416598638104;0.40057373046875;0.00081390380859375;4.87999998767918;489;100 mA
5.40416598635579;0.400604248046875;0.000800476074218751;4.88999998765394;490;100 mA
5.41416598633054;0.4005126953125;0.000808105468750001;4.89999998762869;491;100 mA
5.4241659863053;0.40057373046875;0.000833740234374999;4.90999998760344;492;100 mA
5.43416598628005;0.400634765625;0.0007672119140625;4.91999998757819;493;100 mA
5.4441659862548;0.400482177734375;0.000827941894531251;4.92999998755295;494;100 mA
5.45416598622955;0.400665283203125;0.000823364257812501;4.9399999875277;495;100 mA
5.46416598620431;0.400421142578125;0.00082122802734375;4.94999998750245;496;100 mA
5.47416598617906;0.40069580078125;0.000794372558593751;4.9599999874772;497;100 mA
5.48416598615381;0.400543212890625;0.00083160400390625;4.96999998745196;498;100 mA
5.49416598612856;0.400543212890625;0.00083648681640625;4.97999998742671;499;100 mA
5.50416598610332;0.400634765625;0.0008148193359375;4.98999998740146;500;100 mA
5.51416598607807;0.400421142578125;0.000833740234374999;4.99999998737621;501;100 mA
5.52416598605282;0.400543212890625;0.000849609375;5.00999998735097;502;100 mA
5.53416598602757;0.4005126953125;0.0008251953125;5.01999998732572;503;100 mA
5.54416598600233;0.400543212890625;0.00081787109375;5.02999998730047;504;100 mA
5.55416598597708;0.40045166015625;0.000867614746093751;5.03999998727522;505;100 mA
5.56416598595183;0.400482177734375;0.00083740234375;5.04999998724998;506;100 mA
5.57416598592658;0.40045166015625;0.000835266113281249;5.05999998722473;507;100 mA
5.58416598590134;0.4005126953125;0.0008306884765625;5.06999998719948;508;100 mA
5.59416598587609;0.40045166015625;0.000880126953125;5.07999998717423;509;100 mA
5.60416598585084;0.4005126953125;0.00082122802734375;5.08999998714899;510;100 mA
5.61416598582559;0.400390625;0.00083892822265625;5.09999998712374;511;100 mA
5.62416598580035;0.400634765625;0.000855102539062499;5.10999998709849;512;100 mA
5.6341659857751;0.400482177734375;0.00082672119140625;5.11999998707324;513;100 mA
5.64416598574985;0.40045166015625;0.000834045410156251;5.129999987048;514;100 mA
5.6541659857246;0.400604248046875;0.00083831787109375;5.13999998702275;515;100 mA
5.66416598569936;0.400482177734375;0.000867614746093751;5.1499999869975;516;100 mA
5.67416598567411;0.400634765625;0.000806884765625;5.15999998697225;517;100 mA
5.68416598564886;0.400482177734375;0.00084716796875;5.169999986947;518;100 mA
5.69416598562361;0.400604248046875;0.000859985351562501;5.17999998692176;519;100 mA
5.70416598559837;0.400543212890625;0.00085205078125;5.18999998689651;520;100 mA
5.71416598557312;0.400543212890625;0.0008209228515625;5.19999998687126;521;100 mA
5.72416598554787;0.400634765625;0.0008709716796875;5.20999998684601;522;100 mA
5.73416598552262;0.40057373046875;0.0008502197265625;5.21999998682077;523;100 mA
5.74416598549738;0.4005126953125;0.0008319091796875;5.22999998679552;524;100 mA
5.75416598547213;0.40045166015625;0.000848388671875;5.23999998677027;525;100 mA
5.76416598544688;0.400604248046875;0.00085479736328125;5.24999998674502;526;100 mA
5.77416598542163;0.40057373046875;0.00085174560546875;5.25999998671978;527;100 mA
5.78416598539638;0.40057373046875;0.000818481445312499;5.26999998669453;528;100 mA
5.79416598537114;0.400421142578125;0.000893554687500001;5.27999998666928;529;100 mA
5.80416598534589;0.40057373046875;0.00084564208984375;5.28999998664403;530;100 mA
5.81416598532064;0.400482177734375;0.000843200683593751;5.29999998661879;531;100 mA
5.82416598529539;0.400665283203125;0.000841064453125;5.30999998659354;532;100 mA
5.83416598527015;0.400390625;0.000877685546875;5.31999998656829;533;100 mA
5.8441659852449;0.400634765625;0.0008270263671875;5.32999998654304;534;100 mA
5.85416598521965;0.4005126953125;0.00085296630859375;5.3399999865178;535;100 mA
5.8641659851944;0.400634765625;0.00085174560546875;5.34999998649255;536;100 mA
5.87416598516916;0.400634765625;0.00084228515625;5.3599999864673;537;100 mA
5.88416598514391;0.4005126953125;0.0008209228515625;5.36999998644205;538;100 mA
5.89416598511866;0.400665283203125;0.0008392333984375;5.37999998641681;539;100 mA
5.90416598509341;0.400604248046875;0.0008673095703125;5.38999998639156;540;100 mA
5.91416598506817;0.400665283203125;0.00080108642578125;5.39999998636631;541;100 mA
5.92416598504292;0.400604248046875;0.000859985351562501;5.40999998634106;542;100 mA
5.93416598501767;0.400665283203125;0.000847778320312501;5.41999998631582;543;100 mA
5.94416598499242;0.400634765625;0.000856628417968749;5.42999998629057;544;100 mA
5.95416598496718;0.400726318359375;0.000826416015625001;5.43999998626532;545;100 mA
5.96416598494193;0.400634765625;0.0008612060546875;5.44999998624007;546;100 mA
5.97416598491668;0.400665283203125;0.000844726562500001;5.45999998621483;547;100 mA
5.98416598489143;0.400543212890625;0.0008258056640625;5.46999998618958;548;100 mA
5.99416598486619;0.400634765625;0.00085601806640625;5.47999998616433;549;100 mA
6.00416598484094;0.40057373046875;0.00085205078125;5.48999998613908;550;100 mA
6.01416598481569;0.40057373046875;0.00082122802734375;5.49999998611383;551;100 mA
6.02416598479044;0.400726318359375;0.00081817626953125;5.50999998608859;552;100 mA
6.0341659847652;0.400482177734375;0.00084991455078125;5.51999998606334;553;100 mA
6.04416598473995;0.400634765625;0.000826416015625001;5.52999998603809;554;100 mA
6.0541659847147;0.4005126953125;0.00081298828125;5.53999998601284;555;100 mA
6.06416598468945;0.400634765625;0.00081146240234375;5.5499999859876;556;100 mA
6.07416598466421;0.400543212890625;0.000855407714843751;5.55999998596235;557;100 mA
6.08416598463896;0.400543212890625;0.0007891845703125;5.5699999859371;558;100 mA
6.09416598461371;0.400634765625;0.000844726562500001;5.57999998591185;559;100 mA
6.10416598458846;0.400665283203125;0.0008343505859375;5.58999998588661;560;100 mA
6.11416598456321;0.40069580078125;0.000803222656249999;5.59999998586136;561;100 mA
6.12416598453797;0.40057373046875;0.000809631347656251;5.60999998583611;562;100 mA
6.13416598451272;0.400604248046875;0.000819091796875;5.61999998581086;563;100 mA
6.14416598448747;0.400604248046875;0.00084564208984375;5.62999998578562;564;100 mA
6.15416598446222;0.40069580078125;0.00078338623046875;5.63999998576037;565;100 mA
6.16416598443698;0.400604248046875;0.0008319091796875;5.64999998573512;566;100 mA
6.17416598441173;0.400726318359375;0.000836181640625;5.65999998570987;567;100 mA
6.18416598438648;0.4005126953125;0.0008306884765625;5.66999998568463;568;100 mA
6.19416598436123;0.400787353515625;0.000798950195312501;5.67999998565938;569;100 mA
6.20416598433599;0.400543212890625;0.0008526611328125;5.68999998563413;570;100 mA
6.21416598431074;0.400665283203125;0.000843505859375;5.69999998560888;571;100 mA
6.22416598428549;0.400604248046875;0.0008343505859375;5.70999998558364;572;100 mA
6.23416598426024;0.400543212890625;0.00083465576171875;5.71999998555839;573;100 mA
6.244165984235;0.40057373046875;0.00087158203125;5.72999998553314;574;100 mA
6.25416598420975;0.4005126953125;0.00082672119140625;5.73999998550789;575;100 mA
6.2641659841845;0.400604248046875;0.000841064453125;5.74999998548265;576;100 mA
6.27416598415925;0.400482177734375;0.00087493896484375;5.7599999854574;577;100 mA
6.28416598413401;0.400543212890625;0.00082427978515625;5.76999998543215;578;100 mA
6.29416598410876;0.400421142578125;0.0008343505859375;5.7799999854069;579;100 mA
6.30416598408351;0.400543212890625;0.00082733154296875;5.78999998538166;580;100 mA
6.31416598405826;0.4005126953125;0.000864562988281251;5.79999998535641;581;100 mA
6.32416598403302;0.4005126953125;0.0008013916015625;5.80999998533116;582;100 mA
6.33416598400777;0.40045166015625;0.000819091796875;5.81999998530591;583;100 mA
6.34416598398252;0.400634765625;0.00083648681640625;5.82999998528066;584;100 mA
6.35416598395727;0.40057373046875;0.00081329345703125;5.83999998525542;585;100 mA
6.36416598393203;0.400604248046875;0.000802001953125001;5.84999998523017;586;100 mA
6.37416598390678;0.4005126953125;0.00082855224609375;5.85999998520492;587;100 mA
6.38416598388153;0.40045166015625;0.00083038330078125;5.86999998517967;588;100 mA
6.39416598385628;0.400665283203125;0.00078765869140625;5.87999998515443;589;100 mA
6.40416598383104;0.400390625;0.00084686279296875;5.88999998512918;590;100 mA
6.41416598380579;0.40069580078125;0.00082061767578125;5.89999998510393;591;100 mA
6.42416598378054;0.4005126953125;0.000833740234374999;5.90999998507868;592;100 mA
6.43416598375529;0.400634765625;0.000774536132812501;5.91999998505344;593;100 mA
6.44416598373004;0.400543212890625;0.0008453369140625;5.92999998502819;594;100 mA
6.4541659837048;0.400604248046875;0.00081634521484375;5.93999998500294;595;100 mA
6.46416598367955;0.4005126953125;0.00080078125;5.94999998497769;596;100 mA
6.4741659836543;0.400482177734375;0.00081939697265625;5.95999998495245;597;100 mA
6.48416598362905;0.40045166015625;0.0008282470703125;5.9699999849272;598;100 mA
6.49416598360381;0.400543212890625;0.000818786621093751;5.97999998490195;599;100 mA
6.50416598357856;0.4005126953125;0.00079071044921875;5.9899999848767;600;100 mA
6.51416598355331;0.40045166015625;0.0008392333984375;5.99999998485146;601;100 mA
6.52416598352806;0.40057373046875;0.00080902099609375;6.00999998482621;602;100 mA
6.53416598350282;0.40032958984375;0.000789489746093749;6.01999998480096;603;100 mA
6.54416598347757;0.400543212890625;0.00081298828125;6.02999998477571;604;100 mA
6.55416598345232;0.400360107421875;0.0008514404296875;6.03999998475047;605;100 mA
6.56416598342707;0.400634765625;0.000783691406250001;6.04999998472522;606;100 mA
6.57416598340183;0.400421142578125;0.000826110839843749;6.05999998469997;607;100 mA
6.58416598337658;0.400634765625;0.0008148193359375;6.06999998467472;608;100 mA
6.59416598335133;0.400634765625;0.000816650390625;6.07999998464948;609;100 mA
6.60416598332608;0.400482177734375;0.000803222656249999;6.08999998462423;610;100 mA
6.61416598330084;0.400634765625;0.00082061767578125;6.09999998459898;611;100 mA
6.62416598327559;0.400604248046875;0.00083648681640625;6.10999998457373;612;100 mA
6.63416598325034;0.400604248046875;0.00077667236328125;6.11999998454849;613;100 mA
6.64416598322509;0.400543212890625;0.0008319091796875;6.12999998452324;614;100 mA
6.65416598319985;0.400634765625;0.0008306884765625;6.13999998449799;615;100 mA
6.6641659831746;0.400604248046875;0.000826110839843749;6.14999998447274;616;100 mA
6.67416598314935;0.400726318359375;0.00079986572265625;6.1599999844475;617;100 mA
6.6841659831241;0.400634765625;0.00084228515625;6.16999998442225;618;100 mA
6.69416598309886;0.400726318359375;0.00083038330078125;6.179999984397;619;100 mA
6.70416598307361;0.400543212890625;0.000820007324218749;6.18999998437175;620;100 mA
6.71416598304836;0.400604248046875;0.0008404541015625;6.1999999843465;621;100 mA
6.72416598302311;0.4005126953125;0.000859375;6.20999998432126;622;100 mA
6.73416598299787;0.40057373046875;0.00082275390625;6.21999998429601;623;100 mA
6.74416598297262;0.400604248046875;0.00080841064453125;6.22999998427076;624;100 mA
6.75416598294737;0.400482177734375;0.00085723876953125;6.23999998424551;625;100 mA
6.76416598292212;0.400665283203125;0.00080780029296875;6.24999998422027;626;100 mA
6.77416598289687;0.400482177734375;0.0008087158203125;6.25999998419502;627;100 mA
6.78416598287163;0.40069580078125;0.0008001708984375;6.26999998416977;628;100 mA
6.79416598284638;0.4005126953125;0.000855712890625;6.27999998414452;629;100 mA
6.80416598282113;0.400604248046875;0.00079071044921875;6.28999998411928;630;100 mA
6.81416598279588;0.400604248046875;0.000841064453125;6.29999998409403;631;100 mA
6.82416598277064;0.400634765625;0.00082550048828125;6.30999998406878;632;100 mA
6.83416598274539;0.4007568359375;0.00080108642578125;6.31999998404353;633;100 mA
6.84416598272014;0.400665283203125;0.000804443359375;6.32999998401829;634;100 mA
6.85416598269489;0.400634765625;0.0008258056640625;6.33999998399304;635;100 mA
6.86416598266965;0.400634765625;0.0008343505859375;6.34999998396779;636;100 mA
6.8741659826444;0.400634765625;0.00077728271484375;6.35999998394254;637;100 mA
6.88416598261915;0.400604248046875;0.000820007324218749;6.3699999839173;638;100 mA
6.8941659825939;0.400634765625;0.0008306884765625;6.37999998389205;639;100 mA
6.90416598256866;0.400543212890625;0.00081817626953125;6.3899999838668;640;100 mA
6.91416598254341;0.400787353515625;0.0007830810546875;6.39999998384155;641;100 mA
6.92416598251816;0.40057373046875;0.00084075927734375;6.40999998381631;642;100 mA
6.93416598249291;0.400604248046875;0.00080841064453125;6.41999998379106;643;100 mA
6.94416598246767;0.4005126953125;0.00079803466796875;6.42999998376581;644;100 mA
6.95416598244242;0.400482177734375;0.000816955566406249;6.43999998374056;645;100 mA
6.96416598241717;0.400543212890625;0.00082916259765625;6.44999998371532;646;100 mA
6.97416598239192;0.400482177734375;0.000799560546875;6.45999998369007;647;100 mA
6.98416598236668;0.40069580078125;0.00078704833984375;6.46999998366482;648;100 mA
6.99416598234143;0.4005126953125;0.000839843749999999;6.47999998363957;649;100 mA
7.00416598231618;0.400543212890625;0.000806579589843751;6.48999998361433;650;100 mA
7.01416598229093;0.400543212890625;0.0007952880859375;6.49999998358908;651;100 mA
7.02416598226569;0.4005126953125;0.0008087158203125;6.50999998356383;652;100 mA
7.03416598224044;0.400543212890625;0.00083953857421875;6.51999998353858;653;100 mA
7.04416598221519;0.400543212890625;0.000789489746093749;6.52999998351333;654;100 mA
7.05416598218994;0.4005126953125;0.000823364257812501;6.53999998348809;655;100 mA
7.0641659821647;0.400604248046875;0.00081939697265625;6.54999998346284;656;100 mA
7.07416598213945;0.400482177734375;0.00082275390625;6.55999998343759;657;100 mA
7.0841659821142;0.400543212890625;0.000794067382812499;6.56999998341234;658;100 mA
7.09416598208895;0.400482177734375;0.000834045410156251;6.5799999833871;659;100 mA
7.10416598206371;0.400543212890625;0.00084228515625;6.58999998336185;660;100 mA
7.11416598203846;0.40069580078125;0.00078704833984375;6.5999999833366;661;100 mA
7.12416598201321;0.400390625;0.000828857421875;6.60999998331135;662;100 mA
7.13416598198796;0.400665283203125;0.000820007324218749;6.61999998328611;663;100 mA
7.14416598196271;0.400421142578125;0.000826110839843749;6.62999998326086;664;100 mA
7.15416598193747;0.400604248046875;0.000789794921875001;6.63999998323561;665;100 mA
7.16416598191222;0.4005126953125;0.000839843749999999;6.64999998321036;666;100 mA
7.17416598188697;0.400543212890625;0.0008135986328125;6.65999998318512;667;100 mA
7.18416598186172;0.4005126953125;0.000792846679687501;6.66999998315987;668;100 mA
7.19416598183648;0.40045166015625;0.00082122802734375;6.67999998313462;669;100 mA
7.20416598181123;0.400543212890625;0.00084075927734375;6.68999998310937;670;100 mA
7.21416598178598;0.4005126953125;0.00080535888671875;6.69999998308413;671;100 mA
7.22416598176073;0.400482177734375;0.000814208984375001;6.70999998305888;672;100 mA
7.23416598173549;0.4005126953125;0.000840148925781251;6.71999998303363;673;100 mA
7.24416598171024;0.400482177734375;0.00082366943359375;6.72999998300838;674;100 mA
7.25416598168499;0.400482177734375;0.00081024169921875;6.73999998298314;675;100 mA
7.26416598165974;0.400543212890625;0.000818786621093751;6.74999998295789;676;100 mA
7.2741659816345;0.400390625;0.00085784912109375;6.75999998293264;677;100 mA
7.28416598160925;0.40069580078125;0.000781860351562499;6.76999998290739;678;100 mA
7.294165981584;0.400421142578125;0.000847473144531249;6.77999998288215;679;100 mA
7.30416598155875;0.400665283203125;0.000831298828125;6.7899999828569;680;100 mA
7.31416598153351;0.400604248046875;0.00081787109375;6.79999998283165;681;100 mA
7.32416598150826;0.400543212890625;0.000809631347656251;6.8099999828064;682;100 mA
7.33416598148301;0.40057373046875;0.00081756591796875;6.81999998278116;683;100 mA
7.34416598145776;0.400543212890625;0.000843505859375;6.82999998275591;684;100 mA
7.35416598143252;0.400604248046875;0.00079010009765625;6.83999998273066;685;100 mA
7.36416598140727;0.400482177734375;0.0008349609375;6.84999998270541;686;100 mA
7.37416598138202;0.400604248046875;0.000843200683593751;6.85999998268016;687;100 mA
7.38416598135677;0.4005126953125;0.000818786621093751;6.86999998265492;688;100 mA
7.39416598133153;0.40057373046875;0.0008209228515625;6.87999998262967;689;100 mA
7.40416598130628;0.400543212890625;0.00085174560546875;6.88999998260442;690;100 mA
7.41416598128103;0.400665283203125;0.000829467773437501;6.89999998257917;691;100 mA
7.42416598125578;0.4005126953125;0.00080230712890625;6.90999998255393;692;100 mA
7.43416598123054;0.400543212890625;0.00081146240234375;6.91999998252868;693;100 mA
7.44416598120529;0.400482177734375;0.00084442138671875;6.92999998250343;694;100 mA
7.45416598118004;0.400604248046875;0.0007952880859375;6.93999998247818;695;100 mA
7.46416598115479;0.40057373046875;0.00079864501953125;6.94999998245294;696;100 mA
7.47416598112954;0.4005126953125;0.0008343505859375;6.95999998242769;697;100 mA
7.4841659811043;0.400634765625;0.0008013916015625;6.96999998240244;698;100 mA
7.49416598107905;0.400421142578125;0.00079345703125;6.97999998237719;699;100 mA
7.5041659810538;0.400665283203125;0.000789794921875001;6.98999998235195;700;100 mA
