Time (s);WE(1).Potential (V);WE(1).Current (A);Corrected time (s);Index;Current range
8.02729897973302;0.3052978515625;-0.0007415771484375;0;1;100 mA
8.03729897970777;0.30072021484375;-0.0001495361328125;0.00999999997475243;2;100 mA
8.04729897968252;0.3004150390625;7.75146484375003E-05;0.0199999999495049;3;100 mA
8.05729897965728;0.300384521484375;0.000185546875000001;0.0299999999242573;4;100 mA
8.06729897963203;0.300537109375;0.000221862792968749;0.0399999998990097;5;100 mA
8.07729897960678;0.300506591796875;0.0002960205078125;0.0499999998737621;6;100 mA
8.08729897958153;0.300537109375;0.000386962890625001;0.0599999998485146;7;100 mA
8.09729897955629;0.30047607421875;0.000367126464843751;0.069999999823267;8;100 mA
8.10729897953104;0.300384521484375;0.000409851074218751;0.0799999997980194;9;100 mA
8.11729897950579;0.300537109375;0.000469970703125;0.0899999997727718;10;100 mA
8.12729897948054;0.30047607421875;0.000490417480468749;0.0999999997475243;11;100 mA
8.1372989794553;0.30059814453125;0.000462951660156249;0.109999999722277;12;100 mA
8.14729897943005;0.300506591796875;0.000520935058593749;0.119999999697029;13;100 mA
8.1572989794048;0.30047607421875;0.00053863525390625;0.129999999671782;14;100 mA
8.16729897937955;0.300506591796875;0.0005352783203125;0.139999999646534;15;100 mA
8.1772989793543;0.30047607421875;0.00052459716796875;0.149999999621286;16;100 mA
8.18729897932906;0.30047607421875;0.0005999755859375;0.159999999596039;17;100 mA
8.19729897930381;0.300506591796875;0.0005865478515625;0.169999999570791;18;100 mA
8.20729897927856;0.30047607421875;0.00054901123046875;0.179999999545544;19;100 mA
8.21729897925331;0.30047607421875;0.000620117187499999;0.189999999520296;20;100 mA
8.22729897922807;0.3004150390625;0.000617370605468751;0.199999999495049;21;100 mA
8.23729897920282;0.300384521484375;0.0005938720703125;0.209999999469801;22;100 mA
8.24729897917757;0.300506591796875;0.000601806640625;0.219999999444553;23;100 mA
8.25729897915232;0.300445556640625;0.00065338134765625;0.229999999419306;24;100 mA
8.26729897912708;0.30059814453125;0.000616455078125;0.239999999394058;25;100 mA
8.27729897910183;0.30047607421875;0.000623474121093751;0.249999999368811;26;100 mA
8.28729897907658;0.300537109375;0.00065185546875;0.259999999343563;27;100 mA
8.29729897905133;0.300567626953125;0.00066131591796875;0.269999999318316;28;100 mA
8.30729897902609;0.300445556640625;0.0006072998046875;0.279999999293068;29;100 mA
8.31729897900084;0.300567626953125;0.000643310546875001;0.28999999926782;30;100 mA
8.32729897897559;0.300506591796875;0.000678405761718751;0.299999999242573;31;100 mA
8.33729897895034;0.300567626953125;0.00063232421875;0.309999999217325;32;100 mA
8.3472989789251;0.30047607421875;0.0006488037109375;0.319999999192078;33;100 mA
8.35729897889985;0.300567626953125;0.000670776367187501;0.32999999916683;34;100 mA
8.3672989788746;0.300567626953125;0.000677490234375;0.339999999141583;35;100 mA
8.37729897884935;0.300537109375;0.0006195068359375;0.349999999116335;36;100 mA
8.38729897882411;0.3006591796875;0.0006695556640625;0.359999999091087;37;100 mA
8.39729897879886;0.30059814453125;0.00067474365234375;0.36999999906584;38;100 mA
8.40729897877361;0.300537109375;0.000637207031250001;0.379999999040592;39;100 mA
8.41729897874836;0.300628662109375;0.000650939941406251;0.389999999015345;40;100 mA
8.42729897872312;0.300445556640625;0.000694885253906249;0.399999998990097;41;100 mA
8.43729897869787;0.300567626953125;0.0006689453125;0.40999999896485;42;100 mA
8.44729897867262;0.30047607421875;0.000643005371093749;0.419999998939602;43;100 mA
8.45729897864737;0.300506591796875;0.00068939208984375;0.429999998914354;44;100 mA
8.46729897862213;0.30059814453125;0.000699768066406251;0.439999998889107;45;100 mA
8.47729897859688;0.300506591796875;0.00066497802734375;0.449999998863859;46;100 mA
8.48729897857163;0.3006591796875;0.000667724609375001;0.459999998838612;47;100 mA
8.49729897854638;0.30047607421875;0.0007275390625;0.469999998813364;48;100 mA
8.50729897852113;0.300567626953125;0.0006622314453125;0.479999998788116;49;100 mA
8.51729897849589;0.30047607421875;0.000675354003906251;0.489999998762869;50;100 mA
8.52729897847064;0.300445556640625;0.0006915283203125;0.499999998737621;51;100 mA
8.53729897844539;0.300628662109375;0.00070159912109375;0.509999998712374;52;100 mA
8.54729897842014;0.300628662109375;0.00064605712890625;0.519999998687126;53;100 mA
8.5572989783949;0.30059814453125;0.000660095214843751;0.529999998661879;54;100 mA
8.56729897836965;0.300567626953125;0.00069915771484375;0.539999998636631;55;100 mA
8.5772989783444;0.300537109375;0.000649414062500001;0.549999998611383;56;100 mA
8.58729897831915;0.3006591796875;0.00065765380859375;0.559999998586136;57;100 mA
8.59729897829391;0.300567626953125;0.000688781738281249;0.569999998560888;58;100 mA
8.60729897826866;0.300537109375;0.000692138671875001;0.579999998535641;59;100 mA
8.61729897824341;0.300628662109375;0.000653991699218751;0.589999998510393;60;100 mA
8.62729897821816;0.300506591796875;0.000690612792968751;0.599999998485146;61;100 mA
8.63729897819292;0.30059814453125;0.000701293945312501;0.609999998459898;62;100 mA
8.64729897816767;0.300445556640625;0.000673522949218749;0.61999999843465;63;100 mA
8.65729897814242;0.300537109375;0.00065185546875;0.629999998409403;64;100 mA
8.66729897811717;0.300506591796875;0.00072662353515625;0.639999998384155;65;100 mA
8.67729897809193;0.300384521484375;0.00068389892578125;0.649999998358908;66;100 mA
8.68729897806668;0.30059814453125;0.000653991699218751;0.65999999833366;67;100 mA
8.69729897804143;0.3004150390625;0.0007080078125;0.669999998308413;68;100 mA
8.70729897801618;0.30047607421875;0.00068939208984375;0.679999998283165;69;100 mA
8.71729897799094;0.30047607421875;0.000673828125000001;0.689999998257917;70;100 mA
8.72729897796569;0.300384521484375;0.000655517578125001;0.69999999823267;71;100 mA
8.73729897794044;0.30047607421875;0.000721130371093751;0.709999998207422;72;100 mA
8.74729897791519;0.300445556640625;0.00066497802734375;0.719999998182175;73;100 mA
8.75729897788995;0.300323486328125;0.00066375732421875;0.729999998156927;74;100 mA
8.7672989778647;0.300445556640625;0.00070068359375;0.73999999813168;75;100 mA
8.77729897783945;0.30035400390625;0.0007000732421875;0.749999998106432;76;100 mA
8.7872989778142;0.30059814453125;0.000647888183593751;0.759999998081184;77;100 mA
8.79729897778896;0.300506591796875;0.000679626464843749;0.769999998055937;78;100 mA
8.80729897776371;0.300445556640625;0.00070220947265625;0.779999998030689;79;100 mA
8.81729897773846;0.300506591796875;0.000661621093750001;0.789999998005442;80;100 mA
8.82729897771321;0.300384521484375;0.000665893554687499;0.799999997980194;81;100 mA
8.83729897768796;0.300537109375;0.00069427490234375;0.809999997954947;82;100 mA
8.84729897766272;0.300384521484375;0.0007000732421875;0.819999997929699;83;100 mA
8.85729897763747;0.300506591796875;0.000649108886718749;0.829999997904451;84;100 mA
8.86729897761222;0.300567626953125;0.000711975097656251;0.839999997879204;85;100 mA
8.87729897758697;0.30047607421875;0.000704040527343749;0.849999997853956;86;100 mA
8.88729897756173;0.300537109375;0.0006683349609375;0.859999997828709;87;100 mA
8.89729897753648;0.30047607421875;0.000662841796875;0.869999997803461;88;100 mA
8.90729897751123;0.300445556640625;0.00071990966796875;0.879999997778214;89;100 mA
8.91729897748598;0.30047607421875;0.00069610595703125;0.889999997752966;90;100 mA
8.92729897746074;0.300445556640625;0.000663146972656251;0.899999997727718;91;100 mA
8.93729897743549;0.30047607421875;0.000710144042968749;0.909999997702471;92;100 mA
8.94729897741024;0.30047607421875;0.00070770263671875;0.919999997677223;93;100 mA
8.95729897738499;0.3004150390625;0.0006756591796875;0.929999997651976;94;100 mA
8.96729897735975;0.300445556640625;0.000687255859374999;0.939999997626728;95;100 mA
8.9772989773345;0.300445556640625;0.00073394775390625;0.949999997601481;96;100 mA
8.98729897730925;0.300567626953125;0.00067626953125;0.959999997576233;97;100 mA
8.997298977284;0.300445556640625;0.00069305419921875;0.969999997550985;98;100 mA
9.00729897725876;0.300537109375;0.000714111328125;0.979999997525738;99;100 mA
9.01729897723351;0.300506591796875;0.000737915039062501;0.98999999750049;100;100 mA
9.02729897720826;0.300506591796875;0.00066375732421875;0.999999997475243;101;100 mA
9.03729897718301;0.30059814453125;0.0007049560546875;1.00999999745;102;100 mA
9.04729897715777;0.30047607421875;0.000740966796875001;1.01999999742475;103;100 mA
9.05729897713252;0.300628662109375;0.0006787109375;1.0299999973995;104;100 mA
9.06729897710727;0.300537109375;0.0006915283203125;1.03999999737425;105;100 mA
9.07729897708202;0.300537109375;0.00071624755859375;1.049999997349;106;100 mA
9.08729897705678;0.300537109375;0.00071746826171875;1.05999999732376;107;100 mA
9.09729897703153;0.300537109375;0.00066864013671875;1.06999999729851;108;100 mA
9.10729897700628;0.300628662109375;0.00071533203125;1.07999999727326;109;100 mA
9.11729897698103;0.3006591796875;0.00071868896484375;1.08999999724801;110;100 mA
9.12729897695579;0.300567626953125;0.000687255859374999;1.09999999722277;111;100 mA
9.13729897693054;0.300689697265625;0.00067718505859375;1.10999999719752;112;100 mA
9.14729897690529;0.30047607421875;0.00073699951171875;1.11999999717227;113;100 mA
9.15729897688004;0.300567626953125;0.000699768066406251;1.12999999714702;114;100 mA
9.1672989768548;0.30059814453125;0.000682678222656249;1.13999999712178;115;100 mA
9.17729897682955;0.300506591796875;0.00072662353515625;1.14999999709653;116;100 mA
9.1872989768043;0.30059814453125;0.000722656250000001;1.15999999707128;117;100 mA
9.19729897677905;0.300506591796875;0.0006939697265625;1.16999999704603;118;100 mA
9.2072989767538;0.300628662109375;0.00068634033203125;1.17999999702079;119;100 mA
9.21729897672856;0.300445556640625;0.000765075683593749;1.18999999699554;120;100 mA
9.22729897670331;0.300506591796875;0.000686035156250001;1.19999999697029;121;100 mA
9.23729897667806;0.300567626953125;0.00068572998046875;1.20999999694504;122;100 mA
9.24729897665281;0.300506591796875;0.0007183837890625;1.2199999969198;123;100 mA
9.25729897662757;0.30059814453125;0.0007232666015625;1.22999999689455;124;100 mA
9.26729897660232;0.300628662109375;0.0006744384765625;1.2399999968693;125;100 mA
9.27729897657707;0.30059814453125;0.000702514648437499;1.24999999684405;126;100 mA
9.28729897655182;0.300567626953125;0.0007354736328125;1.25999999681881;127;100 mA
9.29729897652658;0.30047607421875;0.000687561035156251;1.26999999679356;128;100 mA
9.30729897650133;0.30059814453125;0.00069732666015625;1.27999999676831;129;100 mA
9.31729897647608;0.300567626953125;0.0007366943359375;1.28999999674306;130;100 mA
9.32729897645083;0.300506591796875;0.000725402832031249;1.29999999671782;131;100 mA
9.33729897642559;0.300628662109375;0.00067169189453125;1.30999999669257;132;100 mA
9.34729897640034;0.3004150390625;0.000722656250000001;1.31999999666732;133;100 mA
9.35729897637509;0.300537109375;0.000708923339843751;1.32999999664207;134;100 mA
9.36729897634984;0.30047607421875;0.000692138671875001;1.33999999661683;135;100 mA
9.3772989763246;0.300506591796875;0.000667724609375001;1.34999999659158;136;100 mA
9.38729897629935;0.300506591796875;0.0007305908203125;1.35999999656633;137;100 mA
9.3972989762741;0.300445556640625;0.000697937011718749;1.36999999654108;138;100 mA
9.40729897624885;0.300506591796875;0.0006549072265625;1.37999999651583;139;100 mA
9.41729897622361;0.30035400390625;0.000726318359375;1.38999999649059;140;100 mA
9.42729897619836;0.30047607421875;0.0007098388671875;1.39999999646534;141;100 mA
9.43729897617311;0.300537109375;0.00068328857421875;1.40999999644009;142;100 mA
9.44729897614786;0.300445556640625;0.00069580078125;1.41999999641484;143;100 mA
9.45729897612262;0.30047607421875;0.00074615478515625;1.4299999963896;144;100 mA
9.46729897609737;0.30047607421875;0.000694885253906249;1.43999999636435;145;100 mA
9.47729897607212;0.30035400390625;0.00070159912109375;1.4499999963391;146;100 mA
9.48729897604687;0.300506591796875;0.000733032226562499;1.45999999631385;147;100 mA
9.49729897602163;0.300445556640625;0.000742187499999999;1.46999999628861;148;100 mA
9.50729897599638;0.300567626953125;0.0006805419921875;1.47999999626336;149;100 mA
9.51729897597113;0.300506591796875;0.000726318359375;1.48999999623811;150;100 mA
9.52729897594588;0.300537109375;0.000732421875;1.49999999621286;151;100 mA
9.53729897592063;0.300506591796875;0.000693664550781251;1.50999999618762;152;100 mA
9.54729897589539;0.300445556640625;0.00070220947265625;1.51999999616237;153;100 mA
9.55729897587014;0.300506591796875;0.000731811523437501;1.52999999613712;154;100 mA
9.56729897584489;0.300384521484375;0.0007452392578125;1.53999999611187;155;100 mA
9.57729897581964;0.300537109375;0.0006854248046875;1.54999999608663;156;100 mA
9.5872989757944;0.300506591796875;0.0007354736328125;1.55999999606138;157;100 mA
9.59729897576915;0.300506591796875;0.0007305908203125;1.56999999603613;158;100 mA
9.6072989757439;0.300506591796875;0.00070343017578125;1.57999999601088;159;100 mA
9.61729897571865;0.30047607421875;0.000702819824218751;1.58999999598564;160;100 mA
9.62729897569341;0.300445556640625;0.000750122070312501;1.59999999596039;161;100 mA
9.63729897566816;0.300537109375;0.000718994140625;1.60999999593514;162;100 mA
9.64729897564291;0.300506591796875;0.00069305419921875;1.61999999590989;163;100 mA
9.65729897561766;0.300506591796875;0.00072479248046875;1.62999999588465;164;100 mA
9.66729897559242;0.3004150390625;0.00073394775390625;1.6399999958594;165;100 mA
9.67729897556717;0.30047607421875;0.00069122314453125;1.64999999583415;166;100 mA
9.68729897554192;0.300537109375;0.000698242187500001;1.6599999958089;167;100 mA
9.69729897551667;0.300445556640625;0.00075286865234375;1.66999999578366;168;100 mA
9.70729897549143;0.3006591796875;0.000687255859374999;1.67999999575841;169;100 mA
9.71729897546618;0.30047607421875;0.00071075439453125;1.68999999573316;170;100 mA
9.72729897544093;0.300567626953125;0.00072296142578125;1.69999999570791;171;100 mA
9.73729897541568;0.300506591796875;0.000740966796875001;1.70999999568267;172;100 mA
9.74729897539044;0.300567626953125;0.00068206787109375;1.71999999565742;173;100 mA
9.75729897536519;0.30059814453125;0.000705871582031251;1.72999999563217;174;100 mA
9.76729897533994;0.300567626953125;0.000739440917968751;1.73999999560692;175;100 mA
9.77729897531469;0.300628662109375;0.000697021484375;1.74999999558167;176;100 mA
9.78729897528945;0.300567626953125;0.00069549560546875;1.75999999555643;177;100 mA
9.7972989752642;0.300537109375;0.00072998046875;1.76999999553118;178;100 mA
9.80729897523895;0.300567626953125;0.000721130371093751;1.77999999550593;179;100 mA
9.8172989752137;0.300567626953125;0.00068817138671875;1.78999999548068;180;100 mA
9.82729897518846;0.300567626953125;0.0007244873046875;1.79999999545544;181;100 mA
9.83729897516321;0.300628662109375;0.000733032226562499;1.80999999543019;182;100 mA
9.84729897513796;0.300537109375;0.0007086181640625;1.81999999540494;183;100 mA
9.85729897511271;0.3006591796875;0.0006939697265625;1.82999999537969;184;100 mA
9.86729897508746;0.300445556640625;0.000765380859375001;1.83999999535445;185;100 mA
9.87729897506222;0.300537109375;0.00072479248046875;1.8499999953292;186;100 mA
9.88729897503697;0.300567626953125;0.00071563720703125;1.85999999530395;187;100 mA
9.89729897501172;0.300506591796875;0.0007586669921875;1.8699999952787;188;100 mA
9.90729897498647;0.30059814453125;0.000748596191406251;1.87999999525346;189;100 mA
9.91729897496123;0.300628662109375;0.00072601318359375;1.88999999522821;190;100 mA
9.92729897493598;0.30059814453125;0.0007183837890625;1.89999999520296;191;100 mA
9.93729897491073;0.300506591796875;0.00077728271484375;1.90999999517771;192;100 mA
9.94729897488548;0.300506591796875;0.00072174072265625;1.91999999515247;193;100 mA
9.95729897486024;0.30059814453125;0.0007275390625;1.92999999512722;194;100 mA
9.96729897483499;0.30047607421875;0.00076324462890625;1.93999999510197;195;100 mA
9.97729897480974;0.300567626953125;0.00076171875;1.94999999507672;196;100 mA
9.98729897478449;0.30059814453125;0.000702819824218751;1.95999999505148;197;100 mA
9.99729897475925;0.300537109375;0.00074005126953125;1.96999999502623;198;100 mA
10.007298974734;0.300537109375;0.00075836181640625;1.97999999500098;199;100 mA
10.0172989747088;0.300445556640625;0.000722656250000001;1.98999999497573;200;100 mA
10.0272989746835;0.300537109375;0.000713500976562501;1.99999999495049;201;100 mA
10.0372989746583;0.300567626953125;0.00074951171875;2.00999999492524;202;100 mA
10.047298974633;0.300506591796875;0.000748291015624999;2.01999999489999;203;100 mA
10.0572989746078;0.3006591796875;0.00068939208984375;2.02999999487474;204;100 mA
10.0672989745825;0.300384521484375;0.000748291015624999;2.0399999948495;205;100 mA
10.0772989745573;0.30059814453125;0.000743713378906249;2.04999999482425;206;100 mA
10.087298974532;0.3004150390625;0.000708923339843751;2.059999994799;207;100 mA
10.0972989745068;0.300506591796875;0.00070220947265625;2.06999999477375;208;100 mA
10.1072989744815;0.30047607421875;0.00075836181640625;2.0799999947485;209;100 mA
10.1172989744563;0.300384521484375;0.00073272705078125;2.08999999472326;210;100 mA
10.127298974431;0.300445556640625;0.000693359375;2.09999999469801;211;100 mA
10.1372989744058;0.300384521484375;0.000737915039062501;2.10999999467276;212;100 mA
10.1472989743805;0.3004150390625;0.00074493408203125;2.11999999464751;213;100 mA
10.1572989743553;0.30047607421875;0.000698242187500001;2.12999999462227;214;100 mA
10.16729897433;0.300445556640625;0.0007110595703125;2.13999999459702;215;100 mA
10.1772989743048;0.30047607421875;0.000756225585937501;2.14999999457177;216;100 mA
10.1872989742795;0.300567626953125;0.00070098876953125;2.15999999454652;217;100 mA
10.1972989742543;0.30035400390625;0.00072601318359375;2.16999999452128;218;100 mA
10.207298974229;0.300445556640625;0.000734558105468749;2.17999999449603;219;100 mA
10.2172989742038;0.30029296875;0.00076171875;2.18999999447078;220;100 mA
10.2272989741786;0.30059814453125;0.000688781738281249;2.19999999444553;221;100 mA
10.2372989741533;0.300506591796875;0.0007293701171875;2.20999999442029;222;100 mA
10.2472989741281;0.30047607421875;0.000750732421875;2.21999999439504;223;100 mA
10.2572989741028;0.300537109375;0.000705871582031251;2.22999999436979;224;100 mA
10.2672989740776;0.300384521484375;0.000715026855468751;2.23999999434454;225;100 mA
10.2772989740523;0.300537109375;0.00074798583984375;2.2499999943193;226;100 mA
10.2872989740271;0.30047607421875;0.00073974609375;2.25999999429405;227;100 mA
10.2972989740018;0.300506591796875;0.000693664550781251;2.2699999942688;228;100 mA
10.3072989739766;0.30047607421875;0.0007391357421875;2.27999999424355;229;100 mA
10.3172989739513;0.30047607421875;0.000745544433593751;2.28999999421831;230;100 mA
10.3272989739261;0.30059814453125;0.00071258544921875;2.29999999419306;231;100 mA
10.3372989739008;0.300567626953125;0.000697937011718749;2.30999999416781;232;100 mA
10.3472989738756;0.300384521484375;0.000763549804687499;2.31999999414256;233;100 mA
10.3572989738503;0.300537109375;0.00071868896484375;2.32999999411732;234;100 mA
10.3672989738251;0.300445556640625;0.0007147216796875;2.33999999409207;235;100 mA
10.3772989737998;0.300628662109375;0.000739440917968751;2.34999999406682;236;100 mA
10.3872989737746;0.300537109375;0.0007476806640625;2.35999999404157;237;100 mA
10.3972989737493;0.30047607421875;0.00071258544921875;2.36999999401633;238;100 mA
10.4072989737241;0.300537109375;0.000707397460937501;2.37999999399108;239;100 mA
10.4172989736988;0.30047607421875;0.00077392578125;2.38999999396583;240;100 mA
10.4272989736736;0.300567626953125;0.0006976318359375;2.39999999394058;241;100 mA
10.4372989736484;0.300537109375;0.00071441650390625;2.40999999391533;242;100 mA
10.4472989736231;0.30059814453125;0.00074676513671875;2.41999999389009;243;100 mA
10.4572989735979;0.3006591796875;0.0007476806640625;2.42999999386484;244;100 mA
10.4672989735726;0.300506591796875;0.0006866455078125;2.43999999383959;245;100 mA
10.4772989735474;0.3006591796875;0.0007159423828125;2.44999999381434;246;100 mA
10.4872989735221;0.300537109375;0.000742187499999999;2.4599999937891;247;100 mA
10.4972989734969;0.300567626953125;0.000706787109375;2.46999999376385;248;100 mA
10.5072989734716;0.300567626953125;0.00069580078125;2.4799999937386;249;100 mA
10.5172989734464;0.30047607421875;0.000751342773437499;2.48999999371335;250;100 mA
10.5272989734211;0.300628662109375;0.00072784423828125;2.49999999368811;251;100 mA
10.5372989733959;0.300567626953125;0.000688781738281249;2.50999999366286;252;100 mA
10.5472989733706;0.30059814453125;0.00073150634765625;2.51999999363761;253;100 mA
10.5572989733454;0.3006591796875;0.00072296142578125;2.52999999361236;254;100 mA
10.5672989733201;0.30047607421875;0.0007080078125;2.53999999358712;255;100 mA
10.5772989732949;0.300689697265625;0.00067779541015625;2.54999999356187;256;100 mA
10.5872989732696;0.3004150390625;0.00074188232421875;2.55999999353662;257;100 mA
10.5972989732444;0.300537109375;0.000703125;2.56999999351137;258;100 mA
10.6072989732191;0.3006591796875;0.000675354003906251;2.57999999348613;259;100 mA
10.6172989731939;0.300445556640625;0.000728759765625001;2.58999999346088;260;100 mA
10.6272989731686;0.300567626953125;0.000720825195312499;2.59999999343563;261;100 mA
10.6372989731434;0.300506591796875;0.00068389892578125;2.60999999341038;262;100 mA
10.6472989731182;0.30059814453125;0.000702819824218751;2.61999999338514;263;100 mA
10.6572989730929;0.30047607421875;0.000747070312500001;2.62999999335989;264;100 mA
10.6672989730677;0.300537109375;0.00069000244140625;2.63999999333464;265;100 mA
10.6772989730424;0.300537109375;0.000690307617187499;2.64999999330939;266;100 mA
10.6872989730172;0.3004150390625;0.0007232666015625;2.65999999328415;267;100 mA
10.6972989729919;0.300506591796875;0.0007373046875;2.6699999932589;268;100 mA
10.7072989729667;0.3006591796875;0.000675048828124999;2.67999999323365;269;100 mA
10.7172989729414;0.300506591796875;0.000724182128906251;2.6899999932084;270;100 mA
10.7272989729162;0.300537109375;0.00073211669921875;2.69999999318316;271;100 mA
10.7372989728909;0.30047607421875;0.0006988525390625;2.70999999315791;272;100 mA
10.7472989728657;0.300537109375;0.00068695068359375;2.71999999313266;273;100 mA
10.7572989728404;0.300537109375;0.00072296142578125;2.72999999310741;274;100 mA
10.7672989728152;0.3004150390625;0.000733337402343751;2.73999999308217;275;100 mA
10.7772989727899;0.300628662109375;0.00067413330078125;2.74999999305692;276;100 mA
10.7872989727647;0.3004150390625;0.000734558105468749;2.75999999303167;277;100 mA
10.7972989727394;0.300537109375;0.0007281494140625;2.76999999300642;278;100 mA
10.8072989727142;0.300445556640625;0.000705566406249999;2.77999999298117;279;100 mA
10.8172989726889;0.300445556640625;0.00070220947265625;2.78999999295593;280;100 mA
10.8272989726637;0.300384521484375;0.000757751464843751;2.79999999293068;281;100 mA
10.8372989726385;0.30047607421875;0.000719299316406249;2.80999999290543;282;100 mA
10.8472989726132;0.300537109375;0.000702819824218751;2.81999999288018;283;100 mA
10.857298972588;0.300445556640625;0.0007366943359375;2.82999999285494;284;100 mA
10.8672989725627;0.300323486328125;0.00075958251953125;2.83999999282969;285;100 mA
10.8772989725375;0.300506591796875;0.000698242187500001;2.84999999280444;286;100 mA
10.8872989725122;0.300445556640625;0.0007183837890625;2.85999999277919;287;100 mA
10.897298972487;0.30047607421875;0.000770263671875;2.86999999275395;288;100 mA
10.9072989724617;0.300537109375;0.0007098388671875;2.8799999927287;289;100 mA
10.9172989724365;0.300323486328125;0.000730285644531251;2.88999999270345;290;100 mA
10.9272989724112;0.300567626953125;0.0007489013671875;2.8999999926782;291;100 mA
10.937298972386;0.300384521484375;0.00076934814453125;2.90999999265296;292;100 mA
10.9472989723607;0.300567626953125;0.00070770263671875;2.91999999262771;293;100 mA
10.9572989723355;0.300506591796875;0.00075439453125;2.92999999260246;294;100 mA
10.9672989723102;0.30047607421875;0.000774230957031249;2.93999999257721;295;100 mA
10.977298972285;0.300537109375;0.00072662353515625;2.94999999255197;296;100 mA
10.9872989722597;0.30047607421875;0.00072479248046875;2.95999999252672;297;100 mA
10.9972989722345;0.300506591796875;0.000780029296875;2.96999999250147;298;100 mA
11.0072989722092;0.300506591796875;0.000755920410156249;2.97999999247622;299;100 mA
11.017298972184;0.300537109375;0.000718994140625;2.98999999245098;300;100 mA
11.0272989721587;0.300537109375;0.000762329101562501;2.99999999242573;301;100 mA
11.0372989721335;0.300506591796875;0.0007611083984375;3.00999999240048;302;100 mA
11.0472989721083;0.300567626953125;0.000734863281250001;3.01999999237523;303;100 mA
11.057298972083;0.300537109375;0.00071258544921875;3.02999999234999;304;100 mA
11.0672989720578;0.3004150390625;0.00078582763671875;3.03999999232474;305;100 mA
11.0772989720325;0.3006591796875;0.0007391357421875;3.04999999229949;306;100 mA
11.0872989720073;0.300506591796875;0.00072296142578125;3.05999999227424;307;100 mA
11.097298971982;0.30059814453125;0.00076141357421875;3.069999992249;308;100 mA
11.1072989719568;0.300506591796875;0.00076629638671875;3.07999999222375;309;100 mA
11.1172989719315;0.30047607421875;0.00072906494140625;3.0899999921985;310;100 mA
11.1272989719063;0.30059814453125;0.0007373046875;3.09999999217325;311;100 mA
11.137298971881;0.30047607421875;0.00078582763671875;3.109999992148;312;100 mA
11.1472989718558;0.30059814453125;0.000725402832031249;3.11999999212276;313;100 mA
11.1572989718305;0.300537109375;0.0007391357421875;3.12999999209751;314;100 mA
11.1672989718053;0.300537109375;0.0007708740234375;3.13999999207226;315;100 mA
11.17729897178;0.3006591796875;0.00077362060546875;3.14999999204701;316;100 mA
11.1872989717548;0.300567626953125;0.000720825195312499;3.15999999202177;317;100 mA
11.1972989717295;0.300628662109375;0.0007611083984375;3.16999999199652;318;100 mA
11.2072989717043;0.30059814453125;0.000772705078124999;3.17999999197127;319;100 mA
11.217298971679;0.300537109375;0.000744018554687501;3.18999999194602;320;100 mA
11.2272989716538;0.3006591796875;0.00072601318359375;3.19999999192078;321;100 mA
11.2372989716285;0.300445556640625;0.000778808593749999;3.20999999189553;322;100 mA
11.2472989716033;0.300567626953125;0.0007672119140625;3.21999999187028;323;100 mA
11.2572989715781;0.300567626953125;0.00072021484375;3.22999999184503;324;100 mA
11.2672989715528;0.300506591796875;0.000780639648437501;3.23999999181979;325;100 mA
11.2772989715276;0.3006591796875;0.000758972167968749;3.24999999179454;326;100 mA
11.2872989715023;0.30047607421875;0.00074920654296875;3.25999999176929;327;100 mA
11.2972989714771;0.300628662109375;0.000726928710937499;3.26999999174404;328;100 mA
11.3072989714518;0.30047607421875;0.0007781982421875;3.2799999917188;329;100 mA
11.3172989714266;0.300506591796875;0.000737915039062501;3.28999999169355;330;100 mA
11.3272989714013;0.300506591796875;0.00072662353515625;3.2999999916683;331;100 mA
11.3372989713761;0.30047607421875;0.00074798583984375;3.30999999164305;332;100 mA
11.3472989713508;0.300445556640625;0.0007720947265625;3.31999999161781;333;100 mA
11.3572989713256;0.30059814453125;0.00070068359375;3.32999999159256;334;100 mA
11.3672989713003;0.30047607421875;0.00073089599609375;3.33999999156731;335;100 mA
11.3772989712751;0.30047607421875;0.000771179199218749;3.34999999154206;336;100 mA
11.3872989712498;0.30047607421875;0.000710144042968749;3.35999999151682;337;100 mA
11.3972989712246;0.300537109375;0.000726928710937499;3.36999999149157;338;100 mA
11.4072989711993;0.300445556640625;0.000740966796875001;3.37999999146632;339;100 mA
11.4172989711741;0.300445556640625;0.000762939453125;3.38999999144107;340;100 mA
11.4272989711488;0.30059814453125;0.0006842041015625;3.39999999141583;341;100 mA
11.4372989711236;0.300445556640625;0.000726318359375;3.40999999139058;342;100 mA
11.4472989710983;0.300506591796875;0.00075714111328125;3.41999999136533;343;100 mA
11.4572989710731;0.30047607421875;0.0007080078125;3.42999999134008;344;100 mA
11.4672989710479;0.30047607421875;0.000705871582031251;3.43999999131483;345;100 mA
11.4772989710226;0.300537109375;0.0007476806640625;3.44999999128959;346;100 mA
11.4872989709974;0.300384521484375;0.000736389160156251;3.45999999126434;347;100 mA
11.4972989709721;0.300537109375;0.00070159912109375;3.46999999123909;348;100 mA
11.5072989709469;0.300384521484375;0.0007452392578125;3.47999999121384;349;100 mA
11.5172989709216;0.3004150390625;0.00074462890625;3.4899999911886;350;100 mA
11.5272989708964;0.30047607421875;0.0007171630859375;3.49999999116335;351;100 mA
11.5372989708711;0.3004150390625;0.000709228515625;3.5099999911381;352;100 mA
11.5472989708459;0.300384521484375;0.00077362060546875;3.51999999111285;353;100 mA
11.5572989708206;0.30047607421875;0.000713500976562501;3.52999999108761;354;100 mA
11.5672989707954;0.30035400390625;0.000706787109375;3.53999999106236;355;100 mA
11.5772989707701;0.30047607421875;0.00073822021484375;3.54999999103711;356;100 mA
11.5872989707449;0.300384521484375;0.00074615478515625;3.55999999101186;357;100 mA
11.5972989707196;0.300506591796875;0.0007000732421875;3.56999999098662;358;100 mA
11.6072989706944;0.3004150390625;0.00070526123046875;3.57999999096137;359;100 mA
11.6172989706691;0.300445556640625;0.00075958251953125;3.58999999093612;360;100 mA
11.6272989706439;0.30059814453125;0.000696411132812499;3.59999999091087;361;100 mA
11.6372989706186;0.3004150390625;0.00070465087890625;3.60999999088563;362;100 mA
11.6472989705934;0.300506591796875;0.0007373046875;3.61999999086038;363;100 mA
11.6572989705681;0.300445556640625;0.00074920654296875;3.62999999083513;364;100 mA
11.6672989705429;0.300537109375;0.000699768066406251;3.63999999080988;365;100 mA
11.6772989705177;0.300537109375;0.000734863281250001;3.64999999078464;366;100 mA
11.6872989704924;0.300537109375;0.00076324462890625;3.65999999075939;367;100 mA
11.6972989704672;0.30059814453125;0.000731201171875;3.66999999073414;368;100 mA
11.7072989704419;0.300537109375;0.0007122802734375;3.67999999070889;369;100 mA
11.7172989704167;0.3004150390625;0.000788269042968751;3.68999999068365;370;100 mA
11.7272989703914;0.300628662109375;0.00076751708984375;3.6999999906584;371;100 mA
11.7372989703662;0.30059814453125;0.00072998046875;3.70999999063315;372;100 mA
11.7472989703409;0.300567626953125;0.00078857421875;3.7199999906079;373;100 mA
11.7572989703157;0.300537109375;0.0007830810546875;3.72999999058266;374;100 mA
11.7672989702904;0.300506591796875;0.00074951171875;3.73999999055741;375;100 mA
11.7772989702652;0.300567626953125;0.000732421875;3.74999999053216;376;100 mA
11.7872989702399;0.30035400390625;0.00080230712890625;3.75999999050691;377;100 mA
11.7972989702147;0.30059814453125;0.00076568603515625;3.76999999048167;378;100 mA
11.8072989701894;0.300537109375;0.000740661621093749;3.77999999045642;379;100 mA
11.8172989701642;0.300567626953125;0.000797424316406251;3.78999999043117;380;100 mA
11.8272989701389;0.30059814453125;0.00079376220703125;3.79999999040592;381;100 mA
11.8372989701137;0.300506591796875;0.000750122070312501;3.80999999038067;382;100 mA
11.8472989700884;0.3006591796875;0.00076141357421875;3.81999999035543;383;100 mA
11.8572989700632;0.300506591796875;0.000797424316406251;3.82999999033018;384;100 mA
11.867298970038;0.300567626953125;0.00075042724609375;3.83999999030493;385;100 mA
11.8772989700127;0.300567626953125;0.00075531005859375;3.84999999027968;386;100 mA
11.8872989699875;0.300537109375;0.000771484375000001;3.85999999025444;387;100 mA
11.8972989699622;0.300628662109375;0.000783691406250001;3.86999999022919;388;100 mA
11.907298969937;0.300567626953125;0.000723876953125;3.87999999020394;389;100 mA
11.9172989699117;0.300567626953125;0.0007708740234375;3.88999999017869;390;100 mA
11.9272989698865;0.300567626953125;0.000770263671875;3.89999999015345;391;100 mA
11.9372989698612;0.30047607421875;0.000742187499999999;3.9099999901282;392;100 mA
11.947298969836;0.300689697265625;0.00072662353515625;3.91999999010295;393;100 mA
11.9572989698107;0.30047607421875;0.000778808593749999;3.9299999900777;394;100 mA
11.9672989697855;0.30047607421875;0.00076446533203125;3.93999999005246;395;100 mA
11.9772989697602;0.30059814453125;0.00072174072265625;3.94999999002721;396;100 mA
11.987298969735;0.300445556640625;0.00077728271484375;3.95999999000196;397;100 mA
11.9972989697097;0.300537109375;0.0007891845703125;3.96999998997671;398;100 mA
12.0072989696845;0.30047607421875;0.0007403564453125;3.97999998995147;399;100 mA
12.0172989696592;0.300537109375;0.00074188232421875;3.98999998992622;400;100 mA
12.027298969634;0.300445556640625;0.00079376220703125;3.99999998990097;401;100 mA
12.0372989696087;0.3004150390625;0.000747070312500001;4.00999998987572;402;100 mA
12.0472989695835;0.3004150390625;0.00074951171875;4.01999998985048;403;100 mA
12.0572989695582;0.300445556640625;0.00077362060546875;4.02999998982523;404;100 mA
12.067298969533;0.300445556640625;0.000798950195312501;4.03999998979998;405;100 mA
12.0772989695078;0.300537109375;0.00072998046875;4.04999998977473;406;100 mA
12.0872989694825;0.3004150390625;0.000755920410156249;4.05999998974949;407;100 mA
12.0972989694573;0.300506591796875;0.000811767578125;4.06999998972424;408;100 mA
12.107298969432;0.30047607421875;0.000740966796875001;4.07999998969899;409;100 mA
12.1172989694068;0.300445556640625;0.00076416015625;4.08999998967374;410;100 mA
12.1272989693815;0.300445556640625;0.0007843017578125;4.0999999896485;411;100 mA
12.1372989693563;0.300384521484375;0.00079925537109375;4.10999998962325;412;100 mA
12.147298969331;0.300567626953125;0.0007244873046875;4.119999989598;413;100 mA
12.1572989693058;0.300445556640625;0.00076568603515625;4.12999998957275;414;100 mA
12.1672989692805;0.30047607421875;0.000784912109375;4.1399999895475;415;100 mA
12.1772989692553;0.300445556640625;0.00074188232421875;4.14999998952226;416;100 mA
12.18729896923;0.3004150390625;0.00072662353515625;4.15999998949701;417;100 mA
12.1972989692048;0.30047607421875;0.00078094482421875;4.16999998947176;418;100 mA
12.2072989691795;0.30047607421875;0.00074951171875;4.17999998944651;419;100 mA
12.2172989691543;0.300537109375;0.0007232666015625;4.18999998942127;420;100 mA
12.227298969129;0.30047607421875;0.00076324462890625;4.19999998939602;421;100 mA
12.2372989691038;0.30047607421875;0.00076324462890625;4.20999998937077;422;100 mA
12.2472989690785;0.300537109375;0.000733032226562499;4.21999998934552;423;100 mA
12.2572989690533;0.30047607421875;0.0007171630859375;4.22999998932028;424;100 mA
12.267298969028;0.3004150390625;0.000784912109375;4.23999998929503;425;100 mA
12.2772989690028;0.300567626953125;0.0007244873046875;4.24999998926978;426;100 mA
12.2872989689776;0.300445556640625;0.0007122802734375;4.25999998924453;427;100 mA
12.2972989689523;0.300567626953125;0.000745544433593751;4.26999998921929;428;100 mA
12.3072989689271;0.30047607421875;0.00075531005859375;4.27999998919404;429;100 mA
12.3172989689018;0.30059814453125;0.00070526123046875;4.28999998916879;430;100 mA
12.3272989688766;0.300567626953125;0.00072174072265625;4.29999998914354;431;100 mA
12.3372989688513;0.30047607421875;0.000760498046875;4.3099999891183;432;100 mA
12.3472989688261;0.300628662109375;0.000713195800781249;4.31999998909305;433;100 mA
12.3572989688008;0.30047607421875;0.000705871582031251;4.3299999890678;434;100 mA
12.3672989687756;0.300567626953125;0.000740661621093749;4.33999998904255;435;100 mA
12.3772989687503;0.300537109375;0.00074951171875;4.34999998901731;436;100 mA
12.3872989687251;0.30059814453125;0.000686035156250001;4.35999998899206;437;100 mA
12.3972989686998;0.300537109375;0.0007373046875;4.36999998896681;438;100 mA
12.4072989686746;0.300567626953125;0.00073272705078125;4.37999998894156;439;100 mA
12.4172989686493;0.30059814453125;0.0007183837890625;4.38999998891632;440;100 mA
12.4272989686241;0.300567626953125;0.000696716308593751;4.39999998889107;441;100 mA
12.4372989685988;0.300384521484375;0.000758056640625;4.40999998886582;442;100 mA
12.4472989685736;0.300628662109375;0.00073883056640625;4.41999998884057;443;100 mA
12.4572989685483;0.30059814453125;0.00069549560546875;4.42999998881533;444;100 mA
12.4672989685231;0.300537109375;0.00075286865234375;4.43999998879008;445;100 mA
12.4772989684978;0.300628662109375;0.000750122070312501;4.44999998876483;446;100 mA
12.4872989684726;0.300506591796875;0.0007159423828125;4.45999998873958;447;100 mA
12.4972989684474;0.3006591796875;0.000713195800781249;4.46999998871433;448;100 mA
12.5072989684221;0.300445556640625;0.00077484130859375;4.47999998868909;449;100 mA
12.5172989683969;0.300537109375;0.000722656250000001;4.48999998866384;450;100 mA
12.5272989683716;0.300567626953125;0.00069000244140625;4.49999998863859;451;100 mA
12.5372989683464;0.300506591796875;0.0007293701171875;4.50999998861334;452;100 mA
12.5472989683211;0.300567626953125;0.00074462890625;4.5199999885881;453;100 mA
12.5572989682959;0.30059814453125;0.000673828125000001;4.52999998856285;454;100 mA
12.5672989682706;0.300537109375;0.000712890625;4.5399999885376;455;100 mA
12.5772989682454;0.300506591796875;0.000744018554687501;4.54999998851235;456;100 mA
12.5872989682201;0.300537109375;0.00069244384765625;4.55999998848711;457;100 mA
12.5972989681949;0.300537109375;0.000702514648437499;4.56999998846186;458;100 mA
12.6072989681696;0.300445556640625;0.0007183837890625;4.57999998843661;459;100 mA
12.6172989681444;0.300537109375;0.0007476806640625;4.58999998841136;460;100 mA
12.6272989681191;0.30059814453125;0.000670776367187501;4.59999998838612;461;100 mA
12.6372989680939;0.3004150390625;0.000730285644531251;4.60999998836087;462;100 mA
12.6472989680686;0.30059814453125;0.000731811523437501;4.61999998833562;463;100 mA
12.6572989680434;0.300445556640625;0.00070526123046875;4.62999998831037;464;100 mA
12.6672989680181;0.300537109375;0.00069732666015625;4.63999998828513;465;100 mA
12.6772989679929;0.30047607421875;0.000749816894531249;4.64999998825988;466;100 mA
12.6872989679676;0.300445556640625;0.0007232666015625;4.65999998823463;467;100 mA
12.6972989679424;0.300506591796875;0.00069244384765625;4.66999998820938;468;100 mA
12.7072989679172;0.300384521484375;0.000734863281250001;4.67999998818414;469;100 mA
12.7172989678919;0.30047607421875;0.00074615478515625;4.68999998815889;470;100 mA
12.7272989678667;0.30047607421875;0.00071380615234375;4.69999998813364;471;100 mA
12.7372989678414;0.300506591796875;0.00070068359375;4.70999998810839;472;100 mA
12.7472989678162;0.3004150390625;0.00076812744140625;4.71999998808315;473;100 mA
12.7572989677909;0.300445556640625;0.0007086181640625;4.7299999880579;474;100 mA
12.7672989677657;0.300384521484375;0.00071258544921875;4.73999998803265;475;100 mA
12.7772989677404;0.300445556640625;0.00073760986328125;4.7499999880074;476;100 mA
12.7872989677152;0.3004150390625;0.00075836181640625;4.75999998798216;477;100 mA
12.7972989676899;0.300567626953125;0.0007049560546875;4.76999998795691;478;100 mA
12.8072989676647;0.300506591796875;0.00072021484375;4.77999998793166;479;100 mA
12.8172989676394;0.30047607421875;0.000771179199218749;4.78999998790641;480;100 mA
12.8272989676142;0.300567626953125;0.000705566406249999;4.79999998788116;481;100 mA
12.8372989675889;0.30035400390625;0.000715026855468751;4.80999998785592;482;100 mA
12.8472989675637;0.300506591796875;0.00073699951171875;4.81999998783067;483;100 mA
12.8572989675384;0.300445556640625;0.0007476806640625;4.82999998780542;484;100 mA
12.8672989675132;0.30059814453125;0.00067779541015625;4.83999998778017;485;100 mA
12.8772989674879;0.300506591796875;0.000734558105468749;4.84999998775493;486;100 mA
12.8872989674627;0.300537109375;0.00073394775390625;4.85999998772968;487;100 mA
12.8972989674375;0.300537109375;0.000719299316406249;4.86999998770443;488;100 mA
12.9072989674122;0.300567626953125;0.00068023681640625;4.87999998767918;489;100 mA
12.917298967387;0.30047607421875;0.000753173828125001;4.88999998765394;490;100 mA
12.9272989673617;0.300567626953125;0.000727233886718751;4.89999998762869;491;100 mA
12.9372989673365;0.300567626953125;0.000682373046875;4.90999998760344;492;100 mA
12.9472989673112;0.300506591796875;0.00073699951171875;4.91999998757819;493;100 mA
12.957298967286;0.300537109375;0.00072357177734375;4.92999998755295;494;100 mA
12.9672989672607;0.30047607421875;0.00071136474609375;4.9399999875277;495;100 mA
12.9772989672355;0.300567626953125;0.000689086914062501;4.94999998750245;496;100 mA
12.9872989672102;0.300384521484375;0.0007586669921875;4.9599999874772;497;100 mA
12.997298967185;0.300628662109375;0.00070770263671875;4.96999998745196;498;100 mA
13.0072989671597;0.300537109375;0.000697937011718749;4.97999998742671;499;100 mA
13.0172989671345;0.300537109375;0.00073974609375;4.98999998740146;500;100 mA
13.0272989671092;0.300537109375;0.00074920654296875;4.99999998737621;501;100 mA
13.037298967084;0.300445556640625;0.000684509277343751;5.00999998735097;502;100 mA
13.0472989670587;0.300628662109375;0.00071746826171875;5.01999998732572;503;100 mA
13.0572989670335;0.300445556640625;0.00074951171875;5.02999998730047;504;100 mA
13.0672989670082;0.300567626953125;0.00070709228515625;5.03999998727522;505;100 mA
13.077298966983;0.300537109375;0.00070068359375;5.04999998724998;506;100 mA
13.0872989669577;0.300537109375;0.000733337402343751;5.05999998722473;507;100 mA
13.0972989669325;0.300567626953125;0.00075225830078125;5.06999998719948;508;100 mA
13.1072989669073;0.300689697265625;0.00068572998046875;5.07999998717423;509;100 mA
13.117298966882;0.30059814453125;0.000748596191406251;5.08999998714899;510;100 mA
13.1272989668568;0.30059814453125;0.000733337402343751;5.09999998712374;511;100 mA
13.1372989668315;0.300537109375;0.000703125;5.10999998709849;512;100 mA
13.1472989668063;0.3006591796875;0.000688781738281249;5.11999998707324;513;100 mA
13.157298966781;0.30047607421875;0.000740966796875001;5.129999987048;514;100 mA
13.1672989667558;0.300506591796875;0.000719299316406249;5.13999998702275;515;100 mA
13.1772989667305;0.3006591796875;0.00067413330078125;5.1499999869975;516;100 mA
13.1872989667053;0.3004150390625;0.0007293701171875;5.15999998697225;517;100 mA
13.19729896668;0.30059814453125;0.0007305908203125;5.169999986947;518;100 mA
13.2072989666548;0.30047607421875;0.00068511962890625;5.17999998692176;519;100 mA
13.2172989666295;0.300567626953125;0.000688781738281249;5.18999998689651;520;100 mA
13.2272989666043;0.300445556640625;0.000744018554687501;5.19999998687126;521;100 mA
13.237298966579;0.3004150390625;0.000697937011718749;5.20999998684601;522;100 mA
13.2472989665538;0.300567626953125;0.00069000244140625;5.21999998682077;523;100 mA
13.2572989665285;0.30047607421875;0.00071258544921875;5.22999998679552;524;100 mA
13.2672989665033;0.30047607421875;0.0007403564453125;5.23999998677027;525;100 mA
13.277298966478;0.300567626953125;0.000675048828124999;5.24999998674502;526;100 mA
13.2872989664528;0.30035400390625;0.00070648193359375;5.25999998671978;527;100 mA
13.2972989664275;0.300567626953125;0.000747070312500001;5.26999998669453;528;100 mA
13.3072989664023;0.300506591796875;0.000687561035156251;5.27999998666928;529;100 mA
13.3172989663771;0.3004150390625;0.00071136474609375;5.28999998664403;530;100 mA
13.3272989663518;0.300506591796875;0.00072601318359375;5.29999998661879;531;100 mA
13.3372989663266;0.300445556640625;0.0007476806640625;5.30999998659354;532;100 mA
13.3472989663013;0.30059814453125;0.0006854248046875;5.31999998656829;533;100 mA
13.3572989662761;0.3004150390625;0.000733642578125;5.32999998654304;534;100 mA
13.3672989662508;0.300537109375;0.000744018554687501;5.3399999865178;535;100 mA
13.3772989662256;0.30047607421875;0.000710144042968749;5.34999998649255;536;100 mA
13.3872989662003;0.300445556640625;0.0006915283203125;5.3599999864673;537;100 mA
13.3972989661751;0.300445556640625;0.00076904296875;5.36999998644205;538;100 mA
13.4072989661498;0.3004150390625;0.000737915039062501;5.37999998641681;539;100 mA
13.4172989661246;0.300445556640625;0.000702514648437499;5.38999998639156;540;100 mA
13.4272989660993;0.3004150390625;0.000750122070312501;5.39999998636631;541;100 mA
13.4372989660741;0.3004150390625;0.00075408935546875;5.40999998634106;542;100 mA
13.4472989660488;0.300537109375;0.0007342529296875;5.41999998631582;543;100 mA
13.4572989660236;0.300537109375;0.00071136474609375;5.42999998629057;544;100 mA
13.4672989659983;0.30035400390625;0.00078338623046875;5.43999998626532;545;100 mA
13.4772989659731;0.300567626953125;0.000719299316406249;5.44999998624007;546;100 mA
13.4872989659478;0.300384521484375;0.000726318359375;5.45999998621483;547;100 mA
13.4972989659226;0.30047607421875;0.0007415771484375;5.46999998618958;548;100 mA
13.5072989658973;0.3004150390625;0.00076873779296875;5.47999998616433;549;100 mA
13.5172989658721;0.300537109375;0.00070526123046875;5.48999998613908;550;100 mA
13.5272989658469;0.300537109375;0.0007281494140625;5.49999998611383;551;100 mA
13.5372989658216;0.300445556640625;0.0007672119140625;5.50999998608859;552;100 mA
13.5472989657964;0.300567626953125;0.0007183837890625;5.51999998606334;553;100 mA
13.5572989657711;0.300506591796875;0.00072479248046875;5.52999998603809;554;100 mA
13.5672989657459;0.300628662109375;0.00074432373046875;5.53999998601284;555;100 mA
13.5772989657206;0.300567626953125;0.00075714111328125;5.5499999859876;556;100 mA
13.5872989656954;0.300567626953125;0.000692138671875001;5.55999998596235;557;100 mA
13.5972989656701;0.30059814453125;0.00074432373046875;5.5699999859371;558;100 mA
13.6072989656449;0.30059814453125;0.00074188232421875;5.57999998591185;559;100 mA
13.6172989656196;0.300537109375;0.0007171630859375;5.58999998588661;560;100 mA
13.6272989655944;0.300567626953125;0.00069580078125;5.59999998586136;561;100 mA
13.6372989655691;0.300445556640625;0.000757751464843751;5.60999998583611;562;100 mA
13.6472989655439;0.300628662109375;0.00073272705078125;5.61999998581086;563;100 mA
13.6572989655186;0.300537109375;0.000690307617187499;5.62999998578562;564;100 mA
13.6672989654934;0.300506591796875;0.0007464599609375;5.63999998576037;565;100 mA
13.6772989654681;0.30059814453125;0.00073760986328125;5.64999998573512;566;100 mA
13.6872989654429;0.300506591796875;0.000704040527343749;5.65999998570987;567;100 mA
13.6972989654176;0.300689697265625;0.0006927490234375;5.66999998568463;568;100 mA
13.7072989653924;0.3004150390625;0.00075958251953125;5.67999998565938;569;100 mA
13.7172989653671;0.30059814453125;0.0007098388671875;5.68999998563413;570;100 mA
13.7272989653419;0.300537109375;0.00070770263671875;5.69999998560888;571;100 mA
13.7372989653167;0.300445556640625;0.00074310302734375;5.70999998558364;572;100 mA
13.7472989652914;0.300537109375;0.00076629638671875;5.71999998555839;573;100 mA
13.7572989652662;0.300567626953125;0.0006884765625;5.72999998553314;574;100 mA
13.7672989652409;0.300628662109375;0.00072998046875;5.73999998550789;575;100 mA
13.7772989652157;0.300506591796875;0.00076202392578125;5.74999998548265;576;100 mA
13.7872989651904;0.300506591796875;0.00072296142578125;5.7599999854574;577;100 mA
13.7972989651652;0.30059814453125;0.000723876953125;5.76999998543215;578;100 mA
13.8072989651399;0.300445556640625;0.00073974609375;5.7799999854069;579;100 mA
13.8172989651147;0.30047607421875;0.000762939453125;5.78999998538166;580;100 mA
13.8272989650894;0.300689697265625;0.000690307617187499;5.79999998535641;581;100 mA
13.8372989650642;0.300445556640625;0.000739440917968751;5.80999998533116;582;100 mA
13.8472989650389;0.300628662109375;0.0007354736328125;5.81999998530591;583;100 mA
13.8572989650137;0.300445556640625;0.0007147216796875;5.82999998528066;584;100 mA
13.8672989649884;0.300567626953125;0.000690307617187499;5.83999998525542;585;100 mA
13.8772989649632;0.3004150390625;0.000754699707031251;5.84999998523017;586;100 mA
13.8872989649379;0.30035400390625;0.000721130371093751;5.85999998520492;587;100 mA
13.8972989649127;0.300537109375;0.000692138671875001;5.86999998517967;588;100 mA
13.9072989648874;0.300445556640625;0.00072784423828125;5.87999998515443;589;100 mA
13.9172989648622;0.300506591796875;0.00073883056640625;5.88999998512918;590;100 mA
13.927298964837;0.300445556640625;0.000706787109375;5.89999998510393;591;100 mA
13.9372989648117;0.300445556640625;0.00069854736328125;5.90999998507868;592;100 mA
13.9472989647865;0.3004150390625;0.0007647705078125;5.91999998505344;593;100 mA
13.9572989647612;0.30047607421875;0.0006988525390625;5.92999998502819;594;100 mA
13.967298964736;0.300323486328125;0.0006988525390625;5.93999998500294;595;100 mA
13.9772989647107;0.300445556640625;0.0007232666015625;5.94999998497769;596;100 mA
13.9872989646855;0.30035400390625;0.00075042724609375;5.95999998495245;597;100 mA
13.9972989646602;0.300537109375;0.00068084716796875;5.9699999849272;598;100 mA
14.007298964635;0.30035400390625;0.0007086181640625;5.97999998490195;599;100 mA
14.0172989646097;0.300506591796875;0.00074951171875;5.9899999848767;600;100 mA
14.0272989645845;0.300567626953125;0.00069580078125;5.99999998485146;601;100 mA
14.0372989645592;0.300384521484375;0.00070068359375;6.00999998482621;602;100 mA
14.047298964534;0.300567626953125;0.0007293701171875;6.01999998480096;603;100 mA
14.0572989645087;0.300445556640625;0.00073577880859375;6.02999998477571;604;100 mA
14.0672989644835;0.300567626953125;0.00067596435546875;6.03999998475047;605;100 mA
14.0772989644582;0.30047607421875;0.0007244873046875;6.04999998472522;606;100 mA
14.087298964433;0.30047607421875;0.0007293701171875;6.05999998469997;607;100 mA
14.0972989644077;0.300506591796875;0.0007080078125;6.06999998467472;608;100 mA
14.1072989643825;0.300567626953125;0.000687561035156251;6.07999998464948;609;100 mA
14.1172989643572;0.3004150390625;0.000768432617187501;6.08999998462423;610;100 mA
14.127298964332;0.300537109375;0.000713195800781249;6.09999998459898;611;100 mA
14.1372989643068;0.30047607421875;0.00070098876953125;6.10999998457373;612;100 mA
14.1472989642815;0.300537109375;0.00073883056640625;6.11999998454849;613;100 mA
14.1572989642563;0.300506591796875;0.00074005126953125;6.12999998452324;614;100 mA
14.167298964231;0.300537109375;0.000721435546875;6.13999998449799;615;100 mA
14.1772989642058;0.3006591796875;0.000710144042968749;6.14999998447274;616;100 mA
14.1872989641805;0.30035400390625;0.00077728271484375;6.1599999844475;617;100 mA
14.1972989641553;0.300628662109375;0.000711669921874999;6.16999998442225;618;100 mA
14.20729896413;0.30047607421875;0.00070648193359375;6.179999984397;619;100 mA
14.2172989641048;0.300537109375;0.000745849609375;6.18999998437175;620;100 mA
14.2272989640795;0.300567626953125;0.00076812744140625;6.1999999843465;621;100 mA
14.2372989640543;0.30059814453125;0.0006878662109375;6.20999998432126;622;100 mA
14.247298964029;0.3006591796875;0.0007305908203125;6.21999998429601;623;100 mA
14.2572989640038;0.300567626953125;0.000753173828125001;6.22999998427076;624;100 mA
14.2672989639785;0.300537109375;0.000719299316406249;6.23999998424551;625;100 mA
14.2772989639533;0.300628662109375;0.0007037353515625;6.24999998422027;626;100 mA
14.287298963928;0.300506591796875;0.000744018554687501;6.25999998419502;627;100 mA
14.2972989639028;0.30059814453125;0.00075531005859375;6.26999998416977;628;100 mA
14.3072989638775;0.300628662109375;0.00068511962890625;6.27999998414452;629;100 mA
14.3172989638523;0.300567626953125;0.0007427978515625;6.28999998411928;630;100 mA
14.327298963827;0.300537109375;0.0007476806640625;6.29999998409403;631;100 mA
14.3372989638018;0.300537109375;0.000713500976562501;6.30999998406878;632;100 mA
14.3472989637766;0.300628662109375;0.000693664550781251;6.31999998404353;633;100 mA
14.3572989637513;0.3004150390625;0.0007586669921875;6.32999998401829;634;100 mA
14.3672989637261;0.300567626953125;0.000732421875;6.33999998399304;635;100 mA
14.3772989637008;0.300567626953125;0.0007086181640625;6.34999998396779;636;100 mA
14.3872989636756;0.3004150390625;0.000743408203125;6.35999998394254;637;100 mA
14.3972989636503;0.300506591796875;0.00075714111328125;6.3699999839173;638;100 mA
14.4072989636251;0.300445556640625;0.0007159423828125;6.37999998389205;639;100 mA
14.4172989635998;0.30047607421875;0.00072509765625;6.3899999838668;640;100 mA
14.4272989635746;0.300445556640625;0.00077972412109375;6.39999998384155;641;100 mA
14.4372989635493;0.300506591796875;0.000725402832031249;6.40999998381631;642;100 mA
14.4472989635241;0.300567626953125;0.000745544433593751;6.41999998379106;643;100 mA
14.4572989634988;0.3004150390625;0.000760803222656251;6.42999998376581;644;100 mA
14.4672989634736;0.300445556640625;0.000787353515625;6.43999998374056;645;100 mA
14.4772989634483;0.3006591796875;0.00071136474609375;6.44999998371532;646;100 mA
14.4872989634231;0.30035400390625;0.000760803222656251;6.45999998369007;647;100 mA
14.4972989633978;0.300567626953125;0.000780334472656249;6.46999998366482;648;100 mA
14.5072989633726;0.30047607421875;0.0007354736328125;6.47999998363957;649;100 mA
14.5172989633473;0.30047607421875;0.000743713378906249;6.48999998361433;650;100 mA
14.5272989633221;0.30084228515625;0.000765380859375001;6.49999998358908;651;100 mA
14.5372989632968;0.300323486328125;0.000771179199218749;6.50999998356383;652;100 mA
14.5472989632716;0.300567626953125;0.00071136474609375;6.51999998353858;653;100 mA
14.5572989632464;0.300384521484375;0.00075347900390625;6.52999998351333;654;100 mA
14.5672989632211;0.300567626953125;0.00075653076171875;6.53999998348809;655;100 mA
14.5772989631959;0.300537109375;0.00072906494140625;6.54999998346284;656;100 mA
14.5872989631706;0.30047607421875;0.00070709228515625;6.55999998343759;657;100 mA
14.5972989631454;0.3004150390625;0.0007763671875;6.56999998341234;658;100 mA
14.6072989631201;0.3004150390625;0.000736083984374999;6.5799999833871;659;100 mA
14.6172989630949;0.3004150390625;0.00071868896484375;6.58999998336185;660;100 mA
14.6272989630696;0.3004150390625;0.000750732421875;6.5999999833366;661;100 mA
14.6372989630444;0.30047607421875;0.000757446289062499;6.60999998331135;662;100 mA
14.6472989630191;0.300537109375;0.00072479248046875;6.61999998328611;663;100 mA
14.6572989629939;0.300537109375;0.0007061767578125;6.62999998326086;664;100 mA
14.6672989629686;0.30035400390625;0.00077789306640625;6.63999998323561;665;100 mA
14.6772989629434;0.300537109375;0.000711975097656251;6.64999998321036;666;100 mA
14.6872989629181;0.300384521484375;0.000713195800781249;6.65999998318512;667;100 mA
14.6972989628929;0.30047607421875;0.000737915039062501;6.66999998315987;668;100 mA
14.7072989628676;0.300506591796875;0.00076141357421875;6.67999998313462;669;100 mA
14.7172989628424;0.30059814453125;0.00069732666015625;6.68999998310937;670;100 mA
14.7272989628171;0.30047607421875;0.00072601318359375;6.69999998308413;671;100 mA
14.7372989627919;0.300537109375;0.0007427978515625;6.70999998305888;672;100 mA
14.7472989627666;0.30059814453125;0.000713195800781249;6.71999998303363;673;100 mA
14.7572989627414;0.300506591796875;0.000705566406249999;6.72999998300838;674;100 mA
14.7672989627162;0.30120849609375;0.0007415771484375;6.73999998298314;675;100 mA
14.7772989626909;0.30059814453125;0.000745849609375;6.74999998295789;676;100 mA
14.7872989626657;0.300537109375;0.0006781005859375;6.75999998293264;677;100 mA
14.7972989626404;0.300567626953125;0.000740661621093749;6.76999998290739;678;100 mA
14.8072989626152;0.300628662109375;0.00071868896484375;6.77999998288215;679;100 mA
14.8172989625899;0.300537109375;0.000721435546875;6.7899999828569;680;100 mA
14.8272989625647;0.3006591796875;0.0006805419921875;6.79999998283165;681;100 mA
14.8372989625394;0.300445556640625;0.000750732421875;6.8099999828064;682;100 mA
14.8472989625142;0.3006591796875;0.00071746826171875;6.81999998278116;683;100 mA
14.8572989624889;0.300537109375;0.000679626464843749;6.82999998275591;684;100 mA
14.8672989624637;0.300537109375;0.000724182128906251;6.83999998273066;685;100 mA
14.8772989624384;0.30059814453125;0.000731201171875;6.84999998270541;686;100 mA
14.8872989624132;0.300506591796875;0.00069122314453125;6.85999998268016;687;100 mA
14.8972989623879;0.300689697265625;0.00068511962890625;6.86999998265492;688;100 mA
14.9072989623627;0.300445556640625;0.00074432373046875;6.87999998262967;689;100 mA
14.9172989623374;0.300567626953125;0.000702514648437499;6.88999998260442;690;100 mA
14.9272989623122;0.300537109375;0.000699462890625;6.89999998257917;691;100 mA
14.9372989622869;0.300506591796875;0.00072235107421875;6.90999998255393;692;100 mA
14.9472989622617;0.300537109375;0.0007550048828125;6.91999998252868;693;100 mA
14.9572989622365;0.300567626953125;0.000679626464843749;6.92999998250343;694;100 mA
14.9672989622112;0.300506591796875;0.000716552734375001;6.93999998247818;695;100 mA
14.977298962186;0.300537109375;0.00074127197265625;6.94999998245294;696;100 mA
14.9872989621607;0.30047607421875;0.00070831298828125;6.95999998242769;697;100 mA
14.9972989621355;0.300567626953125;0.00071258544921875;6.96999998240244;698;100 mA
15.0072989621102;0.3013916015625;0.000737915039062501;6.97999998237719;699;100 mA
15.017298962085;0.300537109375;0.000751647949218751;6.98999998235195;700;100 mA
