Time (s);WE(1).Potential (V);WE(1).Current (A);Corrected time (s);Index;Current range
15.5645119607034;0.204010009765625;-0.001458740234375;0;1;100 mA
15.5745119606781;0.200347900390625;-0.00031463623046875;0.00999999997475243;2;100 mA
15.5845119606529;0.20062255859375;-6.62231445312494E-05;0.0199999999495049;3;100 mA
15.5945119606276;0.200439453125;1.89208984374994E-05;0.0299999999242573;4;100 mA
15.6045119606024;0.20050048828125;0.000102844238281249;0.0399999998990097;5;100 mA
15.6145119605771;0.200439453125;0.000197448730468749;0.0499999998737621;6;100 mA
15.6245119605519;0.200439453125;0.0002655029296875;0.0599999998485146;7;100 mA
15.6345119605267;0.20050048828125;0.000250854492187499;0.069999999823267;8;100 mA
15.6445119605014;0.20037841796875;0.000318603515625;0.0799999997980194;9;100 mA
15.6545119604762;0.2005615234375;0.000367431640625;0.0899999997727718;10;100 mA
15.6645119604509;0.200439453125;0.000348815917968751;0.0999999997475243;11;100 mA
15.6745119604257;0.200408935546875;0.00037200927734375;0.109999999722277;12;100 mA
15.6845119604004;0.200469970703125;0.0004290771484375;0.119999999697029;13;100 mA
15.6945119603752;0.200439453125;0.00041473388671875;0.129999999671782;14;100 mA
15.7045119603499;0.200408935546875;0.000409851074218751;0.139999999646534;15;100 mA
15.7145119603247;0.200408935546875;0.0004559326171875;0.149999999621286;16;100 mA
15.7245119602994;0.200439453125;0.00049285888671875;0.159999999596039;17;100 mA
15.7345119602742;0.2005615234375;0.000458374023437499;0.169999999570791;18;100 mA
15.7445119602489;0.20037841796875;0.00047149658203125;0.179999999545544;19;100 mA
15.7545119602237;0.200531005859375;0.00051300048828125;0.189999999520296;20;100 mA
15.7645119601984;0.20062255859375;0.00048553466796875;0.199999999495049;21;100 mA
15.7745119601732;0.200469970703125;0.0005023193359375;0.209999999469801;22;100 mA
15.7845119601479;0.200592041015625;0.000522766113281251;0.219999999444553;23;100 mA
15.7945119601227;0.200531005859375;0.000546875;0.229999999419306;24;100 mA
15.8045119600974;0.2005615234375;0.00050201416015625;0.239999999394058;25;100 mA
15.8145119600722;0.200531005859375;0.000543212890625;0.249999999368811;26;100 mA
15.8245119600469;0.2005615234375;0.000580444335937499;0.259999999343563;27;100 mA
15.8345119600217;0.2005615234375;0.00054901123046875;0.269999999318316;28;100 mA
15.8445119599965;0.200531005859375;0.000527343750000001;0.279999999293068;29;100 mA
15.8545119599712;0.200653076171875;0.0005780029296875;0.28999999926782;30;100 mA
15.864511959946;0.2005615234375;0.00056884765625;0.299999999242573;31;100 mA
15.8745119599207;0.200469970703125;0.000548706054687501;0.309999999217325;32;100 mA
15.8845119598955;0.2005615234375;0.00057952880859375;0.319999999192078;33;100 mA
15.8945119598702;0.200592041015625;0.0005816650390625;0.32999999916683;34;100 mA
15.904511959845;0.20050048828125;0.00057342529296875;0.339999999141583;35;100 mA
15.9145119598197;0.20062255859375;0.0005511474609375;0.349999999116335;36;100 mA
15.9245119597945;0.200439453125;0.00061798095703125;0.359999999091087;37;100 mA
15.9345119597692;0.2005615234375;0.00058135986328125;0.36999999906584;38;100 mA
15.944511959744;0.200531005859375;0.0005584716796875;0.379999999040592;39;100 mA
15.9545119597187;0.200592041015625;0.000596923828125;0.389999999015345;40;100 mA
15.9645119596935;0.200531005859375;0.00060394287109375;0.399999998990097;41;100 mA
15.9745119596682;0.200439453125;0.0005841064453125;0.40999999896485;42;100 mA
15.984511959643;0.200653076171875;0.00057830810546875;0.419999998939602;43;100 mA
15.9945119596177;0.20050048828125;0.0006072998046875;0.429999998914354;44;100 mA
16.0045119595925;0.20062255859375;0.000585327148437501;0.439999998889107;45;100 mA
16.0145119595672;0.20050048828125;0.000574645996093751;0.449999998863859;46;100 mA
16.024511959542;0.20050048828125;0.000611572265625;0.459999998838612;47;100 mA
16.0345119595167;0.200531005859375;0.00062286376953125;0.469999998813364;48;100 mA
16.0445119594915;0.200653076171875;0.000566711425781249;0.479999998788116;49;100 mA
16.0545119594663;0.200469970703125;0.00061370849609375;0.489999998762869;50;100 mA
16.064511959441;0.20062255859375;0.0006231689453125;0.499999998737621;51;100 mA
16.0745119594158;0.200469970703125;0.000609741210937501;0.509999998712374;52;100 mA
16.0845119593905;0.20062255859375;0.000592956542968751;0.519999998687126;53;100 mA
16.0945119593653;0.200469970703125;0.000629577636718751;0.529999998661879;54;100 mA
16.10451195934;0.200469970703125;0.00062896728515625;0.539999998636631;55;100 mA
16.1145119593148;0.2005615234375;0.000591430664062501;0.549999998611383;56;100 mA
16.1245119592895;0.200347900390625;0.00064239501953125;0.559999998586136;57;100 mA
16.1345119592643;0.2005615234375;0.000628662109375;0.569999998560888;58;100 mA
16.144511959239;0.200439453125;0.00060089111328125;0.579999998535641;59;100 mA
16.1545119592138;0.20050048828125;0.00060089111328125;0.589999998510393;60;100 mA
16.1645119591885;0.200408935546875;0.000641784667968751;0.599999998485146;61;100 mA
16.1745119591633;0.200408935546875;0.0006268310546875;0.609999998459898;62;100 mA
16.184511959138;0.200469970703125;0.0005926513671875;0.61999999843465;63;100 mA
16.1945119591128;0.200469970703125;0.00062591552734375;0.629999998409403;64;100 mA
16.2045119590875;0.200439453125;0.000647888183593751;0.639999998384155;65;100 mA
16.2145119590623;0.2005615234375;0.0005999755859375;0.649999998358908;66;100 mA
16.224511959037;0.20037841796875;0.00062225341796875;0.65999999833366;67;100 mA
16.2345119590118;0.20050048828125;0.000640869140625;0.669999998308413;68;100 mA
16.2445119589865;0.2005615234375;0.00060699462890625;0.679999998283165;69;100 mA
16.2545119589613;0.20037841796875;0.0006134033203125;0.689999998257917;70;100 mA
16.2645119589361;0.200469970703125;0.00062225341796875;0.69999999823267;71;100 mA
16.2745119589108;0.200347900390625;0.0006573486328125;0.709999998207422;72;100 mA
16.2845119588856;0.2005615234375;0.00059478759765625;0.719999998182175;73;100 mA
16.2945119588603;0.20050048828125;0.000633544921875;0.729999998156927;74;100 mA
16.3045119588351;0.2005615234375;0.00065521240234375;0.73999999813168;75;100 mA
16.3145119588098;0.200592041015625;0.000618896484375001;0.749999998106432;76;100 mA
16.3245119587846;0.200439453125;0.00061981201171875;0.759999998081184;77;100 mA
16.3345119587593;0.2005615234375;0.00063995361328125;0.769999998055937;78;100 mA
16.3445119587341;0.200531005859375;0.0006378173828125;0.779999998030689;79;100 mA
16.3545119587088;0.200469970703125;0.00060760498046875;0.789999998005442;80;100 mA
16.3645119586836;0.200439453125;0.000638732910156251;0.799999997980194;81;100 mA
16.3745119586583;0.20050048828125;0.00065460205078125;0.809999997954947;82;100 mA
16.3845119586331;0.200592041015625;0.000615844726562501;0.819999997929699;83;100 mA
16.3945119586078;0.200531005859375;0.000611572265625;0.829999997904451;84;100 mA
16.4045119585826;0.200439453125;0.00066558837890625;0.839999997879204;85;100 mA
16.4145119585573;0.200592041015625;0.0006298828125;0.849999997853956;86;100 mA
16.4245119585321;0.200439453125;0.000633544921875;0.859999997828709;87;100 mA
16.4345119585068;0.20062255859375;0.0006396484375;0.869999997803461;88;100 mA
16.4445119584816;0.2005615234375;0.0006640625;0.879999997778214;89;100 mA
16.4545119584564;0.200531005859375;0.00062103271484375;0.889999997752966;90;100 mA
16.4645119584311;0.2005615234375;0.000635986328125;0.899999997727718;91;100 mA
16.4745119584059;0.200531005859375;0.00066986083984375;0.909999997702471;92;100 mA
16.4845119583806;0.20062255859375;0.00063323974609375;0.919999997677223;93;100 mA
16.4945119583554;0.200592041015625;0.00063201904296875;0.929999997651976;94;100 mA
16.5045119583301;0.200592041015625;0.000658264160156249;0.939999997626728;95;100 mA
16.5145119583049;0.200592041015625;0.000672607421875;0.949999997601481;96;100 mA
16.5245119582796;0.2005615234375;0.0006268310546875;0.959999997576233;97;100 mA
16.5345119582544;0.20062255859375;0.000659790039062499;0.969999997550985;98;100 mA
16.5445119582291;0.20062255859375;0.00066986083984375;0.979999997525738;99;100 mA
16.5545119582039;0.200531005859375;0.000658569335937501;0.98999999750049;100;100 mA
16.5645119581786;0.20068359375;0.000621643066406249;0.999999997475243;101;100 mA
16.5745119581534;0.200469970703125;0.00067291259765625;1.00999999745;102;100 mA
16.5845119581281;0.200531005859375;0.0006622314453125;1.01999999742475;103;100 mA
16.5945119581029;0.2005615234375;0.000625000000000001;1.0299999973995;104;100 mA
16.6045119580776;0.200408935546875;0.0006689453125;1.03999999737425;105;100 mA
16.6145119580524;0.20062255859375;0.000657043457031251;1.049999997349;106;100 mA
16.6245119580271;0.200408935546875;0.0006549072265625;1.05999999732376;107;100 mA
16.6345119580019;0.2005615234375;0.000634155273437501;1.06999999729851;108;100 mA
16.6445119579766;0.20050048828125;0.00067626953125;1.07999999727326;109;100 mA
16.6545119579514;0.200439453125;0.000658264160156249;1.08999999724801;110;100 mA
16.6645119579262;0.200469970703125;0.000628051757812501;1.09999999722277;111;100 mA
16.6745119579009;0.200439453125;0.000661621093750001;1.10999999719752;112;100 mA
16.6845119578757;0.200439453125;0.0006805419921875;1.11999999717227;113;100 mA
16.6945119578504;0.200439453125;0.00063629150390625;1.12999999714702;114;100 mA
16.7045119578252;0.200408935546875;0.000657043457031251;1.13999999712178;115;100 mA
16.7145119577999;0.2005615234375;0.000661621093750001;1.14999999709653;116;100 mA
16.7245119577747;0.20050048828125;0.00064605712890625;1.15999999707128;117;100 mA
16.7345119577494;0.20037841796875;0.000634765625;1.16999999704603;118;100 mA
16.7445119577242;0.200439453125;0.00065582275390625;1.17999999702079;119;100 mA
16.7545119576989;0.200408935546875;0.000678405761718751;1.18999999699554;120;100 mA
16.7645119576737;0.20062255859375;0.00061370849609375;1.19999999697029;121;100 mA
16.7745119576484;0.200408935546875;0.000664367675781249;1.20999999694504;122;100 mA
16.7845119576232;0.2005615234375;0.000665893554687499;1.2199999969198;123;100 mA
16.7945119575979;0.20050048828125;0.000654296875;1.22999999689455;124;100 mA
16.8045119575727;0.200439453125;0.000636901855468749;1.2399999968693;125;100 mA
16.8145119575474;0.200592041015625;0.000663146972656251;1.24999999684405;126;100 mA
16.8245119575222;0.20050048828125;0.0006744384765625;1.25999999681881;127;100 mA
16.8345119574969;0.200531005859375;0.000635375976562499;1.26999999679356;128;100 mA
16.8445119574717;0.200439453125;0.00066802978515625;1.27999999676831;129;100 mA
16.8545119574464;0.20050048828125;0.0006787109375;1.28999999674306;130;100 mA
16.8645119574212;0.2005615234375;0.000644531249999999;1.29999999671782;131;100 mA
16.874511957396;0.20050048828125;0.000644836425781251;1.30999999669257;132;100 mA
16.8845119573707;0.200408935546875;0.00069244384765625;1.31999999666732;133;100 mA
16.8945119573455;0.2005615234375;0.000653991699218751;1.32999999664207;134;100 mA
16.9045119573202;0.20050048828125;0.000634765625;1.33999999661683;135;100 mA
16.914511957295;0.20050048828125;0.0006591796875;1.34999999659158;136;100 mA
16.9245119572697;0.200531005859375;0.000697937011718749;1.35999999656633;137;100 mA
16.9345119572445;0.200592041015625;0.000643310546875001;1.36999999654108;138;100 mA
16.9445119572192;0.200592041015625;0.000659790039062499;1.37999999651583;139;100 mA
16.954511957194;0.20050048828125;0.00069610595703125;1.38999999649059;140;100 mA
16.9645119571687;0.20062255859375;0.00066253662109375;1.39999999646534;141;100 mA
16.9745119571435;0.2005615234375;0.00066558837890625;1.40999999644009;142;100 mA
16.9845119571182;0.200592041015625;0.0006756591796875;1.41999999641484;143;100 mA
16.994511957093;0.2005615234375;0.00070068359375;1.4299999963896;144;100 mA
17.0045119570677;0.2005615234375;0.00064605712890625;1.43999999636435;145;100 mA
17.0145119570425;0.200653076171875;0.000677490234375;1.4499999963391;146;100 mA
17.0245119570172;0.20062255859375;0.00070159912109375;1.45999999631385;147;100 mA
17.034511956992;0.200469970703125;0.00067413330078125;1.46999999628861;148;100 mA
17.0445119569667;0.20068359375;0.0006561279296875;1.47999999626336;149;100 mA
17.0545119569415;0.2005615234375;0.000699462890625;1.48999999623811;150;100 mA
17.0645119569162;0.200592041015625;0.000681152343749999;1.49999999621286;151;100 mA
17.074511956891;0.200531005859375;0.0006591796875;1.50999999618762;152;100 mA
17.0845119568658;0.200439453125;0.00068634033203125;1.51999999616237;153;100 mA
17.0945119568405;0.20062255859375;0.000689697265625;1.52999999613712;154;100 mA
17.1045119568153;0.200469970703125;0.000673522949218749;1.53999999611187;155;100 mA
17.11451195679;0.200653076171875;0.00065582275390625;1.54999999608663;156;100 mA
17.1245119567648;0.200469970703125;0.00070770263671875;1.55999999606138;157;100 mA
17.1345119567395;0.20050048828125;0.000670166015625;1.56999999603613;158;100 mA
17.1445119567143;0.20050048828125;0.00065338134765625;1.57999999601088;159;100 mA
17.154511956689;0.200439453125;0.000678405761718751;1.58999999598564;160;100 mA
17.1645119566638;0.20050048828125;0.00069610595703125;1.59999999596039;161;100 mA
17.1745119566385;0.200439453125;0.0006610107421875;1.60999999593514;162;100 mA
17.1845119566133;0.200408935546875;0.000673828125000001;1.61999999590989;163;100 mA
17.194511956588;0.200531005859375;0.00068572998046875;1.62999999588465;164;100 mA
17.2045119565628;0.20050048828125;0.00066864013671875;1.6399999958594;165;100 mA
17.2145119565375;0.200469970703125;0.0006591796875;1.64999999583415;166;100 mA
17.2245119565123;0.200408935546875;0.0006805419921875;1.6599999958089;167;100 mA
17.234511956487;0.200439453125;0.0006915283203125;1.66999999578366;168;100 mA
17.2445119564618;0.20068359375;0.000631103515625001;1.67999999575841;169;100 mA
17.2545119564365;0.200408935546875;0.000678405761718751;1.68999999573316;170;100 mA
17.2645119564113;0.2005615234375;0.000670166015625;1.69999999570791;171;100 mA
17.274511956386;0.200439453125;0.00067047119140625;1.70999999568267;172;100 mA
17.2845119563608;0.200469970703125;0.00063995361328125;1.71999999565742;173;100 mA
17.2945119563356;0.20050048828125;0.000675354003906251;1.72999999563217;174;100 mA
17.3045119563103;0.200469970703125;0.000670166015625;1.73999999560692;175;100 mA
17.3145119562851;0.200469970703125;0.000649414062500001;1.74999999558167;176;100 mA
17.3245119562598;0.20037841796875;0.00067779541015625;1.75999999555643;177;100 mA
17.3345119562346;0.20050048828125;0.00067657470703125;1.76999999553118;178;100 mA
17.3445119562093;0.200531005859375;0.000648193359375;1.77999999550593;179;100 mA
17.3545119561841;0.200531005859375;0.000641479492187499;1.78999999548068;180;100 mA
17.3645119561588;0.200469970703125;0.000681457519531251;1.79999999545544;181;100 mA
17.3745119561336;0.2005615234375;0.00066802978515625;1.80999999543019;182;100 mA
17.3845119561083;0.200439453125;0.00063812255859375;1.81999999540494;183;100 mA
17.3945119560831;0.200469970703125;0.00065582275390625;1.82999999537969;184;100 mA
17.4045119560578;0.20037841796875;0.00068817138671875;1.83999999535445;185;100 mA
17.4145119560326;0.200531005859375;0.00063629150390625;1.8499999953292;186;100 mA
17.4245119560073;0.20050048828125;0.000673828125000001;1.85999999530395;187;100 mA
17.4345119559821;0.200592041015625;0.0006732177734375;1.8699999952787;188;100 mA
17.4445119559568;0.200653076171875;0.0006573486328125;1.87999999525346;189;100 mA
17.4545119559316;0.20050048828125;0.00065765380859375;1.88999999522821;190;100 mA
17.4645119559063;0.2005615234375;0.00066497802734375;1.89999999520296;191;100 mA
17.4745119558811;0.2005615234375;0.000689697265625;1.90999999517771;192;100 mA
17.4845119558559;0.2005615234375;0.000632629394531251;1.91999999515247;193;100 mA
17.4945119558306;0.2005615234375;0.000666198730468751;1.92999999512722;194;100 mA
17.5045119558054;0.2005615234375;0.00068023681640625;1.93999999510197;195;100 mA
17.5145119557801;0.200531005859375;0.000659790039062499;1.94999999507672;196;100 mA
17.5245119557549;0.2005615234375;0.00064971923828125;1.95999999505148;197;100 mA
17.5345119557296;0.200592041015625;0.0006817626953125;1.96999999502623;198;100 mA
17.5445119557044;0.20062255859375;0.00067626953125;1.97999999500098;199;100 mA
17.5545119556791;0.200469970703125;0.00065948486328125;1.98999999497573;200;100 mA
17.5645119556539;0.200531005859375;0.000676879882812501;1.99999999495049;201;100 mA
17.5745119556286;0.2005615234375;0.0006988525390625;2.00999999492524;202;100 mA
17.5845119556034;0.20050048828125;0.0006634521484375;2.01999999489999;203;100 mA
17.5945119555781;0.200714111328125;0.000652160644531249;2.02999999487474;204;100 mA
17.6045119555529;0.200439453125;0.000696716308593751;2.0399999948495;205;100 mA
17.6145119555276;0.200592041015625;0.00066497802734375;2.04999999482425;206;100 mA
17.6245119555024;0.200531005859375;0.00065887451171875;2.059999994799;207;100 mA
17.6345119554771;0.200531005859375;0.0006683349609375;2.06999999477375;208;100 mA
17.6445119554519;0.200531005859375;0.00069610595703125;2.0799999947485;209;100 mA
17.6545119554266;0.20050048828125;0.0006549072265625;2.08999999472326;210;100 mA
17.6645119554014;0.200531005859375;0.0006634521484375;2.09999999469801;211;100 mA
17.6745119553761;0.200531005859375;0.00069549560546875;2.10999999467276;212;100 mA
17.6845119553509;0.20050048828125;0.0006683349609375;2.11999999464751;213;100 mA
17.6945119553257;0.20050048828125;0.00065765380859375;2.12999999462227;214;100 mA
17.7045119553004;0.200439453125;0.000684509277343751;2.13999999459702;215;100 mA
17.7145119552752;0.200469970703125;0.00069610595703125;2.14999999457177;216;100 mA
17.7245119552499;0.20068359375;0.00065521240234375;2.15999999454652;217;100 mA
17.7345119552247;0.20037841796875;0.00068328857421875;2.16999999452128;218;100 mA
17.7445119551994;0.2005615234375;0.0006884765625;2.17999999449603;219;100 mA
17.7545119551742;0.200408935546875;0.000678405761718751;2.18999999447078;220;100 mA
17.7645119551489;0.200531005859375;0.000643005371093749;2.19999999444553;221;100 mA
17.7745119551237;0.2005615234375;0.000690612792968751;2.20999999442029;222;100 mA
17.7845119550984;0.200439453125;0.00066497802734375;2.21999999439504;223;100 mA
17.7945119550732;0.200469970703125;0.00064239501953125;2.22999999436979;224;100 mA
17.8045119550479;0.20037841796875;0.00067108154296875;2.23999999434454;225;100 mA
17.8145119550227;0.20050048828125;0.00067779541015625;2.2499999943193;226;100 mA
17.8245119549974;0.200469970703125;0.0006591796875;2.25999999429405;227;100 mA
17.8345119549722;0.200408935546875;0.00064605712890625;2.2699999942688;228;100 mA
17.8445119549469;0.200531005859375;0.00068511962890625;2.27999999424355;229;100 mA
17.8545119549217;0.200469970703125;0.00066680908203125;2.28999999421831;230;100 mA
17.8645119548964;0.200469970703125;0.00064117431640625;2.29999999419306;231;100 mA
17.8745119548712;0.200469970703125;0.000672607421875;2.30999999416781;232;100 mA
17.8845119548459;0.200347900390625;0.0006939697265625;2.31999999414256;233;100 mA
17.8945119548207;0.200531005859375;0.000650634765624999;2.32999999411732;234;100 mA
17.9045119547955;0.200469970703125;0.000672607421875;2.33999999409207;235;100 mA
17.9145119547702;0.200531005859375;0.00067474365234375;2.34999999406682;236;100 mA
17.924511954745;0.200592041015625;0.0006695556640625;2.35999999404157;237;100 mA
17.9345119547197;0.200469970703125;0.000652160644531249;2.36999999401633;238;100 mA
17.9445119546945;0.2005615234375;0.0006695556640625;2.37999999399108;239;100 mA
17.9545119546692;0.200439453125;0.000693359375;2.38999999396583;240;100 mA
17.964511954644;0.2005615234375;0.0006378173828125;2.39999999394058;241;100 mA
17.9745119546187;0.2005615234375;0.0006817626953125;2.40999999391533;242;100 mA
17.9845119545935;0.2005615234375;0.0006817626953125;2.41999999389009;243;100 mA
17.9945119545682;0.2005615234375;0.000681457519531251;2.42999999386484;244;100 mA
18.004511954543;0.2005615234375;0.00065155029296875;2.43999999383959;245;100 mA
18.0145119545177;0.20062255859375;0.00068634033203125;2.44999999381434;246;100 mA
18.0245119544925;0.200592041015625;0.000682678222656249;2.4599999937891;247;100 mA
18.0345119544672;0.200469970703125;0.000661621093750001;2.46999999376385;248;100 mA
18.044511954442;0.200592041015625;0.000681457519531251;2.4799999937386;249;100 mA
18.0545119544167;0.200531005859375;0.000699462890625;2.48999999371335;250;100 mA
18.0645119543915;0.200531005859375;0.00066192626953125;2.49999999368811;251;100 mA
18.0745119543662;0.200653076171875;0.000669250488281251;2.50999999366286;252;100 mA
18.084511954341;0.200439453125;0.00069732666015625;2.51999999363761;253;100 mA
18.0945119543157;0.200653076171875;0.0006756591796875;2.52999999361236;254;100 mA
18.1045119542905;0.200531005859375;0.0006536865234375;2.53999999358712;255;100 mA
18.1145119542653;0.200531005859375;0.000669250488281251;2.54999999356187;256;100 mA
18.12451195424;0.200531005859375;0.00070709228515625;2.55999999353662;257;100 mA
18.1345119542148;0.200469970703125;0.0006427001953125;2.56999999351137;258;100 mA
18.1445119541895;0.2005615234375;0.00067413330078125;2.57999999348613;259;100 mA
18.1545119541643;0.20062255859375;0.000687561035156251;2.58999999346088;260;100 mA
18.164511954139;0.2005615234375;0.000657043457031251;2.59999999343563;261;100 mA
18.1745119541138;0.200592041015625;0.000663146972656251;2.60999999341038;262;100 mA
18.1845119540885;0.200439453125;0.00067108154296875;2.61999999338514;263;100 mA
18.1945119540633;0.200592041015625;0.0006817626953125;2.62999999335989;264;100 mA
18.204511954038;0.200592041015625;0.0006396484375;2.63999999333464;265;100 mA
18.2145119540128;0.200439453125;0.00066192626953125;2.64999999330939;266;100 mA
18.2245119539875;0.200531005859375;0.000682983398437501;2.65999999328415;267;100 mA
18.2345119539623;0.20050048828125;0.0006622314453125;2.6699999932589;268;100 mA
18.244511953937;0.20062255859375;0.000636901855468749;2.67999999323365;269;100 mA
18.2545119539118;0.200439453125;0.00068359375;2.6899999932084;270;100 mA
18.2645119538865;0.2005615234375;0.000663146972656251;2.69999999318316;271;100 mA
18.2745119538613;0.20050048828125;0.0006536865234375;2.70999999315791;272;100 mA
18.284511953836;0.20037841796875;0.000667724609375001;2.71999999313266;273;100 mA
18.2945119538108;0.200531005859375;0.00068084716796875;2.72999999310741;274;100 mA
18.3045119537855;0.20050048828125;0.0006573486328125;2.73999999308217;275;100 mA
18.3145119537603;0.200439453125;0.00065338134765625;2.74999999305692;276;100 mA
18.3245119537351;0.200592041015625;0.000693664550781251;2.75999999303167;277;100 mA
18.3345119537098;0.20037841796875;0.00066650390625;2.76999999300642;278;100 mA
18.3445119536846;0.2003173828125;0.0006475830078125;2.77999999298117;279;100 mA
18.3545119536593;0.200469970703125;0.00067108154296875;2.78999999295593;280;100 mA
18.3645119536341;0.200347900390625;0.0006915283203125;2.79999999293068;281;100 mA
18.3745119536088;0.200531005859375;0.0006500244140625;2.80999999290543;282;100 mA
18.3845119535836;0.200408935546875;0.000671997070312499;2.81999999288018;283;100 mA
18.3945119535583;0.200592041015625;0.00068572998046875;2.82999999285494;284;100 mA
18.4045119535331;0.20050048828125;0.00067718505859375;2.83999999282969;285;100 mA
18.4145119535078;0.200408935546875;0.00065460205078125;2.84999999280444;286;100 mA
18.4245119534826;0.200592041015625;0.000690307617187499;2.85999999277919;287;100 mA
18.4345119534573;0.200469970703125;0.000696716308593751;2.86999999275395;288;100 mA
18.4445119534321;0.2005615234375;0.00064727783203125;2.8799999927287;289;100 mA
18.4545119534068;0.20050048828125;0.00068359375;2.88999999270345;290;100 mA
18.4645119533816;0.2005615234375;0.000687561035156251;2.8999999926782;291;100 mA
18.4745119533563;0.200592041015625;0.000682373046875;2.90999999265296;292;100 mA
18.4845119533311;0.200531005859375;0.000657958984375;2.91999999262771;293;100 mA
18.4945119533058;0.20062255859375;0.000698242187500001;2.92999999260246;294;100 mA
18.5045119532806;0.200531005859375;0.0006854248046875;2.93999999257721;295;100 mA
18.5145119532554;0.200439453125;0.000662841796875;2.94999999255197;296;100 mA
18.5245119532301;0.200531005859375;0.000702819824218751;2.95999999252672;297;100 mA
18.5345119532049;0.200469970703125;0.000705871582031251;2.96999999250147;298;100 mA
18.5445119531796;0.2005615234375;0.0006756591796875;2.97999999247622;299;100 mA
18.5545119531544;0.200592041015625;0.000677490234375;2.98999999245098;300;100 mA
18.5645119531291;0.20050048828125;0.0007049560546875;2.99999999242573;301;100 mA
18.5745119531039;0.200592041015625;0.000697937011718749;3.00999999240048;302;100 mA
18.5845119530786;0.200439453125;0.0006744384765625;3.01999999237523;303;100 mA
18.5945119530534;0.20062255859375;0.00068939208984375;3.02999999234999;304;100 mA
18.6045119530281;0.2005615234375;0.000718078613281251;3.03999999232474;305;100 mA
18.6145119530029;0.200531005859375;0.000650634765624999;3.04999999229949;306;100 mA
18.6245119529776;0.200653076171875;0.0006927490234375;3.05999999227424;307;100 mA
18.6345119529524;0.200592041015625;0.00068084716796875;3.069999992249;308;100 mA
18.6445119529271;0.20062255859375;0.000673522949218749;3.07999999222375;309;100 mA
18.6545119529019;0.20062255859375;0.00066131591796875;3.0899999921985;310;100 mA
18.6645119528766;0.200531005859375;0.000675354003906251;3.09999999217325;311;100 mA
18.6745119528514;0.200469970703125;0.0007049560546875;3.109999992148;312;100 mA
18.6845119528261;0.2005615234375;0.00064727783203125;3.11999999212276;313;100 mA
18.6945119528009;0.200469970703125;0.000679626464843749;3.12999999209751;314;100 mA
18.7045119527756;0.200592041015625;0.000696716308593751;3.13999999207226;315;100 mA
18.7145119527504;0.200469970703125;0.00067108154296875;3.14999999204701;316;100 mA
18.7245119527252;0.20062255859375;0.000659790039062499;3.15999999202177;317;100 mA
18.7345119526999;0.200439453125;0.0006927490234375;3.16999999199652;318;100 mA
18.7445119526747;0.20050048828125;0.000673522949218749;3.17999999197127;319;100 mA
18.7545119526494;0.200531005859375;0.00066558837890625;3.18999999194602;320;100 mA
18.7645119526242;0.200408935546875;0.000677490234375;3.19999999192078;321;100 mA
18.7745119525989;0.2005615234375;0.00070159912109375;3.20999999189553;322;100 mA
18.7845119525737;0.200408935546875;0.0006610107421875;3.21999999187028;323;100 mA
18.7945119525484;0.200408935546875;0.00066375732421875;3.22999999184503;324;100 mA
18.8045119525232;0.200439453125;0.00070037841796875;3.23999999181979;325;100 mA
18.8145119524979;0.200439453125;0.0006744384765625;3.24999999179454;326;100 mA
18.8245119524727;0.200408935546875;0.00067169189453125;3.25999999176929;327;100 mA
18.8345119524474;0.200439453125;0.00067657470703125;3.26999999174404;328;100 mA
18.8445119524222;0.200439453125;0.00070770263671875;3.2799999917188;329;100 mA
18.8545119523969;0.200531005859375;0.000661621093750001;3.28999999169355;330;100 mA
18.8645119523717;0.200439453125;0.0006878662109375;3.2999999916683;331;100 mA
18.8745119523464;0.200592041015625;0.000693359375;3.30999999164305;332;100 mA
18.8845119523212;0.2005615234375;0.00067474365234375;3.31999999161781;333;100 mA
18.8945119522959;0.200439453125;0.00066375732421875;3.32999999159256;334;100 mA
18.9045119522707;0.2005615234375;0.0006927490234375;3.33999999156731;335;100 mA
18.9145119522454;0.200439453125;0.000693664550781251;3.34999999154206;336;100 mA
18.9245119522202;0.20050048828125;0.0006671142578125;3.35999999151682;337;100 mA
18.934511952195;0.20050048828125;0.0006866455078125;3.36999999149157;338;100 mA
18.9445119521697;0.200531005859375;0.00069580078125;3.37999999146632;339;100 mA
18.9545119521445;0.200531005859375;0.00070037841796875;3.38999999144107;340;100 mA
18.9645119521192;0.200592041015625;0.00065643310546875;3.39999999141583;341;100 mA
18.974511952094;0.2005615234375;0.000711975097656251;3.40999999139058;342;100 mA
18.9845119520687;0.200531005859375;0.00068572998046875;3.41999999136533;343;100 mA
18.9945119520435;0.200439453125;0.000664672851562501;3.42999999134008;344;100 mA
19.0045119520182;0.200531005859375;0.00068939208984375;3.43999999131483;345;100 mA
19.014511951993;0.20050048828125;0.00069915771484375;3.44999999128959;346;100 mA
19.0245119519677;0.2005615234375;0.000673828125000001;3.45999999126434;347;100 mA
19.0345119519425;0.200592041015625;0.000681152343749999;3.46999999123909;348;100 mA
19.0445119519172;0.200531005859375;0.00069915771484375;3.47999999121384;349;100 mA
19.054511951892;0.200592041015625;0.00068634033203125;3.4899999911886;350;100 mA
19.0645119518667;0.200469970703125;0.00066680908203125;3.49999999116335;351;100 mA
19.0745119518415;0.200653076171875;0.0006927490234375;3.5099999911381;352;100 mA
19.0845119518162;0.2005615234375;0.000714111328125;3.51999999111285;353;100 mA
19.094511951791;0.2005615234375;0.00065887451171875;3.52999999108761;354;100 mA
19.1045119517657;0.2005615234375;0.0006988525390625;3.53999999106236;355;100 mA
19.1145119517405;0.200592041015625;0.0006988525390625;3.54999999103711;356;100 mA
19.1245119517152;0.200592041015625;0.000699462890625;3.55999999101186;357;100 mA
19.13451195169;0.200531005859375;0.0006695556640625;3.56999999098662;358;100 mA
19.1445119516648;0.200531005859375;0.000695190429687501;3.57999999096137;359;100 mA
19.1545119516395;0.2005615234375;0.00071136474609375;3.58999999093612;360;100 mA
19.1645119516143;0.2005615234375;0.0006640625;3.59999999091087;361;100 mA
19.174511951589;0.2005615234375;0.000701904296875;3.60999999088563;362;100 mA
19.1845119515638;0.200653076171875;0.00070037841796875;3.61999999086038;363;100 mA
19.1945119515385;0.200469970703125;0.000697021484375;3.62999999083513;364;100 mA
19.2045119515133;0.20062255859375;0.00067474365234375;3.63999999080988;365;100 mA
19.214511951488;0.200439453125;0.000709228515625;3.64999999078464;366;100 mA
19.2245119514628;0.200531005859375;0.00069580078125;3.65999999075939;367;100 mA
19.2345119514375;0.200531005859375;0.00067138671875;3.66999999073414;368;100 mA
19.2445119514123;0.200408935546875;0.00068939208984375;3.67999999070889;369;100 mA
19.254511951387;0.200469970703125;0.00071136474609375;3.68999999068365;370;100 mA
19.2645119513618;0.200469970703125;0.000661621093750001;3.6999999906584;371;100 mA
19.2745119513365;0.200439453125;0.00067474365234375;3.70999999063315;372;100 mA
19.2845119513113;0.20050048828125;0.00070098876953125;3.7199999906079;373;100 mA
19.294511951286;0.200439453125;0.00067718505859375;3.72999999058266;374;100 mA
19.3045119512608;0.200408935546875;0.000676879882812501;3.73999999055741;375;100 mA
19.3145119512355;0.200469970703125;0.0006744384765625;3.74999999053216;376;100 mA
19.3245119512103;0.200408935546875;0.00071746826171875;3.75999999050691;377;100 mA
19.334511951185;0.20050048828125;0.0006573486328125;3.76999999048167;378;100 mA
19.3445119511598;0.20037841796875;0.0006842041015625;3.77999999045642;379;100 mA
19.3545119511346;0.20062255859375;0.00069091796875;3.78999999043117;380;100 mA
19.3645119511093;0.200469970703125;0.00067718505859375;3.79999999040592;381;100 mA
19.3745119510841;0.200439453125;0.000673828125000001;3.80999999038067;382;100 mA
19.3845119510588;0.2005615234375;0.00068695068359375;3.81999999035543;383;100 mA
19.3945119510336;0.200408935546875;0.000704040527343749;3.82999999033018;384;100 mA
19.4045119510083;0.2005615234375;0.00066650390625;3.83999999030493;385;100 mA
19.4145119509831;0.200439453125;0.000687561035156251;3.84999999027968;386;100 mA
19.4245119509578;0.20062255859375;0.000697937011718749;3.85999999025444;387;100 mA
19.4345119509326;0.20050048828125;0.00067626953125;3.86999999022919;388;100 mA
19.4445119509073;0.20050048828125;0.000649414062500001;3.87999999020394;389;100 mA
19.4545119508821;0.20062255859375;0.00069427490234375;3.88999999017869;390;100 mA
19.4645119508568;0.200531005859375;0.00066131591796875;3.89999999015345;391;100 mA
19.4745119508316;0.200408935546875;0.0006640625;3.9099999901282;392;100 mA
19.4845119508063;0.2005615234375;0.00067108154296875;3.91999999010295;393;100 mA
19.4945119507811;0.20050048828125;0.000694885253906249;3.9299999900777;394;100 mA
19.5045119507558;0.200592041015625;0.0006640625;3.93999999005246;395;100 mA
19.5145119507306;0.20050048828125;0.000647888183593751;3.94999999002721;396;100 mA
19.5245119507053;0.200469970703125;0.000694580078125;3.95999999000196;397;100 mA
19.5345119506801;0.200592041015625;0.0006732177734375;3.96999998997671;398;100 mA
19.5445119506549;0.20050048828125;0.00065460205078125;3.97999998995147;399;100 mA
19.5545119506296;0.200653076171875;0.000670776367187501;3.98999998992622;400;100 mA
19.5645119506044;0.2005615234375;0.0006866455078125;3.99999998990097;401;100 mA
19.5745119505791;0.200531005859375;0.00065582275390625;4.00999998987572;402;100 mA
19.5845119505539;0.200653076171875;0.0006732177734375;4.01999998985048;403;100 mA
19.5945119505286;0.2005615234375;0.000678405761718751;4.02999998982523;404;100 mA
19.6045119505034;0.200531005859375;0.000677490234375;4.03999998979998;405;100 mA
19.6145119504781;0.2005615234375;0.00064697265625;4.04999998977473;406;100 mA
19.6245119504529;0.200592041015625;0.0006842041015625;4.05999998974949;407;100 mA
19.6345119504276;0.200653076171875;0.000682678222656249;4.06999998972424;408;100 mA
19.6445119504024;0.2005615234375;0.000643310546875001;4.07999998969899;409;100 mA
19.6545119503771;0.200531005859375;0.000673522949218749;4.08999998967374;410;100 mA
19.6645119503519;0.200592041015625;0.000669250488281251;4.0999999896485;411;100 mA
19.6745119503266;0.200408935546875;0.00068572998046875;4.10999998962325;412;100 mA
19.6845119503014;0.20068359375;0.00063995361328125;4.119999989598;413;100 mA
19.6945119502761;0.20050048828125;0.00069244384765625;4.12999998957275;414;100 mA
19.7045119502509;0.200531005859375;0.000676879882812501;4.1399999895475;415;100 mA
19.7145119502256;0.20050048828125;0.0006573486328125;4.14999998952226;416;100 mA
19.7245119502004;0.20037841796875;0.0006866455078125;4.15999998949701;417;100 mA
19.7345119501751;0.20050048828125;0.000697021484375;4.16999998947176;418;100 mA
19.7445119501499;0.200439453125;0.0006591796875;4.17999998944651;419;100 mA
19.7545119501247;0.20050048828125;0.0006689453125;4.18999998942127;420;100 mA
19.7645119500994;0.200592041015625;0.00068328857421875;4.19999998939602;421;100 mA
19.7745119500742;0.20037841796875;0.00068634033203125;4.20999998937077;422;100 mA
19.7845119500489;0.200531005859375;0.00066375732421875;4.21999998934552;423;100 mA
19.7945119500237;0.20050048828125;0.0006634521484375;4.22999998932028;424;100 mA
19.8045119499984;0.200408935546875;0.00070953369140625;4.23999998929503;425;100 mA
19.8145119499732;0.200469970703125;0.00064544677734375;4.24999998926978;426;100 mA
19.8245119499479;0.20037841796875;0.0006915283203125;4.25999998924453;427;100 mA
19.8345119499227;0.20062255859375;0.00067901611328125;4.26999998921929;428;100 mA
19.8445119498974;0.200408935546875;0.00067901611328125;4.27999998919404;429;100 mA
19.8545119498722;0.200439453125;0.00066131591796875;4.28999998916879;430;100 mA
19.8645119498469;0.200531005859375;0.00067474365234375;4.29999998914354;431;100 mA
19.8745119498217;0.200439453125;0.00070037841796875;4.3099999891183;432;100 mA
19.8845119497964;0.200531005859375;0.00064727783203125;4.31999998909305;433;100 mA
19.8945119497712;0.200469970703125;0.00067474365234375;4.3299999890678;434;100 mA
19.9045119497459;0.2005615234375;0.00068511962890625;4.33999998904255;435;100 mA
19.9145119497207;0.200531005859375;0.000673828125000001;4.34999998901731;436;100 mA
19.9245119496954;0.20050048828125;0.00066253662109375;4.35999998899206;437;100 mA
19.9345119496702;0.200592041015625;0.000689697265625;4.36999998896681;438;100 mA
19.9445119496449;0.200531005859375;0.00066802978515625;4.37999998894156;439;100 mA
19.9545119496197;0.200439453125;0.00066680908203125;4.38999998891632;440;100 mA
19.9645119495945;0.200531005859375;0.00066497802734375;4.39999998889107;441;100 mA
19.9745119495692;0.200439453125;0.00070068359375;4.40999998886582;442;100 mA
19.984511949544;0.200531005859375;0.000648193359375;4.41999998884057;443;100 mA
19.9945119495187;0.200531005859375;0.000652465820312501;4.42999998881533;444;100 mA
20.0045119494935;0.200531005859375;0.00068817138671875;4.43999998879008;445;100 mA
20.0145119494682;0.2005615234375;0.000673522949218749;4.44999998876483;446;100 mA
20.024511949443;0.20050048828125;0.000669250488281251;4.45999998873958;447;100 mA
20.0345119494177;0.20062255859375;0.000670776367187501;4.46999998871433;448;100 mA
20.0445119493925;0.200531005859375;0.000701904296875;4.47999998868909;449;100 mA
20.0545119493672;0.200531005859375;0.000658264160156249;4.48999998866384;450;100 mA
20.064511949342;0.2005615234375;0.000681457519531251;4.49999998863859;451;100 mA
20.0745119493167;0.200531005859375;0.000696716308593751;4.50999998861334;452;100 mA
20.0845119492915;0.200592041015625;0.00068359375;4.5199999885881;453;100 mA
20.0945119492662;0.2005615234375;0.000667724609375001;4.52999998856285;454;100 mA
20.104511949241;0.20062255859375;0.000692138671875001;4.5399999885376;455;100 mA
20.1145119492157;0.20068359375;0.00069854736328125;4.54999998851235;456;100 mA
20.1245119491905;0.2005615234375;0.0006756591796875;4.55999998848711;457;100 mA
20.1345119491652;0.2005615234375;0.00068389892578125;4.56999998846186;458;100 mA
20.14451194914;0.20068359375;0.000694580078125;4.57999998843661;459;100 mA
20.1545119491147;0.20050048828125;0.0006927490234375;4.58999998841136;460;100 mA
20.1645119490895;0.20074462890625;0.00066070556640625;4.59999998838612;461;100 mA
20.1745119490643;0.200469970703125;0.000713195800781249;4.60999998836087;462;100 mA
20.184511949039;0.200531005859375;0.0006744384765625;4.61999998833562;463;100 mA
20.1945119490138;0.20050048828125;0.00067291259765625;4.62999998831037;464;100 mA
20.2045119489885;0.200439453125;0.00068206787109375;4.63999998828513;465;100 mA
20.2145119489633;0.200469970703125;0.0007049560546875;4.64999998825988;466;100 mA
20.224511948938;0.200439453125;0.000676879882812501;4.65999998823463;467;100 mA
20.2345119489128;0.2005615234375;0.00066497802734375;4.66999998820938;468;100 mA
20.2445119488875;0.2005615234375;0.000702514648437499;4.67999998818414;469;100 mA
20.2545119488623;0.200469970703125;0.00068817138671875;4.68999998815889;470;100 mA
20.264511948837;0.200469970703125;0.00066650390625;4.69999998813364;471;100 mA
20.2745119488118;0.200469970703125;0.00068695068359375;4.70999998810839;472;100 mA
20.2845119487865;0.200469970703125;0.00070709228515625;4.71999998808315;473;100 mA
20.2945119487613;0.200531005859375;0.00066070556640625;4.7299999880579;474;100 mA
20.304511948736;0.20037841796875;0.00069610595703125;4.73999998803265;475;100 mA
20.3145119487108;0.2005615234375;0.0006915283203125;4.7499999880074;476;100 mA
20.3245119486855;0.200439453125;0.000698242187500001;4.75999998798216;477;100 mA
20.3345119486603;0.200408935546875;0.000667419433593749;4.76999998795691;478;100 mA
20.344511948635;0.20050048828125;0.000704040527343749;4.77999998793166;479;100 mA
20.3545119486098;0.200408935546875;0.00070709228515625;4.78999998790641;480;100 mA
20.3645119485845;0.20050048828125;0.000662841796875;4.79999998788116;481;100 mA
20.3745119485593;0.200469970703125;0.00069580078125;4.80999998785592;482;100 mA
20.3845119485341;0.200469970703125;0.00069854736328125;4.81999998783067;483;100 mA
20.3945119485088;0.200531005859375;0.00069122314453125;4.82999998780542;484;100 mA
20.4045119484836;0.200469970703125;0.0006634521484375;4.83999998778017;485;100 mA
20.4145119484583;0.2005615234375;0.00069915771484375;4.84999998775493;486;100 mA
20.4245119484331;0.2005615234375;0.0006878662109375;4.85999998772968;487;100 mA
20.4345119484078;0.200408935546875;0.000666198730468751;4.86999998770443;488;100 mA
20.4445119483826;0.200531005859375;0.000675354003906251;4.87999998767918;489;100 mA
20.4545119483573;0.200469970703125;0.000706787109375;4.88999998765394;490;100 mA
20.4645119483321;0.200531005859375;0.00066253662109375;4.89999998762869;491;100 mA
20.4745119483068;0.200439453125;0.00067901611328125;4.90999998760344;492;100 mA
20.4845119482816;0.2005615234375;0.0006927490234375;4.91999998757819;493;100 mA
20.4945119482563;0.200653076171875;0.00068359375;4.92999998755295;494;100 mA
20.5045119482311;0.200439453125;0.000672302246093751;4.9399999875277;495;100 mA
20.5145119482058;0.20062255859375;0.000676879882812501;4.94999998750245;496;100 mA
20.5245119481806;0.200592041015625;0.000716552734375001;4.9599999874772;497;100 mA
20.5345119481553;0.200592041015625;0.000663146972656251;4.96999998745196;498;100 mA
20.5445119481301;0.20062255859375;0.000694580078125;4.97999998742671;499;100 mA
20.5545119481048;0.20062255859375;0.000696716308593751;4.98999998740146;500;100 mA
20.5645119480796;0.2005615234375;0.000690307617187499;4.99999998737621;501;100 mA
20.5745119480544;0.200592041015625;0.00067047119140625;5.00999998735097;502;100 mA
20.5845119480291;0.2005615234375;0.00069580078125;5.01999998732572;503;100 mA
20.5945119480039;0.20062255859375;0.00070220947265625;5.02999998730047;504;100 mA
20.6045119479786;0.200531005859375;0.0006640625;5.03999998727522;505;100 mA
20.6145119479534;0.200592041015625;0.000675048828124999;5.04999998724998;506;100 mA
20.6245119479281;0.200653076171875;0.0007000732421875;5.05999998722473;507;100 mA
20.6345119479029;0.200469970703125;0.00068359375;5.06999998719948;508;100 mA
20.6445119478776;0.200653076171875;0.0006610107421875;5.07999998717423;509;100 mA
20.6545119478524;0.200469970703125;0.00070465087890625;5.08999998714899;510;100 mA
20.6645119478271;0.200592041015625;0.00066864013671875;5.09999998712374;511;100 mA
20.6745119478019;0.200439453125;0.000682983398437501;5.10999998709849;512;100 mA
20.6845119477766;0.200408935546875;0.00067291259765625;5.11999998707324;513;100 mA
20.6945119477514;0.200531005859375;0.0007037353515625;5.129999987048;514;100 mA
20.7045119477261;0.200439453125;0.0006622314453125;5.13999998702275;515;100 mA
20.7145119477009;0.20050048828125;0.0006640625;5.1499999869975;516;100 mA
20.7245119476756;0.2005615234375;0.000693359375;5.15999998697225;517;100 mA
20.7345119476504;0.200408935546875;0.00067779541015625;5.169999986947;518;100 mA
20.7445119476251;0.20050048828125;0.000658569335937501;5.17999998692176;519;100 mA
20.7545119475999;0.200439453125;0.00067626953125;5.18999998689651;520;100 mA
20.7645119475746;0.20050048828125;0.000694885253906249;5.19999998687126;521;100 mA
20.7745119475494;0.20050048828125;0.000657043457031251;5.20999998684601;522;100 mA
20.7845119475242;0.200347900390625;0.000679931640625001;5.21999998682077;523;100 mA
20.7945119474989;0.200653076171875;0.00068359375;5.22999998679552;524;100 mA
20.8045119474737;0.200439453125;0.000689086914062501;5.23999998677027;525;100 mA
20.8145119474484;0.200439453125;0.00065582275390625;5.24999998674502;526;100 mA
20.8245119474232;0.20050048828125;0.000692138671875001;5.25999998671978;527;100 mA
20.8345119473979;0.200439453125;0.000693359375;5.26999998669453;528;100 mA
20.8445119473727;0.20050048828125;0.000662841796875;5.27999998666928;529;100 mA
20.8545119473474;0.200439453125;0.000682373046875;5.28999998664403;530;100 mA
20.8645119473222;0.20050048828125;0.000684814453125;5.29999998661879;531;100 mA
20.8745119472969;0.200469970703125;0.0006939697265625;5.30999998659354;532;100 mA
20.8845119472717;0.20050048828125;0.000657043457031251;5.31999998656829;533;100 mA
20.8945119472464;0.2005615234375;0.000708923339843751;5.32999998654304;534;100 mA
20.9045119472212;0.200531005859375;0.0006866455078125;5.3399999865178;535;100 mA
20.9145119471959;0.20037841796875;0.000675048828124999;5.34999998649255;536;100 mA
20.9245119471707;0.200531005859375;0.00069122314453125;5.3599999864673;537;100 mA
20.9345119471454;0.20050048828125;0.000713195800781249;5.36999998644205;538;100 mA
20.9445119471202;0.2005615234375;0.000670776367187501;5.37999998641681;539;100 mA
20.9545119470949;0.200439453125;0.000681152343749999;5.38999998639156;540;100 mA
20.9645119470697;0.200653076171875;0.000684814453125;5.39999998636631;541;100 mA
20.9745119470444;0.200592041015625;0.00069854736328125;5.40999998634106;542;100 mA
20.9845119470192;0.200469970703125;0.00066192626953125;5.41999998631582;543;100 mA
20.994511946994;0.20062255859375;0.000679626464843749;5.42999998629057;544;100 mA
21.0045119469687;0.200592041015625;0.00070831298828125;5.43999998626532;545;100 mA
21.0145119469435;0.20062255859375;0.000649108886718749;5.44999998624007;546;100 mA
21.0245119469182;0.2005615234375;0.000702514648437499;5.45999998621483;547;100 mA
21.034511946893;0.200592041015625;0.0006866455078125;5.46999998618958;548;100 mA
21.0445119468677;0.200531005859375;0.0006854248046875;5.47999998616433;549;100 mA
21.0545119468425;0.200531005859375;0.0006573486328125;5.48999998613908;550;100 mA
21.0645119468172;0.20062255859375;0.00068206787109375;5.49999998611383;551;100 mA
21.074511946792;0.2005615234375;0.00070343017578125;5.50999998608859;552;100 mA
21.0845119467667;0.200531005859375;0.00065643310546875;5.51999998606334;553;100 mA
21.0945119467415;0.20068359375;0.00066986083984375;5.52999998603809;554;100 mA
21.1045119467162;0.2005615234375;0.000696411132812499;5.53999998601284;555;100 mA
21.114511946691;0.200439453125;0.000673828125000001;5.5499999859876;556;100 mA
21.1245119466657;0.200653076171875;0.000650939941406251;5.55999998596235;557;100 mA
21.1345119466405;0.200439453125;0.0006927490234375;5.5699999859371;558;100 mA
21.1445119466152;0.20050048828125;0.00067138671875;5.57999998591185;559;100 mA
21.15451194659;0.200531005859375;0.00066497802734375;5.58999998588661;560;100 mA
21.1645119465647;0.200439453125;0.0006536865234375;5.59999998586136;561;100 mA
21.1745119465395;0.20050048828125;0.0007080078125;5.60999998583611;562;100 mA
21.1845119465142;0.200439453125;0.00065185546875;5.61999998581086;563;100 mA
21.194511946489;0.200439453125;0.000662841796875;5.62999998578562;564;100 mA
21.2045119464638;0.2005615234375;0.000684814453125;5.63999998576037;565;100 mA
21.2145119464385;0.200439453125;0.000681457519531251;5.64999998573512;566;100 mA
21.2245119464133;0.20050048828125;0.000673828125000001;5.65999998570987;567;100 mA
21.234511946388;0.20050048828125;0.00066986083984375;5.66999998568463;568;100 mA
21.2445119463628;0.200469970703125;0.000706787109375;5.67999998565938;569;100 mA
21.2545119463375;0.200531005859375;0.000660400390625;5.68999998563413;570;100 mA
21.2645119463123;0.200347900390625;0.000690612792968751;5.69999998560888;571;100 mA
21.274511946287;0.200653076171875;0.00070220947265625;5.70999998558364;572;100 mA
21.2845119462618;0.200408935546875;0.00069122314453125;5.71999998555839;573;100 mA
21.2945119462365;0.20050048828125;0.000666198730468751;5.72999998553314;574;100 mA
21.3045119462113;0.20050048828125;0.000702819824218751;5.73999998550789;575;100 mA
21.314511946186;0.200439453125;0.00069854736328125;5.74999998548265;576;100 mA
21.3245119461608;0.200439453125;0.000678405761718751;5.7599999854574;577;100 mA
21.3345119461355;0.200439453125;0.000672607421875;5.76999998543215;578;100 mA
21.3445119461103;0.20050048828125;0.0007049560546875;5.7799999854069;579;100 mA
21.354511946085;0.200469970703125;0.00069122314453125;5.78999998538166;580;100 mA
21.3645119460598;0.200439453125;0.00066131591796875;5.79999998535641;581;100 mA
21.3745119460345;0.200531005859375;0.000718078613281251;5.80999998533116;582;100 mA
21.3845119460093;0.20050048828125;0.000675354003906251;5.81999998530591;583;100 mA
21.394511945984;0.20037841796875;0.000667419433593749;5.82999998528066;584;100 mA
21.4045119459588;0.2005615234375;0.00067718505859375;5.83999998525542;585;100 mA
21.4145119459336;0.200469970703125;0.00069610595703125;5.84999998523017;586;100 mA
21.4245119459083;0.2005615234375;0.000660400390625;5.85999998520492;587;100 mA
21.4345119458831;0.20050048828125;0.000658569335937501;5.86999998517967;588;100 mA
21.4445119458578;0.200592041015625;0.000686035156250001;5.87999998515443;589;100 mA
21.4545119458326;0.200531005859375;0.00067718505859375;5.88999998512918;590;100 mA
21.4645119458073;0.200439453125;0.000649108886718749;5.89999998510393;591;100 mA
21.4745119457821;0.200653076171875;0.0006695556640625;5.90999998507868;592;100 mA
21.4845119457568;0.20062255859375;0.000689697265625;5.91999998505344;593;100 mA
21.4945119457316;0.20050048828125;0.00064605712890625;5.92999998502819;594;100 mA
21.5045119457063;0.200653076171875;0.000679626464843749;5.93999998500294;595;100 mA
21.5145119456811;0.2005615234375;0.000681152343749999;5.94999998497769;596;100 mA
21.5245119456558;0.20050048828125;0.0006927490234375;5.95999998495245;597;100 mA
21.5345119456306;0.20062255859375;0.0006549072265625;5.9699999849272;598;100 mA
21.5445119456053;0.200592041015625;0.000689086914062501;5.97999998490195;599;100 mA
21.5545119455801;0.200653076171875;0.00069305419921875;5.9899999848767;600;100 mA
21.5645119455548;0.200439453125;0.000658569335937501;5.99999998485146;601;100 mA
21.5745119455296;0.2005615234375;0.00067626953125;6.00999998482621;602;100 mA
21.5845119455043;0.2005615234375;0.00068939208984375;6.01999998480096;603;100 mA
21.5945119454791;0.200439453125;0.00067626953125;6.02999998477571;604;100 mA
21.6045119454539;0.200653076171875;0.0006591796875;6.03999998475047;605;100 mA
21.6145119454286;0.20050048828125;0.000692138671875001;6.04999998472522;606;100 mA
21.6245119454034;0.20050048828125;0.0006781005859375;6.05999998469997;607;100 mA
21.6345119453781;0.200469970703125;0.0006622314453125;6.06999998467472;608;100 mA
21.6445119453529;0.200439453125;0.000662841796875;6.07999998464948;609;100 mA
21.6545119453276;0.200469970703125;0.000713195800781249;6.08999998462423;610;100 mA
21.6645119453024;0.200439453125;0.000636901855468749;6.09999998459898;611;100 mA
21.6745119452771;0.200439453125;0.000663146972656251;6.10999998457373;612;100 mA
21.6845119452519;0.20062255859375;0.0006732177734375;6.11999998454849;613;100 mA
21.6945119452266;0.200469970703125;0.000670776367187501;6.12999998452324;614;100 mA
21.7045119452014;0.200469970703125;0.00065582275390625;6.13999998449799;615;100 mA
21.7145119451761;0.200469970703125;0.000653991699218751;6.14999998447274;616;100 mA
21.7245119451509;0.200439453125;0.00070068359375;6.1599999844475;617;100 mA
21.7345119451256;0.200531005859375;0.0006298828125;6.16999998442225;618;100 mA
21.7445119451004;0.200347900390625;0.00067474365234375;6.179999984397;619;100 mA
21.7545119450751;0.20062255859375;0.00067718505859375;6.18999998437175;620;100 mA
21.7645119450499;0.20050048828125;0.000673828125000001;6.1999999843465;621;100 mA
21.7745119450246;0.200469970703125;0.0006536865234375;6.20999998432126;622;100 mA
21.7845119449994;0.2005615234375;0.0006805419921875;6.21999998429601;623;100 mA
21.7945119449741;0.200439453125;0.000684509277343751;6.22999998427076;624;100 mA
21.8045119449489;0.200439453125;0.00065460205078125;6.23999998424551;625;100 mA
21.8145119449237;0.20050048828125;0.0006512451171875;6.24999998422027;626;100 mA
21.8245119448984;0.200531005859375;0.00069549560546875;6.25999998419502;627;100 mA
21.8345119448732;0.200592041015625;0.000661621093750001;6.26999998416977;628;100 mA
21.8445119448479;0.200469970703125;0.0006396484375;6.27999998414452;629;100 mA
21.8545119448227;0.2005615234375;0.000687561035156251;6.28999998411928;630;100 mA
21.8645119447974;0.2005615234375;0.000658264160156249;6.29999998409403;631;100 mA
21.8745119447722;0.200439453125;0.000649414062500001;6.30999998406878;632;100 mA
21.8845119447469;0.200592041015625;0.000645751953125;6.31999998404353;633;100 mA
21.8945119447217;0.20050048828125;0.000684509277343751;6.32999998401829;634;100 mA
21.9045119446964;0.2005615234375;0.00063629150390625;6.33999998399304;635;100 mA
21.9145119446712;0.2005615234375;0.00064208984375;6.34999998396779;636;100 mA
21.9245119446459;0.20062255859375;0.0006695556640625;6.35999998394254;637;100 mA
21.9345119446207;0.20062255859375;0.000660095214843751;6.3699999839173;638;100 mA
21.9445119445954;0.20050048828125;0.0006488037109375;6.37999998389205;639;100 mA
21.9545119445702;0.200714111328125;0.00064727783203125;6.3899999838668;640;100 mA
21.9645119445449;0.2005615234375;0.0006787109375;6.39999998384155;641;100 mA
21.9745119445197;0.2005615234375;0.0006378173828125;6.40999998381631;642;100 mA
21.9845119444944;0.200653076171875;0.00067413330078125;6.41999998379106;643;100 mA
21.9945119444692;0.200653076171875;0.00068206787109375;6.42999998376581;644;100 mA
22.0045119444439;0.200531005859375;0.000681152343749999;6.43999998374056;645;100 mA
22.0145119444187;0.200653076171875;0.00063812255859375;6.44999998371532;646;100 mA
22.0245119443935;0.2005615234375;0.000688781738281249;6.45999998369007;647;100 mA
22.0345119443682;0.2005615234375;0.00068695068359375;6.46999998366482;648;100 mA
22.044511944343;0.20050048828125;0.000659790039062499;6.47999998363957;649;100 mA
22.0545119443177;0.2005615234375;0.00066650390625;6.48999998361433;650;100 mA
22.0645119442925;0.20050048828125;0.000678405761718751;6.49999998358908;651;100 mA
22.0745119442672;0.200439453125;0.00068511962890625;6.50999998356383;652;100 mA
22.084511944242;0.200653076171875;0.000646362304687501;6.51999998353858;653;100 mA
22.0945119442167;0.200469970703125;0.00069427490234375;6.52999998351333;654;100 mA
22.1045119441915;0.200531005859375;0.00067291259765625;6.53999998348809;655;100 mA
22.1145119441662;0.20050048828125;0.000663146972656251;6.54999998346284;656;100 mA
22.124511944141;0.200469970703125;0.0006695556640625;6.55999998343759;657;100 mA
22.1345119441157;0.200439453125;0.0007080078125;6.56999998341234;658;100 mA
22.1445119440905;0.200469970703125;0.000650634765624999;6.5799999833871;659;100 mA
22.1545119440652;0.200408935546875;0.00066802978515625;6.58999998336185;660;100 mA
22.16451194404;0.2005615234375;0.00067413330078125;6.5999999833366;661;100 mA
22.1745119440147;0.200286865234375;0.00069732666015625;6.60999998331135;662;100 mA
22.1845119439895;0.200469970703125;0.00065643310546875;6.61999998328611;663;100 mA
22.1945119439642;0.200531005859375;0.0006756591796875;6.62999998326086;664;100 mA
22.204511943939;0.200439453125;0.0007080078125;6.63999998323561;665;100 mA
22.2145119439137;0.200592041015625;0.000649108886718749;6.64999998321036;666;100 mA
22.2245119438885;0.2003173828125;0.000698242187500001;6.65999998318512;667;100 mA
22.2345119438633;0.2005615234375;0.000690307617187499;6.66999998315987;668;100 mA
22.244511943838;0.200439453125;0.000701904296875;6.67999998313462;669;100 mA
22.2545119438128;0.200408935546875;0.000662841796875;6.68999998310937;670;100 mA
22.2645119437875;0.200531005859375;0.000701904296875;6.69999998308413;671;100 mA
22.2745119437623;0.200469970703125;0.00071624755859375;6.70999998305888;672;100 mA
22.284511943737;0.200469970703125;0.00067108154296875;6.71999998303363;673;100 mA
22.2945119437118;0.20050048828125;0.0006842041015625;6.72999998300838;674;100 mA
22.3045119436865;0.200531005859375;0.000714111328125;6.73999998298314;675;100 mA
22.3145119436613;0.200439453125;0.00068817138671875;6.74999998295789;676;100 mA
22.324511943636;0.200531005859375;0.00067108154296875;6.75999998293264;677;100 mA
22.3345119436108;0.20050048828125;0.00070831298828125;6.76999998290739;678;100 mA
22.3445119435855;0.2005615234375;0.000687255859374999;6.77999998288215;679;100 mA
22.3545119435603;0.200439453125;0.00068023681640625;6.7899999828569;680;100 mA
22.364511943535;0.200653076171875;0.0006695556640625;6.79999998283165;681;100 mA
22.3745119435098;0.200469970703125;0.00072998046875;6.8099999828064;682;100 mA
22.3845119434845;0.2005615234375;0.000660400390625;6.81999998278116;683;100 mA
22.3945119434593;0.20050048828125;0.000681152343749999;6.82999998275591;684;100 mA
22.404511943434;0.200592041015625;0.00070098876953125;6.83999998273066;685;100 mA
22.4145119434088;0.2005615234375;0.000694885253906249;6.84999998270541;686;100 mA
22.4245119433835;0.20050048828125;0.000679931640625001;6.85999998268016;687;100 mA
22.4345119433583;0.20062255859375;0.000687561035156251;6.86999998265492;688;100 mA
22.4445119433331;0.20062255859375;0.00071624755859375;6.87999998262967;689;100 mA
22.4545119433078;0.20050048828125;0.000675048828124999;6.88999998260442;690;100 mA
22.4645119432826;0.200653076171875;0.00068389892578125;6.89999998257917;691;100 mA
22.4745119432573;0.20062255859375;0.0007122802734375;6.90999998255393;692;100 mA
22.4845119432321;0.200531005859375;0.000699768066406251;6.91999998252868;693;100 mA
22.4945119432068;0.20068359375;0.000665283203125;6.92999998250343;694;100 mA
22.5045119431816;0.200469970703125;0.000708923339843751;6.93999998247818;695;100 mA
22.5145119431563;0.200592041015625;0.000706787109375;6.94999998245294;696;100 mA
22.5245119431311;0.20050048828125;0.000682983398437501;6.95999998242769;697;100 mA
22.5345119431058;0.200531005859375;0.00067413330078125;6.96999998240244;698;100 mA
22.5445119430806;0.20050048828125;0.00070770263671875;6.97999998237719;699;100 mA
22.5545119430553;0.200408935546875;0.000696411132812499;6.98999998235195;700;100 mA
