Time (s);WE(1).Potential (V);WE(1).Current (A);Corrected time (s);Index;Current range
45.691932884639;-0.9002685546875;-0.3399658203125;0;1;100 mA
45.7019328846137;-0.899658203125;-0.248260498046875;0.00999999997475243;2;100 mA
45.7119328845885;-0.89935302734375;-0.202728271484375;0.0199999999495049;3;100 mA
45.7219328845632;-0.89996337890625;-0.176483154296875;0.0299999999242573;4;100 mA
45.731932884538;-0.89935302734375;-0.158721923828125;0.0399999998990097;5;100 mA
45.7419328845127;-0.899658203125;-0.144195556640625;0.0499999998737621;6;100 mA
45.7519328844875;-0.8990478515625;-0.134124755859375;0.0599999998485146;7;100 mA
45.7619328844622;-0.89935302734375;-0.12567138671875;0.069999999823267;8;100 mA
45.771932884437;-0.89996337890625;-0.11883544921875;0.0799999997980194;9;100 mA
45.7819328844117;-0.8990478515625;-0.1126708984375;0.0899999997727718;10;100 mA
45.7919328843865;-0.899658203125;-0.10784912109375;0.0999999997475243;11;100 mA
45.8019328843612;-0.899658203125;-0.104034423828125;0.109999999722277;12;100 mA
45.811932884336;-0.899658203125;-0.099517822265625;0.119999999697029;13;100 mA
45.8219328843107;-0.89935302734375;-0.0963134765625;0.129999999671782;14;100 mA
45.8319328842855;-0.89935302734375;-0.09356689453125;0.139999999646534;15;100 mA
45.8419328842602;-0.8990478515625;-0.090728759765625;0.149999999621286;16;100 mA
45.851932884235;-0.8990478515625;-0.088226318359375;0.159999999596039;17;100 mA
45.8619328842098;-0.89996337890625;-0.0860595703125;0.169999999570791;18;100 mA
45.8719328841845;-0.89935302734375;-0.08465576171875;0.179999999545544;19;100 mA
45.8819328841593;-0.8990478515625;-0.08221435546875;0.189999999520296;20;100 mA
45.891932884134;-0.899658203125;-0.08074951171875;0.199999999495049;21;100 mA
45.9019328841088;-0.899658203125;-0.07965087890625;0.209999999469801;22;100 mA
45.9119328840835;-0.899658203125;-0.0780029296875;0.219999999444553;23;100 mA
45.9219328840583;-0.89935302734375;-0.07672119140625;0.229999999419306;24;100 mA
45.931932884033;-0.89935302734375;-0.075714111328125;0.239999999394058;25;100 mA
45.9419328840078;-0.899658203125;-0.075042724609375;0.249999999368811;26;100 mA
45.9519328839825;-0.89996337890625;-0.073699951171875;0.259999999343563;27;100 mA
45.9619328839573;-0.899658203125;-0.073028564453125;0.269999999318316;28;100 mA
45.971932883932;-0.89935302734375;-0.07275390625;0.279999999293068;29;100 mA
45.9819328839068;-0.89935302734375;-0.07159423828125;0.28999999926782;30;100 mA
45.9919328838815;-0.899658203125;-0.07080078125;0.299999999242573;31;100 mA
46.0019328838563;-0.9002685546875;-0.070404052734375;0.309999999217325;32;100 mA
46.011932883831;-0.899658203125;-0.069854736328125;0.319999999192078;33;100 mA
46.0219328838058;-0.89935302734375;-0.0689697265625;0.32999999916683;34;100 mA
46.0319328837805;-0.8990478515625;-0.068389892578125;0.339999999141583;35;100 mA
46.0419328837553;-0.89935302734375;-0.06842041015625;0.349999999116335;36;100 mA
46.05193288373;-0.899658203125;-0.06719970703125;0.359999999091087;37;100 mA
46.0619328837048;-0.89874267578125;-0.066680908203125;0.36999999906584;38;100 mA
46.0719328836796;-0.89935302734375;-0.066375732421875;0.379999999040592;39;100 mA
46.0819328836543;-0.89935302734375;-0.065704345703125;0.389999999015345;40;100 mA
46.0919328836291;-0.899658203125;-0.06488037109375;0.399999998990097;41;100 mA
46.1019328836038;-0.89935302734375;-0.064453125;0.40999999896485;42;100 mA
46.1119328835786;-0.89935302734375;-0.06451416015625;0.419999998939602;43;100 mA
46.1219328835533;-0.899658203125;-0.063507080078125;0.429999998914354;44;100 mA
46.1319328835281;-0.89935302734375;-0.0633544921875;0.439999998889107;45;100 mA
46.1419328835028;-0.899658203125;-0.0633544921875;0.449999998863859;46;100 mA
46.1519328834776;-0.89935302734375;-0.062774658203125;0.459999998838612;47;100 mA
46.1619328834523;-0.8990478515625;-0.062347412109375;0.469999998813364;48;100 mA
46.1719328834271;-0.89935302734375;-0.0623779296875;0.479999998788116;49;100 mA
46.1819328834018;-0.89996337890625;-0.062469482421875;0.489999998762869;50;100 mA
46.1919328833766;-0.89935302734375;-0.061859130859375;0.499999998737621;51;100 mA
46.2019328833513;-0.899658203125;-0.061737060546875;0.509999998712374;52;100 mA
46.2119328833261;-0.89935302734375;-0.062225341796875;0.519999998687126;53;100 mA
46.2219328833008;-0.8990478515625;-0.06158447265625;0.529999998661879;54;100 mA
46.2319328832756;-0.8990478515625;-0.06146240234375;0.539999998636631;55;100 mA
46.2419328832503;-0.8990478515625;-0.06158447265625;0.549999998611383;56;100 mA
46.2519328832251;-0.899658203125;-0.061553955078125;0.559999998586136;57;100 mA
46.2619328831998;-0.9002685546875;-0.061065673828125;0.569999998560888;58;100 mA
46.2719328831746;-0.89996337890625;-0.061004638671875;0.579999998535641;59;100 mA
46.2819328831494;-0.89874267578125;-0.061431884765625;0.589999998510393;60;100 mA
46.2919328831241;-0.89935302734375;-0.060760498046875;0.599999998485146;61;100 mA
46.3019328830989;-0.89996337890625;-0.060760498046875;0.609999998459898;62;100 mA
46.3119328830736;-0.8990478515625;-0.06103515625;0.61999999843465;63;100 mA
46.3219328830484;-0.89996337890625;-0.0609130859375;0.629999998409403;64;100 mA
46.3319328830231;-0.8990478515625;-0.060577392578125;0.639999998384155;65;100 mA
46.3419328829979;-0.89996337890625;-0.060699462890625;0.649999998358908;66;100 mA
46.3519328829726;-0.8990478515625;-0.060943603515625;0.65999999833366;67;100 mA
46.3619328829474;-0.899658203125;-0.060150146484375;0.669999998308413;68;100 mA
46.3719328829221;-0.899658203125;-0.059967041015625;0.679999998283165;69;100 mA
46.3819328828969;-0.89935302734375;-0.060333251953125;0.689999998257917;70;100 mA
46.3919328828716;-0.8990478515625;-0.0599365234375;0.69999999823267;71;100 mA
46.4019328828464;-0.89935302734375;-0.05975341796875;0.709999998207422;72;100 mA
46.4119328828211;-0.899658203125;-0.05999755859375;0.719999998182175;73;100 mA
46.4219328827959;-0.89935302734375;-0.060333251953125;0.729999998156927;74;100 mA
46.4319328827706;-0.89935302734375;-0.059814453125;0.73999999813168;75;100 mA
46.4419328827454;-0.89935302734375;-0.059814453125;0.749999998106432;76;100 mA
46.4519328827201;-0.89996337890625;-0.060394287109375;0.759999998081184;77;100 mA
46.4619328826949;-0.899658203125;-0.0599365234375;0.769999998055937;78;100 mA
46.4719328826696;-0.89935302734375;-0.059783935546875;0.779999998030689;79;100 mA
46.4819328826444;-0.89935302734375;-0.0599365234375;0.789999998005442;80;100 mA
46.4919328826192;-0.8990478515625;-0.05987548828125;0.799999997980194;81;100 mA
46.5019328825939;-0.8990478515625;-0.059234619140625;0.809999997954947;82;100 mA
46.5119328825687;-0.8990478515625;-0.0592041015625;0.819999997929699;83;100 mA
46.5219328825434;-0.89935302734375;-0.05950927734375;0.829999997904451;84;100 mA
46.5319328825182;-0.899658203125;-0.058837890625;0.839999997879204;85;100 mA
46.5419328824929;-0.89935302734375;-0.05865478515625;0.849999997853956;86;100 mA
46.5519328824677;-0.89996337890625;-0.05908203125;0.859999997828709;87;100 mA
46.5619328824424;-0.89935302734375;-0.05902099609375;0.869999997803461;88;100 mA
46.5719328824172;-0.89935302734375;-0.058837890625;0.879999997778214;89;100 mA
46.5819328823919;-0.8990478515625;-0.059051513671875;0.889999997752966;90;100 mA
46.5919328823667;-0.8990478515625;-0.059539794921875;0.899999997727718;91;100 mA
46.6019328823414;-0.899658203125;-0.058868408203125;0.909999997702471;92;100 mA
46.6119328823162;-0.8990478515625;-0.05889892578125;0.919999997677223;93;100 mA
46.6219328822909;-0.899658203125;-0.05926513671875;0.929999997651976;94;100 mA
46.6319328822657;-0.899658203125;-0.05889892578125;0.939999997626728;95;100 mA
46.6419328822404;-0.89996337890625;-0.05859375;0.949999997601481;96;100 mA
46.6519328822152;-0.8990478515625;-0.05877685546875;0.959999997576233;97;100 mA
46.6619328821899;-0.899658203125;-0.059173583984375;0.969999997550985;98;100 mA
46.6719328821647;-0.89935302734375;-0.058624267578125;0.979999997525738;99;100 mA
46.6819328821394;-0.899658203125;-0.05889892578125;0.98999999750049;100;100 mA
46.6919328821142;-0.8990478515625;-0.059295654296875;0.999999997475243;101;100 mA
46.701932882089;-0.8990478515625;-0.058807373046875;1.00999999745;102;100 mA
46.7119328820637;-0.89935302734375;-0.0587158203125;1.01999999742475;103;100 mA
46.7219328820385;-0.8990478515625;-0.059112548828125;1.0299999973995;104;100 mA
46.7319328820132;-0.89935302734375;-0.059326171875;1.03999999737425;105;100 mA
46.741932881988;-0.899658203125;-0.05914306640625;1.049999997349;106;100 mA
46.7519328819627;-0.89935302734375;-0.059417724609375;1.05999999732376;107;100 mA
46.7619328819375;-0.8990478515625;-0.06011962890625;1.06999999729851;108;100 mA
46.7719328819122;-0.899658203125;-0.059478759765625;1.07999999727326;109;100 mA
46.781932881887;-0.899658203125;-0.059478759765625;1.08999999724801;110;100 mA
46.7919328818617;-0.89996337890625;-0.059814453125;1.09999999722277;111;100 mA
46.8019328818365;-0.89935302734375;-0.059722900390625;1.10999999719752;112;100 mA
46.8119328818112;-0.899658203125;-0.05938720703125;1.11999999717227;113;100 mA
46.821932881786;-0.89874267578125;-0.059417724609375;1.12999999714702;114;100 mA
46.8319328817607;-0.89935302734375;-0.059783935546875;1.13999999712178;115;100 mA
46.8419328817355;-0.89935302734375;-0.058929443359375;1.14999999709653;116;100 mA
46.8519328817102;-0.89996337890625;-0.0589599609375;1.15999999707128;117;100 mA
46.861932881685;-0.89935302734375;-0.059173583984375;1.16999999704603;118;100 mA
46.8719328816597;-0.89935302734375;-0.058746337890625;1.17999999702079;119;100 mA
46.8819328816345;-0.89935302734375;-0.058349609375;1.18999999699554;120;100 mA
46.8919328816093;-0.89874267578125;-0.0584716796875;1.19999999697029;121;100 mA
46.901932881584;-0.8990478515625;-0.058563232421875;1.20999999694504;122;100 mA
46.9119328815588;-0.89935302734375;-0.057891845703125;1.2199999969198;123;100 mA
46.9219328815335;-0.8984375;-0.057830810546875;1.22999999689455;124;100 mA
46.9319328815083;-0.899658203125;-0.0582275390625;1.2399999968693;125;100 mA
46.941932881483;-0.899658203125;-0.0576171875;1.24999999684405;126;100 mA
46.9519328814578;-0.89874267578125;-0.057464599609375;1.25999999681881;127;100 mA
46.9619328814325;-0.89935302734375;-0.057769775390625;1.26999999679356;128;100 mA
46.9719328814073;-0.89935302734375;-0.057861328125;1.27999999676831;129;100 mA
46.981932881382;-0.899658203125;-0.057525634765625;1.28999999674306;130;100 mA
46.9919328813568;-0.8990478515625;-0.05767822265625;1.29999999671782;131;100 mA
47.0019328813315;-0.8990478515625;-0.058349609375;1.30999999669257;132;100 mA
47.0119328813063;-0.89935302734375;-0.057861328125;1.31999999666732;133;100 mA
47.021932881281;-0.89935302734375;-0.05804443359375;1.32999999664207;134;100 mA
47.0319328812558;-0.89996337890625;-0.05841064453125;1.33999999661683;135;100 mA
47.0419328812305;-0.89996337890625;-0.058349609375;1.34999999659158;136;100 mA
47.0519328812053;-0.89935302734375;-0.0579833984375;1.35999999656633;137;100 mA
47.06193288118;-0.89874267578125;-0.058074951171875;1.36999999654108;138;100 mA
47.0719328811548;-0.899658203125;-0.05828857421875;1.37999999651583;139;100 mA
47.0819328811295;-0.8990478515625;-0.057586669921875;1.38999999649059;140;100 mA
47.0919328811043;-0.899658203125;-0.0574951171875;1.39999999646534;141;100 mA
47.1019328810791;-0.89935302734375;-0.057891845703125;1.40999999644009;142;100 mA
47.1119328810538;-0.8990478515625;-0.05755615234375;1.41999999641484;143;100 mA
47.1219328810286;-0.8990478515625;-0.05731201171875;1.4299999963896;144;100 mA
47.1319328810033;-0.899658203125;-0.057647705078125;1.43999999636435;145;100 mA
47.1419328809781;-0.89935302734375;-0.05792236328125;1.4499999963391;146;100 mA
47.1519328809528;-0.8990478515625;-0.057373046875;1.45999999631385;147;100 mA
47.1619328809276;-0.899658203125;-0.057342529296875;1.46999999628861;148;100 mA
47.1719328809023;-0.89935302734375;-0.057861328125;1.47999999626336;149;100 mA
47.1819328808771;-0.899658203125;-0.057342529296875;1.48999999623811;150;100 mA
47.1919328808518;-0.899658203125;-0.057373046875;1.49999999621286;151;100 mA
47.2019328808266;-0.8990478515625;-0.05780029296875;1.50999999618762;152;100 mA
47.2119328808013;-0.89935302734375;-0.058074951171875;1.51999999616237;153;100 mA
47.2219328807761;-0.89935302734375;-0.057708740234375;1.52999999613712;154;100 mA
47.2319328807508;-0.89935302734375;-0.05810546875;1.53999999611187;155;100 mA
47.2419328807256;-0.89874267578125;-0.058685302734375;1.54999999608663;156;100 mA
47.2519328807003;-0.8990478515625;-0.05816650390625;1.55999999606138;157;100 mA
47.2619328806751;-0.89935302734375;-0.058197021484375;1.56999999603613;158;100 mA
47.2719328806498;-0.89935302734375;-0.058868408203125;1.57999999601088;159;100 mA
47.2819328806246;-0.899658203125;-0.058929443359375;1.58999999598564;160;100 mA
47.2919328805993;-0.8990478515625;-0.058868408203125;1.59999999596039;161;100 mA
47.3019328805741;-0.899658203125;-0.059326171875;1.60999999593514;162;100 mA
47.3119328805489;-0.8990478515625;-0.059967041015625;1.61999999590989;163;100 mA
47.3219328805236;-0.899658203125;-0.0594482421875;1.62999999588465;164;100 mA
47.3319328804984;-0.899658203125;-0.059600830078125;1.6399999958594;165;100 mA
47.3419328804731;-0.8990478515625;-0.060089111328125;1.64999999583415;166;100 mA
47.3519328804479;-0.89935302734375;-0.059844970703125;1.6599999958089;167;100 mA
47.3619328804226;-0.89935302734375;-0.059661865234375;1.66999999578366;168;100 mA
47.3719328803974;-0.89935302734375;-0.0599365234375;1.67999999575841;169;100 mA
47.3819328803721;-0.89935302734375;-0.060302734375;1.68999999573316;170;100 mA
47.3919328803469;-0.899658203125;-0.0595703125;1.69999999570791;171;100 mA
47.4019328803216;-0.899658203125;-0.0596923828125;1.70999999568267;172;100 mA
47.4119328802964;-0.89935302734375;-0.059967041015625;1.71999999565742;173;100 mA
47.4219328802711;-0.8990478515625;-0.05938720703125;1.72999999563217;174;100 mA
47.4319328802459;-0.89996337890625;-0.059112548828125;1.73999999560692;175;100 mA
47.4419328802206;-0.8990478515625;-0.05950927734375;1.74999999558167;176;100 mA
47.4519328801954;-0.89935302734375;-0.059478759765625;1.75999999555643;177;100 mA
47.4619328801701;-0.89935302734375;-0.059051513671875;1.76999999553118;178;100 mA
47.4719328801449;-0.89935302734375;-0.05908203125;1.77999999550593;179;100 mA
47.4819328801196;-0.8990478515625;-0.059417724609375;1.78999999548068;180;100 mA
47.4919328800944;-0.8990478515625;-0.05865478515625;1.79999999545544;181;100 mA
47.5019328800691;-0.89996337890625;-0.05853271484375;1.80999999543019;182;100 mA
47.5119328800439;-0.8990478515625;-0.058807373046875;1.81999999540494;183;100 mA
47.5219328800187;-0.89935302734375;-0.05853271484375;1.82999999537969;184;100 mA
47.5319328799934;-0.899658203125;-0.05816650390625;1.83999999535445;185;100 mA
47.5419328799682;-0.8990478515625;-0.0582275390625;1.8499999953292;186;100 mA
47.5519328799429;-0.899658203125;-0.058563232421875;1.85999999530395;187;100 mA
47.5619328799177;-0.89935302734375;-0.057769775390625;1.8699999952787;188;100 mA
47.5719328798924;-0.899658203125;-0.057861328125;1.87999999525346;189;100 mA
47.5819328798672;-0.8990478515625;-0.05810546875;1.88999999522821;190;100 mA
47.5919328798419;-0.89935302734375;-0.057647705078125;1.89999999520296;191;100 mA
47.6019328798167;-0.899658203125;-0.05731201171875;1.90999999517771;192;100 mA
47.6119328797914;-0.89935302734375;-0.057586669921875;1.91999999515247;193;100 mA
47.6219328797662;-0.899658203125;-0.0577392578125;1.92999999512722;194;100 mA
47.6319328797409;-0.89935302734375;-0.0572509765625;1.93999999510197;195;100 mA
47.6419328797157;-0.89935302734375;-0.057373046875;1.94999999507672;196;100 mA
47.6519328796904;-0.9002685546875;-0.057952880859375;1.95999999505148;197;100 mA
47.6619328796652;-0.8990478515625;-0.057586669921875;1.96999999502623;198;100 mA
47.6719328796399;-0.8990478515625;-0.057586669921875;1.97999999500098;199;100 mA
47.6819328796147;-0.899658203125;-0.058135986328125;1.98999999497573;200;100 mA
47.6919328795894;-0.8990478515625;-0.058319091796875;1.99999999495049;201;100 mA
47.7019328795642;-0.899658203125;-0.057952880859375;2.00999999492524;202;100 mA
47.7119328795389;-0.899658203125;-0.0579833984375;2.01999999489999;203;100 mA
47.7219328795137;-0.89935302734375;-0.058563232421875;2.02999999487474;204;100 mA
47.7319328794885;-0.89996337890625;-0.0579833984375;2.0399999948495;205;100 mA
47.7419328794632;-0.899658203125;-0.05810546875;2.04999999482425;206;100 mA
47.751932879438;-0.8990478515625;-0.05859375;2.059999994799;207;100 mA
47.7619328794127;-0.8990478515625;-0.05859375;2.06999999477375;208;100 mA
47.7719328793875;-0.899658203125;-0.05828857421875;2.0799999947485;209;100 mA
47.7819328793622;-0.8990478515625;-0.058563232421875;2.08999999472326;210;100 mA
47.791932879337;-0.8990478515625;-0.058990478515625;2.09999999469801;211;100 mA
47.8019328793117;-0.899658203125;-0.058380126953125;2.10999999467276;212;100 mA
47.8119328792865;-0.89874267578125;-0.05841064453125;2.11999999464751;213;100 mA
47.8219328792612;-0.89935302734375;-0.058868408203125;2.12999999462227;214;100 mA
47.831932879236;-0.8990478515625;-0.05859375;2.13999999459702;215;100 mA
47.8419328792107;-0.89935302734375;-0.058319091796875;2.14999999457177;216;100 mA
47.8519328791855;-0.8990478515625;-0.05865478515625;2.15999999454652;217;100 mA
47.8619328791602;-0.899658203125;-0.0589599609375;2.16999999452128;218;100 mA
47.871932879135;-0.89935302734375;-0.058380126953125;2.17999999449603;219;100 mA
47.8819328791097;-0.89935302734375;-0.058380126953125;2.18999999447078;220;100 mA
47.8919328790845;-0.8990478515625;-0.058929443359375;2.19999999444553;221;100 mA
47.9019328790592;-0.899658203125;-0.058441162109375;2.20999999442029;222;100 mA
47.911932879034;-0.89935302734375;-0.058349609375;2.21999999439504;223;100 mA
47.9219328790088;-0.89935302734375;-0.058685302734375;2.22999999436979;224;100 mA
47.9319328789835;-0.89935302734375;-0.058837890625;2.23999999434454;225;100 mA
47.9419328789583;-0.899658203125;-0.05828857421875;2.2499999943193;226;100 mA
47.951932878933;-0.89935302734375;-0.058563232421875;2.25999999429405;227;100 mA
47.9619328789078;-0.89935302734375;-0.0589599609375;2.2699999942688;228;100 mA
47.9719328788825;-0.8990478515625;-0.05828857421875;2.27999999424355;229;100 mA
47.9819328788573;-0.8990478515625;-0.058197021484375;2.28999999421831;230;100 mA
47.991932878832;-0.899658203125;-0.05853271484375;2.29999999419306;231;100 mA
48.0019328788068;-0.89935302734375;-0.058349609375;2.30999999416781;232;100 mA
48.0119328787815;-0.89935302734375;-0.05810546875;2.31999999414256;233;100 mA
48.0219328787563;-0.899658203125;-0.058319091796875;2.32999999411732;234;100 mA
48.031932878731;-0.899658203125;-0.058624267578125;2.33999999409207;235;100 mA
48.0419328787058;-0.899658203125;-0.057830810546875;2.34999999406682;236;100 mA
48.0519328786805;-0.89935302734375;-0.057830810546875;2.35999999404157;237;100 mA
48.0619328786553;-0.89874267578125;-0.0582275390625;2.36999999401633;238;100 mA
48.07193287863;-0.8990478515625;-0.057830810546875;2.37999999399108;239;100 mA
48.0819328786048;-0.89935302734375;-0.057647705078125;2.38999999396583;240;100 mA
48.0919328785795;-0.89996337890625;-0.057891845703125;2.39999999394058;241;100 mA
48.1019328785543;-0.899658203125;-0.05816650390625;2.40999999391533;242;100 mA
48.111932878529;-0.899658203125;-0.057403564453125;2.41999999389009;243;100 mA
48.1219328785038;-0.89874267578125;-0.05755615234375;2.42999999386484;244;100 mA
48.1319328784786;-0.8990478515625;-0.057891845703125;2.43999999383959;245;100 mA
48.1419328784533;-0.89935302734375;-0.057342529296875;2.44999999381434;246;100 mA
48.1519328784281;-0.89935302734375;-0.057159423828125;2.4599999937891;247;100 mA
48.1619328784028;-0.8990478515625;-0.057525634765625;2.46999999376385;248;100 mA
48.1719328783776;-0.89935302734375;-0.05755615234375;2.4799999937386;249;100 mA
48.1819328783523;-0.8990478515625;-0.0572509765625;2.48999999371335;250;100 mA
48.1919328783271;-0.89935302734375;-0.05743408203125;2.49999999368811;251;100 mA
48.2019328783018;-0.89935302734375;-0.05804443359375;2.50999999366286;252;100 mA
48.2119328782766;-0.899658203125;-0.05743408203125;2.51999999363761;253;100 mA
48.2219328782513;-0.89874267578125;-0.05731201171875;2.52999999361236;254;100 mA
48.2319328782261;-0.8990478515625;-0.05755615234375;2.53999999358712;255;100 mA
48.2419328782008;-0.89935302734375;-0.057220458984375;2.54999999356187;256;100 mA
48.2519328781756;-0.89935302734375;-0.05682373046875;2.55999999353662;257;100 mA
48.2619328781503;-0.8990478515625;-0.056915283203125;2.56999999351137;258;100 mA
48.2719328781251;-0.8990478515625;-0.057342529296875;2.57999999348613;259;100 mA
48.2819328780998;-0.89874267578125;-0.056671142578125;2.58999999346088;260;100 mA
48.2919328780746;-0.899658203125;-0.05682373046875;2.59999999343563;261;100 mA
48.3019328780493;-0.89935302734375;-0.057281494140625;2.60999999341038;262;100 mA
48.3119328780241;-0.89935302734375;-0.057098388671875;2.61999999338514;263;100 mA
48.3219328779988;-0.89874267578125;-0.056976318359375;2.62999999335989;264;100 mA
48.3319328779736;-0.8990478515625;-0.05755615234375;2.63999999333464;265;100 mA
48.3419328779484;-0.89935302734375;-0.057861328125;2.64999999330939;266;100 mA
48.3519328779231;-0.8990478515625;-0.05743408203125;2.65999999328415;267;100 mA
48.3619328778979;-0.89935302734375;-0.0576171875;2.6699999932589;268;100 mA
48.3719328778726;-0.899658203125;-0.058135986328125;2.67999999323365;269;100 mA
48.3819328778474;-0.8990478515625;-0.05755615234375;2.6899999932084;270;100 mA
48.3919328778221;-0.8990478515625;-0.057403564453125;2.69999999318316;271;100 mA
48.4019328777969;-0.899658203125;-0.057769775390625;2.70999999315791;272;100 mA
48.4119328777716;-0.89935302734375;-0.057647705078125;2.71999999313266;273;100 mA
48.4219328777464;-0.89935302734375;-0.057159423828125;2.72999999310741;274;100 mA
48.4319328777211;-0.899658203125;-0.057220458984375;2.73999999308217;275;100 mA
48.4419328776959;-0.899658203125;-0.057769775390625;2.74999999305692;276;100 mA
48.4519328776706;-0.89874267578125;-0.05706787109375;2.75999999303167;277;100 mA
48.4619328776454;-0.899658203125;-0.057220458984375;2.76999999300642;278;100 mA
48.4719328776201;-0.89935302734375;-0.057525634765625;2.77999999298117;279;100 mA
48.4819328775949;-0.89935302734375;-0.057464599609375;2.78999999295593;280;100 mA
48.4919328775696;-0.8990478515625;-0.05718994140625;2.79999999293068;281;100 mA
48.5019328775444;-0.899658203125;-0.0576171875;2.80999999290543;282;100 mA
48.5119328775191;-0.899658203125;-0.058013916015625;2.81999999288018;283;100 mA
48.5219328774939;-0.89935302734375;-0.057525634765625;2.82999999285494;284;100 mA
48.5319328774686;-0.8990478515625;-0.0577392578125;2.83999999282969;285;100 mA
48.5419328774434;-0.899658203125;-0.05841064453125;2.84999999280444;286;100 mA
48.5519328774182;-0.899658203125;-0.05828857421875;2.85999999277919;287;100 mA
48.5619328773929;-0.89935302734375;-0.05810546875;2.86999999275395;288;100 mA
48.5719328773677;-0.89935302734375;-0.058563232421875;2.8799999927287;289;100 mA
48.5819328773424;-0.899658203125;-0.058837890625;2.88999999270345;290;100 mA
48.5919328773172;-0.89935302734375;-0.0582275390625;2.8999999926782;291;100 mA
48.6019328772919;-0.89935302734375;-0.058258056640625;2.90999999265296;292;100 mA
48.6119328772667;-0.89935302734375;-0.058868408203125;2.91999999262771;293;100 mA
48.6219328772414;-0.899658203125;-0.058349609375;2.92999999260246;294;100 mA
48.6319328772162;-0.899658203125;-0.058319091796875;2.93999999257721;295;100 mA
48.6419328771909;-0.8990478515625;-0.05865478515625;2.94999999255197;296;100 mA
48.6519328771657;-0.89935302734375;-0.058837890625;2.95999999252672;297;100 mA
48.6619328771404;-0.89996337890625;-0.05828857421875;2.96999999250147;298;100 mA
48.6719328771152;-0.89935302734375;-0.058441162109375;2.97999999247622;299;100 mA
48.6819328770899;-0.899658203125;-0.058746337890625;2.98999999245098;300;100 mA
48.6919328770647;-0.89935302734375;-0.057952880859375;2.99999999242573;301;100 mA
48.7019328770394;-0.899658203125;-0.057769775390625;3.00999999240048;302;100 mA
48.7119328770142;-0.89935302734375;-0.058074951171875;3.01999999237523;303;100 mA
48.7219328769889;-0.89935302734375;-0.057861328125;3.02999999234999;304;100 mA
48.7319328769637;-0.89996337890625;-0.057525634765625;3.03999999232474;305;100 mA
48.7419328769384;-0.89935302734375;-0.057769775390625;3.04999999229949;306;100 mA
48.7519328769132;-0.89996337890625;-0.05816650390625;3.05999999227424;307;100 mA
48.761932876888;-0.899658203125;-0.0574951171875;3.069999992249;308;100 mA
48.7719328768627;-0.8990478515625;-0.0574951171875;3.07999999222375;309;100 mA
48.7819328768375;-0.89996337890625;-0.05804443359375;3.0899999921985;310;100 mA
48.7919328768122;-0.8990478515625;-0.057769775390625;3.09999999217325;311;100 mA
48.801932876787;-0.89935302734375;-0.057586669921875;3.109999992148;312;100 mA
48.8119328767617;-0.89935302734375;-0.058013916015625;3.11999999212276;313;100 mA
48.8219328767365;-0.89935302734375;-0.058441162109375;3.12999999209751;314;100 mA
48.8319328767112;-0.899658203125;-0.0577392578125;3.13999999207226;315;100 mA
48.841932876686;-0.8990478515625;-0.057861328125;3.14999999204701;316;100 mA
48.8519328766607;-0.89935302734375;-0.05810546875;3.15999999202177;317;100 mA
48.8619328766355;-0.8990478515625;-0.057464599609375;3.16999999199652;318;100 mA
48.8719328766102;-0.899658203125;-0.057159423828125;3.17999999197127;319;100 mA
48.881932876585;-0.89935302734375;-0.057586669921875;3.18999999194602;320;100 mA
48.8919328765597;-0.89874267578125;-0.057586669921875;3.19999999192078;321;100 mA
48.9019328765345;-0.8990478515625;-0.0572509765625;3.20999999189553;322;100 mA
48.9119328765092;-0.89935302734375;-0.0574951171875;3.21999999187028;323;100 mA
48.921932876484;-0.899658203125;-0.05804443359375;3.22999999184503;324;100 mA
48.9319328764587;-0.89935302734375;-0.05743408203125;3.23999999181979;325;100 mA
48.9419328764335;-0.89935302734375;-0.057464599609375;3.24999999179454;326;100 mA
48.9519328764083;-0.89935302734375;-0.057891845703125;3.25999999176929;327;100 mA
48.961932876383;-0.89935302734375;-0.0577392578125;3.26999999174404;328;100 mA
48.9719328763578;-0.8990478515625;-0.057464599609375;3.2799999917188;329;100 mA
48.9819328763325;-0.899658203125;-0.0577392578125;3.28999999169355;330;100 mA
48.9919328763073;-0.89935302734375;-0.058349609375;3.2999999916683;331;100 mA
49.001932876282;-0.89935302734375;-0.0577392578125;3.30999999164305;332;100 mA
49.0119328762568;-0.8990478515625;-0.058074951171875;3.31999999161781;333;100 mA
49.0219328762315;-0.8990478515625;-0.05865478515625;3.32999999159256;334;100 mA
49.0319328762063;-0.899658203125;-0.058502197265625;3.33999999156731;335;100 mA
49.041932876181;-0.89935302734375;-0.058349609375;3.34999999154206;336;100 mA
49.0519328761558;-0.89935302734375;-0.05889892578125;3.35999999151682;337;100 mA
49.0619328761305;-0.8990478515625;-0.059295654296875;3.36999999149157;338;100 mA
49.0719328761053;-0.8990478515625;-0.058746337890625;3.37999999146632;339;100 mA
49.08193287608;-0.8990478515625;-0.058929443359375;3.38999999144107;340;100 mA
49.0919328760548;-0.899658203125;-0.05938720703125;3.39999999141583;341;100 mA
49.1019328760295;-0.89935302734375;-0.058746337890625;3.40999999139058;342;100 mA
49.1119328760043;-0.89874267578125;-0.05853271484375;3.41999999136533;343;100 mA
49.121932875979;-0.899658203125;-0.058868408203125;3.42999999134008;344;100 mA
49.1319328759538;-0.89935302734375;-0.058868408203125;3.43999999131483;345;100 mA
49.1419328759285;-0.8990478515625;-0.058502197265625;3.44999999128959;346;100 mA
49.1519328759033;-0.8990478515625;-0.05859375;3.45999999126434;347;100 mA
49.1619328758781;-0.89935302734375;-0.059234619140625;3.46999999123909;348;100 mA
49.1719328758528;-0.899658203125;-0.05853271484375;3.47999999121384;349;100 mA
49.1819328758276;-0.89935302734375;-0.058685302734375;3.4899999911886;350;100 mA
49.1919328758023;-0.8990478515625;-0.05914306640625;3.49999999116335;351;100 mA
49.2019328757771;-0.89935302734375;-0.05902099609375;3.5099999911381;352;100 mA
49.2119328757518;-0.8990478515625;-0.058563232421875;3.51999999111285;353;100 mA
49.2219328757266;-0.89935302734375;-0.058746337890625;3.52999999108761;354;100 mA
49.2319328757013;-0.89935302734375;-0.059112548828125;3.53999999106236;355;100 mA
49.2419328756761;-0.8990478515625;-0.05841064453125;3.54999999103711;356;100 mA
49.2519328756508;-0.899658203125;-0.058502197265625;3.55999999101186;357;100 mA
49.2619328756256;-0.89935302734375;-0.058990478515625;3.56999999098662;358;100 mA
49.2719328756003;-0.89935302734375;-0.05865478515625;3.57999999096137;359;100 mA
49.2819328755751;-0.89935302734375;-0.05853271484375;3.58999999093612;360;100 mA
49.2919328755498;-0.8984375;-0.05908203125;3.59999999091087;361;100 mA
49.3019328755246;-0.899658203125;-0.05950927734375;3.60999999088563;362;100 mA
49.3119328754993;-0.8990478515625;-0.059173583984375;3.61999999086038;363;100 mA
49.3219328754741;-0.89935302734375;-0.05938720703125;3.62999999083513;364;100 mA
49.3319328754488;-0.89935302734375;-0.060089111328125;3.63999999080988;365;100 mA
49.3419328754236;-0.89935302734375;-0.059539794921875;3.64999999078464;366;100 mA
49.3519328753983;-0.8990478515625;-0.0595703125;3.65999999075939;367;100 mA
49.3619328753731;-0.89935302734375;-0.05999755859375;3.66999999073414;368;100 mA
49.3719328753479;-0.89996337890625;-0.059967041015625;3.67999999070889;369;100 mA
49.3819328753226;-0.89935302734375;-0.05938720703125;3.68999999068365;370;100 mA
49.3919328752974;-0.89935302734375;-0.059539794921875;3.6999999906584;371;100 mA
49.4019328752721;-0.89935302734375;-0.0599365234375;3.70999999063315;372;100 mA
49.4119328752469;-0.8990478515625;-0.05938720703125;3.7199999906079;373;100 mA
49.4219328752216;-0.899658203125;-0.059478759765625;3.72999999058266;374;100 mA
49.4319328751964;-0.89935302734375;-0.059967041015625;3.73999999055741;375;100 mA
49.4419328751711;-0.899658203125;-0.059844970703125;3.74999999053216;376;100 mA
49.4519328751459;-0.89996337890625;-0.05950927734375;3.75999999050691;377;100 mA
49.4619328751206;-0.89935302734375;-0.059967041015625;3.76999999048167;378;100 mA
49.4719328750954;-0.899658203125;-0.060455322265625;3.77999999045642;379;100 mA
49.4819328750701;-0.899658203125;-0.0599365234375;3.78999999043117;380;100 mA
49.4919328750449;-0.899658203125;-0.06005859375;3.79999999040592;381;100 mA
49.5019328750196;-0.899658203125;-0.060699462890625;3.80999999038067;382;100 mA
49.5119328749944;-0.899658203125;-0.0604248046875;3.81999999035543;383;100 mA
49.5219328749691;-0.899658203125;-0.060211181640625;3.82999999033018;384;100 mA
49.5319328749439;-0.8990478515625;-0.060577392578125;3.83999999030493;385;100 mA
49.5419328749186;-0.89935302734375;-0.0609130859375;3.84999999027968;386;100 mA
49.5519328748934;-0.8990478515625;-0.06024169921875;3.85999999025444;387;100 mA
49.5619328748681;-0.8990478515625;-0.060333251953125;3.86999999022919;388;100 mA
49.5719328748429;-0.89935302734375;-0.0606689453125;3.87999999020394;389;100 mA
49.5819328748177;-0.899658203125;-0.060028076171875;3.88999999017869;390;100 mA
49.5919328747924;-0.89935302734375;-0.05975341796875;3.89999999015345;391;100 mA
49.6019328747672;-0.899658203125;-0.05999755859375;3.9099999901282;392;100 mA
49.6119328747419;-0.899658203125;-0.059844970703125;3.91999999010295;393;100 mA
49.6219328747167;-0.899658203125;-0.05914306640625;3.9299999900777;394;100 mA
49.6319328746914;-0.8990478515625;-0.05914306640625;3.93999999005246;395;100 mA
49.6419328746662;-0.89935302734375;-0.059356689453125;3.94999999002721;396;100 mA
49.6519328746409;-0.89996337890625;-0.05859375;3.95999999000196;397;100 mA
49.6619328746157;-0.899658203125;-0.05841064453125;3.96999998997671;398;100 mA
49.6719328745904;-0.8990478515625;-0.0587158203125;3.97999998995147;399;100 mA
49.6819328745652;-0.899658203125;-0.05841064453125;3.98999998992622;400;100 mA
49.6919328745399;-0.89935302734375;-0.058074951171875;3.99999998990097;401;100 mA
49.7019328745147;-0.89935302734375;-0.058349609375;4.00999998987572;402;100 mA
49.7119328744894;-0.8990478515625;-0.058929443359375;4.01999998985048;403;100 mA
49.7219328744642;-0.89996337890625;-0.058258056640625;4.02999998982523;404;100 mA
49.7319328744389;-0.8990478515625;-0.0584716796875;4.03999998979998;405;100 mA
49.7419328744137;-0.89996337890625;-0.058929443359375;4.04999998977473;406;100 mA
49.7519328743884;-0.89935302734375;-0.058685302734375;4.05999998974949;407;100 mA
49.7619328743632;-0.8990478515625;-0.058441162109375;4.06999998972424;408;100 mA
49.7719328743379;-0.899658203125;-0.05889892578125;4.07999998969899;409;100 mA
49.7819328743127;-0.89935302734375;-0.059295654296875;4.08999998967374;410;100 mA
49.7919328742875;-0.89996337890625;-0.058837890625;4.0999999896485;411;100 mA
49.8019328742622;-0.89935302734375;-0.05908203125;4.10999998962325;412;100 mA
49.811932874237;-0.89935302734375;-0.059722900390625;4.119999989598;413;100 mA
49.8219328742117;-0.89935302734375;-0.059356689453125;4.12999998957275;414;100 mA
49.8319328741865;-0.8990478515625;-0.059295654296875;4.1399999895475;415;100 mA
49.8419328741612;-0.8990478515625;-0.059661865234375;4.14999998952226;416;100 mA
49.851932874136;-0.89935302734375;-0.0595703125;4.15999998949701;417;100 mA
49.8619328741107;-0.8990478515625;-0.05902099609375;4.16999998947176;418;100 mA
49.8719328740855;-0.899658203125;-0.05902099609375;4.17999998944651;419;100 mA
49.8819328740602;-0.89935302734375;-0.0595703125;4.18999998942127;420;100 mA
49.891932874035;-0.89935302734375;-0.05877685546875;4.19999998939602;421;100 mA
49.9019328740097;-0.899658203125;-0.058837890625;4.20999998937077;422;100 mA
49.9119328739845;-0.8990478515625;-0.059173583984375;4.21999998934552;423;100 mA
49.9219328739592;-0.8990478515625;-0.058990478515625;4.22999998932028;424;100 mA
49.931932873934;-0.8990478515625;-0.05853271484375;4.23999998929503;425;100 mA
49.9419328739087;-0.89935302734375;-0.058807373046875;4.24999998926978;426;100 mA
49.9519328738835;-0.89935302734375;-0.059173583984375;4.25999998924453;427;100 mA
49.9619328738582;-0.89996337890625;-0.058441162109375;4.26999998921929;428;100 mA
49.971932873833;-0.8990478515625;-0.058502197265625;4.27999998919404;429;100 mA
49.9819328738078;-0.89935302734375;-0.058929443359375;4.28999998916879;430;100 mA
49.9919328737825;-0.899658203125;-0.0584716796875;4.29999998914354;431;100 mA
50.0019328737573;-0.89935302734375;-0.05810546875;4.3099999891183;432;100 mA
50.011932873732;-0.89935302734375;-0.058441162109375;4.31999998909305;433;100 mA
50.0219328737068;-0.89935302734375;-0.058563232421875;4.3299999890678;434;100 mA
50.0319328736815;-0.89935302734375;-0.057952880859375;4.33999998904255;435;100 mA
50.0419328736563;-0.89935302734375;-0.057891845703125;4.34999998901731;436;100 mA
50.051932873631;-0.899658203125;-0.058441162109375;4.35999998899206;437;100 mA
50.0619328736058;-0.899658203125;-0.057769775390625;4.36999998896681;438;100 mA
50.0719328735805;-0.8990478515625;-0.057647705078125;4.37999998894156;439;100 mA
50.0819328735553;-0.8990478515625;-0.057861328125;4.38999998891632;440;100 mA
50.09193287353;-0.89996337890625;-0.057830810546875;4.39999998889107;441;100 mA
50.1019328735048;-0.8990478515625;-0.05718994140625;4.40999998886582;442;100 mA
50.1119328734795;-0.899658203125;-0.057373046875;4.41999998884057;443;100 mA
50.1219328734543;-0.89935302734375;-0.057769775390625;4.42999998881533;444;100 mA
50.131932873429;-0.89996337890625;-0.057159423828125;4.43999998879008;445;100 mA
50.1419328734038;-0.89935302734375;-0.05718994140625;4.44999998876483;446;100 mA
50.1519328733785;-0.8990478515625;-0.057647705078125;4.45999998873958;447;100 mA
50.1619328733533;-0.89935302734375;-0.0574951171875;4.46999998871433;448;100 mA
50.171932873328;-0.8990478515625;-0.05718994140625;4.47999998868909;449;100 mA
50.1819328733028;-0.89935302734375;-0.057647705078125;4.48999998866384;450;100 mA
50.1919328732776;-0.89935302734375;-0.05804443359375;4.49999998863859;451;100 mA
50.2019328732523;-0.899658203125;-0.05743408203125;4.50999998861334;452;100 mA
50.2119328732271;-0.89874267578125;-0.057586669921875;4.5199999885881;453;100 mA
50.2219328732018;-0.8990478515625;-0.0582275390625;4.52999998856285;454;100 mA
50.2319328731766;-0.89935302734375;-0.057830810546875;4.5399999885376;455;100 mA
50.2419328731513;-0.899658203125;-0.0576171875;4.54999998851235;456;100 mA
50.2519328731261;-0.8990478515625;-0.058013916015625;4.55999998848711;457;100 mA
50.2619328731008;-0.89935302734375;-0.058380126953125;4.56999998846186;458;100 mA
50.2719328730756;-0.899658203125;-0.057647705078125;4.57999998843661;459;100 mA
50.2819328730503;-0.8990478515625;-0.057830810546875;4.58999998841136;460;100 mA
50.2919328730251;-0.89996337890625;-0.058197021484375;4.59999998838612;461;100 mA
50.3019328729998;-0.899658203125;-0.0576171875;4.60999998836087;462;100 mA
50.3119328729746;-0.899658203125;-0.057403564453125;4.61999998833562;463;100 mA
50.3219328729493;-0.899658203125;-0.0577392578125;4.62999998831037;464;100 mA
50.3319328729241;-0.89996337890625;-0.057708740234375;4.63999998828513;465;100 mA
50.3419328728988;-0.89996337890625;-0.057220458984375;4.64999998825988;466;100 mA
50.3519328728736;-0.89935302734375;-0.0574951171875;4.65999998823463;467;100 mA
50.3619328728483;-0.89874267578125;-0.05804443359375;4.66999998820938;468;100 mA
50.3719328728231;-0.899658203125;-0.0574951171875;4.67999998818414;469;100 mA
50.3819328727978;-0.89935302734375;-0.057525634765625;4.68999998815889;470;100 mA
50.3919328727726;-0.899658203125;-0.05810546875;4.69999998813364;471;100 mA
50.4019328727474;-0.89935302734375;-0.05804443359375;4.70999998810839;472;100 mA
50.4119328727221;-0.89996337890625;-0.05792236328125;4.71999998808315;473;100 mA
50.4219328726969;-0.8990478515625;-0.058319091796875;4.7299999880579;474;100 mA
50.4319328726716;-0.8990478515625;-0.0589599609375;4.73999998803265;475;100 mA
50.4419328726464;-0.899658203125;-0.058258056640625;4.7499999880074;476;100 mA
50.4519328726211;-0.89935302734375;-0.05853271484375;4.75999998798216;477;100 mA
50.4619328725959;-0.89935302734375;-0.058990478515625;4.76999998795691;478;100 mA
50.4719328725706;-0.89935302734375;-0.0587158203125;4.77999998793166;479;100 mA
50.4819328725454;-0.89935302734375;-0.05853271484375;4.78999998790641;480;100 mA
50.4919328725201;-0.89935302734375;-0.058990478515625;4.79999998788116;481;100 mA
50.5019328724949;-0.899658203125;-0.05926513671875;4.80999998785592;482;100 mA
50.5119328724696;-0.89935302734375;-0.058685302734375;4.81999998783067;483;100 mA
50.5219328724444;-0.8990478515625;-0.05889892578125;4.82999998780542;484;100 mA
50.5319328724191;-0.899658203125;-0.059326171875;4.83999998778017;485;100 mA
50.5419328723939;-0.9002685546875;-0.05865478515625;4.84999998775493;486;100 mA
50.5519328723686;-0.899658203125;-0.05841064453125;4.85999998772968;487;100 mA
50.5619328723434;-0.8990478515625;-0.058685302734375;4.86999998770443;488;100 mA
50.5719328723181;-0.89935302734375;-0.0584716796875;4.87999998767918;489;100 mA
50.5819328722929;-0.899658203125;-0.058013916015625;4.88999998765394;490;100 mA
50.5919328722676;-0.89935302734375;-0.05810546875;4.89999998762869;491;100 mA
50.6019328722424;-0.899658203125;-0.0587158203125;4.90999998760344;492;100 mA
50.6119328722172;-0.89935302734375;-0.058135986328125;4.91999998757819;493;100 mA
50.6219328721919;-0.8990478515625;-0.058349609375;4.92999998755295;494;100 mA
50.6319328721667;-0.899658203125;-0.05902099609375;4.9399999875277;495;100 mA
50.6419328721414;-0.89996337890625;-0.05902099609375;4.94999998750245;496;100 mA
50.6519328721162;-0.89935302734375;-0.0587158203125;4.9599999874772;497;100 mA
50.6619328720909;-0.89935302734375;-0.05908203125;4.96999998745196;498;100 mA
50.6719328720657;-0.89935302734375;-0.05938720703125;4.97999998742671;499;100 mA
50.6819328720404;-0.89996337890625;-0.05859375;4.98999998740146;500;100 mA
50.6919328720152;-0.89935302734375;-0.0587158203125;4.99999998737621;501;100 mA
50.7019328719899;-0.8990478515625;-0.05902099609375;5.00999998735097;502;100 mA
50.7119328719647;-0.899658203125;-0.05859375;5.01999998732572;503;100 mA
50.7219328719394;-0.8990478515625;-0.0582275390625;5.02999998730047;504;100 mA
50.7319328719142;-0.8990478515625;-0.058624267578125;5.03999998727522;505;100 mA
50.7419328718889;-0.89996337890625;-0.058807373046875;5.04999998724998;506;100 mA
50.7519328718637;-0.89935302734375;-0.05828857421875;5.05999998722473;507;100 mA
50.7619328718384;-0.89935302734375;-0.05841064453125;5.06999998719948;508;100 mA
50.7719328718132;-0.899658203125;-0.058990478515625;5.07999998717423;509;100 mA
50.7819328717879;-0.89935302734375;-0.058380126953125;5.08999998714899;510;100 mA
50.7919328717627;-0.8990478515625;-0.058349609375;5.09999998712374;511;100 mA
50.8019328717374;-0.899658203125;-0.058746337890625;5.10999998709849;512;100 mA
50.8119328717122;-0.8990478515625;-0.0589599609375;5.11999998707324;513;100 mA
50.821932871687;-0.89874267578125;-0.058563232421875;5.129999987048;514;100 mA
50.8319328716617;-0.89935302734375;-0.058868408203125;5.13999998702275;515;100 mA
50.8419328716365;-0.89935302734375;-0.0594482421875;5.1499999869975;516;100 mA
50.8519328716112;-0.8990478515625;-0.058807373046875;5.15999998697225;517;100 mA
50.861932871586;-0.89874267578125;-0.058929443359375;5.169999986947;518;100 mA
50.8719328715607;-0.89874267578125;-0.059356689453125;5.17999998692176;519;100 mA
50.8819328715355;-0.89935302734375;-0.059295654296875;5.18999998689651;520;100 mA
50.8919328715102;-0.89874267578125;-0.0589599609375;5.19999998687126;521;100 mA
50.901932871485;-0.899658203125;-0.059417724609375;5.20999998684601;522;100 mA
50.9119328714597;-0.89874267578125;-0.059906005859375;5.21999998682077;523;100 mA
50.9219328714345;-0.899658203125;-0.059295654296875;5.22999998679552;524;100 mA
50.9319328714092;-0.8990478515625;-0.05926513671875;5.23999998677027;525;100 mA
50.941932871384;-0.89935302734375;-0.059783935546875;5.24999998674502;526;100 mA
50.9519328713587;-0.89935302734375;-0.059234619140625;5.25999998671978;527;100 mA
50.9619328713335;-0.8990478515625;-0.058990478515625;5.26999998669453;528;100 mA
50.9719328713082;-0.899658203125;-0.05926513671875;5.27999998666928;529;100 mA
50.981932871283;-0.8990478515625;-0.0595703125;5.28999998664403;530;100 mA
50.9919328712577;-0.8990478515625;-0.05877685546875;5.29999998661879;531;100 mA
51.0019328712325;-0.899658203125;-0.05889892578125;5.30999998659354;532;100 mA
51.0119328712073;-0.8990478515625;-0.059326171875;5.31999998656829;533;100 mA
51.021932871182;-0.89935302734375;-0.0587158203125;5.32999998654304;534;100 mA
51.0319328711568;-0.89935302734375;-0.058563232421875;5.3399999865178;535;100 mA
51.0419328711315;-0.8990478515625;-0.058807373046875;5.34999998649255;536;100 mA
51.0519328711063;-0.89935302734375;-0.058868408203125;5.3599999864673;537;100 mA
51.061932871081;-0.8990478515625;-0.0582275390625;5.36999998644205;538;100 mA
51.0719328710558;-0.8990478515625;-0.058441162109375;5.37999998641681;539;100 mA
51.0819328710305;-0.899658203125;-0.05889892578125;5.38999998639156;540;100 mA
51.0919328710053;-0.8990478515625;-0.058319091796875;5.39999998636631;541;100 mA
51.10193287098;-0.89935302734375;-0.05828857421875;5.40999998634106;542;100 mA
51.1119328709548;-0.8990478515625;-0.05889892578125;5.41999998631582;543;100 mA
51.1219328709295;-0.89935302734375;-0.058746337890625;5.42999998629057;544;100 mA
51.1319328709043;-0.899658203125;-0.058502197265625;5.43999998626532;545;100 mA
51.141932870879;-0.8990478515625;-0.058746337890625;5.44999998624007;546;100 mA
51.1519328708538;-0.899658203125;-0.05908203125;5.45999998621483;547;100 mA
51.1619328708285;-0.89996337890625;-0.05828857421875;5.46999998618958;548;100 mA
51.1719328708033;-0.8990478515625;-0.058349609375;5.47999998616433;549;100 mA
51.181932870778;-0.89996337890625;-0.0587158203125;5.48999998613908;550;100 mA
51.1919328707528;-0.899658203125;-0.058319091796875;5.49999998611383;551;100 mA
51.2019328707275;-0.89996337890625;-0.058013916015625;5.50999998608859;552;100 mA
51.2119328707023;-0.89935302734375;-0.05828857421875;5.51999998606334;553;100 mA
51.2219328706771;-0.899658203125;-0.05853271484375;5.52999998603809;554;100 mA
51.2319328706518;-0.899658203125;-0.057861328125;5.53999998601284;555;100 mA
51.2419328706266;-0.89996337890625;-0.058013916015625;5.5499999859876;556;100 mA
51.2519328706013;-0.899658203125;-0.058441162109375;5.55999998596235;557;100 mA
51.2619328705761;-0.89935302734375;-0.05792236328125;5.5699999859371;558;100 mA
51.2719328705508;-0.899658203125;-0.05767822265625;5.57999998591185;559;100 mA
51.2819328705256;-0.89935302734375;-0.05810546875;5.58999998588661;560;100 mA
51.2919328705003;-0.899658203125;-0.05804443359375;5.59999998586136;561;100 mA
51.3019328704751;-0.899658203125;-0.057525634765625;5.60999998583611;562;100 mA
51.3119328704498;-0.8990478515625;-0.057586669921875;5.61999998581086;563;100 mA
51.3219328704246;-0.899658203125;-0.05810546875;5.62999998578562;564;100 mA
51.3319328703993;-0.899658203125;-0.057281494140625;5.63999998576037;565;100 mA
51.3419328703741;-0.8990478515625;-0.0572509765625;5.64999998573512;566;100 mA
51.3519328703488;-0.899658203125;-0.057586669921875;5.65999998570987;567;100 mA
51.3619328703236;-0.89996337890625;-0.05731201171875;5.66999998568463;568;100 mA
51.3719328702983;-0.899658203125;-0.056854248046875;5.67999998565938;569;100 mA
51.3819328702731;-0.8990478515625;-0.057098388671875;5.68999998563413;570;100 mA
51.3919328702478;-0.8990478515625;-0.05755615234375;5.69999998560888;571;100 mA
51.4019328702226;-0.899658203125;-0.056854248046875;5.70999998558364;572;100 mA
51.4119328701973;-0.899658203125;-0.05706787109375;5.71999998555839;573;100 mA
51.4219328701721;-0.89935302734375;-0.05743408203125;5.72999998553314;574;100 mA
51.4319328701469;-0.89996337890625;-0.0570068359375;5.73999998550789;575;100 mA
51.4419328701216;-0.89935302734375;-0.056671142578125;5.74999998548265;576;100 mA
51.4519328700964;-0.899658203125;-0.057098388671875;5.7599999854574;577;100 mA
51.4619328700711;-0.899658203125;-0.057342529296875;5.76999998543215;578;100 mA
51.4719328700459;-0.89935302734375;-0.056915283203125;5.7799999854069;579;100 mA
51.4819328700206;-0.8990478515625;-0.057220458984375;5.78999998538166;580;100 mA
51.4919328699954;-0.899658203125;-0.05810546875;5.79999998535641;581;100 mA
51.5019328699701;-0.89935302734375;-0.057830810546875;5.80999998533116;582;100 mA
51.5119328699449;-0.89935302734375;-0.05810546875;5.81999998530591;583;100 mA
51.5219328699196;-0.89935302734375;-0.058929443359375;5.82999998528066;584;100 mA
51.5319328698944;-0.89874267578125;-0.059326171875;5.83999998525542;585;100 mA
51.5419328698691;-0.89935302734375;-0.059051513671875;5.84999998523017;586;100 mA
51.5519328698439;-0.89935302734375;-0.0594482421875;5.85999998520492;587;100 mA
51.5619328698186;-0.89935302734375;-0.060211181640625;5.86999998517967;588;100 mA
51.5719328697934;-0.89935302734375;-0.059600830078125;5.87999998515443;589;100 mA
51.5819328697681;-0.899658203125;-0.05975341796875;5.88999998512918;590;100 mA
51.5919328697429;-0.89935302734375;-0.060272216796875;5.89999998510393;591;100 mA
51.6019328697176;-0.8990478515625;-0.060272216796875;5.90999998507868;592;100 mA
51.6119328696924;-0.899658203125;-0.059783935546875;5.91999998505344;593;100 mA
51.6219328696671;-0.89935302734375;-0.060211181640625;5.92999998502819;594;100 mA
51.6319328696419;-0.8990478515625;-0.06048583984375;5.93999998500294;595;100 mA
51.6419328696167;-0.89935302734375;-0.05975341796875;5.94999998497769;596;100 mA
51.6519328695914;-0.8990478515625;-0.05975341796875;5.95999998495245;597;100 mA
51.6619328695662;-0.8990478515625;-0.060272216796875;5.9699999849272;598;100 mA
51.6719328695409;-0.899658203125;-0.059661865234375;5.97999998490195;599;100 mA
51.6819328695157;-0.899658203125;-0.05926513671875;5.9899999848767;600;100 mA
51.6919328694904;-0.89996337890625;-0.059600830078125;5.99999998485146;601;100 mA
51.7019328694652;-0.899658203125;-0.059722900390625;6.00999998482621;602;100 mA
51.7119328694399;-0.899658203125;-0.058990478515625;6.01999998480096;603;100 mA
51.7219328694147;-0.8990478515625;-0.059051513671875;6.02999998477571;604;100 mA
51.7319328693894;-0.89874267578125;-0.059783935546875;6.03999998475047;605;100 mA
51.7419328693642;-0.89935302734375;-0.059295654296875;6.04999998472522;606;100 mA
51.7519328693389;-0.89874267578125;-0.059326171875;6.05999998469997;607;100 mA
51.7619328693137;-0.899658203125;-0.059783935546875;6.06999998467472;608;100 mA
51.7719328692884;-0.8990478515625;-0.05987548828125;6.07999998464948;609;100 mA
51.7819328692632;-0.89874267578125;-0.059326171875;6.08999998462423;610;100 mA
51.7919328692379;-0.89935302734375;-0.0595703125;6.09999998459898;611;100 mA
51.8019328692127;-0.89935302734375;-0.05999755859375;6.10999998457373;612;100 mA
51.8119328691874;-0.89935302734375;-0.05926513671875;6.11999998454849;613;100 mA
51.8219328691622;-0.8990478515625;-0.059112548828125;6.12999998452324;614;100 mA
51.8319328691369;-0.8990478515625;-0.059539794921875;6.13999998449799;615;100 mA
51.8419328691117;-0.89935302734375;-0.059234619140625;6.14999998447274;616;100 mA
51.8519328690865;-0.89935302734375;-0.058807373046875;6.1599999844475;617;100 mA
51.8619328690612;-0.8990478515625;-0.05902099609375;6.16999998442225;618;100 mA
51.871932869036;-0.899658203125;-0.0594482421875;6.179999984397;619;100 mA
51.8819328690107;-0.89874267578125;-0.058624267578125;6.18999998437175;620;100 mA
51.8919328689855;-0.89935302734375;-0.058624267578125;6.1999999843465;621;100 mA
51.9019328689602;-0.89996337890625;-0.059051513671875;6.20999998432126;622;100 mA
51.911932868935;-0.89935302734375;-0.05865478515625;6.21999998429601;623;100 mA
51.9219328689097;-0.89935302734375;-0.058441162109375;6.22999998427076;624;100 mA
51.9319328688845;-0.89935302734375;-0.058837890625;6.23999998424551;625;100 mA
51.9419328688592;-0.89996337890625;-0.059234619140625;6.24999998422027;626;100 mA
51.951932868834;-0.8990478515625;-0.05859375;6.25999998419502;627;100 mA
51.9619328688087;-0.89935302734375;-0.05889892578125;6.26999998416977;628;100 mA
51.9719328687835;-0.8990478515625;-0.059417724609375;6.27999998414452;629;100 mA
51.9819328687582;-0.899658203125;-0.05908203125;6.28999998411928;630;100 mA
51.991932868733;-0.89996337890625;-0.058929443359375;6.29999998409403;631;100 mA
52.0019328687077;-0.89935302734375;-0.05950927734375;6.30999998406878;632;100 mA
52.0119328686825;-0.899658203125;-0.0595703125;6.31999998404353;633;100 mA
52.0219328686572;-0.899658203125;-0.0592041015625;6.32999998401829;634;100 mA
52.031932868632;-0.899658203125;-0.059326171875;6.33999998399304;635;100 mA
52.0419328686068;-0.899658203125;-0.05987548828125;6.34999998396779;636;100 mA
52.0519328685815;-0.899658203125;-0.05908203125;6.35999998394254;637;100 mA
52.0619328685563;-0.89935302734375;-0.059051513671875;6.3699999839173;638;100 mA
52.071932868531;-0.899658203125;-0.05938720703125;6.37999998389205;639;100 mA
52.0819328685058;-0.899658203125;-0.0592041015625;6.3899999838668;640;100 mA
52.0919328684805;-0.89996337890625;-0.0587158203125;6.39999998384155;641;100 mA
52.1019328684553;-0.89935302734375;-0.058868408203125;6.40999998381631;642;100 mA
52.11193286843;-0.899658203125;-0.059234619140625;6.41999998379106;643;100 mA
52.1219328684048;-0.899658203125;-0.058319091796875;6.42999998376581;644;100 mA
52.1319328683795;-0.89935302734375;-0.058380126953125;6.43999998374056;645;100 mA
52.1419328683543;-0.899658203125;-0.058563232421875;6.44999998371532;646;100 mA
52.151932868329;-0.89935302734375;-0.0579833984375;6.45999998369007;647;100 mA
52.1619328683038;-0.899658203125;-0.0574951171875;6.46999998366482;648;100 mA
52.1719328682785;-0.89935302734375;-0.057891845703125;6.47999998363957;649;100 mA
52.1819328682533;-0.899658203125;-0.05804443359375;6.48999998361433;650;100 mA
52.191932868228;-0.89935302734375;-0.057403564453125;6.49999998358908;651;100 mA
52.2019328682028;-0.8990478515625;-0.0574951171875;6.50999998356383;652;100 mA
52.2119328681775;-0.89935302734375;-0.058013916015625;6.51999998353858;653;100 mA
52.2219328681523;-0.899658203125;-0.057464599609375;6.52999998351333;654;100 mA
52.231932868127;-0.899658203125;-0.05743408203125;6.53999998348809;655;100 mA
52.2419328681018;-0.89935302734375;-0.0579833984375;6.54999998346284;656;100 mA
52.2519328680766;-0.899658203125;-0.058197021484375;6.55999998343759;657;100 mA
52.2619328680513;-0.89996337890625;-0.057861328125;6.56999998341234;658;100 mA
52.2719328680261;-0.8990478515625;-0.058197021484375;6.5799999833871;659;100 mA
52.2819328680008;-0.8990478515625;-0.05889892578125;6.58999998336185;660;100 mA
52.2919328679756;-0.899658203125;-0.058319091796875;6.5999999833366;661;100 mA
52.3019328679503;-0.89935302734375;-0.058502197265625;6.60999998331135;662;100 mA
52.3119328679251;-0.89935302734375;-0.058929443359375;6.61999998328611;663;100 mA
52.3219328678998;-0.899658203125;-0.058746337890625;6.62999998326086;664;100 mA
52.3319328678746;-0.89935302734375;-0.05828857421875;6.63999998323561;665;100 mA
52.3419328678493;-0.89935302734375;-0.058624267578125;6.64999998321036;666;100 mA
52.3519328678241;-0.89935302734375;-0.0589599609375;6.65999998318512;667;100 mA
52.3619328677988;-0.899658203125;-0.058258056640625;6.66999998315987;668;100 mA
52.3719328677736;-0.89935302734375;-0.0582275390625;6.67999998313462;669;100 mA
52.3819328677483;-0.89935302734375;-0.058746337890625;6.68999998310937;670;100 mA
52.3919328677231;-0.89935302734375;-0.058135986328125;6.69999998308413;671;100 mA
52.4019328676978;-0.89935302734375;-0.057769775390625;6.70999998305888;672;100 mA
52.4119328676726;-0.8990478515625;-0.05804443359375;6.71999998303363;673;100 mA
52.4219328676473;-0.8990478515625;-0.058135986328125;6.72999998300838;674;100 mA
52.4319328676221;-0.899658203125;-0.05743408203125;6.73999998298314;675;100 mA
52.4419328675968;-0.89874267578125;-0.057464599609375;6.74999998295789;676;100 mA
52.4519328675716;-0.89935302734375;-0.058074951171875;6.75999998293264;677;100 mA
52.4619328675464;-0.89935302734375;-0.05755615234375;6.76999998290739;678;100 mA
52.4719328675211;-0.89935302734375;-0.05755615234375;6.77999998288215;679;100 mA
52.4819328674959;-0.89935302734375;-0.058013916015625;6.7899999828569;680;100 mA
52.4919328674706;-0.8990478515625;-0.058074951171875;6.79999998283165;681;100 mA
52.5019328674454;-0.89935302734375;-0.057525634765625;6.8099999828064;682;100 mA
52.5119328674201;-0.89935302734375;-0.057769775390625;6.81999998278116;683;100 mA
52.5219328673949;-0.899658203125;-0.058135986328125;6.82999998275591;684;100 mA
52.5319328673696;-0.89996337890625;-0.057373046875;6.83999998273066;685;100 mA
52.5419328673444;-0.8990478515625;-0.057281494140625;6.84999998270541;686;100 mA
52.5519328673191;-0.89935302734375;-0.057830810546875;6.85999998268016;687;100 mA
52.5619328672939;-0.89935302734375;-0.057586669921875;6.86999998265492;688;100 mA
52.5719328672686;-0.8990478515625;-0.05731201171875;6.87999998262967;689;100 mA
52.5819328672434;-0.89935302734375;-0.05767822265625;6.88999998260442;690;100 mA
52.5919328672181;-0.899658203125;-0.058197021484375;6.89999998257917;691;100 mA
52.6019328671929;-0.89935302734375;-0.05755615234375;6.90999998255393;692;100 mA
52.6119328671676;-0.89935302734375;-0.057708740234375;6.91999998252868;693;100 mA
52.6219328671424;-0.8990478515625;-0.058258056640625;6.92999998250343;694;100 mA
52.6319328671171;-0.8990478515625;-0.05792236328125;6.93999998247818;695;100 mA
52.6419328670919;-0.8990478515625;-0.0577392578125;6.94999998245294;696;100 mA
52.6519328670666;-0.899658203125;-0.05810546875;6.95999998242769;697;100 mA
52.6619328670414;-0.89935302734375;-0.05853271484375;6.96999998240244;698;100 mA
52.6719328670162;-0.89935302734375;-0.057861328125;6.97999998237719;699;100 mA
52.6819328669909;-0.89935302734375;-0.05816650390625;6.98999998235195;700;100 mA
