Time (s);WE(1).Potential (V);WE(1).Current (A);Corrected time (s);Index;Current range
68.6074408267829;-1.0009765625;-0.342132568359375;0;1;100 mA
68.6174408267576;-1.00006103515625;-0.249481201171875;0.00999999997475243;2;100 mA
68.6274408267324;-0.99945068359375;-0.20343017578125;0.0199999999495049;3;100 mA
68.6374408267071;-0.99945068359375;-0.177154541015625;0.0299999999242573;4;100 mA
68.6474408266819;-0.99945068359375;-0.158935546875;0.0399999998990097;5;100 mA
68.6574408266566;-0.99945068359375;-0.144989013671875;0.0499999998737621;6;100 mA
68.6674408266314;-0.999755859375;-0.134552001953125;0.0599999998485146;7;100 mA
68.6774408266061;-0.99945068359375;-0.12603759765625;0.069999999823267;8;100 mA
68.6874408265809;-0.9991455078125;-0.1197509765625;0.0799999997980194;9;100 mA
68.6974408265556;-0.999755859375;-0.113037109375;0.0899999997727718;10;100 mA
68.7074408265304;-0.99945068359375;-0.108306884765625;0.0999999997475243;11;100 mA
68.7174408265051;-0.99945068359375;-0.104248046875;0.109999999722277;12;100 mA
68.7274408264799;-0.99945068359375;-0.100067138671875;0.119999999697029;13;100 mA
68.7374408264546;-0.999755859375;-0.096710205078125;0.129999999671782;14;100 mA
68.7474408264294;-0.9991455078125;-0.09375;0.139999999646534;15;100 mA
68.7574408264041;-0.99945068359375;-0.091552734375;0.149999999621286;16;100 mA
68.7674408263789;-0.99945068359375;-0.088623046875;0.159999999596039;17;100 mA
68.7774408263537;-0.999755859375;-0.086669921875;0.169999999570791;18;100 mA
68.7874408263284;-0.9991455078125;-0.085113525390625;0.179999999545544;19;100 mA
68.7974408263032;-0.99945068359375;-0.0828857421875;0.189999999520296;20;100 mA
68.8074408262779;-0.99945068359375;-0.081298828125;0.199999999495049;21;100 mA
68.8174408262527;-0.9991455078125;-0.0799560546875;0.209999999469801;22;100 mA
68.8274408262274;-0.999755859375;-0.078704833984375;0.219999999444553;23;100 mA
68.8374408262022;-0.999755859375;-0.077178955078125;0.229999999419306;24;100 mA
68.8474408261769;-0.9991455078125;-0.075927734375;0.239999999394058;25;100 mA
68.8574408261517;-0.99945068359375;-0.075439453125;0.249999999368811;26;100 mA
68.8674408261264;-0.999755859375;-0.073699951171875;0.259999999343563;27;100 mA
68.8774408261012;-0.99884033203125;-0.072784423828125;0.269999999318316;28;100 mA
68.8874408260759;-0.9991455078125;-0.0721435546875;0.279999999293068;29;100 mA
68.8974408260507;-0.9991455078125;-0.07122802734375;0.28999999926782;30;100 mA
68.9074408260254;-0.99945068359375;-0.070220947265625;0.299999999242573;31;100 mA
68.9174408260002;-0.99945068359375;-0.0694580078125;0.309999999217325;32;100 mA
68.9274408259749;-0.99884033203125;-0.06939697265625;0.319999999192078;33;100 mA
68.9374408259497;-0.9991455078125;-0.068206787109375;0.32999999916683;34;100 mA
68.9474408259244;-0.9991455078125;-0.06787109375;0.339999999141583;35;100 mA
68.9574408258992;-0.9991455078125;-0.067718505859375;0.349999999116335;36;100 mA
68.967440825874;-0.9991455078125;-0.0670166015625;0.359999999091087;37;100 mA
68.9774408258487;-0.9991455078125;-0.06640625;0.36999999906584;38;100 mA
68.9874408258235;-0.99945068359375;-0.066192626953125;0.379999999040592;39;100 mA
68.9974408257982;-0.99884033203125;-0.066192626953125;0.389999999015345;40;100 mA
69.007440825773;-0.99945068359375;-0.065399169921875;0.399999998990097;41;100 mA
69.0174408257477;-1.00006103515625;-0.06500244140625;0.40999999896485;42;100 mA
69.0274408257225;-0.999755859375;-0.06536865234375;0.419999998939602;43;100 mA
69.0374408256972;-0.9991455078125;-0.064605712890625;0.429999998914354;44;100 mA
69.047440825672;-0.99945068359375;-0.064422607421875;0.439999998889107;45;100 mA
69.0574408256467;-0.99945068359375;-0.0645751953125;0.449999998863859;46;100 mA
69.0674408256215;-1.00006103515625;-0.064666748046875;0.459999998838612;47;100 mA
69.0774408255962;-0.99945068359375;-0.064178466796875;0.469999998813364;48;100 mA
69.087440825571;-1.00006103515625;-0.06402587890625;0.479999998788116;49;100 mA
69.0974408255457;-0.9991455078125;-0.06463623046875;0.489999998762869;50;100 mA
69.1074408255205;-0.999755859375;-0.063934326171875;0.499999998737621;51;100 mA
69.1174408254952;-1.00006103515625;-0.063934326171875;0.509999998712374;52;100 mA
69.12744082547;-0.999755859375;-0.064178466796875;0.519999998687126;53;100 mA
69.1374408254447;-0.99945068359375;-0.06396484375;0.529999998661879;54;100 mA
69.1474408254195;-0.999755859375;-0.063446044921875;0.539999998636631;55;100 mA
69.1574408253942;-0.99945068359375;-0.063446044921875;0.549999998611383;56;100 mA
69.167440825369;-0.999755859375;-0.063751220703125;0.559999998586136;57;100 mA
69.1774408253438;-0.99945068359375;-0.06298828125;0.569999998560888;58;100 mA
69.1874408253185;-0.9991455078125;-0.062774658203125;0.579999998535641;59;100 mA
69.1974408252933;-0.99945068359375;-0.063140869140625;0.589999998510393;60;100 mA
69.207440825268;-0.999755859375;-0.062652587890625;0.599999998485146;61;100 mA
69.2174408252428;-0.99884033203125;-0.062255859375;0.609999998459898;62;100 mA
69.2274408252175;-0.999755859375;-0.062225341796875;0.61999999843465;63;100 mA
69.2374408251923;-0.9991455078125;-0.062347412109375;0.629999998409403;64;100 mA
69.247440825167;-0.99945068359375;-0.0615234375;0.639999998384155;65;100 mA
69.2574408251418;-0.9991455078125;-0.061309814453125;0.649999998358908;66;100 mA
69.2674408251165;-0.9991455078125;-0.061676025390625;0.65999999833366;67;100 mA
69.2774408250913;-1.00006103515625;-0.061065673828125;0.669999998308413;68;100 mA
69.287440825066;-0.9991455078125;-0.060943603515625;0.679999998283165;69;100 mA
69.2974408250408;-0.999755859375;-0.06121826171875;0.689999998257917;70;100 mA
69.3074408250155;-0.99945068359375;-0.0614013671875;0.69999999823267;71;100 mA
69.3174408249903;-0.9991455078125;-0.060943603515625;0.709999998207422;72;100 mA
69.327440824965;-0.999755859375;-0.06109619140625;0.719999998182175;73;100 mA
69.3374408249398;-0.99945068359375;-0.061431884765625;0.729999998156927;74;100 mA
69.3474408249145;-0.99945068359375;-0.06072998046875;0.73999999813168;75;100 mA
69.3574408248893;-1.00006103515625;-0.060546875;0.749999998106432;76;100 mA
69.367440824864;-0.99945068359375;-0.06085205078125;0.759999998081184;77;100 mA
69.3774408248388;-0.999755859375;-0.0606689453125;0.769999998055937;78;100 mA
69.3874408248136;-0.9991455078125;-0.06036376953125;0.779999998030689;79;100 mA
69.3974408247883;-1.00006103515625;-0.0604248046875;0.789999998005442;80;100 mA
69.4074408247631;-1.00006103515625;-0.06072998046875;0.799999997980194;81;100 mA
69.4174408247378;-0.9991455078125;-0.059906005859375;0.809999997954947;82;100 mA
69.4274408247126;-0.99945068359375;-0.059844970703125;0.819999997929699;83;100 mA
69.4374408246873;-0.99945068359375;-0.060089111328125;0.829999997904451;84;100 mA
69.4474408246621;-1.00006103515625;-0.059539794921875;0.839999997879204;85;100 mA
69.4574408246368;-0.99945068359375;-0.059173583984375;0.849999997853956;86;100 mA
69.4674408246116;-0.99945068359375;-0.059295654296875;0.859999997828709;87;100 mA
69.4774408245863;-0.999755859375;-0.059661865234375;0.869999997803461;88;100 mA
69.4874408245611;-0.99945068359375;-0.059173583984375;0.879999997778214;89;100 mA
69.4974408245358;-0.99945068359375;-0.059478759765625;0.889999997752966;90;100 mA
69.5074408245106;-0.99884033203125;-0.05999755859375;0.899999997727718;91;100 mA
69.5174408244853;-0.99945068359375;-0.05963134765625;0.909999997702471;92;100 mA
69.5274408244601;-0.999755859375;-0.059417724609375;0.919999997677223;93;100 mA
69.5374408244348;-0.9991455078125;-0.0596923828125;0.929999997651976;94;100 mA
69.5474408244096;-0.999755859375;-0.059661865234375;0.939999997626728;95;100 mA
69.5574408243843;-0.9991455078125;-0.059295654296875;0.949999997601481;96;100 mA
69.5674408243591;-0.99945068359375;-0.05938720703125;0.959999997576233;97;100 mA
69.5774408243338;-0.99945068359375;-0.060028076171875;0.969999997550985;98;100 mA
69.5874408243086;-0.99945068359375;-0.0594482421875;0.979999997525738;99;100 mA
69.5974408242834;-0.9991455078125;-0.0595703125;0.98999999750049;100;100 mA
69.6074408242581;-0.99945068359375;-0.06005859375;0.999999997475243;101;100 mA
69.6174408242329;-0.999755859375;-0.05999755859375;1.00999999745;102;100 mA
69.6274408242076;-0.999755859375;-0.05963134765625;1.01999999742475;103;100 mA
69.6374408241824;-0.99945068359375;-0.05975341796875;1.0299999973995;104;100 mA
69.6474408241571;-0.999755859375;-0.060150146484375;1.03999999737425;105;100 mA
69.6574408241319;-0.999755859375;-0.05938720703125;1.049999997349;106;100 mA
69.6674408241066;-0.9991455078125;-0.059417724609375;1.05999999732376;107;100 mA
69.6774408240814;-1.00006103515625;-0.059722900390625;1.06999999729851;108;100 mA
69.6874408240561;-1.00006103515625;-0.05938720703125;1.07999999727326;109;100 mA
69.6974408240309;-0.99945068359375;-0.05914306640625;1.08999999724801;110;100 mA
69.7074408240056;-0.999755859375;-0.0594482421875;1.09999999722277;111;100 mA
69.7174408239804;-0.99945068359375;-0.05975341796875;1.10999999719752;112;100 mA
69.7274408239551;-1.00006103515625;-0.059295654296875;1.11999999717227;113;100 mA
69.7374408239299;-0.99945068359375;-0.059356689453125;1.12999999714702;114;100 mA
69.7474408239046;-0.999755859375;-0.059967041015625;1.13999999712178;115;100 mA
69.7574408238794;-0.999755859375;-0.0595703125;1.14999999709653;116;100 mA
69.7674408238541;-0.99884033203125;-0.059539794921875;1.15999999707128;117;100 mA
69.7774408238289;-0.9991455078125;-0.059906005859375;1.16999999704603;118;100 mA
69.7874408238036;-0.9991455078125;-0.06005859375;1.17999999702079;119;100 mA
69.7974408237784;-0.9991455078125;-0.059722900390625;1.18999999699554;120;100 mA
69.8074408237532;-0.99945068359375;-0.059783935546875;1.19999999697029;121;100 mA
69.8174408237279;-0.9991455078125;-0.060333251953125;1.20999999694504;122;100 mA
69.8274408237027;-0.9991455078125;-0.059783935546875;1.2199999969198;123;100 mA
69.8374408236774;-0.99884033203125;-0.059844970703125;1.22999999689455;124;100 mA
69.8474408236522;-0.9991455078125;-0.06005859375;1.2399999968693;125;100 mA
69.8574408236269;-0.99945068359375;-0.059844970703125;1.24999999684405;126;100 mA
69.8674408236017;-0.99853515625;-0.059295654296875;1.25999999681881;127;100 mA
69.8774408235764;-0.9991455078125;-0.05938720703125;1.26999999679356;128;100 mA
69.8874408235512;-0.99945068359375;-0.05963134765625;1.27999999676831;129;100 mA
69.8974408235259;-0.9991455078125;-0.058990478515625;1.28999999674306;130;100 mA
69.9074408235007;-0.99945068359375;-0.05902099609375;1.29999999671782;131;100 mA
69.9174408234754;-0.99884033203125;-0.059478759765625;1.30999999669257;132;100 mA
69.9274408234502;-0.999755859375;-0.05914306640625;1.31999999666732;133;100 mA
69.9374408234249;-0.999755859375;-0.05889892578125;1.32999999664207;134;100 mA
69.9474408233997;-0.99884033203125;-0.059112548828125;1.33999999661683;135;100 mA
69.9574408233744;-0.999755859375;-0.05926513671875;1.34999999659158;136;100 mA
69.9674408233492;-0.9991455078125;-0.05865478515625;1.35999999656633;137;100 mA
69.9774408233239;-0.99945068359375;-0.05853271484375;1.36999999654108;138;100 mA
69.9874408232987;-0.99945068359375;-0.0589599609375;1.37999999651583;139;100 mA
69.9974408232735;-0.99945068359375;-0.05841064453125;1.38999999649059;140;100 mA
70.0074408232482;-1.0003662109375;-0.058349609375;1.39999999646534;141;100 mA
70.017440823223;-0.99945068359375;-0.05859375;1.40999999644009;142;100 mA
70.0274408231977;-0.99945068359375;-0.058837890625;1.41999999641484;143;100 mA
70.0374408231725;-0.9991455078125;-0.05841064453125;1.4299999963896;144;100 mA
70.0474408231472;-0.99945068359375;-0.05865478515625;1.43999999636435;145;100 mA
70.057440823122;-0.99945068359375;-0.059051513671875;1.4499999963391;146;100 mA
70.0674408230967;-0.99945068359375;-0.058441162109375;1.45999999631385;147;100 mA
70.0774408230715;-1.00006103515625;-0.05841064453125;1.46999999628861;148;100 mA
70.0874408230462;-0.9991455078125;-0.0587158203125;1.47999999626336;149;100 mA
70.097440823021;-0.999755859375;-0.058441162109375;1.48999999623811;150;100 mA
70.1074408229957;-1.0003662109375;-0.05804443359375;1.49999999621286;151;100 mA
70.1174408229705;-0.99945068359375;-0.05804443359375;1.50999999618762;152;100 mA
70.1274408229452;-0.999755859375;-0.058319091796875;1.51999999616237;153;100 mA
70.13744082292;-0.99945068359375;-0.05755615234375;1.52999999613712;154;100 mA
70.1474408228947;-0.9991455078125;-0.057586669921875;1.53999999611187;155;100 mA
70.1574408228695;-0.99945068359375;-0.057952880859375;1.54999999608663;156;100 mA
70.1674408228442;-0.9991455078125;-0.057708740234375;1.55999999606138;157;100 mA
70.177440822819;-0.9991455078125;-0.057586669921875;1.56999999603613;158;100 mA
70.1874408227937;-0.9991455078125;-0.05792236328125;1.57999999601088;159;100 mA
70.1974408227685;-0.9991455078125;-0.0584716796875;1.58999999598564;160;100 mA
70.2074408227433;-0.99945068359375;-0.05804443359375;1.59999999596039;161;100 mA
70.217440822718;-0.99945068359375;-0.058441162109375;1.60999999593514;162;100 mA
70.2274408226928;-0.99945068359375;-0.05914306640625;1.61999999590989;163;100 mA
70.2374408226675;-0.99945068359375;-0.058929443359375;1.62999999588465;164;100 mA
70.2474408226423;-0.99884033203125;-0.058990478515625;1.6399999958594;165;100 mA
70.257440822617;-0.99945068359375;-0.059539794921875;1.64999999583415;166;100 mA
70.2674408225918;-0.9991455078125;-0.059600830078125;1.6599999958089;167;100 mA
70.2774408225665;-0.99945068359375;-0.05914306640625;1.66999999578366;168;100 mA
70.2874408225413;-0.99884033203125;-0.059112548828125;1.67999999575841;169;100 mA
70.297440822516;-0.99945068359375;-0.059539794921875;1.68999999573316;170;100 mA
70.3074408224908;-0.9991455078125;-0.058624267578125;1.69999999570791;171;100 mA
70.3174408224655;-0.9991455078125;-0.0584716796875;1.70999999568267;172;100 mA
70.3274408224403;-0.99945068359375;-0.058685302734375;1.71999999565742;173;100 mA
70.337440822415;-1.00006103515625;-0.058349609375;1.72999999563217;174;100 mA
70.3474408223898;-0.99884033203125;-0.057952880859375;1.73999999560692;175;100 mA
70.3574408223645;-0.99884033203125;-0.05810546875;1.74999999558167;176;100 mA
70.3674408223393;-0.999755859375;-0.05853271484375;1.75999999555643;177;100 mA
70.377440822314;-0.9991455078125;-0.057891845703125;1.76999999553118;178;100 mA
70.3874408222888;-0.999755859375;-0.05810546875;1.77999999550593;179;100 mA
70.3974408222635;-0.99945068359375;-0.0584716796875;1.78999999548068;180;100 mA
70.4074408222383;-0.999755859375;-0.058197021484375;1.79999999545544;181;100 mA
70.4174408222131;-0.99945068359375;-0.058013916015625;1.80999999543019;182;100 mA
70.4274408221878;-0.999755859375;-0.05828857421875;1.81999999540494;183;100 mA
70.4374408221626;-0.999755859375;-0.058441162109375;1.82999999537969;184;100 mA
70.4474408221373;-0.99945068359375;-0.057952880859375;1.83999999535445;185;100 mA
70.4574408221121;-0.999755859375;-0.05792236328125;1.8499999953292;186;100 mA
70.4674408220868;-0.9991455078125;-0.0584716796875;1.85999999530395;187;100 mA
70.4774408220616;-0.99945068359375;-0.05792236328125;1.8699999952787;188;100 mA
70.4874408220363;-0.99945068359375;-0.057769775390625;1.87999999525346;189;100 mA
70.4974408220111;-0.9991455078125;-0.05810546875;1.88999999522821;190;100 mA
70.5074408219858;-1.00006103515625;-0.05816650390625;1.89999999520296;191;100 mA
70.5174408219606;-0.99945068359375;-0.05780029296875;1.90999999517771;192;100 mA
70.5274408219353;-0.9991455078125;-0.057861328125;1.91999999515247;193;100 mA
70.5374408219101;-0.999755859375;-0.058441162109375;1.92999999512722;194;100 mA
70.5474408218848;-0.9991455078125;-0.057830810546875;1.93999999510197;195;100 mA
70.5574408218596;-0.9991455078125;-0.05792236328125;1.94999999507672;196;100 mA
70.5674408218343;-1.00006103515625;-0.05816650390625;1.95999999505148;197;100 mA
70.5774408218091;-0.999755859375;-0.05810546875;1.96999999502623;198;100 mA
70.5874408217838;-0.999755859375;-0.0577392578125;1.97999999500098;199;100 mA
70.5974408217586;-0.9991455078125;-0.058074951171875;1.98999999497573;200;100 mA
70.6074408217333;-0.9991455078125;-0.05853271484375;1.99999999495049;201;100 mA
70.6174408217081;-0.9991455078125;-0.058074951171875;2.00999999492524;202;100 mA
70.6274408216829;-0.999755859375;-0.0582275390625;2.01999999489999;203;100 mA
70.6374408216576;-0.99945068359375;-0.05877685546875;2.02999999487474;204;100 mA
70.6474408216324;-0.9991455078125;-0.058380126953125;2.0399999948495;205;100 mA
70.6574408216071;-0.99945068359375;-0.058135986328125;2.04999999482425;206;100 mA
70.6674408215819;-0.9991455078125;-0.05841064453125;2.059999994799;207;100 mA
70.6774408215566;-0.99945068359375;-0.058807373046875;2.06999999477375;208;100 mA
70.6874408215314;-0.9991455078125;-0.058349609375;2.0799999947485;209;100 mA
70.6974408215061;-0.9991455078125;-0.058502197265625;2.08999999472326;210;100 mA
70.7074408214809;-0.9991455078125;-0.059051513671875;2.09999999469801;211;100 mA
70.7174408214556;-0.999755859375;-0.058563232421875;2.10999999467276;212;100 mA
70.7274408214304;-0.99945068359375;-0.058502197265625;2.11999999464751;213;100 mA
70.7374408214051;-0.9991455078125;-0.0587158203125;2.12999999462227;214;100 mA
70.7474408213799;-0.999755859375;-0.058685302734375;2.13999999459702;215;100 mA
70.7574408213546;-0.99945068359375;-0.058013916015625;2.14999999457177;216;100 mA
70.7674408213294;-0.99945068359375;-0.05804443359375;2.15999999454652;217;100 mA
70.7774408213041;-0.99945068359375;-0.058319091796875;2.16999999452128;218;100 mA
70.7874408212789;-0.99945068359375;-0.057586669921875;2.17999999449603;219;100 mA
70.7974408212536;-0.99945068359375;-0.0574951171875;2.18999999447078;220;100 mA
70.8074408212284;-0.99945068359375;-0.05792236328125;2.19999999444553;221;100 mA
70.8174408212031;-0.999755859375;-0.057830810546875;2.20999999442029;222;100 mA
70.8274408211779;-0.99884033203125;-0.05767822265625;2.21999999439504;223;100 mA
70.8374408211527;-0.99945068359375;-0.057952880859375;2.22999999436979;224;100 mA
70.8474408211274;-0.9991455078125;-0.05841064453125;2.23999999434454;225;100 mA
70.8574408211022;-0.999755859375;-0.057830810546875;2.2499999943193;226;100 mA
70.8674408210769;-1.00006103515625;-0.05792236328125;2.25999999429405;227;100 mA
70.8774408210517;-0.999755859375;-0.0584716796875;2.2699999942688;228;100 mA
70.8874408210264;-0.99945068359375;-0.058258056640625;2.27999999424355;229;100 mA
70.8974408210012;-1.00006103515625;-0.05828857421875;2.28999999421831;230;100 mA
70.9074408209759;-0.99884033203125;-0.058807373046875;2.29999999419306;231;100 mA
70.9174408209507;-0.99945068359375;-0.05938720703125;2.30999999416781;232;100 mA
70.9274408209254;-0.99945068359375;-0.0589599609375;2.31999999414256;233;100 mA
70.9374408209002;-0.99945068359375;-0.059234619140625;2.32999999411732;234;100 mA
70.9474408208749;-0.999755859375;-0.05987548828125;2.33999999409207;235;100 mA
70.9574408208497;-0.999755859375;-0.0595703125;2.34999999406682;236;100 mA
70.9674408208244;-0.999755859375;-0.059539794921875;2.35999999404157;237;100 mA
70.9774408207992;-0.99945068359375;-0.060089111328125;2.36999999401633;238;100 mA
70.9874408207739;-0.999755859375;-0.060272216796875;2.37999999399108;239;100 mA
70.9974408207487;-0.999755859375;-0.059906005859375;2.38999999396583;240;100 mA
71.0074408207234;-0.99884033203125;-0.05999755859375;2.39999999394058;241;100 mA
71.0174408206982;-0.99945068359375;-0.0604248046875;2.40999999391533;242;100 mA
71.027440820673;-0.999755859375;-0.05963134765625;2.41999999389009;243;100 mA
71.0374408206477;-0.9991455078125;-0.0594482421875;2.42999999386484;244;100 mA
71.0474408206225;-0.9991455078125;-0.0596923828125;2.43999999383959;245;100 mA
71.0574408205972;-0.99945068359375;-0.059478759765625;2.44999999381434;246;100 mA
71.067440820572;-0.999755859375;-0.059112548828125;2.4599999937891;247;100 mA
71.0774408205467;-0.9991455078125;-0.059356689453125;2.46999999376385;248;100 mA
71.0874408205215;-0.9991455078125;-0.0599365234375;2.4799999937386;249;100 mA
71.0974408204962;-0.99945068359375;-0.059234619140625;2.48999999371335;250;100 mA
71.107440820471;-0.999755859375;-0.059478759765625;2.49999999368811;251;100 mA
71.1174408204457;-0.99945068359375;-0.059844970703125;2.50999999366286;252;100 mA
71.1274408204205;-1.00006103515625;-0.059478759765625;2.51999999363761;253;100 mA
71.1374408203952;-0.9991455078125;-0.059112548828125;2.52999999361236;254;100 mA
71.14744082037;-0.99945068359375;-0.059356689453125;2.53999999358712;255;100 mA
71.1574408203447;-0.99945068359375;-0.059600830078125;2.54999999356187;256;100 mA
71.1674408203195;-0.9991455078125;-0.058990478515625;2.55999999353662;257;100 mA
71.1774408202942;-0.99945068359375;-0.058990478515625;2.56999999351137;258;100 mA
71.187440820269;-0.99945068359375;-0.05950927734375;2.57999999348613;259;100 mA
71.1974408202437;-0.99945068359375;-0.058990478515625;2.58999999346088;260;100 mA
71.2074408202185;-0.99945068359375;-0.05889892578125;2.59999999343563;261;100 mA
71.2174408201932;-0.99945068359375;-0.05938720703125;2.60999999341038;262;100 mA
71.227440820168;-0.99945068359375;-0.059539794921875;2.61999999338514;263;100 mA
71.2374408201428;-0.99945068359375;-0.05908203125;2.62999999335989;264;100 mA
71.2474408201175;-1.00006103515625;-0.059234619140625;2.63999999333464;265;100 mA
71.2574408200923;-0.999755859375;-0.059844970703125;2.64999999330939;266;100 mA
71.267440820067;-0.999755859375;-0.0592041015625;2.65999999328415;267;100 mA
71.2774408200418;-0.99945068359375;-0.059326171875;2.6699999932589;268;100 mA
71.2874408200165;-0.9991455078125;-0.059661865234375;2.67999999323365;269;100 mA
71.2974408199913;-0.999755859375;-0.05950927734375;2.6899999932084;270;100 mA
71.307440819966;-0.99945068359375;-0.05908203125;2.69999999318316;271;100 mA
71.3174408199408;-0.99945068359375;-0.0592041015625;2.70999999315791;272;100 mA
71.3274408199155;-0.999755859375;-0.059539794921875;2.71999999313266;273;100 mA
71.3374408198903;-0.99884033203125;-0.058868408203125;2.72999999310741;274;100 mA
71.347440819865;-0.99945068359375;-0.058868408203125;2.73999999308217;275;100 mA
71.3574408198398;-1.00006103515625;-0.05926513671875;2.74999999305692;276;100 mA
71.3674408198145;-0.9991455078125;-0.058746337890625;2.75999999303167;277;100 mA
71.3774408197893;-0.99945068359375;-0.05828857421875;2.76999999300642;278;100 mA
71.387440819764;-0.999755859375;-0.058441162109375;2.77999999298117;279;100 mA
71.3974408197388;-0.9991455078125;-0.05853271484375;2.78999999295593;280;100 mA
71.4074408197135;-0.999755859375;-0.057861328125;2.79999999293068;281;100 mA
71.4174408196883;-0.99945068359375;-0.057769775390625;2.80999999290543;282;100 mA
71.427440819663;-0.9991455078125;-0.058319091796875;2.81999999288018;283;100 mA
71.4374408196378;-0.999755859375;-0.0577392578125;2.82999999285494;284;100 mA
71.4474408196126;-0.999755859375;-0.05767822265625;2.83999999282969;285;100 mA
71.4574408195873;-0.99945068359375;-0.0579833984375;2.84999999280444;286;100 mA
71.4674408195621;-0.99945068359375;-0.058074951171875;2.85999999277919;287;100 mA
71.4774408195368;-0.99945068359375;-0.0574951171875;2.86999999275395;288;100 mA
71.4874408195116;-0.99945068359375;-0.057647705078125;2.8799999927287;289;100 mA
71.4974408194863;-0.9991455078125;-0.05804443359375;2.88999999270345;290;100 mA
71.5074408194611;-0.999755859375;-0.057373046875;2.8999999926782;291;100 mA
71.5174408194358;-0.99884033203125;-0.05731201171875;2.90999999265296;292;100 mA
71.5274408194106;-0.9991455078125;-0.057830810546875;2.91999999262771;293;100 mA
71.5374408193853;-0.999755859375;-0.057769775390625;2.92999999260246;294;100 mA
71.5474408193601;-0.9991455078125;-0.057647705078125;2.93999999257721;295;100 mA
71.5574408193348;-0.9991455078125;-0.058074951171875;2.94999999255197;296;100 mA
71.5674408193096;-0.999755859375;-0.058746337890625;2.95999999252672;297;100 mA
71.5774408192843;-0.999755859375;-0.058197021484375;2.96999999250147;298;100 mA
71.5874408192591;-0.99884033203125;-0.05841064453125;2.97999999247622;299;100 mA
71.5974408192338;-0.9991455078125;-0.05914306640625;2.98999999245098;300;100 mA
71.6074408192086;-0.999755859375;-0.058990478515625;2.99999999242573;301;100 mA
71.6174408191833;-0.9991455078125;-0.059051513671875;3.00999999240048;302;100 mA
71.6274408191581;-0.99945068359375;-0.059661865234375;3.01999999237523;303;100 mA
71.6374408191328;-0.99945068359375;-0.060302734375;3.02999999234999;304;100 mA
71.6474408191076;-0.999755859375;-0.059844970703125;3.03999999232474;305;100 mA
71.6574408190824;-0.99945068359375;-0.060302734375;3.04999999229949;306;100 mA
71.6674408190571;-0.99884033203125;-0.06097412109375;3.05999999227424;307;100 mA
71.6774408190319;-0.99884033203125;-0.060760498046875;3.069999992249;308;100 mA
71.6874408190066;-0.99945068359375;-0.06085205078125;3.07999999222375;309;100 mA
71.6974408189814;-0.999755859375;-0.061614990234375;3.0899999921985;310;100 mA
71.7074408189561;-0.9991455078125;-0.061920166015625;3.09999999217325;311;100 mA
71.7174408189309;-0.99945068359375;-0.061737060546875;3.109999992148;312;100 mA
71.7274408189056;-0.99945068359375;-0.062042236328125;3.11999999212276;313;100 mA
71.7374408188804;-0.999755859375;-0.062652587890625;3.12999999209751;314;100 mA
71.7474408188551;-0.99945068359375;-0.06195068359375;3.13999999207226;315;100 mA
71.7574408188299;-0.99945068359375;-0.06201171875;3.14999999204701;316;100 mA
71.7674408188046;-0.99945068359375;-0.0623779296875;3.15999999202177;317;100 mA
71.7774408187794;-0.9991455078125;-0.06219482421875;3.16999999199652;318;100 mA
71.7874408187541;-1.00006103515625;-0.06182861328125;3.17999999197127;319;100 mA
71.7974408187289;-0.99945068359375;-0.06207275390625;3.18999999194602;320;100 mA
71.8074408187036;-0.99945068359375;-0.062591552734375;3.19999999192078;321;100 mA
71.8174408186784;-1.00006103515625;-0.06182861328125;3.20999999189553;322;100 mA
71.8274408186531;-1.00006103515625;-0.06207275390625;3.21999999187028;323;100 mA
71.8374408186279;-0.999755859375;-0.0623779296875;3.22999999184503;324;100 mA
71.8474408186026;-0.9991455078125;-0.0618896484375;3.23999999181979;325;100 mA
71.8574408185774;-0.999755859375;-0.06146240234375;3.24999999179454;326;100 mA
71.8674408185522;-0.9991455078125;-0.061737060546875;3.25999999176929;327;100 mA
71.8774408185269;-0.9991455078125;-0.061798095703125;3.26999999174404;328;100 mA
71.8874408185017;-0.99945068359375;-0.061065673828125;3.2799999917188;329;100 mA
71.8974408184764;-0.999755859375;-0.061004638671875;3.28999999169355;330;100 mA
71.9074408184512;-0.9991455078125;-0.061370849609375;3.2999999916683;331;100 mA
71.9174408184259;-0.999755859375;-0.060577392578125;3.30999999164305;332;100 mA
71.9274408184007;-0.999755859375;-0.060302734375;3.31999999161781;333;100 mA
71.9374408183754;-0.999755859375;-0.0604248046875;3.32999999159256;334;100 mA
71.9474408183502;-0.99945068359375;-0.06024169921875;3.33999999156731;335;100 mA
71.9574408183249;-0.999755859375;-0.05963134765625;3.34999999154206;336;100 mA
71.9674408182997;-0.99884033203125;-0.05950927734375;3.35999999151682;337;100 mA
71.9774408182744;-0.9991455078125;-0.05987548828125;3.36999999149157;338;100 mA
71.9874408182492;-0.999755859375;-0.058990478515625;3.37999999146632;339;100 mA
71.9974408182239;-0.99945068359375;-0.05908203125;3.38999999144107;340;100 mA
72.0074408181987;-0.9991455078125;-0.059295654296875;3.39999999141583;341;100 mA
72.0174408181734;-0.999755859375;-0.0592041015625;3.40999999139058;342;100 mA
72.0274408181482;-0.9991455078125;-0.058837890625;3.41999999136533;343;100 mA
72.0374408181229;-0.9991455078125;-0.0592041015625;3.42999999134008;344;100 mA
72.0474408180977;-0.99945068359375;-0.0595703125;3.43999999131483;345;100 mA
72.0574408180725;-0.99945068359375;-0.058990478515625;3.44999999128959;346;100 mA
72.0674408180472;-0.9991455078125;-0.05908203125;3.45999999126434;347;100 mA
72.077440818022;-0.99945068359375;-0.0596923828125;3.46999999123909;348;100 mA
72.0874408179967;-0.9991455078125;-0.059478759765625;3.47999999121384;349;100 mA
72.0974408179715;-0.99945068359375;-0.059356689453125;3.4899999911886;350;100 mA
72.1074408179462;-0.9991455078125;-0.059814453125;3.49999999116335;351;100 mA
72.117440817921;-0.999755859375;-0.060211181640625;3.5099999911381;352;100 mA
72.1274408178957;-1.00006103515625;-0.059783935546875;3.51999999111285;353;100 mA
72.1374408178705;-0.99945068359375;-0.059967041015625;3.52999999108761;354;100 mA
72.1474408178452;-0.99945068359375;-0.060638427734375;3.53999999106236;355;100 mA
72.15744081782;-0.999755859375;-0.060150146484375;3.54999999103711;356;100 mA
72.1674408177947;-0.99945068359375;-0.0601806640625;3.55999999101186;357;100 mA
72.1774408177695;-0.9991455078125;-0.06048583984375;3.56999999098662;358;100 mA
72.1874408177442;-0.999755859375;-0.060638427734375;3.57999999096137;359;100 mA
72.197440817719;-0.9991455078125;-0.060302734375;3.58999999093612;360;100 mA
72.2074408176937;-0.999755859375;-0.060760498046875;3.59999999091087;361;100 mA
72.2174408176685;-1.00006103515625;-0.06121826171875;3.60999999088563;362;100 mA
72.2274408176432;-0.999755859375;-0.060638427734375;3.61999999086038;363;100 mA
72.237440817618;-0.99945068359375;-0.060638427734375;3.62999999083513;364;100 mA
72.2474408175927;-0.99945068359375;-0.061065673828125;3.63999999080988;365;100 mA
72.2574408175675;-0.999755859375;-0.060882568359375;3.64999999078464;366;100 mA
72.2674408175423;-1.00006103515625;-0.060546875;3.65999999075939;367;100 mA
72.277440817517;-0.99945068359375;-0.060882568359375;3.66999999073414;368;100 mA
72.2874408174918;-0.999755859375;-0.061187744140625;3.67999999070889;369;100 mA
72.2974408174665;-0.99945068359375;-0.06036376953125;3.68999999068365;370;100 mA
72.3074408174413;-0.99945068359375;-0.060333251953125;3.6999999906584;371;100 mA
72.317440817416;-1.00006103515625;-0.060638427734375;3.70999999063315;372;100 mA
72.3274408173908;-0.9991455078125;-0.060028076171875;3.7199999906079;373;100 mA
72.3374408173655;-0.99945068359375;-0.05963134765625;3.72999999058266;374;100 mA
72.3474408173403;-0.99945068359375;-0.059661865234375;3.73999999055741;375;100 mA
72.357440817315;-0.9991455078125;-0.05975341796875;3.74999999053216;376;100 mA
72.3674408172898;-0.99945068359375;-0.05889892578125;3.75999999050691;377;100 mA
72.3774408172645;-0.99945068359375;-0.058990478515625;3.76999999048167;378;100 mA
72.3874408172393;-0.99945068359375;-0.05914306640625;3.77999999045642;379;100 mA
72.397440817214;-0.999755859375;-0.058441162109375;3.78999999043117;380;100 mA
72.4074408171888;-1.00006103515625;-0.05816650390625;3.79999999040592;381;100 mA
72.4174408171635;-0.999755859375;-0.05841064453125;3.80999999038067;382;100 mA
72.4274408171383;-0.999755859375;-0.05828857421875;3.81999999035543;383;100 mA
72.437440817113;-0.999755859375;-0.057769775390625;3.82999999033018;384;100 mA
72.4474408170878;-0.9991455078125;-0.057861328125;3.83999999030493;385;100 mA
72.4574408170625;-0.9991455078125;-0.058319091796875;3.84999999027968;386;100 mA
72.4674408170373;-0.99945068359375;-0.057586669921875;3.85999999025444;387;100 mA
72.4774408170121;-0.99945068359375;-0.0576171875;3.86999999022919;388;100 mA
72.4874408169868;-0.9991455078125;-0.057952880859375;3.87999999020394;389;100 mA
72.4974408169616;-0.999755859375;-0.057708740234375;3.88999999017869;390;100 mA
72.5074408169363;-0.99945068359375;-0.057342529296875;3.89999999015345;391;100 mA
72.5174408169111;-0.99945068359375;-0.057464599609375;3.9099999901282;392;100 mA
72.5274408168858;-0.9991455078125;-0.0579833984375;3.91999999010295;393;100 mA
72.5374408168606;-0.999755859375;-0.05731201171875;3.9299999900777;394;100 mA
72.5474408168353;-0.999755859375;-0.0576171875;3.93999999005246;395;100 mA
72.5574408168101;-0.999755859375;-0.058074951171875;3.94999999002721;396;100 mA
72.5674408167848;-0.99945068359375;-0.0577392578125;3.95999999000196;397;100 mA
72.5774408167596;-0.999755859375;-0.0574951171875;3.96999998997671;398;100 mA
72.5874408167343;-0.9991455078125;-0.057830810546875;3.97999998995147;399;100 mA
72.5974408167091;-0.9991455078125;-0.058135986328125;3.98999998992622;400;100 mA
72.6074408166838;-0.999755859375;-0.0576171875;3.99999998990097;401;100 mA
72.6174408166586;-0.99945068359375;-0.057769775390625;4.00999998987572;402;100 mA
72.6274408166333;-0.9991455078125;-0.058380126953125;4.01999998985048;403;100 mA
72.6374408166081;-0.99945068359375;-0.05780029296875;4.02999998982523;404;100 mA
72.6474408165828;-0.999755859375;-0.0576171875;4.03999998979998;405;100 mA
72.6574408165576;-0.99945068359375;-0.0579833984375;4.04999998977473;406;100 mA
72.6674408165323;-1.00006103515625;-0.058013916015625;4.05999998974949;407;100 mA
72.6774408165071;-0.999755859375;-0.057525634765625;4.06999998972424;408;100 mA
72.6874408164819;-0.9991455078125;-0.05767822265625;4.07999998969899;409;100 mA
72.6974408164566;-0.999755859375;-0.058349609375;4.08999998967374;410;100 mA
72.7074408164314;-0.99945068359375;-0.05767822265625;4.0999999896485;411;100 mA
72.7174408164061;-0.9991455078125;-0.057861328125;4.10999998962325;412;100 mA
72.7274408163809;-0.999755859375;-0.058258056640625;4.119999989598;413;100 mA
72.7374408163556;-0.9991455078125;-0.05816650390625;4.12999998957275;414;100 mA
72.7474408163304;-0.9991455078125;-0.05780029296875;4.1399999895475;415;100 mA
72.7574408163051;-0.9991455078125;-0.058197021484375;4.14999998952226;416;100 mA
72.7674408162799;-1.00006103515625;-0.058502197265625;4.15999998949701;417;100 mA
72.7774408162546;-0.9991455078125;-0.057891845703125;4.16999998947176;418;100 mA
72.7874408162294;-0.99884033203125;-0.0579833984375;4.17999998944651;419;100 mA
72.7974408162041;-0.9991455078125;-0.05859375;4.18999998942127;420;100 mA
72.8074408161789;-0.99945068359375;-0.058380126953125;4.19999998939602;421;100 mA
72.8174408161536;-0.99945068359375;-0.058258056640625;4.20999998937077;422;100 mA
72.8274408161284;-0.99945068359375;-0.058837890625;4.21999998934552;423;100 mA
72.8374408161031;-0.99945068359375;-0.0592041015625;4.22999998932028;424;100 mA
72.8474408160779;-0.99945068359375;-0.0587158203125;4.23999998929503;425;100 mA
72.8574408160526;-0.99945068359375;-0.058807373046875;4.24999998926978;426;100 mA
72.8674408160274;-0.99945068359375;-0.05938720703125;4.25999998924453;427;100 mA
72.8774408160021;-0.999755859375;-0.058746337890625;4.26999998921929;428;100 mA
72.8874408159769;-0.99884033203125;-0.0587158203125;4.27999998919404;429;100 mA
72.8974408159517;-0.9991455078125;-0.05908203125;4.28999998916879;430;100 mA
72.9074408159264;-1.00006103515625;-0.05914306640625;4.29999998914354;431;100 mA
72.9174408159012;-0.99884033203125;-0.05859375;4.3099999891183;432;100 mA
72.9274408158759;-0.99945068359375;-0.058807373046875;4.31999998909305;433;100 mA
72.9374408158507;-0.999755859375;-0.059112548828125;4.3299999890678;434;100 mA
72.9474408158254;-0.9991455078125;-0.058349609375;4.33999998904255;435;100 mA
72.9574408158002;-0.99945068359375;-0.05828857421875;4.34999998901731;436;100 mA
72.9674408157749;-0.99945068359375;-0.0587158203125;4.35999998899206;437;100 mA
72.9774408157497;-0.999755859375;-0.058563232421875;4.36999998896681;438;100 mA
72.9874408157244;-0.99945068359375;-0.0582275390625;4.37999998894156;439;100 mA
72.9974408156992;-0.9991455078125;-0.058563232421875;4.38999998891632;440;100 mA
73.0074408156739;-0.99945068359375;-0.058929443359375;4.39999998889107;441;100 mA
73.0174408156487;-0.999755859375;-0.058258056640625;4.40999998886582;442;100 mA
73.0274408156234;-0.9991455078125;-0.058319091796875;4.41999998884057;443;100 mA
73.0374408155982;-0.99945068359375;-0.058868408203125;4.42999998881533;444;100 mA
73.0474408155729;-1.00006103515625;-0.0584716796875;4.43999998879008;445;100 mA
73.0574408155477;-0.999755859375;-0.0582275390625;4.44999998876483;446;100 mA
73.0674408155224;-0.9991455078125;-0.0584716796875;4.45999998873958;447;100 mA
73.0774408154972;-0.99945068359375;-0.0587158203125;4.46999998871433;448;100 mA
73.087440815472;-0.99945068359375;-0.057891845703125;4.47999998868909;449;100 mA
73.0974408154467;-0.9991455078125;-0.058013916015625;4.48999998866384;450;100 mA
73.1074408154215;-0.99945068359375;-0.05828857421875;4.49999998863859;451;100 mA
73.1174408153962;-0.999755859375;-0.057769775390625;4.50999998861334;452;100 mA
73.127440815371;-0.999755859375;-0.057586669921875;4.5199999885881;453;100 mA
73.1374408153457;-0.9991455078125;-0.05810546875;4.52999998856285;454;100 mA
73.1474408153205;-0.9991455078125;-0.058258056640625;4.5399999885376;455;100 mA
73.1574408152952;-1.00006103515625;-0.057952880859375;4.54999998851235;456;100 mA
73.16744081527;-0.99945068359375;-0.058319091796875;4.55999998848711;457;100 mA
73.1774408152447;-0.99945068359375;-0.058837890625;4.56999998846186;458;100 mA
73.1874408152195;-0.99945068359375;-0.05804443359375;4.57999998843661;459;100 mA
73.1974408151942;-0.9991455078125;-0.058013916015625;4.58999998841136;460;100 mA
73.207440815169;-0.9991455078125;-0.05828857421875;4.59999998838612;461;100 mA
73.2174408151437;-0.9991455078125;-0.057952880859375;4.60999998836087;462;100 mA
73.2274408151185;-0.999755859375;-0.05755615234375;4.61999998833562;463;100 mA
73.2374408150932;-0.9991455078125;-0.05767822265625;4.62999998831037;464;100 mA
73.247440815068;-0.9991455078125;-0.058135986328125;4.63999998828513;465;100 mA
73.2574408150427;-0.9991455078125;-0.057342529296875;4.64999998825988;466;100 mA
73.2674408150175;-0.9991455078125;-0.0574951171875;4.65999998823463;467;100 mA
73.2774408149922;-0.9991455078125;-0.057861328125;4.66999998820938;468;100 mA
73.287440814967;-0.999755859375;-0.057464599609375;4.67999998818414;469;100 mA
73.2974408149418;-0.9991455078125;-0.057098388671875;4.68999998815889;470;100 mA
73.3074408149165;-0.999755859375;-0.05743408203125;4.69999998813364;471;100 mA
73.3174408148913;-0.999755859375;-0.057708740234375;4.70999998810839;472;100 mA
73.327440814866;-0.99945068359375;-0.057220458984375;4.71999998808315;473;100 mA
73.3374408148408;-0.99945068359375;-0.057403564453125;4.7299999880579;474;100 mA
73.3474408148155;-0.9991455078125;-0.058013916015625;4.73999998803265;475;100 mA
73.3574408147903;-0.999755859375;-0.0574951171875;4.7499999880074;476;100 mA
73.367440814765;-0.99945068359375;-0.05731201171875;4.75999998798216;477;100 mA
73.3774408147398;-0.9991455078125;-0.057708740234375;4.76999998795691;478;100 mA
73.3874408147145;-0.999755859375;-0.0576171875;4.77999998793166;479;100 mA
73.3974408146893;-0.999755859375;-0.05712890625;4.78999998790641;480;100 mA
73.407440814664;-0.9991455078125;-0.057098388671875;4.79999998788116;481;100 mA
73.4174408146388;-0.99945068359375;-0.0576171875;4.80999998785592;482;100 mA
73.4274408146135;-0.99945068359375;-0.056884765625;4.81999998783067;483;100 mA
73.4374408145883;-0.99945068359375;-0.057037353515625;4.82999998780542;484;100 mA
73.447440814563;-0.9991455078125;-0.05743408203125;4.83999998778017;485;100 mA
73.4574408145378;-0.999755859375;-0.057403564453125;4.84999998775493;486;100 mA
73.4674408145125;-0.99945068359375;-0.0570068359375;4.85999998772968;487;100 mA
73.4774408144873;-0.9991455078125;-0.05731201171875;4.86999998770443;488;100 mA
73.487440814462;-0.9991455078125;-0.057586669921875;4.87999998767918;489;100 mA
73.4974408144368;-0.999755859375;-0.05694580078125;4.88999998765394;490;100 mA
73.5074408144116;-0.9991455078125;-0.05706787109375;4.89999998762869;491;100 mA
73.5174408143863;-1.00006103515625;-0.057464599609375;4.90999998760344;492;100 mA
73.5274408143611;-0.99884033203125;-0.057037353515625;4.91999998757819;493;100 mA
73.5374408143358;-0.9991455078125;-0.0567626953125;4.92999998755295;494;100 mA
73.5474408143106;-0.99945068359375;-0.057098388671875;4.9399999875277;495;100 mA
73.5574408142853;-1.00006103515625;-0.057220458984375;4.94999998750245;496;100 mA
73.5674408142601;-0.9991455078125;-0.056610107421875;4.9599999874772;497;100 mA
73.5774408142348;-0.999755859375;-0.056640625;4.96999998745196;498;100 mA
73.5874408142096;-0.99853515625;-0.057220458984375;4.97999998742671;499;100 mA
73.5974408141843;-0.99945068359375;-0.056671142578125;4.98999998740146;500;100 mA
73.6074408141591;-0.999755859375;-0.05670166015625;4.99999998737621;501;100 mA
73.6174408141338;-0.99945068359375;-0.0570068359375;5.00999998735097;502;100 mA
73.6274408141086;-0.99945068359375;-0.057098388671875;5.01999998732572;503;100 mA
73.6374408140833;-0.99884033203125;-0.0565185546875;5.02999998730047;504;100 mA
73.6474408140581;-0.99884033203125;-0.056793212890625;5.03999998727522;505;100 mA
73.6574408140328;-0.9991455078125;-0.057220458984375;5.04999998724998;506;100 mA
73.6674408140076;-0.999755859375;-0.056610107421875;5.05999998722473;507;100 mA
73.6774408139823;-0.99945068359375;-0.05670166015625;5.06999998719948;508;100 mA
73.6874408139571;-0.9991455078125;-0.057098388671875;5.07999998717423;509;100 mA
73.6974408139318;-0.9991455078125;-0.05694580078125;5.08999998714899;510;100 mA
73.7074408139066;-0.9991455078125;-0.056640625;5.09999998712374;511;100 mA
73.7174408138814;-0.9991455078125;-0.057037353515625;5.10999998709849;512;100 mA
73.7274408138561;-0.999755859375;-0.05743408203125;5.11999998707324;513;100 mA
73.7374408138309;-0.99884033203125;-0.056854248046875;5.129999987048;514;100 mA
73.7474408138056;-0.99884033203125;-0.057037353515625;5.13999998702275;515;100 mA
73.7574408137804;-0.99884033203125;-0.05780029296875;5.1499999869975;516;100 mA
73.7674408137551;-0.999755859375;-0.057403564453125;5.15999998697225;517;100 mA
73.7774408137299;-0.9991455078125;-0.057373046875;5.169999986947;518;100 mA
73.7874408137046;-0.9991455078125;-0.057647705078125;5.17999998692176;519;100 mA
73.7974408136794;-0.999755859375;-0.057891845703125;5.18999998689651;520;100 mA
73.8074408136541;-0.99945068359375;-0.05712890625;5.19999998687126;521;100 mA
73.8174408136289;-0.999755859375;-0.05731201171875;5.20999998684601;522;100 mA
73.8274408136036;-0.9991455078125;-0.05780029296875;5.21999998682077;523;100 mA
73.8374408135784;-0.99945068359375;-0.057159423828125;5.22999998679552;524;100 mA
73.8474408135531;-0.999755859375;-0.057098388671875;5.23999998677027;525;100 mA
73.8574408135279;-0.999755859375;-0.057586669921875;5.24999998674502;526;100 mA
73.8674408135026;-0.99945068359375;-0.0576171875;5.25999998671978;527;100 mA
73.8774408134774;-1.00006103515625;-0.0572509765625;5.26999998669453;528;100 mA
73.8874408134521;-0.9991455078125;-0.057586669921875;5.27999998666928;529;100 mA
73.8974408134269;-0.99945068359375;-0.05810546875;5.28999998664403;530;100 mA
73.9074408134016;-0.9991455078125;-0.0574951171875;5.29999998661879;531;100 mA
73.9174408133764;-0.99945068359375;-0.057464599609375;5.30999998659354;532;100 mA
73.9274408133512;-1.00006103515625;-0.057891845703125;5.31999998656829;533;100 mA
73.9374408133259;-0.99945068359375;-0.057708740234375;5.32999998654304;534;100 mA
73.9474408133007;-0.999755859375;-0.0574951171875;5.3399999865178;535;100 mA
73.9574408132754;-0.99945068359375;-0.05780029296875;5.34999998649255;536;100 mA
73.9674408132502;-0.999755859375;-0.05828857421875;5.3599999864673;537;100 mA
73.9774408132249;-0.999755859375;-0.057586669921875;5.36999998644205;538;100 mA
73.9874408131997;-0.999755859375;-0.05780029296875;5.37999998641681;539;100 mA
73.9974408131744;-0.99945068359375;-0.058135986328125;5.38999998639156;540;100 mA
74.0074408131492;-0.99945068359375;-0.0577392578125;5.39999998636631;541;100 mA
74.0174408131239;-0.99945068359375;-0.05743408203125;5.40999998634106;542;100 mA
74.0274408130987;-0.99945068359375;-0.057830810546875;5.41999998631582;543;100 mA
74.0374408130734;-0.9991455078125;-0.058013916015625;5.42999998629057;544;100 mA
74.0474408130482;-0.99945068359375;-0.0574951171875;5.43999998626532;545;100 mA
74.0574408130229;-0.99945068359375;-0.057769775390625;5.44999998624007;546;100 mA
74.0674408129977;-0.9991455078125;-0.058319091796875;5.45999998621483;547;100 mA
74.0774408129724;-0.999755859375;-0.05780029296875;5.46999998618958;548;100 mA
74.0874408129472;-0.99945068359375;-0.05780029296875;5.47999998616433;549;100 mA
74.0974408129219;-0.9991455078125;-0.058319091796875;5.48999998613908;550;100 mA
74.1074408128967;-0.9991455078125;-0.058380126953125;5.49999998611383;551;100 mA
74.1174408128715;-0.99884033203125;-0.058074951171875;5.50999998608859;552;100 mA
74.1274408128462;-1.00006103515625;-0.058319091796875;5.51999998606334;553;100 mA
74.137440812821;-0.9991455078125;-0.058990478515625;5.52999998603809;554;100 mA
74.1474408127957;-0.999755859375;-0.05841064453125;5.53999998601284;555;100 mA
74.1574408127705;-0.9991455078125;-0.05865478515625;5.5499999859876;556;100 mA
74.1674408127452;-0.999755859375;-0.05914306640625;5.55999998596235;557;100 mA
74.17744081272;-1.00006103515625;-0.0592041015625;5.5699999859371;558;100 mA
74.1874408126947;-0.99945068359375;-0.058929443359375;5.57999998591185;559;100 mA
74.1974408126695;-0.99884033203125;-0.059295654296875;5.58999998588661;560;100 mA
74.2074408126442;-0.99945068359375;-0.05975341796875;5.59999998586136;561;100 mA
74.217440812619;-0.999755859375;-0.05902099609375;5.60999998583611;562;100 mA
74.2274408125937;-0.999755859375;-0.05908203125;5.61999998581086;563;100 mA
74.2374408125685;-1.00006103515625;-0.05950927734375;5.62999998578562;564;100 mA
74.2474408125432;-0.9991455078125;-0.05902099609375;5.63999998576037;565;100 mA
74.257440812518;-0.999755859375;-0.05865478515625;5.64999998573512;566;100 mA
74.2674408124927;-0.9991455078125;-0.058868408203125;5.65999998570987;567;100 mA
74.2774408124675;-0.999755859375;-0.058929443359375;5.66999998568463;568;100 mA
74.2874408124422;-0.99945068359375;-0.058258056640625;5.67999998565938;569;100 mA
74.297440812417;-0.999755859375;-0.05828857421875;5.68999998563413;570;100 mA
74.3074408123917;-0.999755859375;-0.0589599609375;5.69999998560888;571;100 mA
74.3174408123665;-0.999755859375;-0.05841064453125;5.70999998558364;572;100 mA
74.3274408123413;-1.0003662109375;-0.058502197265625;5.71999998555839;573;100 mA
74.337440812316;-0.999755859375;-0.05902099609375;5.72999998553314;574;100 mA
74.3474408122908;-0.999755859375;-0.0592041015625;5.73999998550789;575;100 mA
74.3574408122655;-0.99945068359375;-0.058746337890625;5.74999998548265;576;100 mA
74.3674408122403;-0.9991455078125;-0.05902099609375;5.7599999854574;577;100 mA
74.377440812215;-0.9991455078125;-0.0594482421875;5.76999998543215;578;100 mA
74.3874408121898;-0.99884033203125;-0.0587158203125;5.7799999854069;579;100 mA
74.3974408121645;-0.999755859375;-0.058685302734375;5.78999998538166;580;100 mA
74.4074408121393;-0.99945068359375;-0.05908203125;5.79999998535641;581;100 mA
74.417440812114;-0.999755859375;-0.058868408203125;5.80999998533116;582;100 mA
74.4274408120888;-0.999755859375;-0.05853271484375;5.81999998530591;583;100 mA
74.4374408120635;-0.9991455078125;-0.058929443359375;5.82999998528066;584;100 mA
74.4474408120383;-0.99945068359375;-0.05938720703125;5.83999998525542;585;100 mA
74.457440812013;-0.99884033203125;-0.058746337890625;5.84999998523017;586;100 mA
74.4674408119878;-0.9991455078125;-0.058837890625;5.85999998520492;587;100 mA
74.4774408119625;-0.99945068359375;-0.05950927734375;5.86999998517967;588;100 mA
74.4874408119373;-1.00006103515625;-0.05902099609375;5.87999998515443;589;100 mA
74.497440811912;-0.9991455078125;-0.05877685546875;5.88999998512918;590;100 mA
74.5074408118868;-0.99945068359375;-0.058929443359375;5.89999998510393;591;100 mA
74.5174408118615;-0.99945068359375;-0.059112548828125;5.90999998507868;592;100 mA
74.5274408118363;-0.99945068359375;-0.0582275390625;5.91999998505344;593;100 mA
74.5374408118111;-0.9991455078125;-0.05828857421875;5.92999998502819;594;100 mA
74.5474408117858;-0.99945068359375;-0.05853271484375;5.93999998500294;595;100 mA
74.5574408117606;-0.99945068359375;-0.05780029296875;5.94999998497769;596;100 mA
74.5674408117353;-0.999755859375;-0.0576171875;5.95999998495245;597;100 mA
74.5774408117101;-0.9991455078125;-0.057952880859375;5.9699999849272;598;100 mA
74.5874408116848;-0.99945068359375;-0.05792236328125;5.97999998490195;599;100 mA
74.5974408116596;-0.99945068359375;-0.057373046875;5.9899999848767;600;100 mA
74.6074408116343;-0.99945068359375;-0.0576171875;5.99999998485146;601;100 mA
74.6174408116091;-0.999755859375;-0.05810546875;6.00999998482621;602;100 mA
74.6274408115838;-0.9991455078125;-0.05755615234375;6.01999998480096;603;100 mA
74.6374408115586;-0.999755859375;-0.05755615234375;6.02999998477571;604;100 mA
74.6474408115333;-0.99945068359375;-0.058197021484375;6.03999998475047;605;100 mA
74.6574408115081;-0.99945068359375;-0.05804443359375;6.04999998472522;606;100 mA
74.6674408114828;-0.999755859375;-0.057830810546875;6.05999998469997;607;100 mA
74.6774408114576;-0.99945068359375;-0.058197021484375;6.06999998467472;608;100 mA
74.6874408114323;-0.999755859375;-0.058868408203125;6.07999998464948;609;100 mA
74.6974408114071;-0.99945068359375;-0.058197021484375;6.08999998462423;610;100 mA
74.7074408113818;-0.999755859375;-0.0584716796875;6.09999998459898;611;100 mA
74.7174408113566;-0.99945068359375;-0.058868408203125;6.10999998457373;612;100 mA
74.7274408113313;-0.99945068359375;-0.058380126953125;6.11999998454849;613;100 mA
74.7374408113061;-0.999755859375;-0.05792236328125;6.12999998452324;614;100 mA
74.7474408112809;-0.9991455078125;-0.058197021484375;6.13999998449799;615;100 mA
74.7574408112556;-0.99945068359375;-0.058258056640625;6.14999998447274;616;100 mA
74.7674408112304;-0.99945068359375;-0.0574951171875;6.1599999844475;617;100 mA
74.7774408112051;-0.99945068359375;-0.0576171875;6.16999998442225;618;100 mA
74.7874408111799;-0.9991455078125;-0.058013916015625;6.179999984397;619;100 mA
74.7974408111546;-0.999755859375;-0.057403564453125;6.18999998437175;620;100 mA
74.8074408111294;-0.99945068359375;-0.057281494140625;6.1999999843465;621;100 mA
74.8174408111041;-0.99945068359375;-0.057647705078125;6.20999998432126;622;100 mA
74.8274408110789;-0.9991455078125;-0.057647705078125;6.21999998429601;623;100 mA
74.8374408110536;-0.9991455078125;-0.0572509765625;6.22999998427076;624;100 mA
74.8474408110284;-0.999755859375;-0.057464599609375;6.23999998424551;625;100 mA
74.8574408110031;-0.99884033203125;-0.058197021484375;6.24999998422027;626;100 mA
74.8674408109779;-0.999755859375;-0.0574951171875;6.25999998419502;627;100 mA
74.8774408109526;-0.99945068359375;-0.0577392578125;6.26999998416977;628;100 mA
74.8874408109274;-0.99945068359375;-0.058258056640625;6.27999998414452;629;100 mA
74.8974408109021;-0.99945068359375;-0.0582275390625;6.28999998411928;630;100 mA
74.9074408108769;-0.99945068359375;-0.0579833984375;6.29999998409403;631;100 mA
74.9174408108516;-0.99945068359375;-0.0584716796875;6.30999998406878;632;100 mA
74.9274408108264;-0.9991455078125;-0.059051513671875;6.31999998404353;633;100 mA
74.9374408108011;-0.99945068359375;-0.058502197265625;6.32999998401829;634;100 mA
74.9474408107759;-0.9991455078125;-0.05889892578125;6.33999998399304;635;100 mA
74.9574408107507;-0.999755859375;-0.059539794921875;6.34999998396779;636;100 mA
74.9674408107254;-0.99945068359375;-0.05926513671875;6.35999998394254;637;100 mA
74.9774408107002;-0.99945068359375;-0.059173583984375;6.3699999839173;638;100 mA
74.9874408106749;-0.9991455078125;-0.059600830078125;6.37999998389205;639;100 mA
74.9974408106497;-0.999755859375;-0.05975341796875;6.3899999838668;640;100 mA
75.0074408106244;-0.9991455078125;-0.059112548828125;6.39999998384155;641;100 mA
75.0174408105992;-0.99945068359375;-0.05908203125;6.40999998381631;642;100 mA
75.0274408105739;-0.99945068359375;-0.059661865234375;6.41999998379106;643;100 mA
75.0374408105487;-0.99945068359375;-0.05889892578125;6.42999998376581;644;100 mA
75.0474408105234;-0.99945068359375;-0.058837890625;6.43999998374056;645;100 mA
75.0574408104982;-0.999755859375;-0.05914306640625;6.44999998371532;646;100 mA
75.0674408104729;-0.9991455078125;-0.05926513671875;6.45999998369007;647;100 mA
75.0774408104477;-0.99945068359375;-0.058837890625;6.46999998366482;648;100 mA
75.0874408104224;-0.99945068359375;-0.0592041015625;6.47999998363957;649;100 mA
75.0974408103972;-0.999755859375;-0.05987548828125;6.48999998361433;650;100 mA
75.1074408103719;-0.99945068359375;-0.059356689453125;6.49999998358908;651;100 mA
75.1174408103467;-0.99945068359375;-0.059539794921875;6.50999998356383;652;100 mA
75.1274408103214;-0.99884033203125;-0.05999755859375;6.51999998353858;653;100 mA
75.1374408102962;-0.9991455078125;-0.05975341796875;6.52999998351333;654;100 mA
75.147440810271;-0.99945068359375;-0.05938720703125;6.53999998348809;655;100 mA
75.1574408102457;-0.99945068359375;-0.059661865234375;6.54999998346284;656;100 mA
75.1674408102205;-0.9991455078125;-0.0599365234375;6.55999998343759;657;100 mA
75.1774408101952;-0.99945068359375;-0.059234619140625;6.56999998341234;658;100 mA
75.18744081017;-0.999755859375;-0.05926513671875;6.5799999833871;659;100 mA
75.1974408101447;-0.999755859375;-0.05999755859375;6.58999998336185;660;100 mA
75.2074408101195;-0.999755859375;-0.0596923828125;6.5999999833366;661;100 mA
75.2174408100942;-0.999755859375;-0.059600830078125;6.60999998331135;662;100 mA
75.227440810069;-0.99945068359375;-0.05999755859375;6.61999998328611;663;100 mA
75.2374408100437;-0.99945068359375;-0.060302734375;6.62999998326086;664;100 mA
75.2474408100185;-0.9991455078125;-0.059661865234375;6.63999998323561;665;100 mA
75.2574408099932;-0.999755859375;-0.05987548828125;6.64999998321036;666;100 mA
75.267440809968;-0.99945068359375;-0.060272216796875;6.65999998318512;667;100 mA
75.2774408099427;-0.999755859375;-0.059722900390625;6.66999998315987;668;100 mA
75.2874408099175;-0.9991455078125;-0.059600830078125;6.67999998313462;669;100 mA
75.2974408098922;-0.99945068359375;-0.060089111328125;6.68999998310937;670;100 mA
75.307440809867;-0.9991455078125;-0.0601806640625;6.69999998308413;671;100 mA
75.3174408098417;-0.99945068359375;-0.059722900390625;6.70999998305888;672;100 mA
75.3274408098165;-0.9991455078125;-0.06005859375;6.71999998303363;673;100 mA
75.3374408097912;-0.99945068359375;-0.06048583984375;6.72999998300838;674;100 mA
75.347440809766;-0.99945068359375;-0.059844970703125;6.73999998298314;675;100 mA
75.3574408097408;-0.99945068359375;-0.059814453125;6.74999998295789;676;100 mA
75.3674408097155;-0.999755859375;-0.060302734375;6.75999998293264;677;100 mA
75.3774408096903;-0.99945068359375;-0.06005859375;6.76999998290739;678;100 mA
75.387440809665;-0.99945068359375;-0.059661865234375;6.77999998288215;679;100 mA
75.3974408096398;-0.9991455078125;-0.059814453125;6.7899999828569;680;100 mA
75.4074408096145;-0.999755859375;-0.06024169921875;6.79999998283165;681;100 mA
75.4174408095893;-0.9991455078125;-0.059326171875;6.8099999828064;682;100 mA
75.427440809564;-0.99945068359375;-0.05938720703125;6.81999998278116;683;100 mA
75.4374408095388;-0.999755859375;-0.059539794921875;6.82999998275591;684;100 mA
75.4474408095135;-0.9991455078125;-0.0589599609375;6.83999998273066;685;100 mA
75.4574408094883;-0.999755859375;-0.058563232421875;6.84999998270541;686;100 mA
75.467440809463;-0.999755859375;-0.05889892578125;6.85999998268016;687;100 mA
75.4774408094378;-0.99945068359375;-0.05914306640625;6.86999998265492;688;100 mA
75.4874408094125;-0.999755859375;-0.058502197265625;6.87999998262967;689;100 mA
75.4974408093873;-0.999755859375;-0.0587158203125;6.88999998260442;690;100 mA
75.507440809362;-0.99945068359375;-0.05914306640625;6.89999998257917;691;100 mA
75.5174408093368;-1.00006103515625;-0.058624267578125;6.90999998255393;692;100 mA
75.5274408093115;-0.999755859375;-0.058502197265625;6.91999998252868;693;100 mA
75.5374408092863;-0.999755859375;-0.05908203125;6.92999998250343;694;100 mA
75.547440809261;-0.9991455078125;-0.059234619140625;6.93999998247818;695;100 mA
75.5574408092358;-0.99945068359375;-0.05889892578125;6.94999998245294;696;100 mA
75.5674408092106;-0.99884033203125;-0.05902099609375;6.95999998242769;697;100 mA
75.5774408091853;-0.99945068359375;-0.059722900390625;6.96999998240244;698;100 mA
75.5874408091601;-0.99945068359375;-0.05902099609375;6.97999998237719;699;100 mA
75.5974408091348;-0.99884033203125;-0.05914306640625;6.98999998235195;700;100 mA
