Time (s);WE(1).Potential (V);WE(1).Current (A);Corrected time (s);Index;Current range
15.8176019600644;-0.19989013671875;-0.003887939453125;0;1;1 A
15.8276019600391;-0.199951171875;-0.00427856445312499;0.00999999997475243;2;1 A
15.8376019600139;-0.199920654296875;-0.004498291015625;0.0199999999495049;3;1 A
15.8476019599887;-0.19989013671875;-0.00461425781249999;0.0299999999242573;4;1 A
15.8576019599634;-0.19989013671875;-0.0046966552734375;0.0399999998990097;5;1 A
15.8676019599382;-0.199859619140625;-0.00475158691406249;0.0499999998737621;6;1 A
15.8776019599129;-0.199920654296875;-0.00478515625000001;0.0599999998485146;7;1 A
15.8876019598877;-0.199859619140625;-0.0048248291015625;0.069999999823267;8;1 A
15.8976019598624;-0.19989013671875;-0.00484619140625001;0.0799999997980194;9;1 A
15.9076019598372;-0.199859619140625;-0.0048858642578125;0.0899999997727718;10;1 A
15.9176019598119;-0.199951171875;-0.0049102783203125;0.0999999997475243;11;1 A
15.9276019597867;-0.199951171875;-0.0049285888671875;0.109999999722277;12;1 A
15.9376019597614;-0.199951171875;-0.00494995117187499;0.119999999697029;13;1 A
15.9476019597362;-0.199920654296875;-0.0049560546875;0.129999999671782;14;1 A
15.9576019597109;-0.199859619140625;-0.00496826171875001;0.139999999646534;15;1 A
15.9676019596857;-0.199951171875;-0.00498046874999999;0.149999999621286;16;1 A
15.9776019596604;-0.1998291015625;-0.0049896240234375;0.159999999596039;17;1 A
15.9876019596352;-0.19989013671875;-0.00499267578125;0.169999999570791;18;1 A
15.9976019596099;-0.19989013671875;-0.0050018310546875;0.179999999545544;19;1 A
16.0076019595847;-0.19989013671875;-0.00499877929687501;0.189999999520296;20;1 A
16.0176019595594;-0.19989013671875;-0.00501708984375;0.199999999495049;21;1 A
16.0276019595342;-0.199920654296875;-0.005035400390625;0.209999999469801;22;1 A
16.0376019595089;-0.199859619140625;-0.0050506591796875;0.219999999444553;23;1 A
16.0476019594837;-0.199859619140625;-0.0050628662109375;0.229999999419306;24;1 A
16.0576019594585;-0.199920654296875;-0.0050689697265625;0.239999999394058;25;1 A
16.0676019594332;-0.199859619140625;-0.005084228515625;0.249999999368811;26;1 A
16.077601959408;-0.199951171875;-0.00507202148437499;0.259999999343563;27;1 A
16.0876019593827;-0.199859619140625;-0.005096435546875;0.269999999318316;28;1 A
16.0976019593575;-0.199920654296875;-0.00510559082031251;0.279999999293068;29;1 A
16.1076019593322;-0.199920654296875;-0.005108642578125;0.28999999926782;30;1 A
16.117601959307;-0.199951171875;-0.00512084960937501;0.299999999242573;31;1 A
16.1276019592817;-0.199920654296875;-0.0051116943359375;0.309999999217325;32;1 A
16.1376019592565;-0.199859619140625;-0.005126953125;0.319999999192078;33;1 A
16.1476019592312;-0.199920654296875;-0.0051116943359375;0.32999999916683;34;1 A
16.157601959206;-0.199920654296875;-0.00512084960937501;0.339999999141583;35;1 A
16.1676019591807;-0.199951171875;-0.005108642578125;0.349999999116335;36;1 A
16.1776019591555;-0.199920654296875;-0.005096435546875;0.359999999091087;37;1 A
16.1876019591302;-0.199920654296875;-0.00508728027343749;0.36999999906584;38;1 A
16.197601959105;-0.19989013671875;-0.00507507324218751;0.379999999040592;39;1 A
16.2076019590797;-0.199920654296875;-0.005078125;0.389999999015345;40;1 A
16.2176019590545;-0.199920654296875;-0.00507507324218751;0.399999998990097;41;1 A
16.2276019590292;-0.199951171875;-0.005078125;0.40999999896485;42;1 A
16.237601959004;-0.20001220703125;-0.0050811767578125;0.419999998939602;43;1 A
16.2476019589787;-0.199920654296875;-0.005084228515625;0.429999998914354;44;1 A
16.2576019589535;-0.199951171875;-0.00507202148437499;0.439999998889107;45;1 A
16.2676019589283;-0.199920654296875;-0.00507202148437499;0.449999998863859;46;1 A
16.277601958903;-0.199951171875;-0.0050689697265625;0.459999998838612;47;1 A
16.2876019588778;-0.199859619140625;-0.0050537109375;0.469999998813364;48;1 A
16.2976019588525;-0.199981689453125;-0.00504455566406251;0.479999998788116;49;1 A
16.3076019588273;-0.19989013671875;-0.005023193359375;0.489999998762869;50;1 A
16.317601958802;-0.19989013671875;-0.00504150390624999;0.499999998737621;51;1 A
16.3276019587768;-0.19989013671875;-0.00505676269531249;0.509999998712374;52;1 A
16.3376019587515;-0.19989013671875;-0.005078125;0.519999998687126;53;1 A
16.3476019587263;-0.199859619140625;-0.005096435546875;0.529999998661879;54;1 A
16.357601958701;-0.19989013671875;-0.0051116943359375;0.539999998636631;55;1 A
16.3676019586758;-0.199920654296875;-0.00513610839843751;0.549999998611383;56;1 A
16.3776019586505;-0.199859619140625;-0.00513610839843751;0.559999998586136;57;1 A
16.3876019586253;-0.199920654296875;-0.00516357421874999;0.569999998560888;58;1 A
16.3976019586;-0.199920654296875;-0.00516662597656251;0.579999998535641;59;1 A
16.4076019585748;-0.199951171875;-0.00516357421874999;0.589999998510393;60;1 A
16.4176019585495;-0.199859619140625;-0.0051727294921875;0.599999998485146;61;1 A
16.4276019585243;-0.20001220703125;-0.005157470703125;0.609999998459898;62;1 A
16.437601958499;-0.19989013671875;-0.00517883300781249;0.61999999843465;63;1 A
16.4476019584738;-0.199951171875;-0.00518188476562501;0.629999998409403;64;1 A
16.4576019584485;-0.19989013671875;-0.0051910400390625;0.639999998384155;65;1 A
16.4676019584233;-0.1998291015625;-0.0052032470703125;0.649999998358908;66;1 A
16.4776019583981;-0.199920654296875;-0.00520935058593749;0.65999999833366;67;1 A
16.4876019583728;-0.199951171875;-0.00521240234375001;0.669999998308413;68;1 A
16.4976019583476;-0.199981689453125;-0.00521240234375001;0.679999998283165;69;1 A
16.5076019583223;-0.1998291015625;-0.0052215576171875;0.689999998257917;70;1 A
16.5176019582971;-0.199920654296875;-0.0052154541015625;0.69999999823267;71;1 A
16.5276019582718;-0.199859619140625;-0.005218505859375;0.709999998207422;72;1 A
16.5376019582466;-0.199920654296875;-0.00522460937499999;0.719999998182175;73;1 A
16.5476019582213;-0.199859619140625;-0.005230712890625;0.729999998156927;74;1 A
16.5576019581961;-0.19989013671875;-0.00522766113281251;0.73999999813168;75;1 A
16.5676019581708;-0.199920654296875;-0.005230712890625;0.749999998106432;76;1 A
16.5776019581456;-0.199920654296875;-0.0052215576171875;0.759999998081184;77;1 A
16.5876019581203;-0.19989013671875;-0.00521240234375001;0.769999998055937;78;1 A
16.5976019580951;-0.19989013671875;-0.005218505859375;0.779999998030689;79;1 A
16.6076019580698;-0.199951171875;-0.0052032470703125;0.789999998005442;80;1 A
16.6176019580446;-0.199951171875;-0.00522766113281251;0.799999997980194;81;1 A
16.6276019580193;-0.199859619140625;-0.0052337646484375;0.809999997954947;82;1 A
16.6376019579941;-0.19989013671875;-0.00525817871093751;0.819999997929699;83;1 A
16.6476019579688;-0.199920654296875;-0.005267333984375;0.829999997904451;84;1 A
16.6576019579436;-0.199951171875;-0.0052764892578125;0.839999997879204;85;1 A
16.6676019579184;-0.199951171875;-0.00528564453124999;0.849999997853956;86;1 A
16.6776019578931;-0.199951171875;-0.00527038574218749;0.859999997828709;87;1 A
16.6876019578679;-0.19989013671875;-0.00528564453124999;0.869999997803461;88;1 A
16.6976019578426;-0.199859619140625;-0.00527343750000001;0.879999997778214;89;1 A
16.7076019578174;-0.19989013671875;-0.005267333984375;0.889999997752966;90;1 A
16.7176019577921;-0.19989013671875;-0.005267333984375;0.899999997727718;91;1 A
16.7276019577669;-0.19989013671875;-0.00525512695312499;0.909999997702471;92;1 A
16.7376019577416;-0.199951171875;-0.00527038574218749;0.919999997677223;93;1 A
16.7476019577164;-0.199920654296875;-0.005267333984375;0.929999997651976;94;1 A
16.7576019576911;-0.19989013671875;-0.005267333984375;0.939999997626728;95;1 A
16.7676019576659;-0.199859619140625;-0.0052642822265625;0.949999997601481;96;1 A
16.7776019576406;-0.199951171875;-0.005267333984375;0.959999997576233;97;1 A
16.7876019576154;-0.199859619140625;-0.0052764892578125;0.969999997550985;98;1 A
16.7976019575901;-0.1998291015625;-0.0052825927734375;0.979999997525738;99;1 A
16.8076019575649;-0.199859619140625;-0.00530090332031249;0.98999999750049;100;1 A
16.8176019575396;-0.199920654296875;-0.00530395507812501;0.999999997475243;101;1 A
16.8276019575144;-0.199951171875;-0.0053070068359375;1.00999999745;102;1 A
16.8376019574891;-0.199920654296875;-0.00530395507812501;1.01999999742475;103;1 A
16.8476019574639;-0.199981689453125;-0.0052978515625;1.0299999973995;104;1 A
16.8576019574386;-0.199859619140625;-0.00528869628906251;1.03999999737425;105;1 A
16.8676019574134;-0.199920654296875;-0.0052947998046875;1.049999997349;106;1 A
16.8776019573882;-0.199859619140625;-0.00528869628906251;1.05999999732376;107;1 A
16.8876019573629;-0.199920654296875;-0.00528564453124999;1.06999999729851;108;1 A
16.8976019573377;-0.199859619140625;-0.005291748046875;1.07999999727326;109;1 A
16.9076019573124;-0.199981689453125;-0.005279541015625;1.08999999724801;110;1 A
16.9176019572872;-0.199951171875;-0.0052947998046875;1.09999999722277;111;1 A
16.9276019572619;-0.199920654296875;-0.00528869628906251;1.10999999719752;112;1 A
16.9376019572367;-0.199859619140625;-0.0053070068359375;1.11999999717227;113;1 A
16.9476019572114;-0.19989013671875;-0.00531005859375;1.12999999714702;114;1 A
16.9576019571862;-0.199920654296875;-0.0053070068359375;1.13999999712178;115;1 A
16.9676019571609;-0.19989013671875;-0.00531005859375;1.14999999709653;116;1 A
16.9776019571357;-0.199951171875;-0.0052947998046875;1.15999999707128;117;1 A
16.9876019571104;-0.199920654296875;-0.0053131103515625;1.16999999704603;118;1 A
16.9976019570852;-0.199951171875;-0.0053070068359375;1.17999999702079;119;1 A
17.0076019570599;-0.199920654296875;-0.00530090332031249;1.18999999699554;120;1 A
17.0176019570347;-0.19989013671875;-0.00528869628906251;1.19999999697029;121;1 A
17.0276019570094;-0.199859619140625;-0.00527038574218749;1.20999999694504;122;1 A
17.0376019569842;-0.199859619140625;-0.00525817871093751;1.2199999969198;123;1 A
17.0476019569589;-0.199920654296875;-0.0052459716796875;1.22999999689455;124;1 A
17.0576019569337;-0.199859619140625;-0.00523986816406249;1.2399999968693;125;1 A
17.0676019569084;-0.199920654296875;-0.0052337646484375;1.24999999684405;126;1 A
17.0776019568832;-0.199920654296875;-0.005230712890625;1.25999999681881;127;1 A
17.087601956858;-0.19989013671875;-0.0052215576171875;1.26999999679356;128;1 A
17.0976019568327;-0.19989013671875;-0.0052154541015625;1.27999999676831;129;1 A
17.1076019568075;-0.19989013671875;-0.00521240234375001;1.28999999674306;130;1 A
17.1176019567822;-0.19989013671875;-0.005206298828125;1.29999999671782;131;1 A
17.127601956757;-0.199920654296875;-0.0051910400390625;1.30999999669257;132;1 A
17.1376019567317;-0.19989013671875;-0.00517883300781249;1.31999999666732;133;1 A
17.1476019567065;-0.199951171875;-0.00517578125;1.32999999664207;134;1 A
17.1576019566812;-0.199951171875;-0.0051544189453125;1.33999999661683;135;1 A
17.167601956656;-0.199951171875;-0.005169677734375;1.34999999659158;136;1 A
17.1776019566307;-0.199951171875;-0.0051605224609375;1.35999999656633;137;1 A
17.1876019566055;-0.199951171875;-0.00516357421874999;1.36999999654108;138;1 A
17.1976019565802;-0.199859619140625;-0.0051727294921875;1.37999999651583;139;1 A
17.207601956555;-0.199859619140625;-0.005169677734375;1.38999999649059;140;1 A
17.2176019565297;-0.19989013671875;-0.0051910400390625;1.39999999646534;141;1 A
17.2276019565045;-0.199920654296875;-0.0052001953125;1.40999999644009;142;1 A
17.2376019564792;-0.199981689453125;-0.0052215576171875;1.41999999641484;143;1 A
17.247601956454;-0.20001220703125;-0.0052215576171875;1.4299999963896;144;1 A
17.2576019564287;-0.199951171875;-0.00522460937499999;1.43999999636435;145;1 A
17.2676019564035;-0.199920654296875;-0.0052215576171875;1.4499999963391;146;1 A
17.2776019563782;-0.19989013671875;-0.0052154541015625;1.45999999631385;147;1 A
17.287601956353;-0.199951171875;-0.005230712890625;1.46999999628861;148;1 A
17.2976019563278;-0.199920654296875;-0.005218505859375;1.47999999626336;149;1 A
17.3076019563025;-0.19989013671875;-0.00521240234375001;1.48999999623811;150;1 A
17.3176019562773;-0.199920654296875;-0.0052032470703125;1.49999999621286;151;1 A
17.327601956252;-0.199951171875;-0.0052001953125;1.50999999618762;152;1 A
17.3376019562268;-0.199920654296875;-0.00519714355468751;1.51999999616237;153;1 A
17.3476019562015;-0.199859619140625;-0.00519714355468751;1.52999999613712;154;1 A
17.3576019561763;-0.199951171875;-0.0051910400390625;1.53999999611187;155;1 A
17.367601956151;-0.199920654296875;-0.00518798828125;1.54999999608663;156;1 A
17.3776019561258;-0.199920654296875;-0.0051910400390625;1.55999999606138;157;1 A
17.3876019561005;-0.199859619140625;-0.00518188476562501;1.56999999603613;158;1 A
17.3976019560753;-0.19989013671875;-0.00519409179687499;1.57999999601088;159;1 A
17.40760195605;-0.19989013671875;-0.00519714355468751;1.58999999598564;160;1 A
17.4176019560248;-0.199951171875;-0.005206298828125;1.59999999596039;161;1 A
17.4276019559995;-0.19989013671875;-0.005206298828125;1.60999999593514;162;1 A
17.4376019559743;-0.199951171875;-0.00520935058593749;1.61999999590989;163;1 A
17.447601955949;-0.19989013671875;-0.005206298828125;1.62999999588465;164;1 A
17.4576019559238;-0.199920654296875;-0.0051910400390625;1.6399999958594;165;1 A
17.4676019558985;-0.199920654296875;-0.00518798828125;1.64999999583415;166;1 A
17.4776019558733;-0.199920654296875;-0.005169677734375;1.6599999958089;167;1 A
17.487601955848;-0.199920654296875;-0.00516357421874999;1.66999999578366;168;1 A
17.4976019558228;-0.199920654296875;-0.005157470703125;1.67999999575841;169;1 A
17.5076019557976;-0.199920654296875;-0.00513916015625;1.68999999573316;170;1 A
17.5176019557723;-0.199920654296875;-0.0051422119140625;1.69999999570791;171;1 A
17.5276019557471;-0.199920654296875;-0.00513610839843751;1.70999999568267;172;1 A
17.5376019557218;-0.199920654296875;-0.00515136718750001;1.71999999565742;173;1 A
17.5476019556966;-0.199920654296875;-0.005157470703125;1.72999999563217;174;1 A
17.5576019556713;-0.199920654296875;-0.0051727294921875;1.73999999560692;175;1 A
17.5676019556461;-0.199981689453125;-0.0051849365234375;1.74999999558167;176;1 A
17.5776019556208;-0.199951171875;-0.00519409179687499;1.75999999555643;177;1 A
17.5876019555956;-0.19989013671875;-0.005218505859375;1.76999999553118;178;1 A
17.5976019555703;-0.199920654296875;-0.00522766113281251;1.77999999550593;179;1 A
17.6076019555451;-0.199859619140625;-0.00523986816406249;1.78999999548068;180;1 A
17.6176019555198;-0.199951171875;-0.00524291992187501;1.79999999545544;181;1 A
17.6276019554946;-0.199859619140625;-0.0052490234375;1.80999999543019;182;1 A
17.6376019554693;-0.199920654296875;-0.00526123046875;1.81999999540494;183;1 A
17.6476019554441;-0.199951171875;-0.005279541015625;1.82999999537969;184;1 A
17.6576019554188;-0.199920654296875;-0.00528564453124999;1.83999999535445;185;1 A
17.6676019553936;-0.199920654296875;-0.00528869628906251;1.8499999953292;186;1 A
17.6776019553683;-0.199920654296875;-0.005291748046875;1.85999999530395;187;1 A
17.6876019553431;-0.199920654296875;-0.005291748046875;1.8699999952787;188;1 A
17.6976019553179;-0.19989013671875;-0.0053131103515625;1.87999999525346;189;1 A
17.7076019552926;-0.199859619140625;-0.005322265625;1.88999999522821;190;1 A
17.7176019552674;-0.199920654296875;-0.005340576171875;1.89999999520296;191;1 A
17.7276019552421;-0.199951171875;-0.005340576171875;1.90999999517771;192;1 A
17.7376019552169;-0.20001220703125;-0.0053436279296875;1.91999999515247;193;1 A
17.7476019551916;-0.199920654296875;-0.00533447265625001;1.92999999512722;194;1 A
17.7576019551664;-0.199951171875;-0.0053131103515625;1.93999999510197;195;1 A
17.7676019551411;-0.199920654296875;-0.0053131103515625;1.94999999507672;196;1 A
17.7776019551159;-0.199859619140625;-0.00528564453124999;1.95999999505148;197;1 A
17.7876019550906;-0.199920654296875;-0.00527343750000001;1.96999999502623;198;1 A
17.7976019550654;-0.199920654296875;-0.0052642822265625;1.97999999500098;199;1 A
17.8076019550401;-0.199920654296875;-0.0052459716796875;1.98999999497573;200;1 A
17.8176019550149;-0.199951171875;-0.0052520751953125;1.99999999495049;201;1 A
17.8276019549896;-0.199920654296875;-0.0052490234375;2.00999999492524;202;1 A
17.8376019549644;-0.199951171875;-0.00525817871093751;2.01999999489999;203;1 A
17.8476019549391;-0.199859619140625;-0.00525512695312499;2.02999999487474;204;1 A
17.8576019549139;-0.19989013671875;-0.0052642822265625;2.0399999948495;205;1 A
17.8676019548886;-0.199859619140625;-0.005267333984375;2.04999999482425;206;1 A
17.8776019548634;-0.20001220703125;-0.005279541015625;2.059999994799;207;1 A
17.8876019548381;-0.199859619140625;-0.00530395507812501;2.06999999477375;208;1 A
17.8976019548129;-0.199951171875;-0.00531005859375;2.0799999947485;209;1 A
17.9076019547877;-0.199981689453125;-0.0053131103515625;2.08999999472326;210;1 A
17.9176019547624;-0.199920654296875;-0.00531005859375;2.09999999469801;211;1 A
17.9276019547372;-0.19989013671875;-0.0053070068359375;2.10999999467276;212;1 A
17.9376019547119;-0.199859619140625;-0.00530090332031249;2.11999999464751;213;1 A
17.9476019546867;-0.19989013671875;-0.00530090332031249;2.12999999462227;214;1 A
17.9576019546614;-0.199951171875;-0.00528869628906251;2.13999999459702;215;1 A
17.9676019546362;-0.199920654296875;-0.0052764892578125;2.14999999457177;216;1 A
17.9776019546109;-0.199859619140625;-0.0052642822265625;2.15999999454652;217;1 A
17.9876019545857;-0.199920654296875;-0.00524291992187501;2.16999999452128;218;1 A
17.9976019545604;-0.19989013671875;-0.00524291992187501;2.17999999449603;219;1 A
18.0076019545352;-0.199920654296875;-0.00523986816406249;2.18999999447078;220;1 A
18.0176019545099;-0.19989013671875;-0.00525512695312499;2.19999999444553;221;1 A
18.0276019544847;-0.199859619140625;-0.0052520751953125;2.20999999442029;222;1 A
18.0376019544594;-0.199920654296875;-0.0052642822265625;2.21999999439504;223;1 A
18.0476019544342;-0.19989013671875;-0.0052642822265625;2.22999999436979;224;1 A
18.0576019544089;-0.199951171875;-0.00526123046875;2.23999999434454;225;1 A
18.0676019543837;-0.199951171875;-0.0052764892578125;2.2499999943193;226;1 A
18.0776019543584;-0.199951171875;-0.005267333984375;2.25999999429405;227;1 A
18.0876019543332;-0.199920654296875;-0.0052642822265625;2.2699999942688;228;1 A
18.0976019543079;-0.199951171875;-0.00525512695312499;2.27999999424355;229;1 A
18.1076019542827;-0.199859619140625;-0.00524291992187501;2.28999999421831;230;1 A
18.1176019542575;-0.19989013671875;-0.0052520751953125;2.29999999419306;231;1 A
18.1276019542322;-0.19989013671875;-0.0052459716796875;2.30999999416781;232;1 A
18.137601954207;-0.199920654296875;-0.00526123046875;2.31999999414256;233;1 A
18.1476019541817;-0.199981689453125;-0.00526123046875;2.32999999411732;234;1 A
18.1576019541565;-0.199920654296875;-0.00527343750000001;2.33999999409207;235;1 A
18.1676019541312;-0.199920654296875;-0.00527343750000001;2.34999999406682;236;1 A
18.177601954106;-0.199859619140625;-0.00527343750000001;2.35999999404157;237;1 A
18.1876019540807;-0.199951171875;-0.00528869628906251;2.36999999401633;238;1 A
18.1976019540555;-0.1998291015625;-0.0052825927734375;2.37999999399108;239;1 A
18.2076019540302;-0.199920654296875;-0.00527343750000001;2.38999999396583;240;1 A
18.217601954005;-0.199951171875;-0.005267333984375;2.39999999394058;241;1 A
18.2276019539797;-0.20001220703125;-0.00525817871093751;2.40999999391533;242;1 A
18.2376019539545;-0.199920654296875;-0.0052520751953125;2.41999999389009;243;1 A
18.2476019539292;-0.199981689453125;-0.00526123046875;2.42999999386484;244;1 A
18.257601953904;-0.199920654296875;-0.00525817871093751;2.43999999383959;245;1 A
18.2676019538787;-0.19989013671875;-0.00526123046875;2.44999999381434;246;1 A
18.2776019538535;-0.199859619140625;-0.00526123046875;2.4599999937891;247;1 A
18.2876019538282;-0.199859619140625;-0.00526123046875;2.46999999376385;248;1 A
18.297601953803;-0.199951171875;-0.0052764892578125;2.4799999937386;249;1 A
18.3076019537777;-0.199920654296875;-0.0052764892578125;2.48999999371335;250;1 A
18.3176019537525;-0.199920654296875;-0.005291748046875;2.49999999368811;251;1 A
18.3276019537273;-0.199920654296875;-0.005279541015625;2.50999999366286;252;1 A
18.337601953702;-0.199920654296875;-0.005291748046875;2.51999999363761;253;1 A
18.3476019536768;-0.19989013671875;-0.005291748046875;2.52999999361236;254;1 A
18.3576019536515;-0.19989013671875;-0.00528564453124999;2.53999999358712;255;1 A
18.3676019536263;-0.19989013671875;-0.00530395507812501;2.54999999356187;256;1 A
18.377601953601;-0.199951171875;-0.005291748046875;2.55999999353662;257;1 A
18.3876019535758;-0.199920654296875;-0.00530090332031249;2.56999999351137;258;1 A
18.3976019535505;-0.199951171875;-0.0052978515625;2.57999999348613;259;1 A
18.4076019535253;-0.199951171875;-0.00528869628906251;2.58999999346088;260;1 A
18.4176019535;-0.199920654296875;-0.005279541015625;2.59999999343563;261;1 A
18.4276019534748;-0.199920654296875;-0.00526123046875;2.60999999341038;262;1 A
18.4376019534495;-0.1998291015625;-0.0052520751953125;2.61999999338514;263;1 A
18.4476019534243;-0.199859619140625;-0.00523681640625;2.62999999335989;264;1 A
18.457601953399;-0.19989013671875;-0.00522766113281251;2.63999999333464;265;1 A
18.4676019533738;-0.199951171875;-0.0052154541015625;2.64999999330939;266;1 A
18.4776019533485;-0.199920654296875;-0.0052154541015625;2.65999999328415;267;1 A
18.4876019533233;-0.199951171875;-0.00522460937499999;2.6699999932589;268;1 A
18.497601953298;-0.199920654296875;-0.005230712890625;2.67999999323365;269;1 A
18.5076019532728;-0.19989013671875;-0.005230712890625;2.6899999932084;270;1 A
18.5176019532475;-0.199859619140625;-0.00523986816406249;2.69999999318316;271;1 A
18.5276019532223;-0.199920654296875;-0.005230712890625;2.70999999315791;272;1 A
18.5376019531971;-0.199920654296875;-0.00522460937499999;2.71999999313266;273;1 A
18.5476019531718;-0.199920654296875;-0.005230712890625;2.72999999310741;274;1 A
18.5576019531466;-0.19989013671875;-0.00520935058593749;2.73999999308217;275;1 A
18.5676019531213;-0.199920654296875;-0.0052032470703125;2.74999999305692;276;1 A
18.5776019530961;-0.199951171875;-0.00518798828125;2.75999999303167;277;1 A
18.5876019530708;-0.199920654296875;-0.00517883300781249;2.76999999300642;278;1 A
18.5976019530456;-0.199859619140625;-0.00518798828125;2.77999999298117;279;1 A
18.6076019530203;-0.19989013671875;-0.0051849365234375;2.78999999295593;280;1 A
18.6176019529951;-0.199859619140625;-0.0052001953125;2.79999999293068;281;1 A
18.6276019529698;-0.199951171875;-0.00519714355468751;2.80999999290543;282;1 A
18.6376019529446;-0.199859619140625;-0.00521240234375001;2.81999999288018;283;1 A
18.6476019529193;-0.199951171875;-0.005218505859375;2.82999999285494;284;1 A
18.6576019528941;-0.19989013671875;-0.00522766113281251;2.83999999282969;285;1 A
18.6676019528688;-0.199920654296875;-0.0052490234375;2.84999999280444;286;1 A
18.6776019528436;-0.19989013671875;-0.00523986816406249;2.85999999277919;287;1 A
18.6876019528183;-0.199920654296875;-0.00524291992187501;2.86999999275395;288;1 A
18.6976019527931;-0.199859619140625;-0.0052337646484375;2.8799999927287;289;1 A
18.7076019527678;-0.199981689453125;-0.00522766113281251;2.88999999270345;290;1 A
18.7176019527426;-0.199920654296875;-0.00521240234375001;2.8999999926782;291;1 A
18.7276019527174;-0.199920654296875;-0.0052001953125;2.90999999265296;292;1 A
18.7376019526921;-0.199981689453125;-0.00518798828125;2.91999999262771;293;1 A
18.7476019526669;-0.199859619140625;-0.005169677734375;2.92999999260246;294;1 A
18.7576019526416;-0.19989013671875;-0.0051605224609375;2.93999999257721;295;1 A
18.7676019526164;-0.19989013671875;-0.005145263671875;2.94999999255197;296;1 A
18.7776019525911;-0.19989013671875;-0.00514831542968749;2.95999999252672;297;1 A
18.7876019525659;-0.19989013671875;-0.0051544189453125;2.96999999250147;298;1 A
18.7976019525406;-0.199920654296875;-0.0051605224609375;2.97999999247622;299;1 A
18.8076019525154;-0.199951171875;-0.00516662597656251;2.98999999245098;300;1 A
18.8176019524901;-0.199920654296875;-0.00517578125;2.99999999242573;301;1 A
18.8276019524649;-0.199920654296875;-0.00517883300781249;3.00999999240048;302;1 A
18.8376019524396;-0.19989013671875;-0.0051849365234375;3.01999999237523;303;1 A
18.8476019524144;-0.199920654296875;-0.0052032470703125;3.02999999234999;304;1 A
18.8576019523891;-0.199859619140625;-0.0051910400390625;3.03999999232474;305;1 A
18.8676019523639;-0.199920654296875;-0.0052001953125;3.04999999229949;306;1 A
18.8776019523386;-0.199920654296875;-0.00518798828125;3.05999999227424;307;1 A
18.8876019523134;-0.199920654296875;-0.0051849365234375;3.069999992249;308;1 A
18.8976019522881;-0.19989013671875;-0.00518798828125;3.07999999222375;309;1 A
18.9076019522629;-0.19989013671875;-0.00517578125;3.0899999921985;310;1 A
18.9176019522376;-0.199920654296875;-0.0051727294921875;3.09999999217325;311;1 A
18.9276019522124;-0.199859619140625;-0.005145263671875;3.109999992148;312;1 A
18.9376019521872;-0.199920654296875;-0.00513916015625;3.11999999212276;313;1 A
18.9476019521619;-0.19989013671875;-0.00511779785156249;3.12999999209751;314;1 A
18.9576019521367;-0.199951171875;-0.0051116943359375;3.13999999207226;315;1 A
18.9676019521114;-0.199920654296875;-0.005108642578125;3.14999999204701;316;1 A
18.9776019520862;-0.199920654296875;-0.00509033203125001;3.15999999202177;317;1 A
18.9876019520609;-0.19989013671875;-0.0050811767578125;3.16999999199652;318;1 A
18.9976019520357;-0.199920654296875;-0.00506591796875;3.17999999197127;319;1 A
19.0076019520104;-0.199859619140625;-0.0050537109375;3.18999999194602;320;1 A
19.0176019519852;-0.199859619140625;-0.00504150390624999;3.19999999192078;321;1 A
19.0276019519599;-0.199951171875;-0.00504150390624999;3.20999999189553;322;1 A
19.0376019519347;-0.199859619140625;-0.0050323486328125;3.21999999187028;323;1 A
19.0476019519094;-0.199920654296875;-0.0050201416015625;3.22999999184503;324;1 A
19.0576019518842;-0.19989013671875;-0.0050048828125;3.23999999181979;325;1 A
19.0676019518589;-0.199859619140625;-0.004986572265625;3.24999999179454;326;1 A
19.0776019518337;-0.19989013671875;-0.00498046874999999;3.25999999176929;327;1 A
19.0876019518084;-0.199920654296875;-0.004974365234375;3.26999999174404;328;1 A
19.0976019517832;-0.19989013671875;-0.0049774169921875;3.2799999917188;329;1 A
19.1076019517579;-0.199920654296875;-0.00496826171875001;3.28999999169355;330;1 A
19.1176019517327;-0.199859619140625;-0.00498046874999999;3.2999999916683;331;1 A
19.1276019517074;-0.19989013671875;-0.004974365234375;3.30999999164305;332;1 A
19.1376019516822;-0.199951171875;-0.004974365234375;3.31999999161781;333;1 A
19.147601951657;-0.199920654296875;-0.004986572265625;3.32999999159256;334;1 A
19.1576019516317;-0.199920654296875;-0.004974365234375;3.33999999156731;335;1 A
19.1676019516065;-0.1998291015625;-0.0049774169921875;3.34999999154206;336;1 A
19.1776019515812;-0.199920654296875;-0.00496826171875001;3.35999999151682;337;1 A
19.187601951556;-0.199859619140625;-0.0049713134765625;3.36999999149157;338;1 A
19.1976019515307;-0.199981689453125;-0.004974365234375;3.37999999146632;339;1 A
19.2076019515055;-0.199951171875;-0.004974365234375;3.38999999144107;340;1 A
19.2176019514802;-0.199920654296875;-0.004974365234375;3.39999999141583;341;1 A
19.227601951455;-0.19989013671875;-0.00494995117187499;3.40999999139058;342;1 A
19.2376019514297;-0.19989013671875;-0.00494995117187499;3.41999999136533;343;1 A
19.2476019514045;-0.199859619140625;-0.00493469238281249;3.42999999134008;344;1 A
19.2576019513792;-0.199859619140625;-0.0049285888671875;3.43999999131483;345;1 A
19.267601951354;-0.199920654296875;-0.004931640625;3.44999999128959;346;1 A
19.2776019513287;-0.199951171875;-0.004931640625;3.45999999126434;347;1 A
19.2876019513035;-0.199951171875;-0.0049468994140625;3.46999999123909;348;1 A
19.2976019512782;-0.199951171875;-0.00495300292968751;3.47999999121384;349;1 A
19.307601951253;-0.199951171875;-0.00496520996093749;3.4899999911886;350;1 A
19.3176019512277;-0.199859619140625;-0.00496826171875001;3.49999999116335;351;1 A
19.3276019512025;-0.199859619140625;-0.0049774169921875;3.5099999911381;352;1 A
19.3376019511772;-0.199859619140625;-0.004974365234375;3.51999999111285;353;1 A
19.347601951152;-0.199951171875;-0.0049713134765625;3.52999999108761;354;1 A
19.3576019511268;-0.199951171875;-0.00496826171875001;3.53999999106236;355;1 A
19.3676019511015;-0.199920654296875;-0.00496826171875001;3.54999999103711;356;1 A
19.3776019510763;-0.199920654296875;-0.0049774169921875;3.55999999101186;357;1 A
19.387601951051;-0.199920654296875;-0.00498046874999999;3.56999999098662;358;1 A
19.3976019510258;-0.19989013671875;-0.00499877929687501;3.57999999096137;359;1 A
19.4076019510005;-0.199859619140625;-0.0050048828125;3.58999999093612;360;1 A
19.4176019509753;-0.199920654296875;-0.00502929687500001;3.59999999091087;361;1 A
19.42760195095;-0.199859619140625;-0.0050384521484375;3.60999999088563;362;1 A
19.4376019509248;-0.199920654296875;-0.00505981445312501;3.61999999086038;363;1 A
19.4476019508995;-0.19989013671875;-0.0050811767578125;3.62999999083513;364;1 A
19.4576019508743;-0.199951171875;-0.005078125;3.63999999080988;365;1 A
19.467601950849;-0.199920654296875;-0.00508728027343749;3.64999999078464;366;1 A
19.4776019508238;-0.199920654296875;-0.0050811767578125;3.65999999075939;367;1 A
19.4876019507985;-0.19989013671875;-0.00508728027343749;3.66999999073414;368;1 A
19.4976019507733;-0.199798583984375;-0.0050811767578125;3.67999999070889;369;1 A
19.507601950748;-0.199951171875;-0.005078125;3.68999999068365;370;1 A
19.5176019507228;-0.199859619140625;-0.005078125;3.6999999906584;371;1 A
19.5276019506975;-0.199981689453125;-0.005035400390625;3.70999999063315;372;1 A
19.5376019506723;-0.199920654296875;-0.0050628662109375;3.7199999906079;373;1 A
19.547601950647;-0.199951171875;-0.0050537109375;3.72999999058266;374;1 A
19.5576019506218;-0.19989013671875;-0.0050628662109375;3.73999999055741;375;1 A
19.5676019505966;-0.199859619140625;-0.00507202148437499;3.74999999053216;376;1 A
19.5776019505713;-0.19989013671875;-0.0050811767578125;3.75999999050691;377;1 A
19.5876019505461;-0.19989013671875;-0.0050933837890625;3.76999999048167;378;1 A
19.5976019505208;-0.19989013671875;-0.005108642578125;3.77999999045642;379;1 A
19.6076019504956;-0.199951171875;-0.00512084960937501;3.78999999043117;380;1 A
19.6176019504703;-0.199951171875;-0.0051300048828125;3.79999999040592;381;1 A
19.6276019504451;-0.199981689453125;-0.0051422119140625;3.80999999038067;382;1 A
19.6376019504198;-0.199920654296875;-0.00514831542968749;3.81999999035543;383;1 A
19.6476019503946;-0.19989013671875;-0.00515136718750001;3.82999999033018;384;1 A
19.6576019503693;-0.19989013671875;-0.00515136718750001;3.83999999030493;385;1 A
19.6676019503441;-0.1998291015625;-0.0051544189453125;3.84999999027968;386;1 A
19.6776019503188;-0.199920654296875;-0.0051605224609375;3.85999999025444;387;1 A
19.6876019502936;-0.19989013671875;-0.005157470703125;3.86999999022919;388;1 A
19.6976019502683;-0.199920654296875;-0.005169677734375;3.87999999020394;389;1 A
19.7076019502431;-0.199920654296875;-0.0051605224609375;3.88999999017869;390;1 A
19.7176019502178;-0.19989013671875;-0.0051727294921875;3.89999999015345;391;1 A
19.7276019501926;-0.199951171875;-0.00516357421874999;3.9099999901282;392;1 A
19.7376019501673;-0.1998291015625;-0.00517883300781249;3.91999999010295;393;1 A
19.7476019501421;-0.199920654296875;-0.0051910400390625;3.9299999900777;394;1 A
19.7576019501169;-0.19989013671875;-0.0051910400390625;3.93999999005246;395;1 A
19.7676019500916;-0.199981689453125;-0.005206298828125;3.94999999002721;396;1 A
19.7776019500664;-0.19989013671875;-0.00519714355468751;3.95999999000196;397;1 A
19.7876019500411;-0.199951171875;-0.00520935058593749;3.96999998997671;398;1 A
19.7976019500159;-0.199951171875;-0.00520935058593749;3.97999998995147;399;1 A
19.8076019499906;-0.199920654296875;-0.0052154541015625;3.98999998992622;400;1 A
19.8176019499654;-0.199920654296875;-0.005218505859375;3.99999998990097;401;1 A
19.8276019499401;-0.199859619140625;-0.0052154541015625;4.00999998987572;402;1 A
19.8376019499149;-0.19989013671875;-0.00524291992187501;4.01999998985048;403;1 A
19.8476019498896;-0.19989013671875;-0.00525512695312499;4.02999998982523;404;1 A
19.8576019498644;-0.199920654296875;-0.005279541015625;4.03999998979998;405;1 A
19.8676019498391;-0.199920654296875;-0.0052978515625;4.04999998977473;406;1 A
19.8776019498139;-0.20001220703125;-0.0053131103515625;4.05999998974949;407;1 A
19.8876019497886;-0.199859619140625;-0.0053253173828125;4.06999998972424;408;1 A
19.8976019497634;-0.199920654296875;-0.0053375244140625;4.07999998969899;409;1 A
19.9076019497381;-0.199920654296875;-0.005340576171875;4.08999998967374;410;1 A
19.9176019497129;-0.19989013671875;-0.0053436279296875;4.0999999896485;411;1 A
19.9276019496876;-0.199951171875;-0.00535888671875;4.10999998962325;412;1 A
19.9376019496624;-0.19989013671875;-0.00535888671875;4.119999989598;413;1 A
19.9476019496371;-0.199951171875;-0.0053680419921875;4.12999998957275;414;1 A
19.9576019496119;-0.199920654296875;-0.0053680419921875;4.1399999895475;415;1 A
19.9676019495867;-0.199920654296875;-0.00537719726562499;4.14999998952226;416;1 A
19.9776019495614;-0.199859619140625;-0.0053741455078125;4.15999998949701;417;1 A
19.9876019495362;-0.199920654296875;-0.0053741455078125;4.16999998947176;418;1 A
19.9976019495109;-0.19989013671875;-0.0053741455078125;4.17999998944651;419;1 A
20.0076019494857;-0.19989013671875;-0.005352783203125;4.18999998942127;420;1 A
20.0176019494604;-0.19989013671875;-0.005352783203125;4.19999998939602;421;1 A
20.0276019494352;-0.19989013671875;-0.0053253173828125;4.20999998937077;422;1 A
20.0376019494099;-0.199920654296875;-0.005322265625;4.21999998934552;423;1 A
20.0476019493847;-0.199920654296875;-0.0053253173828125;4.22999998932028;424;1 A
20.0576019493594;-0.199859619140625;-0.00531616210937499;4.23999998929503;425;1 A
20.0676019493342;-0.199859619140625;-0.00531616210937499;4.24999998926978;426;1 A
20.0776019493089;-0.19989013671875;-0.0053070068359375;4.25999998924453;427;1 A
20.0876019492837;-0.199920654296875;-0.0053131103515625;4.26999998921929;428;1 A
20.0976019492584;-0.199951171875;-0.0053070068359375;4.27999998919404;429;1 A
20.1076019492332;-0.19989013671875;-0.00531921386718751;4.28999998916879;430;1 A
20.1176019492079;-0.20001220703125;-0.00531921386718751;4.29999998914354;431;1 A
20.1276019491827;-0.19989013671875;-0.00530090332031249;4.3099999891183;432;1 A
20.1376019491574;-0.199951171875;-0.0052947998046875;4.31999998909305;433;1 A
20.1476019491322;-0.199951171875;-0.00528869628906251;4.3299999890678;434;1 A
20.1576019491069;-0.199859619140625;-0.00528869628906251;4.33999998904255;435;1 A
20.1676019490817;-0.199920654296875;-0.0052947998046875;4.34999998901731;436;1 A
20.1776019490565;-0.199920654296875;-0.0052947998046875;4.35999998899206;437;1 A
20.1876019490312;-0.19989013671875;-0.00528869628906251;4.36999998896681;438;1 A
20.197601949006;-0.199920654296875;-0.00528869628906251;4.37999998894156;439;1 A
20.2076019489807;-0.20001220703125;-0.00527343750000001;4.38999998891632;440;1 A
20.2176019489555;-0.199920654296875;-0.005267333984375;4.39999998889107;441;1 A
20.2276019489302;-0.19989013671875;-0.005267333984375;4.40999998886582;442;1 A
20.237601948905;-0.19989013671875;-0.0052520751953125;4.41999998884057;443;1 A
20.2476019488797;-0.19989013671875;-0.0052520751953125;4.42999998881533;444;1 A
20.2576019488545;-0.199859619140625;-0.00522766113281251;4.43999998879008;445;1 A
20.2676019488292;-0.199920654296875;-0.00522460937499999;4.44999998876483;446;1 A
20.277601948804;-0.199951171875;-0.00520935058593749;4.45999998873958;447;1 A
20.2876019487787;-0.199981689453125;-0.00520935058593749;4.46999998871433;448;1 A
20.2976019487535;-0.199951171875;-0.0052001953125;4.47999998868909;449;1 A
20.3076019487282;-0.19989013671875;-0.00517578125;4.48999998866384;450;1 A
20.317601948703;-0.199920654296875;-0.0051727294921875;4.49999998863859;451;1 A
20.3276019486777;-0.19989013671875;-0.0051422119140625;4.50999998861334;452;1 A
20.3376019486525;-0.199920654296875;-0.00513610839843751;4.5199999885881;453;1 A
20.3476019486272;-0.199981689453125;-0.00511779785156249;4.52999998856285;454;1 A
20.357601948602;-0.20001220703125;-0.00509033203125001;4.5399999885376;455;1 A
20.3676019485767;-0.199920654296875;-0.00507507324218751;4.54999998851235;456;1 A
20.3776019485515;-0.199981689453125;-0.005047607421875;4.55999998848711;457;1 A
20.3876019485263;-0.199951171875;-0.0050323486328125;4.56999998846186;458;1 A
20.397601948501;-0.19989013671875;-0.0050201416015625;4.57999998843661;459;1 A
20.4076019484758;-0.199920654296875;-0.00502624511718749;4.58999998841136;460;1 A
20.4176019484505;-0.199859619140625;-0.005023193359375;4.59999998838612;461;1 A
20.4276019484253;-0.199920654296875;-0.005023193359375;4.60999998836087;462;1 A
20.4376019484;-0.199951171875;-0.005035400390625;4.61999998833562;463;1 A
20.4476019483748;-0.19989013671875;-0.00504150390624999;4.62999998831037;464;1 A
20.4576019483495;-0.19989013671875;-0.005047607421875;4.63999998828513;465;1 A
20.4676019483243;-0.19989013671875;-0.0050506591796875;4.64999998825988;466;1 A
20.477601948299;-0.199920654296875;-0.0050506591796875;4.65999998823463;467;1 A
20.4876019482738;-0.199951171875;-0.005035400390625;4.66999998820938;468;1 A
20.4976019482485;-0.199920654296875;-0.005035400390625;4.67999998818414;469;1 A
20.5076019482233;-0.20001220703125;-0.0050201416015625;4.68999998815889;470;1 A
20.517601948198;-0.199951171875;-0.005023193359375;4.69999998813364;471;1 A
20.5276019481728;-0.199920654296875;-0.00502624511718749;4.70999998810839;472;1 A
20.5376019481475;-0.199920654296875;-0.00502624511718749;4.71999998808315;473;1 A
20.5476019481223;-0.19989013671875;-0.005035400390625;4.7299999880579;474;1 A
20.557601948097;-0.199859619140625;-0.0050323486328125;4.73999998803265;475;1 A
20.5676019480718;-0.199859619140625;-0.005047607421875;4.7499999880074;476;1 A
20.5776019480465;-0.19989013671875;-0.0050384521484375;4.75999998798216;477;1 A
20.5876019480213;-0.20001220703125;-0.0050506591796875;4.76999998795691;478;1 A
20.5976019479961;-0.199981689453125;-0.0050506591796875;4.77999998793166;479;1 A
20.6076019479708;-0.19989013671875;-0.00504150390624999;4.78999998790641;480;1 A
20.6176019479456;-0.19989013671875;-0.0050506591796875;4.79999998788116;481;1 A
20.6276019479203;-0.19989013671875;-0.0050384521484375;4.80999998785592;482;1 A
20.6376019478951;-0.199859619140625;-0.00505981445312501;4.81999998783067;483;1 A
20.6476019478698;-0.199951171875;-0.0050689697265625;4.82999998780542;484;1 A
20.6576019478446;-0.199951171875;-0.005084228515625;4.83999998778017;485;1 A
20.6676019478193;-0.199951171875;-0.0050994873046875;4.84999998775493;486;1 A
20.6776019477941;-0.199920654296875;-0.00511779785156249;4.85999998772968;487;1 A
20.6876019477688;-0.199859619140625;-0.00513305664062499;4.86999998770443;488;1 A
20.6976019477436;-0.19989013671875;-0.005145263671875;4.87999998767918;489;1 A
20.7076019477183;-0.19989013671875;-0.00516662597656251;4.88999998765394;490;1 A
20.7176019476931;-0.19989013671875;-0.00517578125;4.89999998762869;491;1 A
20.7276019476678;-0.19989013671875;-0.00518188476562501;4.90999998760344;492;1 A
20.7376019476426;-0.19989013671875;-0.0051910400390625;4.91999998757819;493;1 A
20.7476019476173;-0.199951171875;-0.0052001953125;4.92999998755295;494;1 A
20.7576019475921;-0.20001220703125;-0.005218505859375;4.9399999875277;495;1 A
20.7676019475668;-0.200042724609375;-0.0052337646484375;4.94999998750245;496;1 A
20.7776019475416;-0.19989013671875;-0.0052337646484375;4.9599999874772;497;1 A
20.7876019475164;-0.199859619140625;-0.005230712890625;4.96999998745196;498;1 A
20.7976019474911;-0.19989013671875;-0.0052337646484375;4.97999998742671;499;1 A
20.8076019474659;-0.19989013671875;-0.00521240234375001;4.98999998740146;500;1 A
20.8176019474406;-0.199951171875;-0.005218505859375;4.99999998737621;501;1 A
20.8276019474154;-0.199951171875;-0.00520935058593749;5.00999998735097;502;1 A
20.8376019473901;-0.199951171875;-0.0052032470703125;5.01999998732572;503;1 A
20.8476019473649;-0.199951171875;-0.005206298828125;5.02999998730047;504;1 A
20.8576019473396;-0.19989013671875;-0.0052001953125;5.03999998727522;505;1 A
20.8676019473144;-0.199951171875;-0.005206298828125;5.04999998724998;506;1 A
20.8776019472891;-0.199859619140625;-0.00519409179687499;5.05999998722473;507;1 A
20.8876019472639;-0.199859619140625;-0.00519714355468751;5.06999998719948;508;1 A
20.8976019472386;-0.199920654296875;-0.0051910400390625;5.07999998717423;509;1 A
20.9076019472134;-0.199920654296875;-0.00519714355468751;5.08999998714899;510;1 A
20.9176019471881;-0.199951171875;-0.0052001953125;5.09999998712374;511;1 A
20.9276019471629;-0.199951171875;-0.00518798828125;5.10999998709849;512;1 A
20.9376019471376;-0.199951171875;-0.00519714355468751;5.11999998707324;513;1 A
20.9476019471124;-0.1998291015625;-0.0051910400390625;5.129999987048;514;1 A
20.9576019470871;-0.199920654296875;-0.0052032470703125;5.13999998702275;515;1 A
20.9676019470619;-0.19989013671875;-0.005206298828125;5.1499999869975;516;1 A
20.9776019470366;-0.199920654296875;-0.0052032470703125;5.15999998697225;517;1 A
20.9876019470114;-0.199920654296875;-0.00520935058593749;5.169999986947;518;1 A
20.9976019469862;-0.199920654296875;-0.005206298828125;5.17999998692176;519;1 A
21.0076019469609;-0.19989013671875;-0.0052154541015625;5.18999998689651;520;1 A
21.0176019469357;-0.199951171875;-0.005206298828125;5.19999998687126;521;1 A
21.0276019469104;-0.199859619140625;-0.0052032470703125;5.20999998684601;522;1 A
21.0376019468852;-0.199920654296875;-0.0052032470703125;5.21999998682077;523;1 A
21.0476019468599;-0.1998291015625;-0.005206298828125;5.22999998679552;524;1 A
21.0576019468347;-0.199920654296875;-0.005206298828125;5.23999998677027;525;1 A
21.0676019468094;-0.199951171875;-0.00520935058593749;5.24999998674502;526;1 A
21.0776019467842;-0.199920654296875;-0.00520935058593749;5.25999998671978;527;1 A
21.0876019467589;-0.199920654296875;-0.005206298828125;5.26999998669453;528;1 A
21.0976019467337;-0.19989013671875;-0.00521240234375001;5.27999998666928;529;1 A
21.1076019467084;-0.199920654296875;-0.0052032470703125;5.28999998664403;530;1 A
21.1176019466832;-0.19989013671875;-0.0052154541015625;5.29999998661879;531;1 A
21.1276019466579;-0.199951171875;-0.005218505859375;5.30999998659354;532;1 A
21.1376019466327;-0.1998291015625;-0.00522460937499999;5.31999998656829;533;1 A
21.1476019466074;-0.199920654296875;-0.00523681640625;5.32999998654304;534;1 A
21.1576019465822;-0.199920654296875;-0.005230712890625;5.3399999865178;535;1 A
21.1676019465569;-0.199951171875;-0.0052459716796875;5.34999998649255;536;1 A
21.1776019465317;-0.199951171875;-0.00523681640625;5.3599999864673;537;1 A
21.1876019465064;-0.199920654296875;-0.00525512695312499;5.36999998644205;538;1 A
21.1976019464812;-0.19989013671875;-0.0052520751953125;5.37999998641681;539;1 A
21.207601946456;-0.19989013671875;-0.0052490234375;5.38999998639156;540;1 A
21.2176019464307;-0.19989013671875;-0.00525512695312499;5.39999998636631;541;1 A
21.2276019464055;-0.199951171875;-0.00525512695312499;5.40999998634106;542;1 A
21.2376019463802;-0.199981689453125;-0.005279541015625;5.41999998631582;543;1 A
21.247601946355;-0.199920654296875;-0.0052978515625;5.42999998629057;544;1 A
21.2576019463297;-0.19989013671875;-0.00531921386718751;5.43999998626532;545;1 A
21.2676019463045;-0.199920654296875;-0.005328369140625;5.44999998624007;546;1 A
21.2776019462792;-0.19989013671875;-0.00533447265625001;5.45999998621483;547;1 A
21.287601946254;-0.19989013671875;-0.00534667968749999;5.46999998618958;548;1 A
21.2976019462287;-0.199920654296875;-0.00535888671875;5.47999998616433;549;1 A
21.3076019462035;-0.199920654296875;-0.0053741455078125;5.48999998613908;550;1 A
21.3176019461782;-0.199920654296875;-0.0053863525390625;5.49999998611383;551;1 A
21.327601946153;-0.20001220703125;-0.00539245605468749;5.50999998608859;552;1 A
21.3376019461277;-0.199981689453125;-0.00539245605468749;5.51999998606334;553;1 A
21.3476019461025;-0.199951171875;-0.0054046630859375;5.52999998603809;554;1 A
21.3576019460772;-0.19989013671875;-0.00541076660156251;5.53999998601284;555;1 A
21.367601946052;-0.199920654296875;-0.005413818359375;5.5499999859876;556;1 A
21.3776019460267;-0.19989013671875;-0.00540771484374999;5.55999998596235;557;1 A
21.3876019460015;-0.199951171875;-0.00540771484374999;5.5699999859371;558;1 A
21.3976019459762;-0.199920654296875;-0.0054168701171875;5.57999998591185;559;1 A
21.407601945951;-0.199951171875;-0.00541076660156251;5.58999998588661;560;1 A
21.4176019459258;-0.199951171875;-0.00542602539062501;5.59999998586136;561;1 A
21.4276019459005;-0.19989013671875;-0.005413818359375;5.60999998583611;562;1 A
21.4376019458753;-0.199920654296875;-0.00540771484374999;5.61999998581086;563;1 A
21.44760194585;-0.199859619140625;-0.0054046630859375;5.62999998578562;564;1 A
21.4576019458248;-0.199920654296875;-0.005389404296875;5.63999998576037;565;1 A
21.4676019457995;-0.199920654296875;-0.005389404296875;5.64999998573512;566;1 A
21.4776019457743;-0.199981689453125;-0.0053680419921875;5.65999998570987;567;1 A
21.487601945749;-0.199920654296875;-0.0053680419921875;5.66999998568463;568;1 A
21.4976019457238;-0.20001220703125;-0.00534667968749999;5.67999998565938;569;1 A
21.5076019456985;-0.19989013671875;-0.00533447265625001;5.68999998563413;570;1 A
21.5176019456733;-0.199920654296875;-0.005322265625;5.69999998560888;571;1 A
21.527601945648;-0.199859619140625;-0.0052947998046875;5.70999998558364;572;1 A
21.5376019456228;-0.199859619140625;-0.0052947998046875;5.71999998555839;573;1 A
21.5476019455975;-0.199951171875;-0.00528869628906251;5.72999998553314;574;1 A
21.5576019455723;-0.19989013671875;-0.00528564453124999;5.73999998550789;575;1 A
21.567601945547;-0.199951171875;-0.0052825927734375;5.74999998548265;576;1 A
21.5776019455218;-0.199951171875;-0.005279541015625;5.7599999854574;577;1 A
21.5876019454965;-0.199920654296875;-0.0052764892578125;5.76999998543215;578;1 A
21.5976019454713;-0.199859619140625;-0.0052825927734375;5.7799999854069;579;1 A
21.607601945446;-0.199951171875;-0.00528869628906251;5.78999998538166;580;1 A
21.6176019454208;-0.19989013671875;-0.00528869628906251;5.79999998535641;581;1 A
21.6276019453956;-0.199920654296875;-0.0052825927734375;5.80999998533116;582;1 A
21.6376019453703;-0.199920654296875;-0.00527343750000001;5.81999998530591;583;1 A
21.6476019453451;-0.199951171875;-0.00527343750000001;5.82999998528066;584;1 A
21.6576019453198;-0.199951171875;-0.00525817871093751;5.83999998525542;585;1 A
21.6676019452946;-0.199951171875;-0.005267333984375;5.84999998523017;586;1 A
21.6776019452693;-0.19989013671875;-0.00526123046875;5.85999998520492;587;1 A
21.6876019452441;-0.19989013671875;-0.0052520751953125;5.86999998517967;588;1 A
21.6976019452188;-0.199920654296875;-0.0052520751953125;5.87999998515443;589;1 A
21.7076019451936;-0.199920654296875;-0.0052215576171875;5.88999998512918;590;1 A
21.7176019451683;-0.199951171875;-0.00522460937499999;5.89999998510393;591;1 A
21.7276019451431;-0.199859619140625;-0.0052032470703125;5.90999998507868;592;1 A
21.7376019451178;-0.199981689453125;-0.0052001953125;5.91999998505344;593;1 A
21.7476019450926;-0.199859619140625;-0.00519409179687499;5.92999998502819;594;1 A
21.7576019450673;-0.199920654296875;-0.0051849365234375;5.93999998500294;595;1 A
21.7676019450421;-0.199981689453125;-0.00518798828125;5.94999998497769;596;1 A
21.7776019450168;-0.19989013671875;-0.0051727294921875;5.95999998495245;597;1 A
21.7876019449916;-0.19989013671875;-0.00518798828125;5.9699999849272;598;1 A
21.7976019449663;-0.19989013671875;-0.0051849365234375;5.97999998490195;599;1 A
21.8076019449411;-0.199951171875;-0.00517883300781249;5.9899999848767;600;1 A
21.8176019449159;-0.199859619140625;-0.00517883300781249;5.99999998485146;601;1 A
21.8276019448906;-0.199920654296875;-0.00516357421874999;6.00999998482621;602;1 A
21.8376019448654;-0.19989013671875;-0.005157470703125;6.01999998480096;603;1 A
21.8476019448401;-0.199920654296875;-0.00514831542968749;6.02999998477571;604;1 A
21.8576019448149;-0.1998291015625;-0.0051422119140625;6.03999998475047;605;1 A
21.8676019447896;-0.199920654296875;-0.0051239013671875;6.04999998472522;606;1 A
21.8776019447644;-0.199859619140625;-0.00511779785156249;6.05999998469997;607;1 A
21.8876019447391;-0.199951171875;-0.0050994873046875;6.06999998467472;608;1 A
21.8976019447139;-0.199920654296875;-0.00510253906249999;6.07999998464948;609;1 A
21.9076019446886;-0.19989013671875;-0.005096435546875;6.08999998462423;610;1 A
21.9176019446634;-0.19989013671875;-0.00508728027343749;6.09999998459898;611;1 A
21.9276019446381;-0.199859619140625;-0.005084228515625;6.10999998457373;612;1 A
21.9376019446129;-0.199920654296875;-0.00508728027343749;6.11999998454849;613;1 A
21.9476019445876;-0.199920654296875;-0.005096435546875;6.12999998452324;614;1 A
21.9576019445624;-0.199951171875;-0.00509033203125001;6.13999998449799;615;1 A
21.9676019445371;-0.19989013671875;-0.00510559082031251;6.14999998447274;616;1 A
21.9776019445119;-0.199951171875;-0.00508728027343749;6.1599999844475;617;1 A
21.9876019444866;-0.19989013671875;-0.0050811767578125;6.16999998442225;618;1 A
21.9976019444614;-0.19989013671875;-0.0050811767578125;6.179999984397;619;1 A
22.0076019444361;-0.199859619140625;-0.00505981445312501;6.18999998437175;620;1 A
22.0176019444109;-0.199859619140625;-0.00507202148437499;6.1999999843465;621;1 A
22.0276019443857;-0.199920654296875;-0.00506591796875;6.20999998432126;622;1 A
22.0376019443604;-0.19989013671875;-0.005078125;6.21999998429601;623;1 A
22.0476019443352;-0.199920654296875;-0.005078125;6.22999998427076;624;1 A
22.0576019443099;-0.199951171875;-0.00508728027343749;6.23999998424551;625;1 A
22.0676019442847;-0.199920654296875;-0.00508728027343749;6.24999998422027;626;1 A
22.0776019442594;-0.199920654296875;-0.0050811767578125;6.25999998419502;627;1 A
22.0876019442342;-0.199920654296875;-0.00509033203125001;6.26999998416977;628;1 A
22.0976019442089;-0.1998291015625;-0.0050811767578125;6.27999998414452;629;1 A
22.1076019441837;-0.199920654296875;-0.0050689697265625;6.28999998411928;630;1 A
22.1176019441584;-0.199951171875;-0.00505981445312501;6.29999998409403;631;1 A
22.1276019441332;-0.199920654296875;-0.0050537109375;6.30999998406878;632;1 A
22.1376019441079;-0.199981689453125;-0.0050537109375;6.31999998404353;633;1 A
22.1476019440827;-0.199920654296875;-0.0050537109375;6.32999998401829;634;1 A
22.1576019440574;-0.199951171875;-0.0050506591796875;6.33999998399304;635;1 A
22.1676019440322;-0.199859619140625;-0.00504150390624999;6.34999998396779;636;1 A
22.1776019440069;-0.19989013671875;-0.00502929687500001;6.35999998394254;637;1 A
22.1876019439817;-0.19989013671875;-0.00501098632812499;6.3699999839173;638;1 A
22.1976019439564;-0.199920654296875;-0.0050201416015625;6.37999998389205;639;1 A
22.2076019439312;-0.19989013671875;-0.00502624511718749;6.3899999838668;640;1 A
22.2176019439059;-0.199920654296875;-0.0050323486328125;6.39999998384155;641;1 A
22.2276019438807;-0.199920654296875;-0.0050323486328125;6.40999998381631;642;1 A
22.2376019438555;-0.199951171875;-0.005035400390625;6.41999998379106;643;1 A
22.2476019438302;-0.19989013671875;-0.00504455566406251;6.42999998376581;644;1 A
22.257601943805;-0.199859619140625;-0.00504455566406251;6.43999998374056;645;1 A
22.2676019437797;-0.199951171875;-0.0050628662109375;6.44999998371532;646;1 A
22.2776019437545;-0.19989013671875;-0.0050628662109375;6.45999998369007;647;1 A
22.2876019437292;-0.199951171875;-0.0050689697265625;6.46999998366482;648;1 A
22.297601943704;-0.199951171875;-0.005078125;6.47999998363957;649;1 A
22.3076019436787;-0.199920654296875;-0.00507507324218751;6.48999998361433;650;1 A
22.3176019436535;-0.199920654296875;-0.00508728027343749;6.49999998358908;651;1 A
22.3276019436282;-0.199920654296875;-0.0050811767578125;6.50999998356383;652;1 A
22.337601943603;-0.1998291015625;-0.00509033203125001;6.51999998353858;653;1 A
22.3476019435777;-0.19989013671875;-0.00508728027343749;6.52999998351333;654;1 A
22.3576019435525;-0.199920654296875;-0.00508728027343749;6.53999998348809;655;1 A
22.3676019435272;-0.19989013671875;-0.00508728027343749;6.54999998346284;656;1 A
22.377601943502;-0.199920654296875;-0.00508728027343749;6.55999998343759;657;1 A
22.3876019434767;-0.19989013671875;-0.00510559082031251;6.56999998341234;658;1 A
22.3976019434515;-0.199859619140625;-0.00511474609375;6.5799999833871;659;1 A
22.4076019434262;-0.19989013671875;-0.00513305664062499;6.58999998336185;660;1 A
22.417601943401;-0.19989013671875;-0.005145263671875;6.5999999833366;661;1 A
22.4276019433757;-0.199859619140625;-0.00515136718750001;6.60999998331135;662;1 A
22.4376019433505;-0.199920654296875;-0.005145263671875;6.61999998328611;663;1 A
22.4476019433253;-0.19989013671875;-0.00513916015625;6.62999998326086;664;1 A
22.4576019433;-0.199981689453125;-0.00511474609375;6.63999998323561;665;1 A
22.4676019432748;-0.199951171875;-0.0050933837890625;6.64999998321036;666;1 A
22.4776019432495;-0.199920654296875;-0.00507507324218751;6.65999998318512;667;1 A
22.4876019432243;-0.199920654296875;-0.0050537109375;6.66999998315987;668;1 A
22.497601943199;-0.199859619140625;-0.00505676269531249;6.67999998313462;669;1 A
22.5076019431738;-0.199859619140625;-0.00504455566406251;6.68999998310937;670;1 A
22.5176019431485;-0.19989013671875;-0.005047607421875;6.69999998308413;671;1 A
22.5276019431233;-0.199981689453125;-0.00502929687500001;6.70999998305888;672;1 A
22.537601943098;-0.199920654296875;-0.0050323486328125;6.71999998303363;673;1 A
22.5476019430728;-0.199981689453125;-0.005023193359375;6.72999998300838;674;1 A
22.5576019430475;-0.199859619140625;-0.0050079345703125;6.73999998298314;675;1 A
22.5676019430223;-0.199920654296875;-0.00501403808593751;6.74999998295789;676;1 A
22.577601942997;-0.19989013671875;-0.0049896240234375;6.75999998293264;677;1 A
22.5876019429718;-0.19989013671875;-0.0049896240234375;6.76999998290739;678;1 A
22.5976019429465;-0.19989013671875;-0.00499877929687501;6.77999998288215;679;1 A
22.6076019429213;-0.199951171875;-0.00499877929687501;6.7899999828569;680;1 A
22.617601942896;-0.199920654296875;-0.005023193359375;6.79999998283165;681;1 A
22.6276019428708;-0.19989013671875;-0.00502929687500001;6.8099999828064;682;1 A
22.6376019428455;-0.19989013671875;-0.00504455566406251;6.81999998278116;683;1 A
22.6476019428203;-0.19989013671875;-0.0050506591796875;6.82999998275591;684;1 A
22.6576019427951;-0.199920654296875;-0.00505981445312501;6.83999998273066;685;1 A
22.6676019427698;-0.199981689453125;-0.0050689697265625;6.84999998270541;686;1 A
22.6776019427446;-0.199951171875;-0.005078125;6.85999998268016;687;1 A
22.6876019427193;-0.199920654296875;-0.0050933837890625;6.86999998265492;688;1 A
22.6976019426941;-0.199981689453125;-0.005108642578125;6.87999998262967;689;1 A
22.7076019426688;-0.199920654296875;-0.00511779785156249;6.88999998260442;690;1 A
22.7176019426436;-0.199920654296875;-0.00511779785156249;6.89999998257917;691;1 A
22.7276019426183;-0.19989013671875;-0.00511779785156249;6.90999998255393;692;1 A
22.7376019425931;-0.19989013671875;-0.0051116943359375;6.91999998252868;693;1 A
22.7476019425678;-0.199981689453125;-0.00511779785156249;6.92999998250343;694;1 A
22.7576019425426;-0.199951171875;-0.00511779785156249;6.93999998247818;695;1 A
22.7676019425173;-0.199951171875;-0.00512084960937501;6.94999998245294;696;1 A
22.7776019424921;-0.199951171875;-0.0051239013671875;6.95999998242769;697;1 A
22.7876019424668;-0.199920654296875;-0.00511474609375;6.96999998240244;698;1 A
22.7976019424416;-0.199859619140625;-0.005126953125;6.97999998237719;699;1 A
22.8076019424163;-0.199920654296875;-0.0051239013671875;6.98999998235195;700;1 A
