Time (s);WE(1).Potential (V);WE(1).Current (A);Corrected time (s);Index;Current range
23.5428209405601;0.6005859375;1.04461669921875;0;1;1 A
23.5528209405348;0.600006103515625;0.75042724609375;0.00999999997475243;2;1 A
23.5628209405096;0.599639892578125;0.61737060546875;0.0199999999495049;3;1 A
23.5728209404843;0.599609375;0.5377197265625;0.0299999999242573;4;1 A
23.5828209404591;0.599639892578125;0.4827880859375;0.0399999998990097;5;1 A
23.5928209404339;0.599639892578125;0.442230224609375;0.0499999998737621;6;1 A
23.6028209404086;0.599609375;0.41064453125;0.0599999998485146;7;1 A
23.6128209403834;0.599700927734375;0.385498046875;0.069999999823267;8;1 A
23.6228209403581;0.5994873046875;0.364654541015625;0.0799999997980194;9;1 A
23.6328209403329;0.599639892578125;0.3472900390625;0.0899999997727718;10;1 A
23.6428209403076;0.599578857421875;0.332733154296875;0.0999999997475243;11;1 A
23.6528209402824;0.599517822265625;0.320068359375;0.109999999722277;12;1 A
23.6628209402571;0.599609375;0.309234619140625;0.119999999697029;13;1 A
23.6728209402319;0.599609375;0.299713134765625;0.129999999671782;14;1 A
23.6828209402066;0.599609375;0.291412353515625;0.139999999646534;15;1 A
23.6928209401814;0.599578857421875;0.28424072265625;0.149999999621286;16;1 A
23.7028209401561;0.599609375;0.27789306640625;0.159999999596039;17;1 A
23.7128209401309;0.59954833984375;0.27239990234375;0.169999999570791;18;1 A
23.7228209401056;0.599578857421875;0.2672119140625;0.179999999545544;19;1 A
23.7328209400804;0.599609375;0.26312255859375;0.189999999520296;20;1 A
23.7428209400551;0.59954833984375;0.2586669921875;0.199999999495049;21;1 A
23.7528209400299;0.599578857421875;0.255279541015625;0.209999999469801;22;1 A
23.7628209400046;0.599578857421875;0.251861572265625;0.219999999444553;23;1 A
23.7728209399794;0.599517822265625;0.24859619140625;0.229999999419306;24;1 A
23.7828209399541;0.599578857421875;0.245758056640625;0.239999999394058;25;1 A
23.7928209399289;0.599609375;0.2431640625;0.249999999368811;26;1 A
23.8028209399037;0.599456787109375;0.240753173828125;0.259999999343563;27;1 A
23.8128209398784;0.59954833984375;0.23834228515625;0.269999999318316;28;1 A
23.8228209398532;0.59954833984375;0.236480712890625;0.279999999293068;29;1 A
23.8328209398279;0.59954833984375;0.234375;0.28999999926782;30;1 A
23.8428209398027;0.59954833984375;0.232666015625;0.299999999242573;31;1 A
23.8528209397774;0.599700927734375;0.231109619140625;0.309999999217325;32;1 A
23.8628209397522;0.599517822265625;0.22930908203125;0.319999999192078;33;1 A
23.8728209397269;0.599578857421875;0.228118896484375;0.32999999916683;34;1 A
23.8828209397017;0.599578857421875;0.226470947265625;0.339999999141583;35;1 A
23.8928209396764;0.59954833984375;0.22528076171875;0.349999999116335;36;1 A
23.9028209396512;0.599639892578125;0.223876953125;0.359999999091087;37;1 A
23.9128209396259;0.599609375;0.22308349609375;0.36999999906584;38;1 A
23.9228209396007;0.599639892578125;0.221405029296875;0.379999999040592;39;1 A
23.9328209395754;0.599578857421875;0.22021484375;0.389999999015345;40;1 A
23.9428209395502;0.599578857421875;0.218994140625;0.399999998990097;41;1 A
23.9528209395249;0.599609375;0.217803955078125;0.40999999896485;42;1 A
23.9628209394997;0.59954833984375;0.21728515625;0.419999998939602;43;1 A
23.9728209394744;0.599609375;0.21661376953125;0.429999998914354;44;1 A
23.9828209394492;0.59954833984375;0.216217041015625;0.439999998889107;45;1 A
23.992820939424;0.599609375;0.215301513671875;0.449999998863859;46;1 A
24.0028209393987;0.59954833984375;0.214691162109375;0.459999998838612;47;1 A
24.0128209393735;0.599578857421875;0.2139892578125;0.469999998813364;48;1 A
24.0228209393482;0.599609375;0.213592529296875;0.479999998788116;49;1 A
24.032820939323;0.599639892578125;0.213714599609375;0.489999998762869;50;1 A
24.0428209392977;0.599578857421875;0.2130126953125;0.499999998737621;51;1 A
24.0528209392725;0.59954833984375;0.213287353515625;0.509999998712374;52;1 A
24.0628209392472;0.599578857421875;0.212860107421875;0.519999998687126;53;1 A
24.072820939222;0.599578857421875;0.212860107421875;0.529999998661879;54;1 A
24.0828209391967;0.599517822265625;0.2127685546875;0.539999998636631;55;1 A
24.0928209391715;0.599639892578125;0.212890625;0.549999998611383;56;1 A
24.1028209391462;0.59954833984375;0.21234130859375;0.559999998586136;57;1 A
24.112820939121;0.599578857421875;0.211517333984375;0.569999998560888;58;1 A
24.1228209390957;0.599609375;0.210784912109375;0.579999998535641;59;1 A
24.1328209390705;0.599578857421875;0.2095947265625;0.589999998510393;60;1 A
24.1428209390452;0.599578857421875;0.209014892578125;0.599999998485146;61;1 A
24.15282093902;0.599639892578125;0.208221435546875;0.609999998459898;62;1 A
24.1628209389947;0.59967041015625;0.207550048828125;0.61999999843465;63;1 A
24.1728209389695;0.599609375;0.206939697265625;0.629999998409403;64;1 A
24.1828209389442;0.599609375;0.206207275390625;0.639999998384155;65;1 A
24.192820938919;0.59954833984375;0.2059326171875;0.649999998358908;66;1 A
24.2028209388938;0.599578857421875;0.205474853515625;0.65999999833366;67;1 A
24.2128209388685;0.59954833984375;0.205780029296875;0.669999998308413;68;1 A
24.2228209388433;0.59954833984375;0.205078125;0.679999998283165;69;1 A
24.232820938818;0.599578857421875;0.205322265625;0.689999998257917;70;1 A
24.2428209387928;0.599609375;0.205108642578125;0.69999999823267;71;1 A
24.2528209387675;0.599609375;0.204925537109375;0.709999998207422;72;1 A
24.2628209387423;0.599578857421875;0.205047607421875;0.719999998182175;73;1 A
24.272820938717;0.59954833984375;0.20477294921875;0.729999998156927;74;1 A
24.2828209386918;0.59954833984375;0.2047119140625;0.73999999813168;75;1 A
24.2928209386665;0.599639892578125;0.2039794921875;0.749999998106432;76;1 A
24.3028209386413;0.59954833984375;0.203765869140625;0.759999998081184;77;1 A
24.312820938616;0.599639892578125;0.20318603515625;0.769999998055937;78;1 A
24.3228209385908;0.599578857421875;0.20306396484375;0.779999998030689;79;1 A
24.3328209385655;0.599700927734375;0.203216552734375;0.789999998005442;80;1 A
24.3428209385403;0.59954833984375;0.202789306640625;0.799999997980194;81;1 A
24.352820938515;0.599578857421875;0.203369140625;0.809999997954947;82;1 A
24.3628209384898;0.599578857421875;0.203460693359375;0.819999997929699;83;1 A
24.3728209384645;0.599517822265625;0.204315185546875;0.829999997904451;84;1 A
24.3828209384393;0.599578857421875;0.205078125;0.839999997879204;85;1 A
24.392820938414;0.59967041015625;0.206146240234375;0.849999997853956;86;1 A
24.4028209383888;0.599639892578125;0.206329345703125;0.859999997828709;87;1 A
24.4128209383636;0.599578857421875;0.20623779296875;0.869999997803461;88;1 A
24.4228209383383;0.599578857421875;0.205963134765625;0.879999997778214;89;1 A
24.4328209383131;0.59954833984375;0.2052001953125;0.889999997752966;90;1 A
24.4428209382878;0.599578857421875;0.2049560546875;0.899999997727718;91;1 A
24.4528209382626;0.599578857421875;0.204498291015625;0.909999997702471;92;1 A
24.4628209382373;0.59954833984375;0.204315185546875;0.919999997677223;93;1 A
24.4728209382121;0.599517822265625;0.204010009765625;0.929999997651976;94;1 A
24.4828209381868;0.59954833984375;0.203643798828125;0.939999997626728;95;1 A
24.4928209381616;0.59967041015625;0.2037353515625;0.949999997601481;96;1 A
24.5028209381363;0.599609375;0.203765869140625;0.959999997576233;97;1 A
24.5128209381111;0.599578857421875;0.20440673828125;0.969999997550985;98;1 A
24.5228209380858;0.5994873046875;0.20416259765625;0.979999997525738;99;1 A
24.5328209380606;0.59954833984375;0.204864501953125;0.98999999750049;100;1 A
24.5428209380353;0.599578857421875;0.204986572265625;0.999999997475243;101;1 A
24.5528209380101;0.599578857421875;0.205322265625;1.00999999745;102;1 A
24.5628209379848;0.599609375;0.205780029296875;1.01999999742475;103;1 A
24.5728209379596;0.599609375;0.20611572265625;1.0299999973995;104;1 A
24.5828209379343;0.599517822265625;0.206329345703125;1.03999999737425;105;1 A
24.5928209379091;0.599578857421875;0.206085205078125;1.049999997349;106;1 A
24.6028209378838;0.599578857421875;0.206207275390625;1.05999999732376;107;1 A
24.6128209378586;0.599578857421875;0.206085205078125;1.06999999729851;108;1 A
24.6228209378334;0.599609375;0.206512451171875;1.07999999727326;109;1 A
24.6328209378081;0.599609375;0.20703125;1.08999999724801;110;1 A
24.6428209377829;0.599609375;0.207305908203125;1.09999999722277;111;1 A
24.6528209377576;0.599609375;0.2081298828125;1.10999999719752;112;1 A
24.6628209377324;0.59954833984375;0.20843505859375;1.11999999717227;113;1 A
24.6728209377071;0.599578857421875;0.209259033203125;1.12999999714702;114;1 A
24.6828209376819;0.59954833984375;0.20977783203125;1.13999999712178;115;1 A
24.6928209376566;0.599578857421875;0.21063232421875;1.14999999709653;116;1 A
24.7028209376314;0.599578857421875;0.2105712890625;1.15999999707128;117;1 A
24.7128209376061;0.59954833984375;0.21075439453125;1.16999999704603;118;1 A
24.7228209375809;0.599609375;0.2109375;1.17999999702079;119;1 A
24.7328209375556;0.599578857421875;0.2109375;1.18999999699554;120;1 A
24.7428209375304;0.59954833984375;0.211395263671875;1.19999999697029;121;1 A
24.7528209375051;0.59954833984375;0.211456298828125;1.20999999694504;122;1 A
24.7628209374799;0.59954833984375;0.211700439453125;1.2199999969198;123;1 A
24.7728209374546;0.599578857421875;0.211395263671875;1.22999999689455;124;1 A
24.7828209374294;0.59954833984375;0.211151123046875;1.2399999968693;125;1 A
24.7928209374041;0.599639892578125;0.21087646484375;1.24999999684405;126;1 A
24.8028209373789;0.59954833984375;0.210540771484375;1.25999999681881;127;1 A
24.8128209373536;0.599578857421875;0.210601806640625;1.26999999679356;128;1 A
24.8228209373284;0.599517822265625;0.209747314453125;1.27999999676831;129;1 A
24.8328209373032;0.599609375;0.209747314453125;1.28999999674306;130;1 A
24.8428209372779;0.599578857421875;0.209197998046875;1.29999999671782;131;1 A
24.8528209372527;0.599609375;0.20904541015625;1.30999999669257;132;1 A
24.8628209372274;0.599609375;0.208984375;1.31999999666732;133;1 A
24.8728209372022;0.599578857421875;0.20904541015625;1.32999999664207;134;1 A
24.8828209371769;0.599609375;0.2088623046875;1.33999999661683;135;1 A
24.8928209371517;0.59954833984375;0.2083740234375;1.34999999659158;136;1 A
24.9028209371264;0.599609375;0.20806884765625;1.35999999656633;137;1 A
24.9128209371012;0.59954833984375;0.2073974609375;1.36999999654108;138;1 A
24.9228209370759;0.599578857421875;0.207305908203125;1.37999999651583;139;1 A
24.9328209370507;0.599517822265625;0.207183837890625;1.38999999649059;140;1 A
24.9428209370254;0.599609375;0.20697021484375;1.39999999646534;141;1 A
24.9528209370002;0.599578857421875;0.20697021484375;1.40999999644009;142;1 A
24.9628209369749;0.599609375;0.206390380859375;1.41999999641484;143;1 A
24.9728209369497;0.599578857421875;0.20623779296875;1.4299999963896;144;1 A
24.9828209369244;0.599609375;0.20599365234375;1.43999999636435;145;1 A
24.9928209368992;0.59954833984375;0.2064208984375;1.4499999963391;146;1 A
25.0028209368739;0.599578857421875;0.20599365234375;1.45999999631385;147;1 A
25.0128209368487;0.599609375;0.2059326171875;1.46999999628861;148;1 A
25.0228209368235;0.599578857421875;0.20562744140625;1.47999999626336;149;1 A
25.0328209367982;0.59954833984375;0.2052001953125;1.48999999623811;150;1 A
25.042820936773;0.59954833984375;0.2052001953125;1.49999999621286;151;1 A
25.0528209367477;0.599578857421875;0.204986572265625;1.50999999618762;152;1 A
25.0628209367225;0.599517822265625;0.205230712890625;1.51999999616237;153;1 A
25.0728209366972;0.59967041015625;0.205078125;1.52999999613712;154;1 A
25.082820936672;0.599517822265625;0.205169677734375;1.53999999611187;155;1 A
25.0928209366467;0.599578857421875;0.205169677734375;1.54999999608663;156;1 A
25.1028209366215;0.599517822265625;0.205322265625;1.55999999606138;157;1 A
25.1128209365962;0.59954833984375;0.205780029296875;1.56999999603613;158;1 A
25.122820936571;0.599609375;0.205474853515625;1.57999999601088;159;1 A
25.1328209365457;0.59954833984375;0.205810546875;1.58999999598564;160;1 A
25.1428209365205;0.599639892578125;0.205230712890625;1.59999999596039;161;1 A
25.1528209364952;0.599578857421875;0.205047607421875;1.60999999593514;162;1 A
25.16282093647;0.59954833984375;0.2047119140625;1.61999999590989;163;1 A
25.1728209364447;0.599578857421875;0.204620361328125;1.62999999588465;164;1 A
25.1828209364195;0.59954833984375;0.20404052734375;1.6399999958594;165;1 A
25.1928209363942;0.599578857421875;0.203460693359375;1.64999999583415;166;1 A
25.202820936369;0.59967041015625;0.203094482421875;1.6599999958089;167;1 A
25.2128209363437;0.59954833984375;0.202423095703125;1.66999999578366;168;1 A
25.2228209363185;0.59954833984375;0.202301025390625;1.67999999575841;169;1 A
25.2328209362933;0.599578857421875;0.201934814453125;1.68999999573316;170;1 A
25.242820936268;0.599517822265625;0.201904296875;1.69999999570791;171;1 A
25.2528209362428;0.599609375;0.201995849609375;1.70999999568267;172;1 A
25.2628209362175;0.599578857421875;0.201812744140625;1.71999999565742;173;1 A
25.2728209361923;0.59967041015625;0.2021484375;1.72999999563217;174;1 A
25.282820936167;0.599639892578125;0.20220947265625;1.73999999560692;175;1 A
25.2928209361418;0.599609375;0.203155517578125;1.74999999558167;176;1 A
25.3028209361165;0.599517822265625;0.203216552734375;1.75999999555643;177;1 A
25.3128209360913;0.599609375;0.204071044921875;1.76999999553118;178;1 A
25.322820936066;0.599517822265625;0.20452880859375;1.77999999550593;179;1 A
25.3328209360408;0.599609375;0.204986572265625;1.78999999548068;180;1 A
25.3428209360155;0.599578857421875;0.2056884765625;1.79999999545544;181;1 A
25.3528209359903;0.599639892578125;0.2060546875;1.80999999543019;182;1 A
25.362820935965;0.599639892578125;0.20654296875;1.81999999540494;183;1 A
25.3728209359398;0.59954833984375;0.206451416015625;1.82999999537969;184;1 A
25.3828209359145;0.599578857421875;0.206695556640625;1.83999999535445;185;1 A
25.3928209358893;0.59954833984375;0.206573486328125;1.8499999953292;186;1 A
25.402820935864;0.599517822265625;0.20648193359375;1.85999999530395;187;1 A
25.4128209358388;0.59954833984375;0.20623779296875;1.8699999952787;188;1 A
25.4228209358135;0.599609375;0.205169677734375;1.87999999525346;189;1 A
25.4328209357883;0.599609375;0.204742431640625;1.88999999522821;190;1 A
25.4428209357631;0.599639892578125;0.203704833984375;1.89999999520296;191;1 A
25.4528209357378;0.599609375;0.20330810546875;1.90999999517771;192;1 A
25.4628209357126;0.599578857421875;0.2027587890625;1.91999999515247;193;1 A
25.4728209356873;0.59954833984375;0.202667236328125;1.92999999512722;194;1 A
25.4828209356621;0.59954833984375;0.2022705078125;1.93999999510197;195;1 A
25.4928209356368;0.599609375;0.202117919921875;1.94999999507672;196;1 A
25.5028209356116;0.599639892578125;0.20196533203125;1.95999999505148;197;1 A
25.5128209355863;0.599609375;0.201416015625;1.96999999502623;198;1 A
25.5228209355611;0.599609375;0.201263427734375;1.97999999500098;199;1 A
25.5328209355358;0.599609375;0.20074462890625;1.98999999497573;200;1 A
25.5428209355106;0.59954833984375;0.200592041015625;1.99999999495049;201;1 A
25.5528209354853;0.599578857421875;0.200439453125;2.00999999492524;202;1 A
25.5628209354601;0.599609375;0.20050048828125;2.01999999489999;203;1 A
25.5728209354348;0.599517822265625;0.2008056640625;2.02999999487474;204;1 A
25.5828209354096;0.599517822265625;0.200775146484375;2.0399999948495;205;1 A
25.5928209353843;0.599609375;0.201202392578125;2.04999999482425;206;1 A
25.6028209353591;0.599578857421875;0.20074462890625;2.059999994799;207;1 A
25.6128209353338;0.599609375;0.201080322265625;2.06999999477375;208;1 A
25.6228209353086;0.599578857421875;0.200836181640625;2.0799999947485;209;1 A
25.6328209352833;0.599517822265625;0.200775146484375;2.08999999472326;210;1 A
25.6428209352581;0.59954833984375;0.200927734375;2.09999999469801;211;1 A
25.6528209352329;0.5994873046875;0.20098876953125;2.10999999467276;212;1 A
25.6628209352076;0.599639892578125;0.200958251953125;2.11999999464751;213;1 A
25.6728209351824;0.599578857421875;0.20062255859375;2.12999999462227;214;1 A
25.6828209351571;0.599639892578125;0.200653076171875;2.13999999459702;215;1 A
25.6928209351319;0.59954833984375;0.20037841796875;2.14999999457177;216;1 A
25.7028209351066;0.599578857421875;0.200531005859375;2.15999999454652;217;1 A
25.7128209350814;0.59954833984375;0.200714111328125;2.16999999452128;218;1 A
25.7228209350561;0.599609375;0.200592041015625;2.17999999449603;219;1 A
25.7328209350309;0.59954833984375;0.20074462890625;2.18999999447078;220;1 A
25.7428209350056;0.59967041015625;0.200103759765625;2.19999999444553;221;1 A
25.7528209349804;0.599639892578125;0.199859619140625;2.20999999442029;222;1 A
25.7628209349551;0.599609375;0.1993408203125;2.21999999439504;223;1 A
25.7728209349299;0.59954833984375;0.19940185546875;2.22999999436979;224;1 A
25.7828209349046;0.599517822265625;0.198760986328125;2.23999999434454;225;1 A
25.7928209348794;0.599639892578125;0.198455810546875;2.2499999943193;226;1 A
25.8028209348541;0.599578857421875;0.197845458984375;2.25999999429405;227;1 A
25.8128209348289;0.599609375;0.19696044921875;2.2699999942688;228;1 A
25.8228209348036;0.599639892578125;0.19659423828125;2.27999999424355;229;1 A
25.8328209347784;0.59954833984375;0.195953369140625;2.28999999421831;230;1 A
25.8428209347531;0.599609375;0.19580078125;2.29999999419306;231;1 A
25.8528209347279;0.599609375;0.19525146484375;2.30999999416781;232;1 A
25.8628209347027;0.599609375;0.194793701171875;2.31999999414256;233;1 A
25.8728209346774;0.599578857421875;0.194305419921875;2.32999999411732;234;1 A
25.8828209346522;0.599517822265625;0.1939697265625;2.33999999409207;235;1 A
25.8928209346269;0.599578857421875;0.19403076171875;2.34999999406682;236;1 A
25.9028209346017;0.599639892578125;0.193389892578125;2.35999999404157;237;1 A
25.9128209345764;0.59954833984375;0.193603515625;2.36999999401633;238;1 A
25.9228209345512;0.599578857421875;0.193206787109375;2.37999999399108;239;1 A
25.9328209345259;0.599578857421875;0.19342041015625;2.38999999396583;240;1 A
25.9428209345007;0.599578857421875;0.1937255859375;2.39999999394058;241;1 A
25.9528209344754;0.599517822265625;0.194183349609375;2.40999999391533;242;1 A
25.9628209344502;0.599578857421875;0.1943359375;2.41999999389009;243;1 A
25.9728209344249;0.599578857421875;0.19427490234375;2.42999999386484;244;1 A
25.9828209343997;0.599609375;0.19439697265625;2.43999999383959;245;1 A
25.9928209343744;0.599609375;0.194122314453125;2.44999999381434;246;1 A
26.0028209343492;0.599609375;0.194427490234375;2.4599999937891;247;1 A
26.0128209343239;0.599578857421875;0.194427490234375;2.46999999376385;248;1 A
26.0228209342987;0.599578857421875;0.194610595703125;2.4799999937386;249;1 A
26.0328209342734;0.599609375;0.194671630859375;2.48999999371335;250;1 A
26.0428209342482;0.599578857421875;0.194244384765625;2.49999999368811;251;1 A
26.052820934223;0.59954833984375;0.19439697265625;2.50999999366286;252;1 A
26.0628209341977;0.599609375;0.194427490234375;2.51999999363761;253;1 A
26.0728209341725;0.599578857421875;0.1954345703125;2.52999999361236;254;1 A
26.0828209341472;0.599639892578125;0.1956787109375;2.53999999358712;255;1 A
26.092820934122;0.599578857421875;0.196929931640625;2.54999999356187;256;1 A
26.1028209340967;0.599639892578125;0.197845458984375;2.55999999353662;257;1 A
26.1128209340715;0.5994873046875;0.198699951171875;2.56999999351137;258;1 A
26.1228209340462;0.599609375;0.199859619140625;2.57999999348613;259;1 A
26.132820934021;0.599517822265625;0.2005615234375;2.58999999346088;260;1 A
26.1428209339957;0.599609375;0.20159912109375;2.59999999343563;261;1 A
26.1528209339705;0.599639892578125;0.2017822265625;2.60999999341038;262;1 A
26.1628209339452;0.599639892578125;0.20233154296875;2.61999999338514;263;1 A
26.17282093392;0.599578857421875;0.202606201171875;2.62999999335989;264;1 A
26.1828209338947;0.599578857421875;0.203125;2.63999999333464;265;1 A
26.1928209338695;0.599456787109375;0.20361328125;2.64999999330939;266;1 A
26.2028209338442;0.599609375;0.203399658203125;2.65999999328415;267;1 A
26.212820933819;0.599578857421875;0.204010009765625;2.6699999932589;268;1 A
26.2228209337937;0.599609375;0.20379638671875;2.67999999323365;269;1 A
26.2328209337685;0.59967041015625;0.204254150390625;2.6899999932084;270;1 A
26.2428209337432;0.599639892578125;0.204376220703125;2.69999999318316;271;1 A
26.252820933718;0.599578857421875;0.20465087890625;2.70999999315791;272;1 A
26.2628209336928;0.59954833984375;0.204315185546875;2.71999999313266;273;1 A
26.2728209336675;0.599609375;0.20404052734375;2.72999999310741;274;1 A
26.2828209336423;0.599609375;0.20379638671875;2.73999999308217;275;1 A
26.292820933617;0.599609375;0.203125;2.74999999305692;276;1 A
26.3028209335918;0.599578857421875;0.20294189453125;2.75999999303167;277;1 A
26.3128209335665;0.599578857421875;0.20220947265625;2.76999999300642;278;1 A
26.3228209335413;0.599639892578125;0.20166015625;2.77999999298117;279;1 A
26.332820933516;0.599578857421875;0.200775146484375;2.78999999295593;280;1 A
26.3428209334908;0.59954833984375;0.19964599609375;2.79999999293068;281;1 A
26.3528209334655;0.599609375;0.19903564453125;2.80999999290543;282;1 A
26.3628209334403;0.59967041015625;0.198455810546875;2.81999999288018;283;1 A
26.372820933415;0.59954833984375;0.19891357421875;2.82999999285494;284;1 A
26.3828209333898;0.599609375;0.1986083984375;2.83999999282969;285;1 A
26.3928209333645;0.599639892578125;0.19921875;2.84999999280444;286;1 A
26.4028209333393;0.599609375;0.19927978515625;2.85999999277919;287;1 A
26.412820933314;0.59954833984375;0.199493408203125;2.86999999275395;288;1 A
26.4228209332888;0.599609375;0.19989013671875;2.8799999927287;289;1 A
26.4328209332635;0.5994873046875;0.199951171875;2.88999999270345;290;1 A
26.4428209332383;0.599578857421875;0.20013427734375;2.8999999926782;291;1 A
26.452820933213;0.59954833984375;0.199554443359375;2.90999999265296;292;1 A
26.4628209331878;0.599639892578125;0.199310302734375;2.91999999262771;293;1 A
26.4728209331626;0.599578857421875;0.1986083984375;2.92999999260246;294;1 A
26.4828209331373;0.599609375;0.1983642578125;2.93999999257721;295;1 A
26.4928209331121;0.599578857421875;0.1981201171875;2.94999999255197;296;1 A
26.5028209330868;0.599578857421875;0.197540283203125;2.95999999252672;297;1 A
26.5128209330616;0.599578857421875;0.197662353515625;2.96999999250147;298;1 A
26.5228209330363;0.599609375;0.19720458984375;2.97999999247622;299;1 A
26.5328209330111;0.599639892578125;0.197509765625;2.98999999245098;300;1 A
26.5428209329858;0.599578857421875;0.19744873046875;2.99999999242573;301;1 A
26.5528209329606;0.599578857421875;0.19781494140625;3.00999999240048;302;1 A
26.5628209329353;0.599639892578125;0.197479248046875;3.01999999237523;303;1 A
26.5728209329101;0.599609375;0.197509765625;3.02999999234999;304;1 A
26.5828209328848;0.599609375;0.197418212890625;3.03999999232474;305;1 A
26.5928209328596;0.59954833984375;0.19677734375;3.04999999229949;306;1 A
26.6028209328343;0.599639892578125;0.1966552734375;3.05999999227424;307;1 A
26.6128209328091;0.599578857421875;0.196044921875;3.069999992249;308;1 A
26.6228209327838;0.599700927734375;0.19580078125;3.07999999222375;309;1 A
26.6328209327586;0.59954833984375;0.195098876953125;3.0899999921985;310;1 A
26.6428209327333;0.599578857421875;0.194366455078125;3.09999999217325;311;1 A
26.6528209327081;0.599517822265625;0.19403076171875;3.109999992148;312;1 A
26.6628209326828;0.599578857421875;0.1937255859375;3.11999999212276;313;1 A
26.6728209326576;0.599517822265625;0.1939697265625;3.12999999209751;314;1 A
26.6828209326324;0.599639892578125;0.193389892578125;3.13999999207226;315;1 A
26.6928209326071;0.599609375;0.193634033203125;3.14999999204701;316;1 A
26.7028209325819;0.599639892578125;0.193023681640625;3.15999999202177;317;1 A
26.7128209325566;0.599578857421875;0.192718505859375;3.16999999199652;318;1 A
26.7228209325314;0.59954833984375;0.192352294921875;3.17999999197127;319;1 A
26.7328209325061;0.599517822265625;0.191986083984375;3.18999999194602;320;1 A
26.7428209324809;0.599578857421875;0.19140625;3.19999999192078;321;1 A
26.7528209324556;0.599578857421875;0.190643310546875;3.20999999189553;322;1 A
26.7628209324304;0.59954833984375;0.190155029296875;3.21999999187028;323;1 A
26.7728209324051;0.599609375;0.189361572265625;3.22999999184503;324;1 A
26.7828209323799;0.599609375;0.1890869140625;3.23999999181979;325;1 A
26.7928209323546;0.599578857421875;0.188690185546875;3.24999999179454;326;1 A
26.8028209323294;0.599578857421875;0.188507080078125;3.25999999176929;327;1 A
26.8128209323041;0.599578857421875;0.188507080078125;3.26999999174404;328;1 A
26.8228209322789;0.59967041015625;0.18817138671875;3.2799999917188;329;1 A
26.8328209322536;0.59954833984375;0.1883544921875;3.28999999169355;330;1 A
26.8428209322284;0.59954833984375;0.188262939453125;3.2999999916683;331;1 A
26.8528209322031;0.599517822265625;0.188690185546875;3.30999999164305;332;1 A
26.8628209321779;0.599700927734375;0.188232421875;3.31999999161781;333;1 A
26.8728209321526;0.599578857421875;0.188323974609375;3.32999999159256;334;1 A
26.8828209321274;0.599609375;0.188079833984375;3.33999999156731;335;1 A
26.8928209321022;0.599578857421875;0.18792724609375;3.34999999154206;336;1 A
26.9028209320769;0.599517822265625;0.188201904296875;3.35999999151682;337;1 A
26.9128209320517;0.59954833984375;0.188232421875;3.36999999149157;338;1 A
26.9228209320264;0.599578857421875;0.1885986328125;3.37999999146632;339;1 A
26.9328209320012;0.599578857421875;0.188262939453125;3.38999999144107;340;1 A
26.9428209319759;0.599609375;0.18804931640625;3.39999999141583;341;1 A
26.9528209319507;0.599609375;0.18768310546875;3.40999999139058;342;1 A
26.9628209319254;0.599578857421875;0.187591552734375;3.41999999136533;343;1 A
26.9728209319002;0.599609375;0.187652587890625;3.42999999134008;344;1 A
26.9828209318749;0.59954833984375;0.1873779296875;3.43999999131483;345;1 A
26.9928209318497;0.599639892578125;0.187835693359375;3.44999999128959;346;1 A
27.0028209318244;0.59954833984375;0.18756103515625;3.45999999126434;347;1 A
27.0128209317992;0.599517822265625;0.18804931640625;3.46999999123909;348;1 A
27.0228209317739;0.599578857421875;0.1884765625;3.47999999121384;349;1 A
27.0328209317487;0.599578857421875;0.18927001953125;3.4899999911886;350;1 A
27.0428209317234;0.59967041015625;0.18951416015625;3.49999999116335;351;1 A
27.0528209316982;0.599639892578125;0.189788818359375;3.5099999911381;352;1 A
27.0628209316729;0.599609375;0.1903076171875;3.51999999111285;353;1 A
27.0728209316477;0.59954833984375;0.19061279296875;3.52999999108761;354;1 A
27.0828209316225;0.59954833984375;0.191802978515625;3.53999999106236;355;1 A
27.0928209315972;0.599517822265625;0.192718505859375;3.54999999103711;356;1 A
27.102820931572;0.599639892578125;0.193878173828125;3.55999999101186;357;1 A
27.1128209315467;0.599609375;0.194610595703125;3.56999999098662;358;1 A
27.1228209315215;0.59954833984375;0.194732666015625;3.57999999096137;359;1 A
27.1328209314962;0.599609375;0.195159912109375;3.58999999093612;360;1 A
27.142820931471;0.599578857421875;0.1954345703125;3.59999999091087;361;1 A
27.1528209314457;0.599609375;0.196685791015625;3.60999999088563;362;1 A
27.1628209314205;0.59954833984375;0.196807861328125;3.61999999086038;363;1 A
27.1728209313952;0.59954833984375;0.197509765625;3.62999999083513;364;1 A
27.18282093137;0.599609375;0.197296142578125;3.63999999080988;365;1 A
27.1928209313447;0.599609375;0.197052001953125;3.64999999078464;366;1 A
27.2028209313195;0.59954833984375;0.19720458984375;3.65999999075939;367;1 A
27.2128209312942;0.59954833984375;0.197265625;3.66999999073414;368;1 A
27.222820931269;0.599609375;0.197601318359375;3.67999999070889;369;1 A
27.2328209312437;0.599517822265625;0.197235107421875;3.68999999068365;370;1 A
27.2428209312185;0.599609375;0.197235107421875;3.6999999906584;371;1 A
27.2528209311932;0.59954833984375;0.19696044921875;3.70999999063315;372;1 A
27.262820931168;0.599639892578125;0.197540283203125;3.7199999906079;373;1 A
27.2728209311427;0.599578857421875;0.19818115234375;3.72999999058266;374;1 A
27.2828209311175;0.59967041015625;0.198333740234375;3.73999999055741;375;1 A
27.2928209310923;0.599578857421875;0.19921875;3.74999999053216;376;1 A
27.302820931067;0.599609375;0.19921875;3.75999999050691;377;1 A
27.3128209310418;0.59954833984375;0.19989013671875;3.76999999048167;378;1 A
27.3228209310165;0.59954833984375;0.2003173828125;3.77999999045642;379;1 A
27.3328209309913;0.59954833984375;0.201171875;3.78999999043117;380;1 A
27.342820930966;0.599609375;0.201263427734375;3.79999999040592;381;1 A
27.3528209309408;0.59954833984375;0.20123291015625;3.80999999038067;382;1 A
27.3628209309155;0.599609375;0.20111083984375;3.81999999035543;383;1 A
27.3728209308903;0.599639892578125;0.2005615234375;3.82999999033018;384;1 A
27.382820930865;0.59954833984375;0.20068359375;3.83999999030493;385;1 A
27.3928209308398;0.599578857421875;0.2003173828125;3.84999999027968;386;1 A
27.4028209308145;0.599578857421875;0.200225830078125;3.85999999025444;387;1 A
27.4128209307893;0.599609375;0.199798583984375;3.86999999022919;388;1 A
27.422820930764;0.599578857421875;0.1990966796875;3.87999999020394;389;1 A
27.4328209307388;0.599578857421875;0.1986083984375;3.88999999017869;390;1 A
27.4428209307135;0.59954833984375;0.198028564453125;3.89999999015345;391;1 A
27.4528209306883;0.599578857421875;0.198089599609375;3.9099999901282;392;1 A
27.462820930663;0.599700927734375;0.197113037109375;3.91999999010295;393;1 A
27.4728209306378;0.599578857421875;0.19720458984375;3.9299999900777;394;1 A
27.4828209306125;0.59967041015625;0.196533203125;3.93999999005246;395;1 A
27.4928209305873;0.5994873046875;0.196319580078125;3.94999999002721;396;1 A
27.5028209305621;0.599609375;0.196258544921875;3.95999999000196;397;1 A
27.5128209305368;0.599517822265625;0.19622802734375;3.96999998997671;398;1 A
27.5228209305116;0.599609375;0.1962890625;3.97999998995147;399;1 A
27.5328209304863;0.599609375;0.19598388671875;3.98999998992622;400;1 A
27.5428209304611;0.599639892578125;0.196197509765625;3.99999998990097;401;1 A
27.5528209304358;0.599578857421875;0.196014404296875;4.00999998987572;402;1 A
27.5628209304106;0.599609375;0.1966552734375;4.01999998985048;403;1 A
27.5728209303853;0.599517822265625;0.196929931640625;4.02999998982523;404;1 A
27.5828209303601;0.59954833984375;0.19683837890625;4.03999998979998;405;1 A
27.5928209303348;0.599639892578125;0.197265625;4.04999998977473;406;1 A
27.6028209303096;0.599609375;0.196990966796875;4.05999998974949;407;1 A
27.6128209302843;0.599609375;0.197540283203125;4.06999998972424;408;1 A
27.6228209302591;0.599578857421875;0.197845458984375;4.07999998969899;409;1 A
27.6328209302338;0.59954833984375;0.1988525390625;4.08999998967374;410;1 A
27.6428209302086;0.599639892578125;0.199005126953125;4.0999999896485;411;1 A
27.6528209301833;0.599578857421875;0.199432373046875;4.10999998962325;412;1 A
27.6628209301581;0.599639892578125;0.199737548828125;4.119999989598;413;1 A
27.6728209301328;0.59954833984375;0.1998291015625;4.12999998957275;414;1 A
27.6828209301076;0.599609375;0.20037841796875;4.1399999895475;415;1 A
27.6928209300823;0.599578857421875;0.20062255859375;4.14999998952226;416;1 A
27.7028209300571;0.599609375;0.201385498046875;4.15999998949701;417;1 A
27.7128209300319;0.599578857421875;0.201995849609375;4.16999998947176;418;1 A
27.7228209300066;0.599609375;0.20269775390625;4.17999998944651;419;1 A
27.7328209299814;0.599578857421875;0.2034912109375;4.18999998942127;420;1 A
27.7428209299561;0.599578857421875;0.20416259765625;4.19999998939602;421;1 A
27.7528209299309;0.59954833984375;0.2052001953125;4.20999998937077;422;1 A
27.7628209299056;0.59954833984375;0.205291748046875;4.21999998934552;423;1 A
27.7728209298804;0.599578857421875;0.2064208984375;4.22999998932028;424;1 A
27.7828209298551;0.59954833984375;0.206817626953125;4.23999998929503;425;1 A
27.7928209298299;0.599609375;0.2073974609375;4.24999998926978;426;1 A
27.8028209298046;0.599609375;0.207733154296875;4.25999998924453;427;1 A
27.8128209297794;0.59954833984375;0.20794677734375;4.26999998921929;428;1 A
27.8228209297541;0.599578857421875;0.2078857421875;4.27999998919404;429;1 A
27.8328209297289;0.59954833984375;0.20751953125;4.28999998916879;430;1 A
27.8428209297036;0.599609375;0.207366943359375;4.29999998914354;431;1 A
27.8528209296784;0.599578857421875;0.206817626953125;4.3099999891183;432;1 A
27.8628209296531;0.599609375;0.2069091796875;4.31999998909305;433;1 A
27.8728209296279;0.599639892578125;0.206878662109375;4.3299999890678;434;1 A
27.8828209296026;0.59967041015625;0.206787109375;4.33999998904255;435;1 A
27.8928209295774;0.599609375;0.20703125;4.34999998901731;436;1 A
27.9028209295521;0.599578857421875;0.20660400390625;4.35999998899206;437;1 A
27.9128209295269;0.59954833984375;0.20672607421875;4.36999998896681;438;1 A
27.9228209295017;0.599609375;0.206451416015625;4.37999998894156;439;1 A
27.9328209294764;0.599578857421875;0.20684814453125;4.38999998891632;440;1 A
27.9428209294512;0.599609375;0.206390380859375;4.39999998889107;441;1 A
27.9528209294259;0.599609375;0.20648193359375;4.40999998886582;442;1 A
27.9628209294007;0.599609375;0.206329345703125;4.41999998884057;443;1 A
27.9728209293754;0.599609375;0.206024169921875;4.42999998881533;444;1 A
27.9828209293502;0.59954833984375;0.206146240234375;4.43999998879008;445;1 A
27.9928209293249;0.599639892578125;0.2060546875;4.44999998876483;446;1 A
28.0028209292997;0.599578857421875;0.206268310546875;4.45999998873958;447;1 A
28.0128209292744;0.59954833984375;0.2059326171875;4.46999998871433;448;1 A
28.0228209292492;0.59954833984375;0.205780029296875;4.47999998868909;449;1 A
28.0328209292239;0.599578857421875;0.205322265625;4.48999998866384;450;1 A
28.0428209291987;0.59954833984375;0.205230712890625;4.49999998863859;451;1 A
28.0528209291734;0.599700927734375;0.205291748046875;4.50999998861334;452;1 A
28.0628209291482;0.59967041015625;0.204803466796875;4.5199999885881;453;1 A
28.0728209291229;0.599517822265625;0.205108642578125;4.52999998856285;454;1 A
28.0828209290977;0.599639892578125;0.204742431640625;4.5399999885376;455;1 A
28.0928209290724;0.59954833984375;0.20513916015625;4.54999998851235;456;1 A
28.1028209290472;0.599639892578125;0.2054443359375;4.55999998848711;457;1 A
28.112820929022;0.59954833984375;0.20611572265625;4.56999998846186;458;1 A
28.1228209289967;0.599609375;0.20611572265625;4.57999998843661;459;1 A
28.1328209289715;0.5994873046875;0.206085205078125;4.58999998841136;460;1 A
28.1428209289462;0.599639892578125;0.2061767578125;4.59999998838612;461;1 A
28.152820928921;0.599578857421875;0.206024169921875;4.60999998836087;462;1 A
28.1628209288957;0.599609375;0.206390380859375;4.61999998833562;463;1 A
28.1728209288705;0.599578857421875;0.206085205078125;4.62999998831037;464;1 A
28.1828209288452;0.599578857421875;0.205902099609375;4.63999998828513;465;1 A
28.19282092882;0.599578857421875;0.205413818359375;4.64999998825988;466;1 A
28.2028209287947;0.599639892578125;0.2047119140625;4.65999998823463;467;1 A
28.2128209287695;0.599609375;0.20440673828125;4.66999998820938;468;1 A
28.2228209287442;0.599639892578125;0.20391845703125;4.67999998818414;469;1 A
28.232820928719;0.59967041015625;0.20416259765625;4.68999998815889;470;1 A
28.2428209286937;0.59954833984375;0.20343017578125;4.69999998813364;471;1 A
28.2528209286685;0.599578857421875;0.203704833984375;4.70999998810839;472;1 A
28.2628209286432;0.59954833984375;0.203277587890625;4.71999998808315;473;1 A
28.272820928618;0.599578857421875;0.20318603515625;4.7299999880579;474;1 A
28.2828209285927;0.599609375;0.203277587890625;4.73999998803265;475;1 A
28.2928209285675;0.599639892578125;0.203338623046875;4.7499999880074;476;1 A
28.3028209285422;0.599639892578125;0.203704833984375;4.75999998798216;477;1 A
28.312820928517;0.599517822265625;0.20367431640625;4.76999998795691;478;1 A
28.3228209284918;0.59954833984375;0.20428466796875;4.77999998793166;479;1 A
28.3328209284665;0.59954833984375;0.204498291015625;4.78999998790641;480;1 A
28.3428209284413;0.59954833984375;0.20526123046875;4.79999998788116;481;1 A
28.352820928416;0.599517822265625;0.20599365234375;4.80999998785592;482;1 A
28.3628209283908;0.599517822265625;0.206207275390625;4.81999998783067;483;1 A
28.3728209283655;0.59954833984375;0.206756591796875;4.82999998780542;484;1 A
28.3828209283403;0.59954833984375;0.206329345703125;4.83999998778017;485;1 A
28.392820928315;0.599639892578125;0.206573486328125;4.84999998775493;486;1 A
28.4028209282898;0.599578857421875;0.206512451171875;4.85999998772968;487;1 A
28.4128209282645;0.599609375;0.20709228515625;4.86999998770443;488;1 A
28.4228209282393;0.599578857421875;0.20703125;4.87999998767918;489;1 A
28.432820928214;0.599578857421875;0.207244873046875;4.88999998765394;490;1 A
28.4428209281888;0.599517822265625;0.20758056640625;4.89999998762869;491;1 A
28.4528209281635;0.599578857421875;0.2073974609375;4.90999998760344;492;1 A
28.4628209281383;0.59954833984375;0.20770263671875;4.91999998757819;493;1 A
28.472820928113;0.599578857421875;0.20745849609375;4.92999998755295;494;1 A
28.4828209280878;0.599639892578125;0.2073974609375;4.9399999875277;495;1 A
28.4928209280625;0.59954833984375;0.20697021484375;4.94999998750245;496;1 A
28.5028209280373;0.599639892578125;0.20660400390625;4.9599999874772;497;1 A
28.512820928012;0.59954833984375;0.206512451171875;4.96999998745196;498;1 A
28.5228209279868;0.599578857421875;0.206451416015625;4.97999998742671;499;1 A
28.5328209279616;0.599517822265625;0.207122802734375;4.98999998740146;500;1 A
28.5428209279363;0.599609375;0.206939697265625;4.99999998737621;501;1 A
28.5528209279111;0.599609375;0.207489013671875;5.00999998735097;502;1 A
28.5628209278858;0.599609375;0.207183837890625;5.01999998732572;503;1 A
28.5728209278606;0.599578857421875;0.20709228515625;5.02999998730047;504;1 A
28.5828209278353;0.599578857421875;0.20703125;5.03999998727522;505;1 A
28.5928209278101;0.599609375;0.20684814453125;5.04999998724998;506;1 A
28.6028209277848;0.599517822265625;0.206451416015625;5.05999998722473;507;1 A
28.6128209277596;0.59954833984375;0.205780029296875;5.06999998719948;508;1 A
28.6228209277343;0.59954833984375;0.20562744140625;5.07999998717423;509;1 A
28.6328209277091;0.599639892578125;0.205169677734375;5.08999998714899;510;1 A
28.6428209276838;0.599517822265625;0.205474853515625;5.09999998712374;511;1 A
28.6528209276586;0.599639892578125;0.205596923828125;5.10999998709849;512;1 A
28.6628209276333;0.599578857421875;0.2054443359375;5.11999998707324;513;1 A
28.6728209276081;0.59954833984375;0.205474853515625;5.129999987048;514;1 A
28.6828209275828;0.599578857421875;0.204833984375;5.13999998702275;515;1 A
28.6928209275576;0.599578857421875;0.204864501953125;5.1499999869975;516;1 A
28.7028209275323;0.599578857421875;0.204681396484375;5.15999998697225;517;1 A
28.7128209275071;0.599609375;0.2052001953125;5.169999986947;518;1 A
28.7228209274818;0.599609375;0.204925537109375;5.17999998692176;519;1 A
28.7328209274566;0.599578857421875;0.205291748046875;5.18999998689651;520;1 A
28.7428209274314;0.599578857421875;0.20550537109375;5.19999998687126;521;1 A
28.7528209274061;0.599578857421875;0.20562744140625;5.20999998684601;522;1 A
28.7628209273809;0.599578857421875;0.20611572265625;5.21999998682077;523;1 A
28.7728209273556;0.59954833984375;0.206268310546875;5.22999998679552;524;1 A
28.7828209273304;0.599578857421875;0.206787109375;5.23999998677027;525;1 A
28.7928209273051;0.599578857421875;0.206634521484375;5.24999998674502;526;1 A
28.8028209272799;0.599578857421875;0.206634521484375;5.25999998671978;527;1 A
28.8128209272546;0.599578857421875;0.20660400390625;5.26999998669453;528;1 A
28.8228209272294;0.599517822265625;0.206573486328125;5.27999998666928;529;1 A
28.8328209272041;0.599639892578125;0.2069091796875;5.28999998664403;530;1 A
28.8428209271789;0.599578857421875;0.206390380859375;5.29999998661879;531;1 A
28.8528209271536;0.59954833984375;0.206634521484375;5.30999998659354;532;1 A
28.8628209271284;0.599609375;0.2059326171875;5.31999998656829;533;1 A
28.8728209271031;0.599578857421875;0.205780029296875;5.32999998654304;534;1 A
28.8828209270779;0.599578857421875;0.20574951171875;5.3399999865178;535;1 A
28.8928209270526;0.599639892578125;0.2060546875;5.34999998649255;536;1 A
28.9028209270274;0.599609375;0.206024169921875;5.3599999864673;537;1 A
28.9128209270021;0.59954833984375;0.205718994140625;5.36999998644205;538;1 A
28.9228209269769;0.599609375;0.20556640625;5.37999998641681;539;1 A
28.9328209269516;0.599578857421875;0.204803466796875;5.38999998639156;540;1 A
28.9428209269264;0.599578857421875;0.2044677734375;5.39999998636631;541;1 A
28.9528209269012;0.599609375;0.203826904296875;5.40999998634106;542;1 A
28.9628209268759;0.599609375;0.20330810546875;5.41999998631582;543;1 A
28.9728209268507;0.599609375;0.202850341796875;5.42999998629057;544;1 A
28.9828209268254;0.599639892578125;0.20208740234375;5.43999998626532;545;1 A
28.9928209268002;0.599578857421875;0.2020263671875;5.44999998624007;546;1 A
29.0028209267749;0.59954833984375;0.201995849609375;5.45999998621483;547;1 A
29.0128209267497;0.599639892578125;0.20269775390625;5.46999998618958;548;1 A
29.0228209267244;0.599578857421875;0.202484130859375;5.47999998616433;549;1 A
29.0328209266992;0.599578857421875;0.202972412109375;5.48999998613908;550;1 A
29.0428209266739;0.59954833984375;0.203125;5.49999998611383;551;1 A
29.0528209266487;0.599609375;0.203582763671875;5.50999998608859;552;1 A
29.0628209266234;0.599578857421875;0.20440673828125;5.51999998606334;553;1 A
29.0728209265982;0.599609375;0.2049560546875;5.52999998603809;554;1 A
29.0828209265729;0.599639892578125;0.20556640625;5.53999998601284;555;1 A
29.0928209265477;0.59954833984375;0.2054443359375;5.5499999859876;556;1 A
29.1028209265224;0.599609375;0.2056884765625;5.55999998596235;557;1 A
29.1128209264972;0.599609375;0.205718994140625;5.5699999859371;558;1 A
29.1228209264719;0.599517822265625;0.20623779296875;5.57999998591185;559;1 A
29.1328209264467;0.599639892578125;0.207122802734375;5.58999998588661;560;1 A
29.1428209264215;0.59967041015625;0.207550048828125;5.59999998586136;561;1 A
29.1528209263962;0.59954833984375;0.2086181640625;5.60999998583611;562;1 A
29.162820926371;0.599639892578125;0.208770751953125;5.61999998581086;563;1 A
29.1728209263457;0.59954833984375;0.20953369140625;5.62999998578562;564;1 A
29.1828209263205;0.59954833984375;0.210174560546875;5.63999998576037;565;1 A
29.1928209262952;0.599609375;0.211273193359375;5.64999998573512;566;1 A
29.20282092627;0.599578857421875;0.211822509765625;5.65999998570987;567;1 A
29.2128209262447;0.59954833984375;0.212127685546875;5.66999998568463;568;1 A
29.2228209262195;0.599578857421875;0.21221923828125;5.67999998565938;569;1 A
29.2328209261942;0.599639892578125;0.21185302734375;5.68999998563413;570;1 A
29.242820926169;0.599578857421875;0.21197509765625;5.69999998560888;571;1 A
29.2528209261437;0.59967041015625;0.211883544921875;5.70999998558364;572;1 A
29.2628209261185;0.599578857421875;0.2122802734375;5.71999998555839;573;1 A
29.2728209260932;0.599578857421875;0.212493896484375;5.72999998553314;574;1 A
29.282820926068;0.59954833984375;0.212432861328125;5.73999998550789;575;1 A
29.2928209260427;0.599578857421875;0.212554931640625;5.74999998548265;576;1 A
29.3028209260175;0.599517822265625;0.21234130859375;5.7599999854574;577;1 A
29.3128209259922;0.599639892578125;0.2127685546875;5.76999998543215;578;1 A
29.322820925967;0.599609375;0.21221923828125;5.7799999854069;579;1 A
29.3328209259417;0.599517822265625;0.2125244140625;5.78999998538166;580;1 A
29.3428209259165;0.599639892578125;0.2122802734375;5.79999998535641;581;1 A
29.3528209258913;0.59954833984375;0.2122802734375;5.80999998533116;582;1 A
29.362820925866;0.599578857421875;0.21258544921875;5.81999998530591;583;1 A
29.3728209258408;0.599639892578125;0.212646484375;5.82999998528066;584;1 A
29.3828209258155;0.599639892578125;0.212677001953125;5.83999998525542;585;1 A
29.3928209257903;0.599578857421875;0.211944580078125;5.84999998523017;586;1 A
29.402820925765;0.599578857421875;0.211517333984375;5.85999998520492;587;1 A
29.4128209257398;0.599609375;0.210693359375;5.86999998517967;588;1 A
29.4228209257145;0.59954833984375;0.21026611328125;5.87999998515443;589;1 A
29.4328209256893;0.599578857421875;0.209869384765625;5.88999998512918;590;1 A
29.442820925664;0.59954833984375;0.209197998046875;5.89999998510393;591;1 A
29.4528209256388;0.59954833984375;0.209259033203125;5.90999998507868;592;1 A
29.4628209256135;0.59954833984375;0.20867919921875;5.91999998505344;593;1 A
29.4728209255883;0.599700927734375;0.208648681640625;5.92999998502819;594;1 A
29.482820925563;0.599578857421875;0.208282470703125;5.93999998500294;595;1 A
29.4928209255378;0.59967041015625;0.208343505859375;5.94999998497769;596;1 A
29.5028209255125;0.599578857421875;0.207763671875;5.95999998495245;597;1 A
29.5128209254873;0.599517822265625;0.20751953125;5.9699999849272;598;1 A
29.522820925462;0.59954833984375;0.207427978515625;5.97999998490195;599;1 A
29.5328209254368;0.599639892578125;0.207183837890625;5.9899999848767;600;1 A
29.5428209254115;0.599578857421875;0.20758056640625;5.99999998485146;601;1 A
29.5528209253863;0.599609375;0.207733154296875;6.00999998482621;602;1 A
29.5628209253611;0.599639892578125;0.2081298828125;6.01999998480096;603;1 A
29.5728209253358;0.5994873046875;0.20794677734375;6.02999998477571;604;1 A
29.5828209253106;0.599578857421875;0.20758056640625;6.03999998475047;605;1 A
29.5928209252853;0.599578857421875;0.20721435546875;6.04999998472522;606;1 A
29.6028209252601;0.599578857421875;0.206787109375;6.05999998469997;607;1 A
29.6128209252348;0.599609375;0.20709228515625;6.06999998467472;608;1 A
29.6228209252096;0.599578857421875;0.2066650390625;6.07999998464948;609;1 A
29.6328209251843;0.599517822265625;0.207275390625;6.08999998462423;610;1 A
29.6428209251591;0.599609375;0.207275390625;6.09999998459898;611;1 A
29.6528209251338;0.599578857421875;0.207427978515625;6.10999998457373;612;1 A
29.6628209251086;0.59954833984375;0.207672119140625;6.11999998454849;613;1 A
29.6728209250833;0.599700927734375;0.2078857421875;6.12999998452324;614;1 A
29.6828209250581;0.59954833984375;0.20806884765625;6.13999998449799;615;1 A
29.6928209250328;0.59954833984375;0.2078857421875;6.14999998447274;616;1 A
29.7028209250076;0.599578857421875;0.20806884765625;6.1599999844475;617;1 A
29.7128209249823;0.599609375;0.207763671875;6.16999998442225;618;1 A
29.7228209249571;0.59954833984375;0.2078857421875;6.179999984397;619;1 A
29.7328209249318;0.599609375;0.207916259765625;6.18999998437175;620;1 A
29.7428209249066;0.599609375;0.207855224609375;6.1999999843465;621;1 A
29.7528209248813;0.599578857421875;0.20819091796875;6.20999998432126;622;1 A
29.7628209248561;0.599609375;0.208099365234375;6.21999998429601;623;1 A
29.7728209248309;0.59954833984375;0.208740234375;6.22999998427076;624;1 A
29.7828209248056;0.59954833984375;0.209197998046875;6.23999998424551;625;1 A
29.7928209247804;0.599578857421875;0.210296630859375;6.24999998422027;626;1 A
29.8028209247551;0.599639892578125;0.210418701171875;6.25999998419502;627;1 A
29.8128209247299;0.59954833984375;0.210906982421875;6.26999998416977;628;1 A
29.8228209247046;0.599578857421875;0.21112060546875;6.27999998414452;629;1 A
29.8328209246794;0.599578857421875;0.211090087890625;6.28999998411928;630;1 A
29.8428209246541;0.599578857421875;0.2115478515625;6.29999998409403;631;1 A
29.8528209246289;0.59967041015625;0.21160888671875;6.30999998406878;632;1 A
29.8628209246036;0.59954833984375;0.211883544921875;6.31999998404353;633;1 A
29.8728209245784;0.59954833984375;0.211456298828125;6.32999998401829;634;1 A
29.8828209245531;0.599609375;0.211212158203125;6.33999998399304;635;1 A
29.8928209245279;0.59967041015625;0.2109375;6.34999998396779;636;1 A
29.9028209245026;0.599517822265625;0.210845947265625;6.35999998394254;637;1 A
29.9128209244774;0.59967041015625;0.2110595703125;6.3699999839173;638;1 A
29.9228209244521;0.599517822265625;0.210540771484375;6.37999998389205;639;1 A
29.9328209244269;0.59954833984375;0.2108154296875;6.3899999838668;640;1 A
29.9428209244016;0.599517822265625;0.210296630859375;6.39999998384155;641;1 A
29.9528209243764;0.599609375;0.210418701171875;6.40999998381631;642;1 A
29.9628209243511;0.599578857421875;0.210693359375;6.41999998379106;643;1 A
29.9728209243259;0.599578857421875;0.2113037109375;6.42999998376581;644;1 A
29.9828209243007;0.599639892578125;0.21148681640625;6.43999998374056;645;1 A
29.9928209242754;0.599517822265625;0.211334228515625;6.44999998371532;646;1 A
30.0028209242502;0.59954833984375;0.21112060546875;6.45999998369007;647;1 A
30.0128209242249;0.599578857421875;0.210357666015625;6.46999998366482;648;1 A
30.0228209241997;0.599578857421875;0.210052490234375;6.47999998363957;649;1 A
30.0328209241744;0.599578857421875;0.20953369140625;6.48999998361433;650;1 A
30.0428209241492;0.59967041015625;0.2093505859375;6.49999998358908;651;1 A
30.0528209241239;0.599578857421875;0.209197998046875;6.50999998356383;652;1 A
30.0628209240987;0.599517822265625;0.20867919921875;6.51999998353858;653;1 A
30.0728209240734;0.599609375;0.20855712890625;6.52999998351333;654;1 A
30.0828209240482;0.599578857421875;0.20819091796875;6.53999998348809;655;1 A
30.0928209240229;0.59967041015625;0.20849609375;6.54999998346284;656;1 A
30.1028209239977;0.599578857421875;0.207763671875;6.55999998343759;657;1 A
30.1128209239724;0.599517822265625;0.207855224609375;6.56999998341234;658;1 A
30.1228209239472;0.59954833984375;0.207366943359375;6.5799999833871;659;1 A
30.1328209239219;0.599609375;0.206939697265625;6.58999998336185;660;1 A
30.1428209238967;0.599578857421875;0.206787109375;6.5999999833366;661;1 A
30.1528209238714;0.59967041015625;0.206329345703125;6.60999998331135;662;1 A
30.1628209238462;0.599639892578125;0.20611572265625;6.61999998328611;663;1 A
30.172820923821;0.5994873046875;0.205322265625;6.62999998326086;664;1 A
30.1828209237957;0.599578857421875;0.2049560546875;6.63999998323561;665;1 A
30.1928209237705;0.599578857421875;0.204376220703125;6.64999998321036;666;1 A
30.2028209237452;0.599578857421875;0.204376220703125;6.65999998318512;667;1 A
30.21282092372;0.599639892578125;0.20458984375;6.66999998315987;668;1 A
30.2228209236947;0.59967041015625;0.204559326171875;6.67999998313462;669;1 A
30.2328209236695;0.599517822265625;0.20513916015625;6.68999998310937;670;1 A
30.2428209236442;0.599578857421875;0.204925537109375;6.69999998308413;671;1 A
30.252820923619;0.599639892578125;0.205230712890625;6.70999998305888;672;1 A
30.2628209235937;0.59954833984375;0.20538330078125;6.71999998303363;673;1 A
30.2728209235685;0.599578857421875;0.206207275390625;6.72999998300838;674;1 A
30.2828209235432;0.599578857421875;0.206512451171875;6.73999998298314;675;1 A
30.292820923518;0.59954833984375;0.206939697265625;6.74999998295789;676;1 A
30.3028209234927;0.599609375;0.207305908203125;6.75999998293264;677;1 A
30.3128209234675;0.599609375;0.207122802734375;6.76999998290739;678;1 A
30.3228209234422;0.599578857421875;0.2073974609375;6.77999998288215;679;1 A
30.332820923417;0.59967041015625;0.2071533203125;6.7899999828569;680;1 A
30.3428209233917;0.59954833984375;0.207061767578125;6.79999998283165;681;1 A
30.3528209233665;0.599578857421875;0.206512451171875;6.8099999828064;682;1 A
30.3628209233412;0.599578857421875;0.205810546875;6.81999998278116;683;1 A
30.372820923316;0.599609375;0.205413818359375;6.82999998275591;684;1 A
30.3828209232908;0.599578857421875;0.204864501953125;6.83999998273066;685;1 A
30.3928209232655;0.59954833984375;0.205108642578125;6.84999998270541;686;1 A
30.4028209232403;0.59967041015625;0.204376220703125;6.85999998268016;687;1 A
30.412820923215;0.59954833984375;0.20477294921875;6.86999998265492;688;1 A
30.4228209231898;0.599609375;0.20465087890625;6.87999998262967;689;1 A
30.4328209231645;0.59954833984375;0.204864501953125;6.88999998260442;690;1 A
30.4428209231393;0.599578857421875;0.205474853515625;6.89999998257917;691;1 A
30.452820923114;0.59954833984375;0.205963134765625;6.90999998255393;692;1 A
30.4628209230888;0.599609375;0.206451416015625;6.91999998252868;693;1 A
30.4728209230635;0.59954833984375;0.20623779296875;6.92999998250343;694;1 A
30.4828209230383;0.599578857421875;0.206207275390625;6.93999998247818;695;1 A
30.492820923013;0.599609375;0.205657958984375;6.94999998245294;696;1 A
30.5028209229878;0.59954833984375;0.20562744140625;6.95999998242769;697;1 A
30.5128209229625;0.59967041015625;0.20574951171875;6.96999998240244;698;1 A
30.5228209229373;0.599639892578125;0.205780029296875;6.97999998237719;699;1 A
30.532820922912;0.599578857421875;0.206451416015625;6.98999998235195;700;1 A
