Time (s);WE(1).Potential (V);WE(1).Current (A);Corrected time (s);Index;Current range
46.3770968829091;0.650665283203125;1.026611328125;0;1;1 A
46.3870968828838;0.650054931640625;0.74249267578125;0.00999999997475243;2;1 A
46.3970968828586;0.649810791015625;0.61279296875;0.0199999999495049;3;1 A
46.4070968828333;0.649810791015625;0.53375244140625;0.0299999999242573;4;1 A
46.4170968828081;0.649627685546875;0.479736328125;0.0399999998990097;5;1 A
46.4270968827828;0.649688720703125;0.44000244140625;0.0499999998737621;6;1 A
46.4370968827576;0.649658203125;0.40911865234375;0.0599999998485146;7;1 A
46.4470968827324;0.649688720703125;0.384307861328125;0.069999999823267;8;1 A
46.4570968827071;0.6495361328125;0.3641357421875;0.0799999997980194;9;1 A
46.4670968826819;0.649658203125;0.346923828125;0.0899999997727718;10;1 A
46.4770968826566;0.649505615234375;0.33270263671875;0.0999999997475243;11;1 A
46.4870968826314;0.649627685546875;0.320220947265625;0.109999999722277;12;1 A
46.4970968826061;0.649688720703125;0.30938720703125;0.119999999697029;13;1 A
46.5070968825809;0.649627685546875;0.2999267578125;0.129999999671782;14;1 A
46.5170968825556;0.64959716796875;0.291473388671875;0.139999999646534;15;1 A
46.5270968825304;0.649658203125;0.283843994140625;0.149999999621286;16;1 A
46.5370968825051;0.649566650390625;0.276885986328125;0.159999999596039;17;1 A
46.5470968824799;0.6495361328125;0.271087646484375;0.169999999570791;18;1 A
46.5570968824546;0.649627685546875;0.265625;0.179999999545544;19;1 A
46.5670968824294;0.649627685546875;0.261016845703125;0.189999999520296;20;1 A
46.5770968824041;0.649658203125;0.256744384765625;0.199999999495049;21;1 A
46.5870968823789;0.649658203125;0.252685546875;0.209999999469801;22;1 A
46.5970968823536;0.6495361328125;0.24981689453125;0.219999999444553;23;1 A
46.6070968823284;0.649627685546875;0.24688720703125;0.229999999419306;24;1 A
46.6170968823031;0.649627685546875;0.24468994140625;0.239999999394058;25;1 A
46.6270968822779;0.64959716796875;0.24267578125;0.249999999368811;26;1 A
46.6370968822526;0.64959716796875;0.24114990234375;0.259999999343563;27;1 A
46.6470968822274;0.649627685546875;0.239013671875;0.269999999318316;28;1 A
46.6570968822022;0.649566650390625;0.237152099609375;0.279999999293068;29;1 A
46.6670968821769;0.649658203125;0.235076904296875;0.28999999926782;30;1 A
46.6770968821517;0.649566650390625;0.23284912109375;0.299999999242573;31;1 A
46.6870968821264;0.64959716796875;0.231170654296875;0.309999999217325;32;1 A
46.6970968821012;0.649566650390625;0.228912353515625;0.319999999192078;33;1 A
46.7070968820759;0.64959716796875;0.22686767578125;0.32999999916683;34;1 A
46.7170968820507;0.64959716796875;0.224578857421875;0.339999999141583;35;1 A
46.7270968820254;0.64959716796875;0.222747802734375;0.349999999116335;36;1 A
46.7370968820002;0.649627685546875;0.22119140625;0.359999999091087;37;1 A
46.7470968819749;0.649566650390625;0.220062255859375;0.36999999906584;38;1 A
46.7570968819497;0.649627685546875;0.219390869140625;0.379999999040592;39;1 A
46.7670968819244;0.649627685546875;0.218231201171875;0.389999999015345;40;1 A
46.7770968818992;0.64959716796875;0.217987060546875;0.399999998990097;41;1 A
46.7870968818739;0.649627685546875;0.21685791015625;0.40999999896485;42;1 A
46.7970968818487;0.649627685546875;0.216094970703125;0.419999998939602;43;1 A
46.8070968818234;0.649627685546875;0.21527099609375;0.429999998914354;44;1 A
46.8170968817982;0.649627685546875;0.214447021484375;0.439999998889107;45;1 A
46.8270968817729;0.649658203125;0.213226318359375;0.449999998863859;46;1 A
46.8370968817477;0.649566650390625;0.21209716796875;0.459999998838612;47;1 A
46.8470968817225;0.64959716796875;0.21136474609375;0.469999998813364;48;1 A
46.8570968816972;0.64959716796875;0.210418701171875;0.479999998788116;49;1 A
46.867096881672;0.64959716796875;0.209991455078125;0.489999998762869;50;1 A
46.8770968816467;0.64959716796875;0.2088623046875;0.499999998737621;51;1 A
46.8870968816215;0.649658203125;0.2080078125;0.509999998712374;52;1 A
46.8970968815962;0.64959716796875;0.20721435546875;0.519999998687126;53;1 A
46.907096881571;0.649658203125;0.206451416015625;0.529999998661879;54;1 A
46.9170968815457;0.649658203125;0.20599365234375;0.539999998636631;55;1 A
46.9270968815205;0.64959716796875;0.2054443359375;0.549999998611383;56;1 A
46.9370968814952;0.649627685546875;0.20526123046875;0.559999998586136;57;1 A
46.94709688147;0.64959716796875;0.2044677734375;0.569999998560888;58;1 A
46.9570968814447;0.64959716796875;0.204437255859375;0.579999998535641;59;1 A
46.9670968814195;0.649566650390625;0.20379638671875;0.589999998510393;60;1 A
46.9770968813942;0.64959716796875;0.203369140625;0.599999998485146;61;1 A
46.987096881369;0.64959716796875;0.203094482421875;0.609999998459898;62;1 A
46.9970968813437;0.649658203125;0.20269775390625;0.61999999843465;63;1 A
47.0070968813185;0.64959716796875;0.202728271484375;0.629999998409403;64;1 A
47.0170968812932;0.649566650390625;0.202423095703125;0.639999998384155;65;1 A
47.027096881268;0.649566650390625;0.20269775390625;0.649999998358908;66;1 A
47.0370968812427;0.6495361328125;0.20281982421875;0.65999999833366;67;1 A
47.0470968812175;0.64959716796875;0.20367431640625;0.669999998308413;68;1 A
47.0570968811923;0.64959716796875;0.204315185546875;0.679999998283165;69;1 A
47.067096881167;0.649627685546875;0.20465087890625;0.689999998257917;70;1 A
47.0770968811418;0.649505615234375;0.205352783203125;0.69999999823267;71;1 A
47.0870968811165;0.649627685546875;0.205169677734375;0.709999998207422;72;1 A
47.0970968810913;0.64959716796875;0.20550537109375;0.719999998182175;73;1 A
47.107096881066;0.649627685546875;0.205657958984375;0.729999998156927;74;1 A
47.1170968810408;0.649566650390625;0.206146240234375;0.73999999813168;75;1 A
47.1270968810155;0.649627685546875;0.206024169921875;0.749999998106432;76;1 A
47.1370968809903;0.649627685546875;0.206146240234375;0.759999998081184;77;1 A
47.147096880965;0.649627685546875;0.206024169921875;0.769999998055937;78;1 A
47.1570968809398;0.64959716796875;0.205596923828125;0.779999998030689;79;1 A
47.1670968809145;0.649627685546875;0.20562744140625;0.789999998005442;80;1 A
47.1770968808893;0.64959716796875;0.204833984375;0.799999997980194;81;1 A
47.187096880864;0.649627685546875;0.20465087890625;0.809999997954947;82;1 A
47.1970968808388;0.649566650390625;0.20404052734375;0.819999997929699;83;1 A
47.2070968808135;0.649627685546875;0.203765869140625;0.829999997904451;84;1 A
47.2170968807883;0.649627685546875;0.203704833984375;0.839999997879204;85;1 A
47.227096880763;0.649627685546875;0.203826904296875;0.849999997853956;86;1 A
47.2370968807378;0.649658203125;0.20416259765625;0.859999997828709;87;1 A
47.2470968807125;0.649627685546875;0.20379638671875;0.869999997803461;88;1 A
47.2570968806873;0.64959716796875;0.204193115234375;0.879999997778214;89;1 A
47.2670968806621;0.649627685546875;0.20379638671875;0.889999997752966;90;1 A
47.2770968806368;0.649566650390625;0.203948974609375;0.899999997727718;91;1 A
47.2870968806116;0.64959716796875;0.20404052734375;0.909999997702471;92;1 A
47.2970968805863;0.649627685546875;0.20416259765625;0.919999997677223;93;1 A
47.3070968805611;0.64959716796875;0.2041015625;0.929999997651976;94;1 A
47.3170968805358;0.6495361328125;0.20355224609375;0.939999997626728;95;1 A
47.3270968805106;0.64959716796875;0.203369140625;0.949999997601481;96;1 A
47.3370968804853;0.649658203125;0.20257568359375;0.959999997576233;97;1 A
47.3470968804601;0.6495361328125;0.202606201171875;0.969999997550985;98;1 A
47.3570968804348;0.64959716796875;0.2021484375;0.979999997525738;99;1 A
47.3670968804096;0.649627685546875;0.201934814453125;0.98999999750049;100;1 A
47.3770968803843;0.6495361328125;0.201751708984375;0.999999997475243;101;1 A
47.3870968803591;0.64959716796875;0.2010498046875;1.00999999745;102;1 A
47.3970968803338;0.649627685546875;0.200958251953125;1.01999999742475;103;1 A
47.4070968803086;0.64959716796875;0.200592041015625;1.0299999973995;104;1 A
47.4170968802833;0.649627685546875;0.200836181640625;1.03999999737425;105;1 A
47.4270968802581;0.64959716796875;0.20037841796875;1.049999997349;106;1 A
47.4370968802328;0.64959716796875;0.200592041015625;1.05999999732376;107;1 A
47.4470968802076;0.649566650390625;0.20050048828125;1.06999999729851;108;1 A
47.4570968801823;0.64959716796875;0.200408935546875;1.07999999727326;109;1 A
47.4670968801571;0.649566650390625;0.20068359375;1.08999999724801;110;1 A
47.4770968801319;0.649627685546875;0.2003173828125;1.09999999722277;111;1 A
47.4870968801066;0.649688720703125;0.20068359375;1.10999999719752;112;1 A
47.4970968800814;0.64959716796875;0.200592041015625;1.11999999717227;113;1 A
47.5070968800561;0.649627685546875;0.201141357421875;1.12999999714702;114;1 A
47.5170968800309;0.64959716796875;0.201629638671875;1.13999999712178;115;1 A
47.5270968800056;0.64959716796875;0.202484130859375;1.14999999709653;116;1 A
47.5370968799804;0.649566650390625;0.2032470703125;1.15999999707128;117;1 A
47.5470968799551;0.64971923828125;0.203369140625;1.16999999704603;118;1 A
47.5570968799299;0.649566650390625;0.2042236328125;1.17999999702079;119;1 A
47.5670968799046;0.649658203125;0.2039794921875;1.18999999699554;120;1 A
47.5770968798794;0.64959716796875;0.2044677734375;1.19999999697029;121;1 A
47.5870968798541;0.649566650390625;0.20477294921875;1.20999999694504;122;1 A
47.5970968798289;0.64959716796875;0.205322265625;1.2199999969198;123;1 A
47.6070968798036;0.64959716796875;0.205841064453125;1.22999999689455;124;1 A
47.6170968797784;0.649566650390625;0.20635986328125;1.2399999968693;125;1 A
47.6270968797531;0.649505615234375;0.207122802734375;1.24999999684405;126;1 A
47.6370968797279;0.649658203125;0.207305908203125;1.25999999681881;127;1 A
47.6470968797026;0.649627685546875;0.2081298828125;1.26999999679356;128;1 A
47.6570968796774;0.64959716796875;0.20819091796875;1.27999999676831;129;1 A
47.6670968796521;0.649627685546875;0.20849609375;1.28999999674306;130;1 A
47.6770968796269;0.64959716796875;0.208892822265625;1.29999999671782;131;1 A
47.6870968796017;0.649627685546875;0.208984375;1.30999999669257;132;1 A
47.6970968795764;0.64959716796875;0.209625244140625;1.31999999666732;133;1 A
47.7070968795512;0.64959716796875;0.20989990234375;1.32999999664207;134;1 A
47.7170968795259;0.6495361328125;0.210540771484375;1.33999999661683;135;1 A
47.7270968795007;0.649658203125;0.210418701171875;1.34999999659158;136;1 A
47.7370968794754;0.64959716796875;0.210723876953125;1.35999999656633;137;1 A
47.7470968794502;0.64959716796875;0.21038818359375;1.36999999654108;138;1 A
47.7570968794249;0.64959716796875;0.210113525390625;1.37999999651583;139;1 A
47.7670968793997;0.64959716796875;0.210174560546875;1.38999999649059;140;1 A
47.7770968793744;0.6495361328125;0.20989990234375;1.39999999646534;141;1 A
47.7870968793492;0.64959716796875;0.210113525390625;1.40999999644009;142;1 A
47.7970968793239;0.64959716796875;0.209747314453125;1.41999999641484;143;1 A
47.8070968792987;0.64959716796875;0.209686279296875;1.4299999963896;144;1 A
47.8170968792734;0.649658203125;0.2093505859375;1.43999999636435;145;1 A
47.8270968792482;0.649566650390625;0.2095947265625;1.4499999963391;146;1 A
47.8370968792229;0.64959716796875;0.209808349609375;1.45999999631385;147;1 A
47.8470968791977;0.649658203125;0.2095947265625;1.46999999628861;148;1 A
47.8570968791724;0.649566650390625;0.2099609375;1.47999999626336;149;1 A
47.8670968791472;0.6495361328125;0.20953369140625;1.48999999623811;150;1 A
47.877096879122;0.649627685546875;0.209747314453125;1.49999999621286;151;1 A
47.8870968790967;0.649566650390625;0.209869384765625;1.50999999618762;152;1 A
47.8970968790715;0.64959716796875;0.210235595703125;1.51999999616237;153;1 A
47.9070968790462;0.649658203125;0.210113525390625;1.52999999613712;154;1 A
47.917096879021;0.64959716796875;0.20977783203125;1.53999999611187;155;1 A
47.9270968789957;0.649658203125;0.2093505859375;1.54999999608663;156;1 A
47.9370968789705;0.64947509765625;0.208587646484375;1.55999999606138;157;1 A
47.9470968789452;0.649627685546875;0.208709716796875;1.56999999603613;158;1 A
47.95709687892;0.64959716796875;0.208465576171875;1.57999999601088;159;1 A
47.9670968788947;0.649627685546875;0.20867919921875;1.58999999598564;160;1 A
47.9770968788695;0.64959716796875;0.20867919921875;1.59999999596039;161;1 A
47.9870968788442;0.64959716796875;0.208648681640625;1.60999999593514;162;1 A
47.997096878819;0.649627685546875;0.208953857421875;1.61999999590989;163;1 A
48.0070968787937;0.64959716796875;0.209197998046875;1.62999999588465;164;1 A
48.0170968787685;0.64959716796875;0.209625244140625;1.6399999958594;165;1 A
48.0270968787432;0.64959716796875;0.20904541015625;1.64999999583415;166;1 A
48.037096878718;0.649627685546875;0.208984375;1.6599999958089;167;1 A
48.0470968786927;0.64959716796875;0.20806884765625;1.66999999578366;168;1 A
48.0570968786675;0.64959716796875;0.2076416015625;1.67999999575841;169;1 A
48.0670968786422;0.64959716796875;0.207489013671875;1.68999999573316;170;1 A
48.077096878617;0.64959716796875;0.207275390625;1.69999999570791;171;1 A
48.0870968785918;0.64959716796875;0.207275390625;1.70999999568267;172;1 A
48.0970968785665;0.649627685546875;0.206756591796875;1.71999999565742;173;1 A
48.1070968785413;0.649505615234375;0.206695556640625;1.72999999563217;174;1 A
48.117096878516;0.649627685546875;0.206268310546875;1.73999999560692;175;1 A
48.1270968784908;0.6495361328125;0.20660400390625;1.74999999558167;176;1 A
48.1370968784655;0.64959716796875;0.206787109375;1.75999999555643;177;1 A
48.1470968784403;0.649627685546875;0.207061767578125;1.76999999553118;178;1 A
48.157096878415;0.649627685546875;0.2076416015625;1.77999999550593;179;1 A
48.1670968783898;0.64959716796875;0.207611083984375;1.78999999548068;180;1 A
48.1770968783645;0.6495361328125;0.208160400390625;1.79999999545544;181;1 A
48.1870968783393;0.649566650390625;0.208648681640625;1.80999999543019;182;1 A
48.197096878314;0.64959716796875;0.2095947265625;1.81999999540494;183;1 A
48.2070968782888;0.64959716796875;0.209869384765625;1.82999999537969;184;1 A
48.2170968782635;0.64959716796875;0.210205078125;1.83999999535445;185;1 A
48.2270968782383;0.64959716796875;0.2100830078125;1.8499999953292;186;1 A
48.237096878213;0.649627685546875;0.209716796875;1.85999999530395;187;1 A
48.2470968781878;0.649505615234375;0.2098388671875;1.8699999952787;188;1 A
48.2570968781625;0.649688720703125;0.209381103515625;1.87999999525346;189;1 A
48.2670968781373;0.649566650390625;0.2095947265625;1.88999999522821;190;1 A
48.277096878112;0.649566650390625;0.20916748046875;1.89999999520296;191;1 A
48.2870968780868;0.649505615234375;0.208953857421875;1.90999999517771;192;1 A
48.2970968780616;0.649627685546875;0.2086181640625;1.91999999515247;193;1 A
48.3070968780363;0.649566650390625;0.208526611328125;1.92999999512722;194;1 A
48.3170968780111;0.6495361328125;0.20855712890625;1.93999999510197;195;1 A
48.3270968779858;0.649658203125;0.207916259765625;1.94999999507672;196;1 A
48.3370968779606;0.649566650390625;0.208099365234375;1.95999999505148;197;1 A
48.3470968779353;0.649627685546875;0.207489013671875;1.96999999502623;198;1 A
48.3570968779101;0.6495361328125;0.207611083984375;1.97999999500098;199;1 A
48.3670968778848;0.649566650390625;0.207794189453125;1.98999999497573;200;1 A
48.3770968778596;0.649566650390625;0.2081298828125;1.99999999495049;201;1 A
48.3870968778343;0.649658203125;0.2083740234375;2.00999999492524;202;1 A
48.3970968778091;0.64959716796875;0.208251953125;2.01999999489999;203;1 A
48.4070968777838;0.64959716796875;0.208526611328125;2.02999999487474;204;1 A
48.4170968777586;0.649627685546875;0.20819091796875;2.0399999948495;205;1 A
48.4270968777333;0.649566650390625;0.20867919921875;2.04999999482425;206;1 A
48.4370968777081;0.649505615234375;0.208526611328125;2.059999994799;207;1 A
48.4470968776828;0.64959716796875;0.20867919921875;2.06999999477375;208;1 A
48.4570968776576;0.64959716796875;0.20867919921875;2.0799999947485;209;1 A
48.4670968776323;0.64959716796875;0.208099365234375;2.08999999472326;210;1 A
48.4770968776071;0.64959716796875;0.2080078125;2.09999999469801;211;1 A
48.4870968775818;0.64959716796875;0.207763671875;2.10999999467276;212;1 A
48.4970968775566;0.649566650390625;0.207977294921875;2.11999999464751;213;1 A
48.5070968775314;0.649505615234375;0.207366943359375;2.12999999462227;214;1 A
48.5170968775061;0.649627685546875;0.2071533203125;2.13999999459702;215;1 A
48.5270968774809;0.6495361328125;0.206512451171875;2.14999999457177;216;1 A
48.5370968774556;0.64959716796875;0.205963134765625;2.15999999454652;217;1 A
48.5470968774304;0.649627685546875;0.20587158203125;2.16999999452128;218;1 A
48.5570968774051;0.6495361328125;0.205169677734375;2.17999999449603;219;1 A
48.5670968773799;0.649688720703125;0.204986572265625;2.18999999447078;220;1 A
48.5770968773546;0.649566650390625;0.2041015625;2.19999999444553;221;1 A
48.5870968773294;0.649627685546875;0.203582763671875;2.20999999442029;222;1 A
48.5970968773041;0.649566650390625;0.202789306640625;2.21999999439504;223;1 A
48.6070968772789;0.649566650390625;0.20233154296875;2.22999999436979;224;1 A
48.6170968772536;0.649505615234375;0.20184326171875;2.23999999434454;225;1 A
48.6270968772284;0.649627685546875;0.201080322265625;2.2499999943193;226;1 A
48.6370968772031;0.64959716796875;0.201141357421875;2.25999999429405;227;1 A
48.6470968771779;0.64959716796875;0.200592041015625;2.2699999942688;228;1 A
48.6570968771526;0.649627685546875;0.200775146484375;2.27999999424355;229;1 A
48.6670968771274;0.649566650390625;0.2010498046875;2.28999999421831;230;1 A
48.6770968771021;0.6495361328125;0.201507568359375;2.29999999419306;231;1 A
48.6870968770769;0.649627685546875;0.201507568359375;2.30999999416781;232;1 A
48.6970968770516;0.64959716796875;0.201263427734375;2.31999999414256;233;1 A
48.7070968770264;0.64959716796875;0.2010498046875;2.32999999411732;234;1 A
48.7170968770012;0.649658203125;0.200439453125;2.33999999409207;235;1 A
48.7270968769759;0.649566650390625;0.2005615234375;2.34999999406682;236;1 A
48.7370968769507;0.64959716796875;0.200164794921875;2.35999999404157;237;1 A
48.7470968769254;0.649566650390625;0.20025634765625;2.36999999401633;238;1 A
48.7570968769002;0.64959716796875;0.200103759765625;2.37999999399108;239;1 A
48.7670968768749;0.649566650390625;0.199798583984375;2.38999999396583;240;1 A
48.7770968768497;0.649566650390625;0.199859619140625;2.39999999394058;241;1 A
48.7870968768244;0.64959716796875;0.1998291015625;2.40999999391533;242;1 A
48.7970968767992;0.649566650390625;0.2003173828125;2.41999999389009;243;1 A
48.8070968767739;0.649688720703125;0.199981689453125;2.42999999386484;244;1 A
48.8170968767487;0.64959716796875;0.200469970703125;2.43999999383959;245;1 A
48.8270968767234;0.64959716796875;0.20037841796875;2.44999999381434;246;1 A
48.8370968766982;0.649566650390625;0.2005615234375;2.4599999937891;247;1 A
48.8470968766729;0.649627685546875;0.201080322265625;2.46999999376385;248;1 A
48.8570968766477;0.6495361328125;0.201141357421875;2.4799999937386;249;1 A
48.8670968766224;0.649566650390625;0.201629638671875;2.48999999371335;250;1 A
48.8770968765972;0.64959716796875;0.201416015625;2.49999999368811;251;1 A
48.8870968765719;0.64959716796875;0.201690673828125;2.50999999366286;252;1 A
48.8970968765467;0.649627685546875;0.201690673828125;2.51999999363761;253;1 A
48.9070968765215;0.649566650390625;0.20233154296875;2.52999999361236;254;1 A
48.9170968764962;0.649627685546875;0.202911376953125;2.53999999358712;255;1 A
48.927096876471;0.64959716796875;0.203216552734375;2.54999999356187;256;1 A
48.9370968764457;0.64959716796875;0.204071044921875;2.55999999353662;257;1 A
48.9470968764205;0.64959716796875;0.20404052734375;2.56999999351137;258;1 A
48.9570968763952;0.649627685546875;0.20452880859375;2.57999999348613;259;1 A
48.96709687637;0.649566650390625;0.204742431640625;2.58999999346088;260;1 A
48.9770968763447;0.64959716796875;0.2052001953125;2.59999999343563;261;1 A
48.9870968763195;0.649658203125;0.205047607421875;2.60999999341038;262;1 A
48.9970968762942;0.64959716796875;0.20501708984375;2.61999999338514;263;1 A
49.007096876269;0.64959716796875;0.204925537109375;2.62999999335989;264;1 A
49.0170968762437;0.649566650390625;0.20465087890625;2.63999999333464;265;1 A
49.0270968762185;0.64959716796875;0.205230712890625;2.64999999330939;266;1 A
49.0370968761932;0.6495361328125;0.205322265625;2.65999999328415;267;1 A
49.047096876168;0.649627685546875;0.20623779296875;2.6699999932589;268;1 A
49.0570968761427;0.649658203125;0.20672607421875;2.67999999323365;269;1 A
49.0670968761175;0.649627685546875;0.207275390625;2.6899999932084;270;1 A
49.0770968760922;0.649627685546875;0.2080078125;2.69999999318316;271;1 A
49.087096876067;0.649627685546875;0.208740234375;2.70999999315791;272;1 A
49.0970968760417;0.6495361328125;0.209686279296875;2.71999999313266;273;1 A
49.1070968760165;0.649627685546875;0.209625244140625;2.72999999310741;274;1 A
49.1170968759913;0.64959716796875;0.2100830078125;2.73999999308217;275;1 A
49.127096875966;0.649566650390625;0.209686279296875;2.74999999305692;276;1 A
49.1370968759408;0.649627685546875;0.209686279296875;2.75999999303167;277;1 A
49.1470968759155;0.649627685546875;0.2099609375;2.76999999300642;278;1 A
49.1570968758903;0.649627685546875;0.209991455078125;2.77999999298117;279;1 A
49.167096875865;0.649566650390625;0.209930419921875;2.78999999295593;280;1 A
49.1770968758398;0.649627685546875;0.209381103515625;2.79999999293068;281;1 A
49.1870968758145;0.6495361328125;0.209197998046875;2.80999999290543;282;1 A
49.1970968757893;0.64959716796875;0.208648681640625;2.81999999288018;283;1 A
49.207096875764;0.649627685546875;0.20880126953125;2.82999999285494;284;1 A
49.2170968757388;0.649566650390625;0.20849609375;2.83999999282969;285;1 A
49.2270968757135;0.649627685546875;0.208251953125;2.84999999280444;286;1 A
49.2370968756883;0.649627685546875;0.208251953125;2.85999999277919;287;1 A
49.247096875663;0.649566650390625;0.2078857421875;2.86999999275395;288;1 A
49.2570968756378;0.649627685546875;0.20806884765625;2.8799999927287;289;1 A
49.2670968756125;0.6495361328125;0.20806884765625;2.88999999270345;290;1 A
49.2770968755873;0.649566650390625;0.208465576171875;2.8999999926782;291;1 A
49.287096875562;0.64959716796875;0.2081298828125;2.90999999265296;292;1 A
49.2970968755368;0.649627685546875;0.20782470703125;2.91999999262771;293;1 A
49.3070968755115;0.64959716796875;0.207122802734375;2.92999999260246;294;1 A
49.3170968754863;0.64959716796875;0.206298828125;2.93999999257721;295;1 A
49.3270968754611;0.649627685546875;0.20599365234375;2.94999999255197;296;1 A
49.3370968754358;0.649566650390625;0.204925537109375;2.95999999252672;297;1 A
49.3470968754106;0.649566650390625;0.204498291015625;2.96999999250147;298;1 A
49.3570968753853;0.649627685546875;0.20367431640625;2.97999999247622;299;1 A
49.3670968753601;0.64959716796875;0.20318603515625;2.98999999245098;300;1 A
49.3770968753348;0.64959716796875;0.202880859375;2.99999999242573;301;1 A
49.3870968753096;0.64959716796875;0.202850341796875;3.00999999240048;302;1 A
49.3970968752843;0.649627685546875;0.203216552734375;3.01999999237523;303;1 A
49.4070968752591;0.64959716796875;0.202972412109375;3.02999999234999;304;1 A
49.4170968752338;0.64959716796875;0.203460693359375;3.03999999232474;305;1 A
49.4270968752086;0.649627685546875;0.20306396484375;3.04999999229949;306;1 A
49.4370968751833;0.649627685546875;0.203125;3.05999999227424;307;1 A
49.4470968751581;0.64959716796875;0.202972412109375;3.069999992249;308;1 A
49.4570968751328;0.6495361328125;0.20263671875;3.07999999222375;309;1 A
49.4670968751076;0.64959716796875;0.201995849609375;3.0899999921985;310;1 A
49.4770968750823;0.649627685546875;0.20111083984375;3.09999999217325;311;1 A
49.4870968750571;0.649566650390625;0.2008056640625;3.109999992148;312;1 A
49.4970968750318;0.649566650390625;0.200042724609375;3.11999999212276;313;1 A
49.5070968750066;0.64959716796875;0.200164794921875;3.12999999209751;314;1 A
49.5170968749813;0.64947509765625;0.19964599609375;3.13999999207226;315;1 A
49.5270968749561;0.649658203125;0.199493408203125;3.14999999204701;316;1 A
49.5370968749309;0.649627685546875;0.199249267578125;3.15999999202177;317;1 A
49.5470968749056;0.649566650390625;0.19866943359375;3.16999999199652;318;1 A
49.5570968748804;0.649627685546875;0.19866943359375;3.17999999197127;319;1 A
49.5670968748551;0.649658203125;0.198455810546875;3.18999999194602;320;1 A
49.5770968748299;0.649566650390625;0.198822021484375;3.19999999192078;321;1 A
49.5870968748046;0.64959716796875;0.198516845703125;3.20999999189553;322;1 A
49.5970968747794;0.64959716796875;0.198760986328125;3.21999999187028;323;1 A
49.6070968747541;0.649566650390625;0.198577880859375;3.22999999184503;324;1 A
49.6170968747289;0.64959716796875;0.198486328125;3.23999999181979;325;1 A
49.6270968747036;0.649627685546875;0.19873046875;3.24999999179454;326;1 A
49.6370968746784;0.64959716796875;0.198394775390625;3.25999999176929;327;1 A
49.6470968746531;0.649627685546875;0.19854736328125;3.26999999174404;328;1 A
49.6570968746279;0.649627685546875;0.198211669921875;3.2799999917188;329;1 A
49.6670968746026;0.649627685546875;0.19842529296875;3.28999999169355;330;1 A
49.6770968745774;0.6495361328125;0.198577880859375;3.2999999916683;331;1 A
49.6870968745521;0.649658203125;0.19921875;3.30999999164305;332;1 A
49.6970968745269;0.649627685546875;0.199615478515625;3.31999999161781;333;1 A
49.7070968745016;0.649627685546875;0.199554443359375;3.32999999159256;334;1 A
49.7170968744764;0.649627685546875;0.200164794921875;3.33999999156731;335;1 A
49.7270968744511;0.64959716796875;0.2000732421875;3.34999999154206;336;1 A
49.7370968744259;0.64959716796875;0.200592041015625;3.35999999151682;337;1 A
49.7470968744007;0.649627685546875;0.200836181640625;3.36999999149157;338;1 A
49.7570968743754;0.64947509765625;0.20123291015625;3.37999999146632;339;1 A
49.7670968743502;0.649627685546875;0.201171875;3.38999999144107;340;1 A
49.7770968743249;0.64959716796875;0.2010498046875;3.39999999141583;341;1 A
49.7870968742997;0.649566650390625;0.201263427734375;3.40999999139058;342;1 A
49.7970968742744;0.64959716796875;0.201263427734375;3.41999999136533;343;1 A
49.8070968742492;0.649566650390625;0.2021484375;3.42999999134008;344;1 A
49.8170968742239;0.649566650390625;0.202301025390625;3.43999999131483;345;1 A
49.8270968741987;0.649505615234375;0.202789306640625;3.44999999128959;346;1 A
49.8370968741734;0.649658203125;0.2030029296875;3.45999999126434;347;1 A
49.8470968741482;0.6495361328125;0.202850341796875;3.46999999123909;348;1 A
49.8570968741229;0.64959716796875;0.20294189453125;3.47999999121384;349;1 A
49.8670968740977;0.649566650390625;0.202880859375;3.4899999911886;350;1 A
49.8770968740724;0.6495361328125;0.203216552734375;3.49999999116335;351;1 A
49.8870968740472;0.649658203125;0.202667236328125;3.5099999911381;352;1 A
49.8970968740219;0.649627685546875;0.202606201171875;3.51999999111285;353;1 A
49.9070968739967;0.64959716796875;0.20196533203125;3.52999999108761;354;1 A
49.9170968739714;0.64959716796875;0.201751708984375;3.53999999106236;355;1 A
49.9270968739462;0.649627685546875;0.201995849609375;3.54999999103711;356;1 A
49.937096873921;0.649505615234375;0.20196533203125;3.55999999101186;357;1 A
49.9470968738957;0.649627685546875;0.2022705078125;3.56999999098662;358;1 A
49.9570968738705;0.649658203125;0.20184326171875;3.57999999096137;359;1 A
49.9670968738452;0.649566650390625;0.201812744140625;3.58999999093612;360;1 A
49.97709687382;0.649658203125;0.201385498046875;3.59999999091087;361;1 A
49.9870968737947;0.649658203125;0.20166015625;3.60999999088563;362;1 A
49.9970968737695;0.649505615234375;0.20166015625;3.61999999086038;363;1 A
50.0070968737442;0.649566650390625;0.2015380859375;3.62999999083513;364;1 A
50.017096873719;0.649658203125;0.201751708984375;3.63999999080988;365;1 A
50.0270968736937;0.64959716796875;0.201263427734375;3.64999999078464;366;1 A
50.0370968736685;0.649658203125;0.20147705078125;3.65999999075939;367;1 A
50.0470968736432;0.649627685546875;0.201446533203125;3.66999999073414;368;1 A
50.057096873618;0.64959716796875;0.201507568359375;3.67999999070889;369;1 A
50.0670968735927;0.649505615234375;0.20086669921875;3.68999999068365;370;1 A
50.0770968735675;0.649627685546875;0.200408935546875;3.6999999906584;371;1 A
50.0870968735422;0.6495361328125;0.199951171875;3.70999999063315;372;1 A
50.097096873517;0.649566650390625;0.199462890625;3.7199999906079;373;1 A
50.1070968734917;0.64959716796875;0.19970703125;3.72999999058266;374;1 A
50.1170968734665;0.649566650390625;0.199493408203125;3.73999999055741;375;1 A
50.1270968734412;0.649658203125;0.200042724609375;3.74999999053216;376;1 A
50.137096873416;0.64959716796875;0.200286865234375;3.75999999050691;377;1 A
50.1470968733908;0.649627685546875;0.200897216796875;3.76999999048167;378;1 A
50.1570968733655;0.649627685546875;0.201934814453125;3.77999999045642;379;1 A
50.1670968733403;0.64959716796875;0.203216552734375;3.78999999043117;380;1 A
50.177096873315;0.649505615234375;0.204681396484375;3.79999999040592;381;1 A
50.1870968732898;0.64959716796875;0.20513916015625;3.80999999038067;382;1 A
50.1970968732645;0.649627685546875;0.20611572265625;3.81999999035543;383;1 A
50.2070968732393;0.64959716796875;0.206024169921875;3.82999999033018;384;1 A
50.217096873214;0.649566650390625;0.20623779296875;3.83999999030493;385;1 A
50.2270968731888;0.649566650390625;0.206268310546875;3.84999999027968;386;1 A
50.2370968731635;0.649505615234375;0.20587158203125;3.85999999025444;387;1 A
50.2470968731383;0.649566650390625;0.205352783203125;3.86999999022919;388;1 A
50.257096873113;0.649627685546875;0.204376220703125;3.87999999020394;389;1 A
50.2670968730878;0.649566650390625;0.2041015625;3.88999999017869;390;1 A
50.2770968730625;0.6495361328125;0.203643798828125;3.89999999015345;391;1 A
50.2870968730373;0.649566650390625;0.204010009765625;3.9099999901282;392;1 A
50.297096873012;0.649566650390625;0.20391845703125;3.91999999010295;393;1 A
50.3070968729868;0.649566650390625;0.20391845703125;3.9299999900777;394;1 A
50.3170968729615;0.649658203125;0.204376220703125;3.93999999005246;395;1 A
50.3270968729363;0.64959716796875;0.204376220703125;3.94999999002721;396;1 A
50.337096872911;0.649566650390625;0.205078125;3.95999999000196;397;1 A
50.3470968728858;0.649627685546875;0.205657958984375;3.96999998997671;398;1 A
50.3570968728606;0.649566650390625;0.206634521484375;3.97999998995147;399;1 A
50.3670968728353;0.64959716796875;0.206756591796875;3.98999998992622;400;1 A
50.3770968728101;0.649658203125;0.2071533203125;3.99999998990097;401;1 A
50.3870968727848;0.649566650390625;0.207275390625;4.00999998987572;402;1 A
50.3970968727596;0.6495361328125;0.20703125;4.01999998985048;403;1 A
50.4070968727343;0.64959716796875;0.207183837890625;4.02999998982523;404;1 A
50.4170968727091;0.64947509765625;0.20635986328125;4.03999998979998;405;1 A
50.4270968726838;0.6495361328125;0.205841064453125;4.04999998977473;406;1 A
50.4370968726586;0.649627685546875;0.20452880859375;4.05999998974949;407;1 A
50.4470968726333;0.649566650390625;0.20361328125;4.06999998972424;408;1 A
50.4570968726081;0.649566650390625;0.202911376953125;4.07999998969899;409;1 A
50.4670968725828;0.649566650390625;0.20269775390625;4.08999998967374;410;1 A
50.4770968725576;0.6495361328125;0.202606201171875;4.0999999896485;411;1 A
50.4870968725323;0.649566650390625;0.201904296875;4.10999998962325;412;1 A
50.4970968725071;0.649627685546875;0.20220947265625;4.119999989598;413;1 A
50.5070968724818;0.649566650390625;0.201934814453125;4.12999998957275;414;1 A
50.5170968724566;0.649566650390625;0.202423095703125;4.1399999895475;415;1 A
50.5270968724313;0.649566650390625;0.202850341796875;4.14999998952226;416;1 A
50.5370968724061;0.64959716796875;0.20318603515625;4.15999998949701;417;1 A
50.5470968723808;0.64959716796875;0.203399658203125;4.16999998947176;418;1 A
50.5570968723556;0.649658203125;0.20318603515625;4.17999998944651;419;1 A
50.5670968723304;0.64959716796875;0.2032470703125;4.18999998942127;420;1 A
50.5770968723051;0.6495361328125;0.202850341796875;4.19999998939602;421;1 A
50.5870968722799;0.649627685546875;0.20330810546875;4.20999998937077;422;1 A
50.5970968722546;0.649505615234375;0.203216552734375;4.21999998934552;423;1 A
50.6070968722294;0.649627685546875;0.203521728515625;4.22999998932028;424;1 A
50.6170968722041;0.649658203125;0.204193115234375;4.23999998929503;425;1 A
50.6270968721789;0.649505615234375;0.20440673828125;4.24999998926978;426;1 A
50.6370968721536;0.64959716796875;0.204925537109375;4.25999998924453;427;1 A
50.6470968721284;0.64959716796875;0.205047607421875;4.26999998921929;428;1 A
50.6570968721031;0.649566650390625;0.205535888671875;4.27999998919404;429;1 A
50.6670968720779;0.649566650390625;0.205108642578125;4.28999998916879;430;1 A
50.6770968720526;0.64959716796875;0.20538330078125;4.29999998914354;431;1 A
50.6870968720274;0.649566650390625;0.20538330078125;4.3099999891183;432;1 A
50.6970968720021;0.649627685546875;0.205352783203125;4.31999998909305;433;1 A
50.7070968719769;0.649627685546875;0.205718994140625;4.3299999890678;434;1 A
50.7170968719516;0.649505615234375;0.205291748046875;4.33999998904255;435;1 A
50.7270968719264;0.649505615234375;0.205413818359375;4.34999998901731;436;1 A
50.7370968719011;0.649566650390625;0.205047607421875;4.35999998899206;437;1 A
50.7470968718759;0.649505615234375;0.205291748046875;4.36999998896681;438;1 A
50.7570968718506;0.6495361328125;0.205474853515625;4.37999998894156;439;1 A
50.7670968718254;0.649627685546875;0.2060546875;4.38999998891632;440;1 A
50.7770968718002;0.6495361328125;0.206695556640625;4.39999998889107;441;1 A
50.7870968717749;0.649658203125;0.20672607421875;4.40999998886582;442;1 A
50.7970968717497;0.649566650390625;0.20745849609375;4.41999998884057;443;1 A
50.8070968717244;0.649566650390625;0.207183837890625;4.42999998881533;444;1 A
50.8170968716992;0.6495361328125;0.207611083984375;4.43999998879008;445;1 A
50.8270968716739;0.649627685546875;0.2081298828125;4.44999998876483;446;1 A
50.8370968716487;0.6495361328125;0.209075927734375;4.45999998873958;447;1 A
50.8470968716234;0.649627685546875;0.20953369140625;4.46999998871433;448;1 A
50.8570968715982;0.649627685546875;0.20965576171875;4.47999998868909;449;1 A
50.8670968715729;0.649627685546875;0.20989990234375;4.48999998866384;450;1 A
50.8770968715477;0.649627685546875;0.209808349609375;4.49999998863859;451;1 A
50.8870968715224;0.649566650390625;0.210662841796875;4.50999998861334;452;1 A
50.8970968714972;0.649566650390625;0.21087646484375;4.5199999885881;453;1 A
50.9070968714719;0.649566650390625;0.211669921875;4.52999998856285;454;1 A
50.9170968714467;0.649627685546875;0.21221923828125;4.5399999885376;455;1 A
50.9270968714214;0.64959716796875;0.212615966796875;4.54999998851235;456;1 A
50.9370968713962;0.64959716796875;0.213287353515625;4.55999998848711;457;1 A
50.9470968713709;0.649658203125;0.21368408203125;4.56999998846186;458;1 A
50.9570968713457;0.649566650390625;0.21453857421875;4.57999998843661;459;1 A
50.9670968713205;0.649566650390625;0.214447021484375;4.58999998841136;460;1 A
50.9770968712952;0.649566650390625;0.2149658203125;4.59999998838612;461;1 A
50.98709687127;0.649505615234375;0.2147216796875;4.60999998836087;462;1 A
50.9970968712447;0.64959716796875;0.214813232421875;4.61999998833562;463;1 A
51.0070968712195;0.649566650390625;0.215240478515625;4.62999998831037;464;1 A
51.0170968711942;0.649566650390625;0.21533203125;4.63999998828513;465;1 A
51.027096871169;0.649627685546875;0.215728759765625;4.64999998825988;466;1 A
51.0370968711437;0.649627685546875;0.21527099609375;4.65999998823463;467;1 A
51.0470968711185;0.6495361328125;0.215118408203125;4.66999998820938;468;1 A
51.0570968710932;0.649505615234375;0.21466064453125;4.67999998818414;469;1 A
51.067096871068;0.64959716796875;0.21484375;4.68999998815889;470;1 A
51.0770968710427;0.6495361328125;0.214874267578125;4.69999998813364;471;1 A
51.0870968710175;0.649566650390625;0.214691162109375;4.70999998810839;472;1 A
51.0970968709922;0.64959716796875;0.215087890625;4.71999998808315;473;1 A
51.107096870967;0.649627685546875;0.21478271484375;4.7299999880579;474;1 A
51.1170968709417;0.64959716796875;0.21514892578125;4.73999998803265;475;1 A
51.1270968709165;0.64959716796875;0.2154541015625;4.7499999880074;476;1 A
51.1370968708912;0.649505615234375;0.216033935546875;4.75999998798216;477;1 A
51.147096870866;0.64959716796875;0.215728759765625;4.76999998795691;478;1 A
51.1570968708407;0.64959716796875;0.21533203125;4.77999998793166;479;1 A
51.1670968708155;0.6495361328125;0.2147216796875;4.78999998790641;480;1 A
51.1770968707903;0.649627685546875;0.213836669921875;4.79999998788116;481;1 A
51.187096870765;0.64959716796875;0.213592529296875;4.80999998785592;482;1 A
51.1970968707398;0.6495361328125;0.2127685546875;4.81999998783067;483;1 A
51.2070968707145;0.649566650390625;0.212677001953125;4.82999998780542;484;1 A
51.2170968706893;0.64959716796875;0.2122802734375;4.83999998778017;485;1 A
51.227096870664;0.649566650390625;0.2119140625;4.84999998775493;486;1 A
51.2370968706388;0.649566650390625;0.211639404296875;4.85999998772968;487;1 A
51.2470968706135;0.649658203125;0.211273193359375;4.86999998770443;488;1 A
51.2570968705883;0.649505615234375;0.211181640625;4.87999998767918;489;1 A
51.267096870563;0.649627685546875;0.210418701171875;4.88999998765394;490;1 A
51.2770968705378;0.649627685546875;0.21063232421875;4.89999998762869;491;1 A
51.2870968705125;0.64959716796875;0.21014404296875;4.90999998760344;492;1 A
51.2970968704873;0.6495361328125;0.210052490234375;4.91999998757819;493;1 A
51.307096870462;0.649566650390625;0.2099609375;4.92999998755295;494;1 A
51.3170968704368;0.649566650390625;0.209716796875;4.9399999875277;495;1 A
51.3270968704115;0.649566650390625;0.20953369140625;4.94999998750245;496;1 A
51.3370968703863;0.649627685546875;0.20892333984375;4.9599999874772;497;1 A
51.347096870361;0.6495361328125;0.20867919921875;4.96999998745196;498;1 A
51.3570968703358;0.64959716796875;0.208038330078125;4.97999998742671;499;1 A
51.3670968703105;0.649566650390625;0.208160400390625;4.98999998740146;500;1 A
51.3770968702853;0.649505615234375;0.207733154296875;4.99999998737621;501;1 A
51.3870968702601;0.649505615234375;0.207427978515625;5.00999998735097;502;1 A
51.3970968702348;0.649658203125;0.2071533203125;5.01999998732572;503;1 A
51.4070968702096;0.6495361328125;0.20648193359375;5.02999998730047;504;1 A
51.4170968701843;0.64959716796875;0.206390380859375;5.03999998727522;505;1 A
51.4270968701591;0.64959716796875;0.206298828125;5.04999998724998;506;1 A
51.4370968701338;0.6495361328125;0.206756591796875;5.05999998722473;507;1 A
51.4470968701086;0.649658203125;0.206695556640625;5.06999998719948;508;1 A
51.4570968700833;0.649627685546875;0.20703125;5.07999998717423;509;1 A
51.4670968700581;0.64959716796875;0.207122802734375;5.08999998714899;510;1 A
51.4770968700328;0.649505615234375;0.20703125;5.09999998712374;511;1 A
51.4870968700076;0.649566650390625;0.20733642578125;5.10999998709849;512;1 A
51.4970968699823;0.649566650390625;0.206878662109375;5.11999998707324;513;1 A
51.5070968699571;0.649627685546875;0.20697021484375;5.129999987048;514;1 A
51.5170968699318;0.649627685546875;0.206329345703125;5.13999998702275;515;1 A
51.5270968699066;0.64959716796875;0.205810546875;5.1499999869975;516;1 A
51.5370968698813;0.649505615234375;0.205108642578125;5.15999998697225;517;1 A
51.5470968698561;0.64959716796875;0.204803466796875;5.169999986947;518;1 A
51.5570968698308;0.6495361328125;0.204833984375;5.17999998692176;519;1 A
51.5670968698056;0.64959716796875;0.20452880859375;5.18999998689651;520;1 A
51.5770968697803;0.649627685546875;0.205230712890625;5.19999998687126;521;1 A
51.5870968697551;0.649566650390625;0.20513916015625;5.20999998684601;522;1 A
51.5970968697299;0.649566650390625;0.205810546875;5.21999998682077;523;1 A
51.6070968697046;0.649627685546875;0.2064208984375;5.22999998679552;524;1 A
51.6170968696794;0.649505615234375;0.20703125;5.23999998677027;525;1 A
51.6270968696541;0.64959716796875;0.207183837890625;5.24999998674502;526;1 A
51.6370968696289;0.64959716796875;0.206817626953125;5.25999998671978;527;1 A
51.6470968696036;0.649505615234375;0.20654296875;5.26999998669453;528;1 A
51.6570968695784;0.64959716796875;0.20550537109375;5.27999998666928;529;1 A
51.6670968695531;0.64959716796875;0.2052001953125;5.28999998664403;530;1 A
51.6770968695279;0.64959716796875;0.204315185546875;5.29999998661879;531;1 A
51.6870968695026;0.649658203125;0.204071044921875;5.30999998659354;532;1 A
51.6970968694774;0.649627685546875;0.203887939453125;5.31999998656829;533;1 A
51.7070968694521;0.649566650390625;0.203521728515625;5.32999998654304;534;1 A
51.7170968694269;0.64959716796875;0.203704833984375;5.3399999865178;535;1 A
51.7270968694016;0.649627685546875;0.203582763671875;5.34999998649255;536;1 A
51.7370968693764;0.649505615234375;0.203826904296875;5.3599999864673;537;1 A
51.7470968693511;0.649627685546875;0.203369140625;5.36999998644205;538;1 A
51.7570968693259;0.649566650390625;0.2034912109375;5.37999998641681;539;1 A
51.7670968693006;0.6495361328125;0.203155517578125;5.38999998639156;540;1 A
51.7770968692754;0.649566650390625;0.202911376953125;5.39999998636631;541;1 A
51.7870968692501;0.649566650390625;0.202972412109375;5.40999998634106;542;1 A
51.7970968692249;0.649566650390625;0.202392578125;5.41999998631582;543;1 A
51.8070968691997;0.649627685546875;0.201995849609375;5.42999998629057;544;1 A
51.8170968691744;0.649627685546875;0.20074462890625;5.43999998626532;545;1 A
51.8270968691492;0.649566650390625;0.199981689453125;5.44999998624007;546;1 A
51.8370968691239;0.649627685546875;0.1990966796875;5.45999998621483;547;1 A
51.8470968690987;0.649627685546875;0.19891357421875;5.46999998618958;548;1 A
51.8570968690734;0.64959716796875;0.19873046875;5.47999998616433;549;1 A
51.8670968690482;0.64959716796875;0.198394775390625;5.48999998613908;550;1 A
51.8770968690229;0.649627685546875;0.198638916015625;5.49999998611383;551;1 A
51.8870968689977;0.6495361328125;0.1981201171875;5.50999998608859;552;1 A
51.8970968689724;0.649566650390625;0.19830322265625;5.51999998606334;553;1 A
51.9070968689472;0.64959716796875;0.198516845703125;5.52999998603809;554;1 A
51.9170968689219;0.649566650390625;0.199127197265625;5.53999998601284;555;1 A
51.9270968688967;0.649627685546875;0.199432373046875;5.5499999859876;556;1 A
51.9370968688714;0.649688720703125;0.199737548828125;5.55999998596235;557;1 A
51.9470968688462;0.64959716796875;0.200225830078125;5.5699999859371;558;1 A
51.9570968688209;0.6495361328125;0.200469970703125;5.57999998591185;559;1 A
51.9670968687957;0.6495361328125;0.201507568359375;5.58999998588661;560;1 A
51.9770968687704;0.64959716796875;0.201873779296875;5.59999998586136;561;1 A
51.9870968687452;0.649627685546875;0.202667236328125;5.60999998583611;562;1 A
51.99709686872;0.649627685546875;0.203094482421875;5.61999998581086;563;1 A
52.0070968686947;0.64959716796875;0.203399658203125;5.62999998578562;564;1 A
52.0170968686695;0.6495361328125;0.203948974609375;5.63999998576037;565;1 A
52.0270968686442;0.6495361328125;0.204254150390625;5.64999998573512;566;1 A
52.037096868619;0.64959716796875;0.20477294921875;5.65999998570987;567;1 A
52.0470968685937;0.649627685546875;0.20440673828125;5.66999998568463;568;1 A
52.0570968685685;0.649627685546875;0.20458984375;5.67999998565938;569;1 A
52.0670968685432;0.649566650390625;0.204010009765625;5.68999998563413;570;1 A
52.077096868518;0.649688720703125;0.20367431640625;5.69999998560888;571;1 A
52.0870968684927;0.64959716796875;0.20343017578125;5.70999998558364;572;1 A
52.0970968684675;0.64959716796875;0.20294189453125;5.71999998555839;573;1 A
52.1070968684422;0.6495361328125;0.202667236328125;5.72999998553314;574;1 A
52.117096868417;0.64959716796875;0.20172119140625;5.73999998550789;575;1 A
52.1270968683917;0.649566650390625;0.201080322265625;5.74999998548265;576;1 A
52.1370968683665;0.64959716796875;0.199981689453125;5.7599999854574;577;1 A
52.1470968683412;0.649627685546875;0.199615478515625;5.76999998543215;578;1 A
52.157096868316;0.6495361328125;0.198944091796875;5.7799999854069;579;1 A
52.1670968682907;0.649688720703125;0.198333740234375;5.78999998538166;580;1 A
52.1770968682655;0.649627685546875;0.19805908203125;5.79999998535641;581;1 A
52.1870968682402;0.6495361328125;0.197265625;5.80999998533116;582;1 A
52.197096868215;0.649566650390625;0.19720458984375;5.81999998530591;583;1 A
52.2070968681898;0.649566650390625;0.197235107421875;5.82999998528066;584;1 A
52.2170968681645;0.649505615234375;0.197784423828125;5.83999998525542;585;1 A
52.2270968681393;0.649658203125;0.197784423828125;5.84999998523017;586;1 A
52.237096868114;0.649658203125;0.198089599609375;5.85999998520492;587;1 A
52.2470968680888;0.64959716796875;0.198089599609375;5.86999998517967;588;1 A
52.2570968680635;0.649566650390625;0.1981201171875;5.87999998515443;589;1 A
52.2670968680383;0.649505615234375;0.19866943359375;5.88999998512918;590;1 A
52.277096868013;0.649566650390625;0.198760986328125;5.89999998510393;591;1 A
52.2870968679878;0.649566650390625;0.199310302734375;5.90999998507868;592;1 A
52.2970968679625;0.649627685546875;0.198974609375;5.91999998505344;593;1 A
52.3070968679373;0.649566650390625;0.19873046875;5.92999998502819;594;1 A
52.317096867912;0.649627685546875;0.198394775390625;5.93999998500294;595;1 A
52.3270968678868;0.64959716796875;0.19830322265625;5.94999998497769;596;1 A
52.3370968678615;0.64971923828125;0.198089599609375;5.95999998495245;597;1 A
52.3470968678363;0.64959716796875;0.197540283203125;5.9699999849272;598;1 A
52.357096867811;0.649627685546875;0.197967529296875;5.97999998490195;599;1 A
52.3670968677858;0.649566650390625;0.1978759765625;5.9899999848767;600;1 A
52.3770968677605;0.649566650390625;0.198455810546875;5.99999998485146;601;1 A
52.3870968677353;0.649566650390625;0.19873046875;6.00999998482621;602;1 A
52.39709686771;0.649566650390625;0.19891357421875;6.01999998480096;603;1 A
52.4070968676848;0.649658203125;0.198760986328125;6.02999998477571;604;1 A
52.4170968676596;0.649658203125;0.198150634765625;6.03999998475047;605;1 A
52.4270968676343;0.64959716796875;0.197906494140625;6.04999998472522;606;1 A
52.4370968676091;0.64959716796875;0.1971435546875;6.05999998469997;607;1 A
52.4470968675838;0.649658203125;0.19708251953125;6.06999998467472;608;1 A
52.4570968675586;0.649505615234375;0.19635009765625;6.07999998464948;609;1 A
52.4670968675333;0.64959716796875;0.196075439453125;6.08999998462423;610;1 A
52.4770968675081;0.649688720703125;0.195770263671875;6.09999998459898;611;1 A
52.4870968674828;0.64959716796875;0.195220947265625;6.10999998457373;612;1 A
52.4970968674576;0.649627685546875;0.195220947265625;6.11999998454849;613;1 A
52.5070968674323;0.649505615234375;0.19512939453125;6.12999998452324;614;1 A
52.5170968674071;0.6495361328125;0.19549560546875;6.13999998449799;615;1 A
52.5270968673818;0.649566650390625;0.195343017578125;6.14999998447274;616;1 A
52.5370968673566;0.649688720703125;0.195831298828125;6.1599999844475;617;1 A
52.5470968673313;0.64959716796875;0.1959228515625;6.16999998442225;618;1 A
52.5570968673061;0.64959716796875;0.196197509765625;6.179999984397;619;1 A
52.5670968672808;0.64959716796875;0.196807861328125;6.18999998437175;620;1 A
52.5770968672556;0.649627685546875;0.1968994140625;6.1999999843465;621;1 A
52.5870968672303;0.649566650390625;0.197418212890625;6.20999998432126;622;1 A
52.5970968672051;0.64959716796875;0.197052001953125;6.21999998429601;623;1 A
52.6070968671798;0.649566650390625;0.19708251953125;6.22999998427076;624;1 A
52.6170968671546;0.649566650390625;0.196868896484375;6.23999998424551;625;1 A
52.6270968671294;0.649627685546875;0.197174072265625;6.24999998422027;626;1 A
52.6370968671041;0.649566650390625;0.197296142578125;6.25999998419502;627;1 A
52.6470968670789;0.649627685546875;0.197052001953125;6.26999998416977;628;1 A
52.6570968670536;0.64959716796875;0.197509765625;6.27999998414452;629;1 A
52.6670968670284;0.64959716796875;0.19708251953125;6.28999998411928;630;1 A
52.6770968670031;0.649627685546875;0.197418212890625;6.29999998409403;631;1 A
52.6870968669779;0.649658203125;0.19757080078125;6.30999998406878;632;1 A
52.6970968669526;0.64959716796875;0.197967529296875;6.31999998404353;633;1 A
52.7070968669274;0.6495361328125;0.197906494140625;6.32999998401829;634;1 A
52.7170968669021;0.649658203125;0.19769287109375;6.33999998399304;635;1 A
52.7270968668769;0.649627685546875;0.1976318359375;6.34999998396779;636;1 A
52.7370968668516;0.649566650390625;0.197235107421875;6.35999998394254;637;1 A
52.7470968668264;0.649566650390625;0.19769287109375;6.3699999839173;638;1 A
52.7570968668011;0.64959716796875;0.197509765625;6.37999998389205;639;1 A
52.7670968667759;0.64959716796875;0.197998046875;6.3899999838668;640;1 A
52.7770968667506;0.649627685546875;0.1981201171875;6.39999998384155;641;1 A
52.7870968667254;0.6495361328125;0.19793701171875;6.40999998381631;642;1 A
52.7970968667001;0.649566650390625;0.197906494140625;6.41999998379106;643;1 A
52.8070968666749;0.649627685546875;0.197723388671875;6.42999998376581;644;1 A
52.8170968666496;0.64959716796875;0.1978759765625;6.43999998374056;645;1 A
52.8270968666244;0.64959716796875;0.1973876953125;6.44999998371532;646;1 A
52.8370968665992;0.649627685546875;0.197845458984375;6.45999998369007;647;1 A
52.8470968665739;0.6495361328125;0.19775390625;6.46999998366482;648;1 A
52.8570968665487;0.6495361328125;0.198211669921875;6.47999998363957;649;1 A
52.8670968665234;0.649627685546875;0.1988525390625;6.48999998361433;650;1 A
52.8770968664982;0.6495361328125;0.19921875;6.49999998358908;651;1 A
52.8870968664729;0.649566650390625;0.2000732421875;6.50999998356383;652;1 A
52.8970968664477;0.649566650390625;0.20013427734375;6.51999998353858;653;1 A
52.9070968664224;0.649566650390625;0.20068359375;6.52999998351333;654;1 A
52.9170968663972;0.64959716796875;0.20086669921875;6.53999998348809;655;1 A
52.9270968663719;0.649627685546875;0.201751708984375;6.54999998346284;656;1 A
52.9370968663467;0.6495361328125;0.202423095703125;6.55999998343759;657;1 A
52.9470968663214;0.649627685546875;0.202911376953125;6.56999998341234;658;1 A
52.9570968662962;0.64959716796875;0.203826904296875;6.5799999833871;659;1 A
52.9670968662709;0.649566650390625;0.203857421875;6.58999998336185;660;1 A
52.9770968662457;0.64959716796875;0.2044677734375;6.5999999833366;661;1 A
52.9870968662204;0.64959716796875;0.20477294921875;6.60999998331135;662;1 A
52.9970968661952;0.649566650390625;0.205108642578125;6.61999998328611;663;1 A
53.0070968661699;0.64959716796875;0.204681396484375;6.62999998326086;664;1 A
53.0170968661447;0.649658203125;0.204315185546875;6.63999998323561;665;1 A
53.0270968661195;0.649566650390625;0.203948974609375;6.64999998321036;666;1 A
53.0370968660942;0.649566650390625;0.20330810546875;6.65999998318512;667;1 A
53.047096866069;0.649627685546875;0.203094482421875;6.66999998315987;668;1 A
53.0570968660437;0.649627685546875;0.202239990234375;6.67999998313462;669;1 A
53.0670968660185;0.649658203125;0.20196533203125;6.68999998310937;670;1 A
53.0770968659932;0.649627685546875;0.20123291015625;6.69999998308413;671;1 A
53.087096865968;0.649566650390625;0.200439453125;6.70999998305888;672;1 A
53.0970968659427;0.649566650390625;0.199737548828125;6.71999998303363;673;1 A
53.1070968659175;0.6495361328125;0.199127197265625;6.72999998300838;674;1 A
53.1170968658922;0.649566650390625;0.19891357421875;6.73999998298314;675;1 A
53.127096865867;0.649658203125;0.198211669921875;6.74999998295789;676;1 A
53.1370968658417;0.64959716796875;0.198394775390625;6.75999998293264;677;1 A
53.1470968658165;0.649627685546875;0.198211669921875;6.76999998290739;678;1 A
53.1570968657912;0.649566650390625;0.198638916015625;6.77999998288215;679;1 A
53.167096865766;0.649627685546875;0.199127197265625;6.7899999828569;680;1 A
53.1770968657407;0.649566650390625;0.1993408203125;6.79999998283165;681;1 A
53.1870968657155;0.64959716796875;0.1993408203125;6.8099999828064;682;1 A
53.1970968656902;0.649658203125;0.1986083984375;6.81999998278116;683;1 A
53.207096865665;0.6495361328125;0.19818115234375;6.82999998275591;684;1 A
53.2170968656397;0.64959716796875;0.197418212890625;6.83999998273066;685;1 A
53.2270968656145;0.649658203125;0.19744873046875;6.84999998270541;686;1 A
53.2370968655893;0.649627685546875;0.197357177734375;6.85999998268016;687;1 A
53.247096865564;0.649627685546875;0.197540283203125;6.86999998265492;688;1 A
53.2570968655388;0.64959716796875;0.19805908203125;6.87999998262967;689;1 A
53.2670968655135;0.649505615234375;0.198089599609375;6.88999998260442;690;1 A
53.2770968654883;0.649627685546875;0.19854736328125;6.89999998257917;691;1 A
53.287096865463;0.64959716796875;0.1986083984375;6.90999998255393;692;1 A
53.2970968654378;0.64959716796875;0.19866943359375;6.91999998252868;693;1 A
53.3070968654125;0.649658203125;0.197784423828125;6.92999998250343;694;1 A
53.3170968653873;0.64959716796875;0.197235107421875;6.93999998247818;695;1 A
53.327096865362;0.64959716796875;0.196563720703125;6.94999998245294;696;1 A
53.3370968653368;0.649627685546875;0.196258544921875;6.95999998242769;697;1 A
53.3470968653115;0.649566650390625;0.196624755859375;6.96999998240244;698;1 A
53.3570968652863;0.649566650390625;0.196441650390625;6.97999998237719;699;1 A
53.367096865261;0.649627685546875;0.196929931640625;6.98999998235195;700;1 A
