Time (s);WE(1).Potential (V);WE(1).Current (A);Corrected time (s);Index;Current range
71.1967348202455;0.700836181640625;1.0430908203125;0;1;1 A
71.2067348202203;0.699981689453125;0.75103759765625;0.00999999997475243;2;1 A
71.216734820195;0.69976806640625;0.6201171875;0.0199999999495049;3;1 A
71.2267348201698;0.69976806640625;0.54046630859375;0.0299999999242573;4;1 A
71.2367348201445;0.699737548828125;0.48583984375;0.0399999998990097;5;1 A
71.2467348201193;0.699737548828125;0.445648193359375;0.0499999998737621;6;1 A
71.256734820094;0.69964599609375;0.414306640625;0.0599999998485146;7;1 A
71.2667348200688;0.69964599609375;0.389007568359375;0.069999999823267;8;1 A
71.2767348200435;0.6995849609375;0.36834716796875;0.0799999997980194;9;1 A
71.2867348200183;0.6995849609375;0.350372314453125;0.0899999997727718;10;1 A
71.296734819993;0.69964599609375;0.335601806640625;0.0999999997475243;11;1 A
71.3067348199678;0.69964599609375;0.322845458984375;0.109999999722277;12;1 A
71.3167348199426;0.699676513671875;0.31195068359375;0.119999999697029;13;1 A
71.3267348199173;0.699615478515625;0.30218505859375;0.129999999671782;14;1 A
71.3367348198921;0.69964599609375;0.29376220703125;0.139999999646534;15;1 A
71.3467348198668;0.699615478515625;0.2860107421875;0.149999999621286;16;1 A
71.3567348198416;0.69964599609375;0.27972412109375;0.159999999596039;17;1 A
71.3667348198163;0.69964599609375;0.274078369140625;0.169999999570791;18;1 A
71.3767348197911;0.69964599609375;0.269012451171875;0.179999999545544;19;1 A
71.3867348197658;0.699615478515625;0.26458740234375;0.189999999520296;20;1 A
71.3967348197406;0.69952392578125;0.26055908203125;0.199999999495049;21;1 A
71.4067348197153;0.699676513671875;0.256591796875;0.209999999469801;22;1 A
71.4167348196901;0.69964599609375;0.2528076171875;0.219999999444553;23;1 A
71.4267348196648;0.699676513671875;0.2496337890625;0.229999999419306;24;1 A
71.4367348196396;0.699615478515625;0.246429443359375;0.239999999394058;25;1 A
71.4467348196143;0.699676513671875;0.243804931640625;0.249999999368811;26;1 A
71.4567348195891;0.699554443359375;0.241363525390625;0.259999999343563;27;1 A
71.4667348195638;0.699554443359375;0.238616943359375;0.269999999318316;28;1 A
71.4767348195386;0.6995849609375;0.23626708984375;0.279999999293068;29;1 A
71.4867348195133;0.69964599609375;0.233612060546875;0.28999999926782;30;1 A
71.4967348194881;0.699615478515625;0.23150634765625;0.299999999242573;31;1 A
71.5067348194628;0.69964599609375;0.229461669921875;0.309999999217325;32;1 A
71.5167348194376;0.699676513671875;0.228271484375;0.319999999192078;33;1 A
71.5267348194124;0.699615478515625;0.226531982421875;0.32999999916683;34;1 A
71.5367348193871;0.699676513671875;0.225311279296875;0.339999999141583;35;1 A
71.5467348193619;0.699615478515625;0.22406005859375;0.349999999116335;36;1 A
71.5567348193366;0.69964599609375;0.222869873046875;0.359999999091087;37;1 A
71.5667348193114;0.699676513671875;0.222198486328125;0.36999999906584;38;1 A
71.5767348192861;0.699615478515625;0.221099853515625;0.379999999040592;39;1 A
71.5867348192609;0.699737548828125;0.220306396484375;0.389999999015345;40;1 A
71.5967348192356;0.69964599609375;0.219146728515625;0.399999998990097;41;1 A
71.6067348192104;0.699676513671875;0.218231201171875;0.40999999896485;42;1 A
71.6167348191851;0.69964599609375;0.217376708984375;0.419999998939602;43;1 A
71.6267348191599;0.699554443359375;0.216827392578125;0.429999998914354;44;1 A
71.6367348191346;0.699615478515625;0.2166748046875;0.439999998889107;45;1 A
71.6467348191094;0.69964599609375;0.21588134765625;0.449999998863859;46;1 A
71.6567348190841;0.699615478515625;0.216033935546875;0.459999998838612;47;1 A
71.6667348190589;0.69964599609375;0.215606689453125;0.469999998813364;48;1 A
71.6767348190336;0.699615478515625;0.2156982421875;0.479999998788116;49;1 A
71.6867348190084;0.69964599609375;0.215850830078125;0.489999998762869;50;1 A
71.6967348189831;0.699615478515625;0.216033935546875;0.499999998737621;51;1 A
71.7067348189579;0.69964599609375;0.215789794921875;0.509999998712374;52;1 A
71.7167348189327;0.699615478515625;0.21539306640625;0.519999998687126;53;1 A
71.7267348189074;0.6995849609375;0.215179443359375;0.529999998661879;54;1 A
71.7367348188822;0.69970703125;0.21466064453125;0.539999998636631;55;1 A
71.7467348188569;0.69964599609375;0.214691162109375;0.549999998611383;56;1 A
71.7567348188317;0.6995849609375;0.21453857421875;0.559999998586136;57;1 A
71.7667348188064;0.699615478515625;0.214508056640625;0.569999998560888;58;1 A
71.7767348187812;0.69964599609375;0.21453857421875;0.579999998535641;59;1 A
71.7867348187559;0.69964599609375;0.21429443359375;0.589999998510393;60;1 A
71.7967348187307;0.6995849609375;0.21435546875;0.599999998485146;61;1 A
71.8067348187054;0.699676513671875;0.214080810546875;0.609999998459898;62;1 A
71.8167348186802;0.69964599609375;0.21429443359375;0.61999999843465;63;1 A
71.8267348186549;0.69970703125;0.213531494140625;0.629999998409403;64;1 A
71.8367348186297;0.699615478515625;0.213348388671875;0.639999998384155;65;1 A
71.8467348186044;0.69964599609375;0.212646484375;0.649999998358908;66;1 A
71.8567348185792;0.699554443359375;0.212127685546875;0.65999999833366;67;1 A
71.8667348185539;0.699676513671875;0.21197509765625;0.669999998308413;68;1 A
71.8767348185287;0.699554443359375;0.211822509765625;0.679999998283165;69;1 A
71.8867348185034;0.699615478515625;0.212005615234375;0.689999998257917;70;1 A
71.8967348184782;0.699676513671875;0.211669921875;0.69999999823267;71;1 A
71.9067348184529;0.6995849609375;0.21160888671875;0.709999998207422;72;1 A
71.9167348184277;0.69964599609375;0.2113037109375;0.719999998182175;73;1 A
71.9267348184025;0.699554443359375;0.211395263671875;0.729999998156927;74;1 A
71.9367348183772;0.699676513671875;0.211761474609375;0.73999999813168;75;1 A
71.946734818352;0.6995849609375;0.21185302734375;0.749999998106432;76;1 A
71.9567348183267;0.699676513671875;0.21270751953125;0.759999998081184;77;1 A
71.9667348183015;0.69964599609375;0.212921142578125;0.769999998055937;78;1 A
71.9767348182762;0.6995849609375;0.213623046875;0.779999998030689;79;1 A
71.986734818251;0.6995849609375;0.214111328125;0.789999998005442;80;1 A
71.9967348182257;0.699615478515625;0.21466064453125;0.799999997980194;81;1 A
72.0067348182005;0.699676513671875;0.21435546875;0.809999997954947;82;1 A
72.0167348181752;0.69964599609375;0.213897705078125;0.819999997929699;83;1 A
72.02673481815;0.699676513671875;0.21319580078125;0.829999997904451;84;1 A
72.0367348181247;0.699676513671875;0.212158203125;0.839999997879204;85;1 A
72.0467348180995;0.69964599609375;0.21148681640625;0.849999997853956;86;1 A
72.0567348180742;0.6995849609375;0.21051025390625;0.859999997828709;87;1 A
72.066734818049;0.69970703125;0.210052490234375;0.869999997803461;88;1 A
72.0767348180237;0.699676513671875;0.209381103515625;0.879999997778214;89;1 A
72.0867348179985;0.699676513671875;0.2086181640625;0.889999997752966;90;1 A
72.0967348179732;0.69964599609375;0.2081298828125;0.899999997727718;91;1 A
72.106734817948;0.699676513671875;0.207672119140625;0.909999997702471;92;1 A
72.1167348179227;0.6995849609375;0.207672119140625;0.919999997677223;93;1 A
72.1267348178975;0.699676513671875;0.2069091796875;0.929999997651976;94;1 A
72.1367348178723;0.699615478515625;0.20684814453125;0.939999997626728;95;1 A
72.146734817847;0.69964599609375;0.206207275390625;0.949999997601481;96;1 A
72.1567348178218;0.69964599609375;0.20599365234375;0.959999997576233;97;1 A
72.1667348177965;0.69964599609375;0.2059326171875;0.969999997550985;98;1 A
72.1767348177713;0.69964599609375;0.2059326171875;0.979999997525738;99;1 A
72.186734817746;0.699676513671875;0.206146240234375;0.98999999750049;100;1 A
72.1967348177208;0.6995849609375;0.2060546875;0.999999997475243;101;1 A
72.2067348176955;0.69970703125;0.206451416015625;1.00999999745;102;1 A
72.2167348176703;0.699554443359375;0.206512451171875;1.01999999742475;103;1 A
72.226734817645;0.699615478515625;0.20703125;1.0299999973995;104;1 A
72.2367348176198;0.69964599609375;0.207366943359375;1.03999999737425;105;1 A
72.2467348175945;0.699676513671875;0.20751953125;1.049999997349;106;1 A
72.2567348175693;0.6995849609375;0.207855224609375;1.05999999732376;107;1 A
72.266734817544;0.69970703125;0.207550048828125;1.06999999729851;108;1 A
72.2767348175188;0.69964599609375;0.207672119140625;1.07999999727326;109;1 A
72.2867348174935;0.699676513671875;0.207672119140625;1.08999999724801;110;1 A
72.2967348174683;0.6995849609375;0.208160400390625;1.09999999722277;111;1 A
72.306734817443;0.699615478515625;0.20782470703125;1.10999999719752;112;1 A
72.3167348174178;0.699615478515625;0.2078857421875;1.11999999717227;113;1 A
72.3267348173925;0.69964599609375;0.207672119140625;1.12999999714702;114;1 A
72.3367348173673;0.69970703125;0.20745849609375;1.13999999712178;115;1 A
72.3467348173421;0.69964599609375;0.20745849609375;1.14999999709653;116;1 A
72.3567348173168;0.699676513671875;0.206939697265625;1.15999999707128;117;1 A
72.3667348172916;0.69964599609375;0.20672607421875;1.16999999704603;118;1 A
72.3767348172663;0.699676513671875;0.20587158203125;1.17999999702079;119;1 A
72.3867348172411;0.699615478515625;0.20526123046875;1.18999999699554;120;1 A
72.3967348172158;0.699615478515625;0.204681396484375;1.19999999697029;121;1 A
72.4067348171906;0.69964599609375;0.20458984375;1.20999999694504;122;1 A
72.4167348171653;0.6995849609375;0.20501708984375;1.2199999969198;123;1 A
72.4267348171401;0.699676513671875;0.204864501953125;1.22999999689455;124;1 A
72.4367348171148;0.699615478515625;0.205474853515625;1.2399999968693;125;1 A
72.4467348170896;0.699676513671875;0.205230712890625;1.24999999684405;126;1 A
72.4567348170643;0.69964599609375;0.20556640625;1.25999999681881;127;1 A
72.4667348170391;0.699615478515625;0.205780029296875;1.26999999679356;128;1 A
72.4767348170138;0.699554443359375;0.20599365234375;1.27999999676831;129;1 A
72.4867348169886;0.69970703125;0.205841064453125;1.28999999674306;130;1 A
72.4967348169633;0.699615478515625;0.20538330078125;1.29999999671782;131;1 A
72.5067348169381;0.69964599609375;0.205108642578125;1.30999999669257;132;1 A
72.5167348169128;0.699676513671875;0.2044677734375;1.31999999666732;133;1 A
72.5267348168876;0.699615478515625;0.20458984375;1.32999999664207;134;1 A
72.5367348168623;0.6995849609375;0.2044677734375;1.33999999661683;135;1 A
72.5467348168371;0.69964599609375;0.20452880859375;1.34999999659158;136;1 A
72.5567348168119;0.69964599609375;0.204681396484375;1.35999999656633;137;1 A
72.5667348167866;0.699615478515625;0.20452880859375;1.36999999654108;138;1 A
72.5767348167614;0.69964599609375;0.2049560546875;1.37999999651583;139;1 A
72.5867348167361;0.6995849609375;0.205169677734375;1.38999999649059;140;1 A
72.5967348167109;0.6995849609375;0.205810546875;1.39999999646534;141;1 A
72.6067348166856;0.69964599609375;0.205413818359375;1.40999999644009;142;1 A
72.6167348166604;0.699676513671875;0.205535888671875;1.41999999641484;143;1 A
72.6267348166351;0.699615478515625;0.205169677734375;1.4299999963896;144;1 A
72.6367348166099;0.699554443359375;0.205047607421875;1.43999999636435;145;1 A
72.6467348165846;0.699676513671875;0.205230712890625;1.4499999963391;146;1 A
72.6567348165594;0.69952392578125;0.20501708984375;1.45999999631385;147;1 A
72.6667348165341;0.699676513671875;0.20513916015625;1.46999999628861;148;1 A
72.6767348165089;0.69964599609375;0.204620361328125;1.47999999626336;149;1 A
72.6867348164836;0.69964599609375;0.20458984375;1.48999999623811;150;1 A
72.6967348164584;0.699615478515625;0.204559326171875;1.49999999621286;151;1 A
72.7067348164331;0.699676513671875;0.2049560546875;1.50999999618762;152;1 A
72.7167348164079;0.6995849609375;0.205535888671875;1.51999999616237;153;1 A
72.7267348163826;0.6995849609375;0.20550537109375;1.52999999613712;154;1 A
72.7367348163574;0.699615478515625;0.2059326171875;1.53999999611187;155;1 A
72.7467348163322;0.69964599609375;0.205535888671875;1.54999999608663;156;1 A
72.7567348163069;0.699676513671875;0.205810546875;1.55999999606138;157;1 A
72.7667348162817;0.69964599609375;0.206024169921875;1.56999999603613;158;1 A
72.7767348162564;0.699615478515625;0.206695556640625;1.57999999601088;159;1 A
72.7867348162312;0.699615478515625;0.20697021484375;1.58999999598564;160;1 A
72.7967348162059;0.699615478515625;0.2073974609375;1.59999999596039;161;1 A
72.8067348161807;0.699676513671875;0.207916259765625;1.60999999593514;162;1 A
72.8167348161554;0.699615478515625;0.20819091796875;1.61999999590989;163;1 A
72.8267348161302;0.69964599609375;0.209014892578125;1.62999999588465;164;1 A
72.8367348161049;0.69964599609375;0.209320068359375;1.6399999958594;165;1 A
72.8467348160797;0.699676513671875;0.20989990234375;1.64999999583415;166;1 A
72.8567348160544;0.699554443359375;0.209808349609375;1.6599999958089;167;1 A
72.8667348160292;0.699676513671875;0.209503173828125;1.66999999578366;168;1 A
72.8767348160039;0.69964599609375;0.209381103515625;1.67999999575841;169;1 A
72.8867348159787;0.699615478515625;0.2093505859375;1.68999999573316;170;1 A
72.8967348159534;0.699615478515625;0.2098388671875;1.69999999570791;171;1 A
72.9067348159282;0.699615478515625;0.2095947265625;1.70999999568267;172;1 A
72.9167348159029;0.69964599609375;0.210205078125;1.71999999565742;173;1 A
72.9267348158777;0.699676513671875;0.210052490234375;1.72999999563217;174;1 A
72.9367348158524;0.699676513671875;0.210113525390625;1.73999999560692;175;1 A
72.9467348158272;0.69964599609375;0.2100830078125;1.74999999558167;176;1 A
72.956734815802;0.699615478515625;0.20989990234375;1.75999999555643;177;1 A
72.9667348157767;0.699615478515625;0.209747314453125;1.76999999553118;178;1 A
72.9767348157515;0.699554443359375;0.209075927734375;1.77999999550593;179;1 A
72.9867348157262;0.69964599609375;0.208770751953125;1.78999999548068;180;1 A
72.996734815701;0.69964599609375;0.208251953125;1.79999999545544;181;1 A
73.0067348156757;0.69964599609375;0.208343505859375;1.80999999543019;182;1 A
73.0167348156505;0.6995849609375;0.208404541015625;1.81999999540494;183;1 A
73.0267348156252;0.69970703125;0.208251953125;1.82999999537969;184;1 A
73.0367348156;0.69952392578125;0.208648681640625;1.83999999535445;185;1 A
73.0467348155747;0.699615478515625;0.208526611328125;1.8499999953292;186;1 A
73.0567348155495;0.699615478515625;0.209014892578125;1.85999999530395;187;1 A
73.0667348155242;0.69964599609375;0.2095947265625;1.8699999952787;188;1 A
73.076734815499;0.699615478515625;0.210662841796875;1.87999999525346;189;1 A
73.0867348154737;0.699737548828125;0.21087646484375;1.88999999522821;190;1 A
73.0967348154485;0.699615478515625;0.211151123046875;1.89999999520296;191;1 A
73.1067348154232;0.699676513671875;0.211181640625;1.90999999517771;192;1 A
73.116734815398;0.699615478515625;0.2109375;1.91999999515247;193;1 A
73.1267348153727;0.699676513671875;0.211181640625;1.92999999512722;194;1 A
73.1367348153475;0.699615478515625;0.210968017578125;1.93999999510197;195;1 A
73.1467348153222;0.699676513671875;0.211181640625;1.94999999507672;196;1 A
73.156734815297;0.699615478515625;0.21087646484375;1.95999999505148;197;1 A
73.1667348152718;0.699615478515625;0.21063232421875;1.96999999502623;198;1 A
73.1767348152465;0.699676513671875;0.21044921875;1.97999999500098;199;1 A
73.1867348152213;0.699676513671875;0.210357666015625;1.98999999497573;200;1 A
73.196734815196;0.69964599609375;0.210601806640625;1.99999999495049;201;1 A
73.2067348151708;0.6995849609375;0.210174560546875;2.00999999492524;202;1 A
73.2167348151455;0.69964599609375;0.210479736328125;2.01999999489999;203;1 A
73.2267348151203;0.69964599609375;0.21002197265625;2.02999999487474;204;1 A
73.236734815095;0.699615478515625;0.209991455078125;2.0399999948495;205;1 A
73.2467348150698;0.69964599609375;0.20989990234375;2.04999999482425;206;1 A
73.2567348150445;0.69964599609375;0.2098388671875;2.059999994799;207;1 A
73.2667348150193;0.69970703125;0.2095947265625;2.06999999477375;208;1 A
73.276734814994;0.699554443359375;0.209075927734375;2.0799999947485;209;1 A
73.2867348149688;0.699676513671875;0.208953857421875;2.08999999472326;210;1 A
73.2967348149435;0.69964599609375;0.20843505859375;2.09999999469801;211;1 A
73.3067348149183;0.699615478515625;0.20843505859375;2.10999999467276;212;1 A
73.316734814893;0.6995849609375;0.207916259765625;2.11999999464751;213;1 A
73.3267348148678;0.6995849609375;0.20733642578125;2.12999999462227;214;1 A
73.3367348148425;0.699615478515625;0.2066650390625;2.13999999459702;215;1 A
73.3467348148173;0.69964599609375;0.20556640625;2.14999999457177;216;1 A
73.356734814792;0.69964599609375;0.2049560546875;2.15999999454652;217;1 A
73.3667348147668;0.699737548828125;0.204254150390625;2.16999999452128;218;1 A
73.3767348147416;0.69964599609375;0.2041015625;2.17999999449603;219;1 A
73.3867348147163;0.699615478515625;0.203155517578125;2.18999999447078;220;1 A
73.3967348146911;0.69964599609375;0.202911376953125;2.19999999444553;221;1 A
73.4067348146658;0.699615478515625;0.2025146484375;2.20999999442029;222;1 A
73.4167348146406;0.6995849609375;0.202423095703125;2.21999999439504;223;1 A
73.4267348146153;0.699615478515625;0.20294189453125;2.22999999436979;224;1 A
73.4367348145901;0.699554443359375;0.20306396484375;2.23999999434454;225;1 A
73.4467348145648;0.699737548828125;0.203369140625;2.2499999943193;226;1 A
73.4567348145396;0.69964599609375;0.20294189453125;2.25999999429405;227;1 A
73.4667348145143;0.69970703125;0.202850341796875;2.2699999942688;228;1 A
73.4767348144891;0.699615478515625;0.2025146484375;2.27999999424355;229;1 A
73.4867348144638;0.699676513671875;0.202423095703125;2.28999999421831;230;1 A
73.4967348144386;0.6995849609375;0.202545166015625;2.29999999419306;231;1 A
73.5067348144133;0.699676513671875;0.20220947265625;2.30999999416781;232;1 A
73.5167348143881;0.699676513671875;0.202728271484375;2.31999999414256;233;1 A
73.5267348143628;0.699737548828125;0.202606201171875;2.32999999411732;234;1 A
73.5367348143376;0.69964599609375;0.203216552734375;2.33999999409207;235;1 A
73.5467348143123;0.699615478515625;0.203704833984375;2.34999999406682;236;1 A
73.5567348142871;0.699615478515625;0.2044677734375;2.35999999404157;237;1 A
73.5667348142618;0.6995849609375;0.204864501953125;2.36999999401633;238;1 A
73.5767348142366;0.699615478515625;0.205047607421875;2.37999999399108;239;1 A
73.5867348142114;0.699615478515625;0.205322265625;2.38999999396583;240;1 A
73.5967348141861;0.699737548828125;0.205108642578125;2.39999999394058;241;1 A
73.6067348141609;0.699615478515625;0.205596923828125;2.40999999391533;242;1 A
73.6167348141356;0.69964599609375;0.205657958984375;2.41999999389009;243;1 A
73.6267348141104;0.69964599609375;0.206085205078125;2.42999999386484;244;1 A
73.6367348140851;0.69964599609375;0.206573486328125;2.43999999383959;245;1 A
73.6467348140599;0.699615478515625;0.20684814453125;2.44999999381434;246;1 A
73.6567348140346;0.699615478515625;0.20770263671875;2.4599999937891;247;1 A
73.6667348140094;0.699676513671875;0.20831298828125;2.46999999376385;248;1 A
73.6767348139841;0.699554443359375;0.209625244140625;2.4799999937386;249;1 A
73.6867348139589;0.699676513671875;0.209747314453125;2.48999999371335;250;1 A
73.6967348139336;0.69964599609375;0.210418701171875;2.49999999368811;251;1 A
73.7067348139084;0.699676513671875;0.21038818359375;2.50999999366286;252;1 A
73.7167348138831;0.6995849609375;0.210662841796875;2.51999999363761;253;1 A
73.7267348138579;0.699676513671875;0.2113037109375;2.52999999361236;254;1 A
73.7367348138326;0.6995849609375;0.211700439453125;2.53999999358712;255;1 A
73.7467348138074;0.6995849609375;0.21221923828125;2.54999999356187;256;1 A
73.7567348137821;0.699615478515625;0.2119140625;2.55999999353662;257;1 A
73.7667348137569;0.69964599609375;0.211883544921875;2.56999999351137;258;1 A
73.7767348137317;0.69964599609375;0.21142578125;2.57999999348613;259;1 A
73.7867348137064;0.699554443359375;0.2115478515625;2.58999999346088;260;1 A
73.7967348136812;0.699676513671875;0.211395263671875;2.59999999343563;261;1 A
73.8067348136559;0.6995849609375;0.2110595703125;2.60999999341038;262;1 A
73.8167348136307;0.699615478515625;0.211151123046875;2.61999999338514;263;1 A
73.8267348136054;0.699615478515625;0.2105712890625;2.62999999335989;264;1 A
73.8367348135802;0.69964599609375;0.210662841796875;2.63999999333464;265;1 A
73.8467348135549;0.699676513671875;0.21075439453125;2.64999999330939;266;1 A
73.8567348135297;0.699615478515625;0.2113037109375;2.65999999328415;267;1 A
73.8667348135044;0.69970703125;0.2110595703125;2.6699999932589;268;1 A
73.8767348134792;0.699676513671875;0.2110595703125;2.67999999323365;269;1 A
73.8867348134539;0.699676513671875;0.21099853515625;2.6899999932084;270;1 A
73.8967348134287;0.699615478515625;0.2108154296875;2.69999999318316;271;1 A
73.9067348134034;0.699676513671875;0.211151123046875;2.70999999315791;272;1 A
73.9167348133782;0.699615478515625;0.211212158203125;2.71999999313266;273;1 A
73.9267348133529;0.69964599609375;0.211761474609375;2.72999999310741;274;1 A
73.9367348133277;0.699615478515625;0.21197509765625;2.73999999308217;275;1 A
73.9467348133024;0.69964599609375;0.212188720703125;2.74999999305692;276;1 A
73.9567348132772;0.699615478515625;0.212646484375;2.75999999303167;277;1 A
73.9667348132519;0.6995849609375;0.213165283203125;2.76999999300642;278;1 A
73.9767348132267;0.699615478515625;0.2142333984375;2.77999999298117;279;1 A
73.9867348132015;0.699615478515625;0.21435546875;2.78999999295593;280;1 A
73.9967348131762;0.699615478515625;0.215240478515625;2.79999999293068;281;1 A
74.006734813151;0.69964599609375;0.215423583984375;2.80999999290543;282;1 A
74.0167348131257;0.699676513671875;0.2159423828125;2.81999999288018;283;1 A
74.0267348131005;0.69964599609375;0.216644287109375;2.82999999285494;284;1 A
74.0367348130752;0.6995849609375;0.2171630859375;2.83999999282969;285;1 A
74.04673481305;0.69970703125;0.217529296875;2.84999999280444;286;1 A
74.0567348130247;0.699615478515625;0.217437744140625;2.85999999277919;287;1 A
74.0667348129995;0.69964599609375;0.2176513671875;2.86999999275395;288;1 A
74.0767348129742;0.6995849609375;0.21746826171875;2.8799999927287;289;1 A
74.086734812949;0.69970703125;0.2177734375;2.88999999270345;290;1 A
74.0967348129237;0.69964599609375;0.217864990234375;2.8999999926782;291;1 A
74.1067348128985;0.699676513671875;0.21783447265625;2.90999999265296;292;1 A
74.1167348128732;0.699615478515625;0.217926025390625;2.91999999262771;293;1 A
74.126734812848;0.699676513671875;0.217498779296875;2.92999999260246;294;1 A
74.1367348128227;0.699615478515625;0.21746826171875;2.93999999257721;295;1 A
74.1467348127975;0.699676513671875;0.21728515625;2.94999999255197;296;1 A
74.1567348127722;0.699615478515625;0.21759033203125;2.95999999252672;297;1 A
74.166734812747;0.69964599609375;0.217071533203125;2.96999999250147;298;1 A
74.1767348127217;0.69964599609375;0.21697998046875;2.97999999247622;299;1 A
74.1867348126965;0.69964599609375;0.216583251953125;2.98999999245098;300;1 A
74.1967348126713;0.69970703125;0.216217041015625;2.99999999242573;301;1 A
74.206734812646;0.69964599609375;0.21636962890625;3.00999999240048;302;1 A
74.2167348126208;0.69964599609375;0.216156005859375;3.01999999237523;303;1 A
74.2267348125955;0.6995849609375;0.21636962890625;3.02999999234999;304;1 A
74.2367348125703;0.699615478515625;0.21600341796875;3.03999999232474;305;1 A
74.246734812545;0.69964599609375;0.215850830078125;3.04999999229949;306;1 A
74.2567348125198;0.699615478515625;0.21563720703125;3.05999999227424;307;1 A
74.2667348124945;0.699676513671875;0.215545654296875;3.069999992249;308;1 A
74.2767348124693;0.69970703125;0.21575927734375;3.07999999222375;309;1 A
74.286734812444;0.699737548828125;0.21533203125;3.0899999921985;310;1 A
74.2967348124188;0.6995849609375;0.21563720703125;3.09999999217325;311;1 A
74.3067348123935;0.69970703125;0.215179443359375;3.109999992148;312;1 A
74.3167348123683;0.699615478515625;0.21514892578125;3.11999999212276;313;1 A
74.326734812343;0.6995849609375;0.215179443359375;3.12999999209751;314;1 A
74.3367348123178;0.6995849609375;0.215362548828125;3.13999999207226;315;1 A
74.3467348122925;0.69970703125;0.21502685546875;3.14999999204701;316;1 A
74.3567348122673;0.699615478515625;0.2144775390625;3.15999999202177;317;1 A
74.366734812242;0.69970703125;0.214111328125;3.16999999199652;318;1 A
74.3767348122168;0.699676513671875;0.213409423828125;3.17999999197127;319;1 A
74.3867348121915;0.699615478515625;0.21337890625;3.18999999194602;320;1 A
74.3967348121663;0.699615478515625;0.213165283203125;3.19999999192078;321;1 A
74.4067348121411;0.6995849609375;0.213287353515625;3.20999999189553;322;1 A
74.4167348121158;0.699615478515625;0.21337890625;3.21999999187028;323;1 A
74.4267348120906;0.69964599609375;0.213134765625;3.22999999184503;324;1 A
74.4367348120653;0.69970703125;0.21331787109375;3.23999999181979;325;1 A
74.4467348120401;0.699615478515625;0.21331787109375;3.24999999179454;326;1 A
74.4567348120148;0.69964599609375;0.213836669921875;3.25999999176929;327;1 A
74.4667348119896;0.69964599609375;0.213287353515625;3.26999999174404;328;1 A
74.4767348119643;0.69964599609375;0.213226318359375;3.2799999917188;329;1 A
74.4867348119391;0.699615478515625;0.212615966796875;3.28999999169355;330;1 A
74.4967348119138;0.69964599609375;0.212158203125;3.2999999916683;331;1 A
74.5067348118886;0.699676513671875;0.21209716796875;3.30999999164305;332;1 A
74.5167348118633;0.699676513671875;0.21185302734375;3.31999999161781;333;1 A
74.5267348118381;0.69970703125;0.21185302734375;3.32999999159256;334;1 A
74.5367348118128;0.69964599609375;0.211181640625;3.33999999156731;335;1 A
74.5467348117876;0.699676513671875;0.2109375;3.34999999154206;336;1 A
74.5567348117623;0.6995849609375;0.210418701171875;3.35999999151682;337;1 A
74.5667348117371;0.69970703125;0.210205078125;3.36999999149157;338;1 A
74.5767348117118;0.69964599609375;0.209991455078125;3.37999999146632;339;1 A
74.5867348116866;0.699676513671875;0.2095947265625;3.38999999144107;340;1 A
74.5967348116613;0.699615478515625;0.20989990234375;3.39999999141583;341;1 A
74.6067348116361;0.69964599609375;0.20977783203125;3.40999999139058;342;1 A
74.6167348116109;0.69970703125;0.210296630859375;3.41999999136533;343;1 A
74.6267348115856;0.69970703125;0.210723876953125;3.42999999134008;344;1 A
74.6367348115604;0.69970703125;0.211517333984375;3.43999999131483;345;1 A
74.6467348115351;0.699676513671875;0.211669921875;3.44999999128959;346;1 A
74.6567348115099;0.69964599609375;0.211761474609375;3.45999999126434;347;1 A
74.6667348114846;0.6995849609375;0.21185302734375;3.46999999123909;348;1 A
74.6767348114594;0.699615478515625;0.21160888671875;3.47999999121384;349;1 A
74.6867348114341;0.69970703125;0.21185302734375;3.4899999911886;350;1 A
74.6967348114089;0.699676513671875;0.211669921875;3.49999999116335;351;1 A
74.7067348113836;0.69970703125;0.211944580078125;3.5099999911381;352;1 A
74.7167348113584;0.6995849609375;0.212066650390625;3.51999999111285;353;1 A
74.7267348113331;0.69970703125;0.21221923828125;3.52999999108761;354;1 A
74.7367348113079;0.6995849609375;0.212738037109375;3.53999999106236;355;1 A
74.7467348112826;0.69964599609375;0.21307373046875;3.54999999103711;356;1 A
74.7567348112574;0.6995849609375;0.214111328125;3.55999999101186;357;1 A
74.7667348112321;0.699676513671875;0.214141845703125;3.56999999098662;358;1 A
74.7767348112069;0.69964599609375;0.21502685546875;3.57999999096137;359;1 A
74.7867348111816;0.699676513671875;0.215179443359375;3.58999999093612;360;1 A
74.7967348111564;0.69970703125;0.215606689453125;3.59999999091087;361;1 A
74.8067348111312;0.69964599609375;0.216339111328125;3.60999999088563;362;1 A
74.8167348111059;0.6995849609375;0.21697998046875;3.61999999086038;363;1 A
74.8267348110807;0.699676513671875;0.2177734375;3.62999999083513;364;1 A
74.8367348110554;0.69964599609375;0.2178955078125;3.63999999080988;365;1 A
74.8467348110302;0.699615478515625;0.2183837890625;3.64999999078464;366;1 A
74.8567348110049;0.699676513671875;0.21844482421875;3.65999999075939;367;1 A
74.8667348109797;0.699615478515625;0.218994140625;3.66999999073414;368;1 A
74.8767348109544;0.699676513671875;0.2193603515625;3.67999999070889;369;1 A
74.8867348109292;0.699615478515625;0.21917724609375;3.68999999068365;370;1 A
74.8967348109039;0.6995849609375;0.219482421875;3.6999999906584;371;1 A
74.9067348108787;0.699737548828125;0.21905517578125;3.70999999063315;372;1 A
74.9167348108534;0.69964599609375;0.218902587890625;3.7199999906079;373;1 A
74.9267348108282;0.699676513671875;0.218475341796875;3.72999999058266;374;1 A
74.9367348108029;0.69964599609375;0.218414306640625;3.73999999055741;375;1 A
74.9467348107777;0.69970703125;0.217681884765625;3.74999999053216;376;1 A
74.9567348107524;0.699615478515625;0.217132568359375;3.75999999050691;377;1 A
74.9667348107272;0.699737548828125;0.216461181640625;3.76999999048167;378;1 A
74.9767348107019;0.6995849609375;0.215545654296875;3.77999999045642;379;1 A
74.9867348106767;0.699676513671875;0.21514892578125;3.78999999043117;380;1 A
74.9967348106514;0.69970703125;0.214508056640625;3.79999999040592;381;1 A
75.0067348106262;0.69964599609375;0.214385986328125;3.80999999038067;382;1 A
75.016734810601;0.69964599609375;0.21392822265625;3.81999999035543;383;1 A
75.0267348105757;0.69964599609375;0.213592529296875;3.82999999033018;384;1 A
75.0367348105505;0.699737548828125;0.213623046875;3.83999999030493;385;1 A
75.0467348105252;0.699615478515625;0.213775634765625;3.84999999027968;386;1 A
75.0567348105;0.69970703125;0.214508056640625;3.85999999025444;387;1 A
75.0667348104747;0.69964599609375;0.214569091796875;3.86999999022919;388;1 A
75.0767348104495;0.69964599609375;0.21533203125;3.87999999020394;389;1 A
75.0867348104242;0.699615478515625;0.2152099609375;3.88999999017869;390;1 A
75.096734810399;0.699676513671875;0.21514892578125;3.89999999015345;391;1 A
75.1067348103737;0.699615478515625;0.214996337890625;3.9099999901282;392;1 A
75.1167348103485;0.699676513671875;0.21484375;3.91999999010295;393;1 A
75.1267348103232;0.699737548828125;0.21453857421875;3.9299999900777;394;1 A
75.136734810298;0.699676513671875;0.213836669921875;3.93999999005246;395;1 A
75.1467348102727;0.69964599609375;0.213470458984375;3.94999999002721;396;1 A
75.1567348102475;0.6995849609375;0.212982177734375;3.95999999000196;397;1 A
75.1667348102222;0.699615478515625;0.21319580078125;3.96999998997671;398;1 A
75.176734810197;0.69964599609375;0.213043212890625;3.97999998995147;399;1 A
75.1867348101717;0.699676513671875;0.213104248046875;3.98999998992622;400;1 A
75.1967348101465;0.699676513671875;0.21337890625;3.99999998990097;401;1 A
75.2067348101212;0.69970703125;0.213470458984375;4.00999998987572;402;1 A
75.216734810096;0.69964599609375;0.214111328125;4.01999998985048;403;1 A
75.2267348100708;0.699676513671875;0.214569091796875;4.02999998982523;404;1 A
75.2367348100455;0.699676513671875;0.215545654296875;4.03999998979998;405;1 A
75.2467348100203;0.699615478515625;0.215362548828125;4.04999998977473;406;1 A
75.256734809995;0.69964599609375;0.21551513671875;4.05999998974949;407;1 A
75.2667348099698;0.69964599609375;0.215179443359375;4.06999998972424;408;1 A
75.2767348099445;0.699676513671875;0.21502685546875;4.07999998969899;409;1 A
75.2867348099193;0.69970703125;0.215362548828125;4.08999998967374;410;1 A
75.296734809894;0.699615478515625;0.215118408203125;4.0999999896485;411;1 A
75.3067348098688;0.69964599609375;0.215179443359375;4.10999998962325;412;1 A
75.3167348098435;0.699676513671875;0.21453857421875;4.119999989598;413;1 A
75.3267348098183;0.699615478515625;0.21435546875;4.12999998957275;414;1 A
75.336734809793;0.69970703125;0.2142333984375;4.1399999895475;415;1 A
75.3467348097678;0.69964599609375;0.21453857421875;4.14999998952226;416;1 A
75.3567348097425;0.699676513671875;0.215240478515625;4.15999998949701;417;1 A
75.3667348097173;0.69970703125;0.215301513671875;4.16999998947176;418;1 A
75.376734809692;0.699615478515625;0.2159423828125;4.17999998944651;419;1 A
75.3867348096668;0.69970703125;0.2159423828125;4.18999998942127;420;1 A
75.3967348096415;0.6995849609375;0.21630859375;4.19999998939602;421;1 A
75.4067348096163;0.699615478515625;0.21661376953125;4.20999998937077;422;1 A
75.416734809591;0.699615478515625;0.21697998046875;4.21999998934552;423;1 A
75.4267348095658;0.69964599609375;0.216796875;4.22999998932028;424;1 A
75.4367348095406;0.69964599609375;0.21636962890625;4.23999998929503;425;1 A
75.4467348095153;0.69970703125;0.21612548828125;4.24999998926978;426;1 A
75.4567348094901;0.699615478515625;0.215667724609375;4.25999998924453;427;1 A
75.4667348094648;0.699615478515625;0.215728759765625;4.26999998921929;428;1 A
75.4767348094396;0.69970703125;0.21533203125;4.27999998919404;429;1 A
75.4867348094143;0.69970703125;0.215179443359375;4.28999998916879;430;1 A
75.4967348093891;0.699676513671875;0.215118408203125;4.29999998914354;431;1 A
75.5067348093638;0.69964599609375;0.214813232421875;4.3099999891183;432;1 A
75.5167348093386;0.69970703125;0.21502685546875;4.31999998909305;433;1 A
75.5267348093133;0.699676513671875;0.21514892578125;4.3299999890678;434;1 A
75.5367348092881;0.69964599609375;0.21600341796875;4.33999998904255;435;1 A
75.5467348092628;0.699676513671875;0.21588134765625;4.34999998901731;436;1 A
75.5567348092376;0.69964599609375;0.21636962890625;4.35999998899206;437;1 A
75.5667348092123;0.699737548828125;0.21636962890625;4.36999998896681;438;1 A
75.5767348091871;0.6995849609375;0.21636962890625;4.37999998894156;439;1 A
75.5867348091618;0.69964599609375;0.2166748046875;4.38999998891632;440;1 A
75.5967348091366;0.699615478515625;0.21636962890625;4.39999998889107;441;1 A
75.6067348091113;0.699676513671875;0.216278076171875;4.40999998886582;442;1 A
75.6167348090861;0.699676513671875;0.215484619140625;4.41999998884057;443;1 A
75.6267348090608;0.699615478515625;0.2149658203125;4.42999998881533;444;1 A
75.6367348090356;0.699615478515625;0.214141845703125;4.43999998879008;445;1 A
75.6467348090104;0.699676513671875;0.21380615234375;4.44999998876483;446;1 A
75.6567348089851;0.699676513671875;0.213287353515625;4.45999998873958;447;1 A
75.6667348089599;0.699615478515625;0.212432861328125;4.46999998871433;448;1 A
75.6767348089346;0.69964599609375;0.2122802734375;4.47999998868909;449;1 A
75.6867348089094;0.69964599609375;0.2115478515625;4.48999998866384;450;1 A
75.6967348088841;0.69964599609375;0.211334228515625;4.49999998863859;451;1 A
75.7067348088589;0.699676513671875;0.210968017578125;4.50999998861334;452;1 A
75.7167348088336;0.699737548828125;0.211029052734375;4.5199999885881;453;1 A
75.7267348088084;0.699615478515625;0.21038818359375;4.52999998856285;454;1 A
75.7367348087831;0.69964599609375;0.20989990234375;4.5399999885376;455;1 A
75.7467348087579;0.69964599609375;0.20947265625;4.54999998851235;456;1 A
75.7567348087326;0.6995849609375;0.208892822265625;4.55999998848711;457;1 A
75.7667348087074;0.69964599609375;0.2091064453125;4.56999998846186;458;1 A
75.7767348086821;0.699676513671875;0.20892333984375;4.57999998843661;459;1 A
75.7867348086569;0.699676513671875;0.2091064453125;4.58999998841136;460;1 A
75.7967348086316;0.69964599609375;0.208892822265625;4.59999998838612;461;1 A
75.8067348086064;0.699676513671875;0.208648681640625;4.60999998836087;462;1 A
75.8167348085811;0.699615478515625;0.208770751953125;4.61999998833562;463;1 A
75.8267348085559;0.69964599609375;0.20880126953125;4.62999998831037;464;1 A
75.8367348085307;0.699615478515625;0.209503173828125;4.63999998828513;465;1 A
75.8467348085054;0.699676513671875;0.2091064453125;4.64999998825988;466;1 A
75.8567348084802;0.699737548828125;0.20941162109375;4.65999998823463;467;1 A
75.8667348084549;0.6995849609375;0.208953857421875;4.66999998820938;468;1 A
75.8767348084297;0.699676513671875;0.208831787109375;4.67999998818414;469;1 A
75.8867348084044;0.69964599609375;0.20880126953125;4.68999998815889;470;1 A
75.8967348083792;0.699676513671875;0.208465576171875;4.69999998813364;471;1 A
75.9067348083539;0.699615478515625;0.208099365234375;4.70999998810839;472;1 A
75.9167348083287;0.699615478515625;0.207183837890625;4.71999998808315;473;1 A
75.9267348083034;0.6995849609375;0.2066650390625;4.7299999880579;474;1 A
75.9367348082782;0.69964599609375;0.205535888671875;4.73999998803265;475;1 A
75.9467348082529;0.6995849609375;0.204986572265625;4.7499999880074;476;1 A
75.9567348082277;0.69970703125;0.20428466796875;4.75999998798216;477;1 A
75.9667348082024;0.699615478515625;0.203643798828125;4.76999998795691;478;1 A
75.9767348081772;0.699676513671875;0.203521728515625;4.77999998793166;479;1 A
75.9867348081519;0.699676513671875;0.20294189453125;4.78999998790641;480;1 A
75.9967348081267;0.699615478515625;0.203033447265625;4.79999998788116;481;1 A
76.0067348081014;0.699615478515625;0.20294189453125;4.80999998785592;482;1 A
76.0167348080762;0.69970703125;0.20318603515625;4.81999998783067;483;1 A
76.0267348080509;0.699615478515625;0.202423095703125;4.82999998780542;484;1 A
76.0367348080257;0.69964599609375;0.201873779296875;4.83999998778017;485;1 A
76.0467348080005;0.699676513671875;0.201080322265625;4.84999998775493;486;1 A
76.0567348079752;0.699554443359375;0.2003173828125;4.85999998772968;487;1 A
76.06673480795;0.69970703125;0.20025634765625;4.86999998770443;488;1 A
76.0767348079247;0.699615478515625;0.199920654296875;4.87999998767918;489;1 A
76.0867348078995;0.699676513671875;0.200225830078125;4.88999998765394;490;1 A
76.0967348078742;0.69976806640625;0.20001220703125;4.89999998762869;491;1 A
76.106734807849;0.69970703125;0.1998291015625;4.90999998760344;492;1 A
76.1167348078237;0.69970703125;0.199493408203125;4.91999998757819;493;1 A
76.1267348077985;0.69970703125;0.19927978515625;4.92999998755295;494;1 A
76.1367348077732;0.699676513671875;0.19940185546875;4.9399999875277;495;1 A
76.146734807748;0.699615478515625;0.199005126953125;4.94999998750245;496;1 A
76.1567348077227;0.699676513671875;0.199554443359375;4.9599999874772;497;1 A
76.1667348076975;0.69964599609375;0.199676513671875;4.96999998745196;498;1 A
76.1767348076722;0.699615478515625;0.200286865234375;4.97999998742671;499;1 A
76.186734807647;0.699676513671875;0.200836181640625;4.98999998740146;500;1 A
76.1967348076217;0.699676513671875;0.201324462890625;4.99999998737621;501;1 A
76.2067348075965;0.69970703125;0.201385498046875;5.00999998735097;502;1 A
76.2167348075712;0.699615478515625;0.201171875;5.01999998732572;503;1 A
76.226734807546;0.699676513671875;0.201324462890625;5.02999998730047;504;1 A
76.2367348075207;0.699615478515625;0.201171875;5.03999998727522;505;1 A
76.2467348074955;0.69964599609375;0.20184326171875;5.04999998724998;506;1 A
76.2567348074703;0.699615478515625;0.202239990234375;5.05999998722473;507;1 A
76.266734807445;0.69964599609375;0.202911376953125;5.06999998719948;508;1 A
76.2767348074198;0.699676513671875;0.203643798828125;5.07999998717423;509;1 A
76.2867348073945;0.69970703125;0.20404052734375;5.08999998714899;510;1 A
76.2967348073693;0.69964599609375;0.20501708984375;5.09999998712374;511;1 A
76.306734807344;0.69970703125;0.205718994140625;5.10999998709849;512;1 A
76.3167348073188;0.69964599609375;0.20684814453125;5.11999998707324;513;1 A
76.3267348072935;0.699615478515625;0.20672607421875;5.129999987048;514;1 A
76.3367348072683;0.69964599609375;0.2071533203125;5.13999998702275;515;1 A
76.346734807243;0.69964599609375;0.207122802734375;5.1499999869975;516;1 A
76.3567348072178;0.699676513671875;0.20733642578125;5.15999998697225;517;1 A
76.3667348071925;0.69964599609375;0.20806884765625;5.169999986947;518;1 A
76.3767348071673;0.69970703125;0.208465576171875;5.17999998692176;519;1 A
76.386734807142;0.6995849609375;0.20916748046875;5.18999998689651;520;1 A
76.3967348071168;0.69970703125;0.209197998046875;5.19999998687126;521;1 A
76.4067348070915;0.69970703125;0.20953369140625;5.20999998684601;522;1 A
76.4167348070663;0.699615478515625;0.20977783203125;5.21999998682077;523;1 A
76.426734807041;0.69964599609375;0.210601806640625;5.22999998679552;524;1 A
76.4367348070158;0.699676513671875;0.211639404296875;5.23999998677027;525;1 A
76.4467348069905;0.699676513671875;0.2120361328125;5.24999998674502;526;1 A
76.4567348069653;0.69964599609375;0.2130126953125;5.25999998671978;527;1 A
76.4667348069401;0.69970703125;0.212921142578125;5.26999998669453;528;1 A
76.4767348069148;0.699615478515625;0.213470458984375;5.27999998666928;529;1 A
76.4867348068896;0.699615478515625;0.21368408203125;5.28999998664403;530;1 A
76.4967348068643;0.699615478515625;0.214141845703125;5.29999998661879;531;1 A
76.5067348068391;0.6995849609375;0.21392822265625;5.30999998659354;532;1 A
76.5167348068138;0.69970703125;0.213623046875;5.31999998656829;533;1 A
76.5267348067886;0.699615478515625;0.21337890625;5.32999998654304;534;1 A
76.5367348067633;0.699676513671875;0.212738037109375;5.3399999865178;535;1 A
76.5467348067381;0.69964599609375;0.212738037109375;5.34999998649255;536;1 A
76.5567348067128;0.69970703125;0.21209716796875;5.3599999864673;537;1 A
76.5667348066876;0.699554443359375;0.212066650390625;5.36999998644205;538;1 A
76.5767348066623;0.699615478515625;0.2117919921875;5.37999998641681;539;1 A
76.5867348066371;0.699615478515625;0.21136474609375;5.38999998639156;540;1 A
76.5967348066118;0.699676513671875;0.211151123046875;5.39999998636631;541;1 A
76.6067348065866;0.69964599609375;0.210693359375;5.40999998634106;542;1 A
76.6167348065613;0.699676513671875;0.210845947265625;5.41999998631582;543;1 A
76.6267348065361;0.69970703125;0.210205078125;5.42999998629057;544;1 A
76.6367348065108;0.699676513671875;0.210235595703125;5.43999998626532;545;1 A
76.6467348064856;0.699615478515625;0.2098388671875;5.44999998624007;546;1 A
76.6567348064603;0.699554443359375;0.209869384765625;5.45999998621483;547;1 A
76.6667348064351;0.69964599609375;0.210296630859375;5.46999998618958;548;1 A
76.6767348064099;0.699615478515625;0.21063232421875;5.47999998616433;549;1 A
76.6867348063846;0.69964599609375;0.211090087890625;5.48999998613908;550;1 A
76.6967348063594;0.699676513671875;0.2110595703125;5.49999998611383;551;1 A
76.7067348063341;0.699676513671875;0.2113037109375;5.50999998608859;552;1 A
76.7167348063089;0.699615478515625;0.211090087890625;5.51999998606334;553;1 A
76.7267348062836;0.699676513671875;0.211273193359375;5.52999998603809;554;1 A
76.7367348062584;0.699676513671875;0.211456298828125;5.53999998601284;555;1 A
76.7467348062331;0.6995849609375;0.211395263671875;5.5499999859876;556;1 A
76.7567348062079;0.69970703125;0.212005615234375;5.55999998596235;557;1 A
76.7667348061826;0.699676513671875;0.212066650390625;5.5699999859371;558;1 A
76.7767348061574;0.69964599609375;0.21282958984375;5.57999998591185;559;1 A
76.7867348061321;0.699615478515625;0.213531494140625;5.58999998588661;560;1 A
76.7967348061069;0.699737548828125;0.21466064453125;5.59999998586136;561;1 A
76.8067348060816;0.69964599609375;0.214813232421875;5.60999998583611;562;1 A
76.8167348060564;0.699676513671875;0.21484375;5.61999998581086;563;1 A
76.8267348060311;0.69964599609375;0.21466064453125;5.62999998578562;564;1 A
76.8367348060059;0.6995849609375;0.214111328125;5.63999998576037;565;1 A
76.8467348059806;0.699676513671875;0.21405029296875;5.64999998573512;566;1 A
76.8567348059554;0.69970703125;0.213623046875;5.65999998570987;567;1 A
76.8667348059302;0.699615478515625;0.213470458984375;5.66999998568463;568;1 A
76.8767348059049;0.699676513671875;0.212921142578125;5.67999998565938;569;1 A
76.8867348058797;0.699676513671875;0.21221923828125;5.68999998563413;570;1 A
76.8967348058544;0.699615478515625;0.211639404296875;5.69999998560888;571;1 A
76.9067348058292;0.69964599609375;0.211090087890625;5.70999998558364;572;1 A
76.9167348058039;0.699615478515625;0.211151123046875;5.71999998555839;573;1 A
76.9267348057787;0.699615478515625;0.210540771484375;5.72999998553314;574;1 A
76.9367348057534;0.699737548828125;0.210662841796875;5.73999998550789;575;1 A
76.9467348057282;0.69964599609375;0.210205078125;5.74999998548265;576;1 A
76.9567348057029;0.6995849609375;0.210174560546875;5.7599999854574;577;1 A
76.9667348056777;0.699676513671875;0.210357666015625;5.76999998543215;578;1 A
76.9767348056524;0.69964599609375;0.21038818359375;5.7799999854069;579;1 A
76.9867348056272;0.699554443359375;0.21026611328125;5.78999998538166;580;1 A
76.9967348056019;0.699737548828125;0.209747314453125;5.79999998535641;581;1 A
77.0067348055767;0.699615478515625;0.2095947265625;5.80999998533116;582;1 A
77.0167348055514;0.69964599609375;0.208892822265625;5.81999998530591;583;1 A
77.0267348055262;0.699676513671875;0.208740234375;5.82999998528066;584;1 A
77.0367348055009;0.699676513671875;0.20855712890625;5.83999998525542;585;1 A
77.0467348054757;0.699615478515625;0.20849609375;5.84999998523017;586;1 A
77.0567348054504;0.69970703125;0.2088623046875;5.85999998520492;587;1 A
77.0667348054252;0.699615478515625;0.2086181640625;5.86999998517967;588;1 A
77.0767348054;0.6995849609375;0.20892333984375;5.87999998515443;589;1 A
77.0867348053747;0.69964599609375;0.209075927734375;5.88999998512918;590;1 A
77.0967348053495;0.69964599609375;0.20989990234375;5.89999998510393;591;1 A
77.1067348053242;0.699676513671875;0.210052490234375;5.90999998507868;592;1 A
77.116734805299;0.699676513671875;0.210693359375;5.91999998505344;593;1 A
77.1267348052737;0.699615478515625;0.21124267578125;5.92999998502819;594;1 A
77.1367348052485;0.699615478515625;0.211578369140625;5.93999998500294;595;1 A
77.1467348052232;0.699554443359375;0.212249755859375;5.94999998497769;596;1 A
77.156734805198;0.699615478515625;0.2125244140625;5.95999998495245;597;1 A
77.1667348051727;0.69952392578125;0.21319580078125;5.9699999849272;598;1 A
77.1767348051475;0.69964599609375;0.21343994140625;5.97999998490195;599;1 A
77.1867348051222;0.699676513671875;0.213775634765625;5.9899999848767;600;1 A
77.196734805097;0.69970703125;0.21392822265625;5.99999998485146;601;1 A
77.2067348050717;0.69964599609375;0.214111328125;6.00999998482621;602;1 A
77.2167348050465;0.69970703125;0.214385986328125;6.01999998480096;603;1 A
77.2267348050212;0.69952392578125;0.2138671875;6.02999998477571;604;1 A
77.236734804996;0.69976806640625;0.21405029296875;6.03999998475047;605;1 A
77.2467348049707;0.6995849609375;0.21337890625;6.04999998472522;606;1 A
77.2567348049455;0.69964599609375;0.2132568359375;6.05999998469997;607;1 A
77.2667348049202;0.69964599609375;0.2130126953125;6.06999998467472;608;1 A
77.276734804895;0.699676513671875;0.213043212890625;6.07999998464948;609;1 A
77.2867348048698;0.699676513671875;0.21240234375;6.08999998462423;610;1 A
77.2967348048445;0.69964599609375;0.21148681640625;6.09999998459898;611;1 A
77.3067348048193;0.69964599609375;0.210723876953125;6.10999998457373;612;1 A
77.316734804794;0.699676513671875;0.209747314453125;6.11999998454849;613;1 A
77.3267348047688;0.699615478515625;0.209716796875;6.12999998452324;614;1 A
77.3367348047435;0.69964599609375;0.209381103515625;6.13999998449799;615;1 A
77.3467348047183;0.699615478515625;0.20953369140625;6.14999998447274;616;1 A
77.356734804693;0.69964599609375;0.20977783203125;6.1599999844475;617;1 A
77.3667348046678;0.69964599609375;0.209747314453125;6.16999998442225;618;1 A
77.3767348046425;0.69964599609375;0.2100830078125;6.179999984397;619;1 A
77.3867348046173;0.6995849609375;0.210205078125;6.18999998437175;620;1 A
77.396734804592;0.69964599609375;0.210845947265625;6.1999999843465;621;1 A
77.4067348045668;0.6995849609375;0.210418701171875;6.20999998432126;622;1 A
77.4167348045415;0.699676513671875;0.2105712890625;6.21999998429601;623;1 A
77.4267348045163;0.699554443359375;0.210174560546875;6.22999998427076;624;1 A
77.436734804491;0.699676513671875;0.210052490234375;6.23999998424551;625;1 A
77.4467348044658;0.69964599609375;0.210205078125;6.24999998422027;626;1 A
77.4567348044405;0.699737548828125;0.21002197265625;6.25999998419502;627;1 A
77.4667348044153;0.699615478515625;0.210205078125;6.26999998416977;628;1 A
77.47673480439;0.699676513671875;0.20965576171875;6.27999998414452;629;1 A
77.4867348043648;0.699615478515625;0.209564208984375;6.28999998411928;630;1 A
77.4967348043396;0.699615478515625;0.20928955078125;6.29999998409403;631;1 A
77.5067348043143;0.69964599609375;0.20953369140625;6.30999998406878;632;1 A
77.5167348042891;0.699676513671875;0.20965576171875;6.31999998404353;633;1 A
77.5267348042638;0.699676513671875;0.209259033203125;6.32999998401829;634;1 A
77.5367348042386;0.69970703125;0.209381103515625;6.33999998399304;635;1 A
77.5467348042133;0.69964599609375;0.20867919921875;6.34999998396779;636;1 A
77.5567348041881;0.699554443359375;0.208709716796875;6.35999998394254;637;1 A
77.5667348041628;0.699615478515625;0.20843505859375;6.3699999839173;638;1 A
77.5767348041376;0.699676513671875;0.20849609375;6.37999998389205;639;1 A
77.5867348041123;0.6995849609375;0.20794677734375;6.3899999838668;640;1 A
77.5967348040871;0.69964599609375;0.207489013671875;6.39999998384155;641;1 A
77.6067348040618;0.699615478515625;0.207244873046875;6.40999998381631;642;1 A
77.6167348040366;0.699615478515625;0.206756591796875;6.41999998379106;643;1 A
77.6267348040113;0.6995849609375;0.2071533203125;6.42999998376581;644;1 A
77.6367348039861;0.699737548828125;0.20709228515625;6.43999998374056;645;1 A
77.6467348039608;0.699615478515625;0.207366943359375;6.44999998371532;646;1 A
77.6567348039356;0.699737548828125;0.207366943359375;6.45999998369007;647;1 A
77.6667348039103;0.699615478515625;0.207427978515625;6.46999998366482;648;1 A
77.6767348038851;0.69964599609375;0.207977294921875;6.47999998363957;649;1 A
77.6867348038598;0.69964599609375;0.208465576171875;6.48999998361433;650;1 A
77.6967348038346;0.699676513671875;0.209259033203125;6.49999998358908;651;1 A
77.7067348038094;0.69964599609375;0.20880126953125;6.50999998356383;652;1 A
77.7167348037841;0.699676513671875;0.209014892578125;6.51999998353858;653;1 A
77.7267348037589;0.6995849609375;0.20855712890625;6.52999998351333;654;1 A
77.7367348037336;0.699676513671875;0.2086181640625;6.53999998348809;655;1 A
77.7467348037084;0.699615478515625;0.208648681640625;6.54999998346284;656;1 A
77.7567348036831;0.699737548828125;0.20843505859375;6.55999998343759;657;1 A
77.7667348036579;0.699615478515625;0.20831298828125;6.56999998341234;658;1 A
77.7767348036326;0.69964599609375;0.20770263671875;6.5799999833871;659;1 A
77.7867348036074;0.69964599609375;0.207611083984375;6.58999998336185;660;1 A
77.7967348035821;0.699676513671875;0.207122802734375;6.5999999833366;661;1 A
77.8067348035569;0.699615478515625;0.20721435546875;6.60999998331135;662;1 A
77.8167348035316;0.69964599609375;0.20703125;6.61999998328611;663;1 A
77.8267348035064;0.6995849609375;0.20697021484375;6.62999998326086;664;1 A
77.8367348034811;0.699615478515625;0.207489013671875;6.63999998323561;665;1 A
77.8467348034559;0.6995849609375;0.207672119140625;6.64999998321036;666;1 A
77.8567348034306;0.699676513671875;0.208465576171875;6.65999998318512;667;1 A
77.8667348034054;0.699615478515625;0.209197998046875;6.66999998315987;668;1 A
77.8767348033801;0.699737548828125;0.210296630859375;6.67999998313462;669;1 A
77.8867348033549;0.69952392578125;0.210693359375;6.68999998310937;670;1 A
77.8967348033297;0.69970703125;0.211212158203125;6.69999998308413;671;1 A
77.9067348033044;0.699615478515625;0.211669921875;6.70999998305888;672;1 A
77.9167348032792;0.69964599609375;0.21185302734375;6.71999998303363;673;1 A
77.9267348032539;0.699676513671875;0.212249755859375;6.72999998300838;674;1 A
77.9367348032287;0.699676513671875;0.2119140625;6.73999998298314;675;1 A
77.9467348032034;0.699676513671875;0.211517333984375;6.74999998295789;676;1 A
77.9567348031782;0.699676513671875;0.210540771484375;6.75999998293264;677;1 A
77.9667348031529;0.699615478515625;0.2098388671875;6.76999998290739;678;1 A
77.9767348031277;0.699615478515625;0.20941162109375;6.77999998288215;679;1 A
77.9867348031024;0.699615478515625;0.209197998046875;6.7899999828569;680;1 A
77.9967348030772;0.699676513671875;0.2095947265625;6.79999998283165;681;1 A
78.0067348030519;0.69964599609375;0.209197998046875;6.8099999828064;682;1 A
78.0167348030267;0.699737548828125;0.20965576171875;6.81999998278116;683;1 A
78.0267348030014;0.69964599609375;0.209381103515625;6.82999998275591;684;1 A
78.0367348029762;0.69970703125;0.20965576171875;6.83999998273066;685;1 A
78.0467348029509;0.6995849609375;0.2100830078125;6.84999998270541;686;1 A
78.0567348029257;0.699615478515625;0.210540771484375;6.85999998268016;687;1 A
78.0667348029004;0.699554443359375;0.210784912109375;6.86999998265492;688;1 A
78.0767348028752;0.69970703125;0.210418701171875;6.87999998262967;689;1 A
78.0867348028499;0.699615478515625;0.21014404296875;6.88999998260442;690;1 A
78.0967348028247;0.699615478515625;0.20941162109375;6.89999998257917;691;1 A
78.1067348027995;0.69964599609375;0.20928955078125;6.90999998255393;692;1 A
78.1167348027742;0.699676513671875;0.20892333984375;6.91999998252868;693;1 A
78.126734802749;0.699554443359375;0.2086181640625;6.92999998250343;694;1 A
78.1367348027237;0.69964599609375;0.208526611328125;6.93999998247818;695;1 A
78.1467348026985;0.699615478515625;0.20806884765625;6.94999998245294;696;1 A
78.1567348026732;0.699615478515625;0.208251953125;6.95999998242769;697;1 A
78.166734802648;0.69970703125;0.208343505859375;6.96999998240244;698;1 A
78.1767348026227;0.69970703125;0.208953857421875;6.97999998237719;699;1 A
78.1867348025975;0.69964599609375;0.2086181640625;6.98999998235195;700;1 A
