Time (s);WE(1).Potential (V);Corrected time (s);Index;WE(1).Current (A);Current range;Cutoffs
79.5911497990517;-0.129852294921875;0;1;-0.0300018310546875;100 mA;
79.6011497990264;-0.153961181640625;0.00999999997475243;2;-0.0300018310546875;100 mA;
79.6111497990012;-0.169891357421875;0.0199999999495049;3;-0.0300018310546875;100 mA;
79.6211497989759;-0.18182373046875;0.0299999999242573;4;-0.0300018310546875;100 mA;
79.6311497989507;-0.19134521484375;0.0399999998990097;5;-0.029998779296875;100 mA;
79.6411497989254;-0.199249267578125;0.0499999998737621;6;-0.0300079345703125;100 mA;
79.6511497989002;-0.206024169921875;0.0599999998485146;7;-0.0300048828125;100 mA;
79.6611497988749;-0.21197509765625;0.069999999823267;8;-0.0299957275390625;100 mA;
79.6711497988497;-0.21728515625;0.0799999997980194;9;-0.0300018310546875;100 mA;
79.6811497988244;-0.222076416015625;0.0899999997727718;10;-0.029998779296875;100 mA;
79.6911497987992;-0.226470947265625;0.0999999997475243;11;-0.0300048828125;100 mA;
79.7011497987739;-0.230560302734375;0.109999999722277;12;-0.029998779296875;100 mA;
79.7111497987487;-0.234344482421875;0.119999999697029;13;-0.029998779296875;100 mA;
79.7211497987234;-0.237884521484375;0.129999999671782;14;-0.0300018310546875;100 mA;
79.7311497986982;-0.24127197265625;0.139999999646534;15;-0.0299957275390625;100 mA;
79.741149798673;-0.244476318359375;0.149999999621286;16;-0.0299957275390625;100 mA;
79.7511497986477;-0.24755859375;0.159999999596039;17;-0.0300018310546875;100 mA;
79.7611497986225;-0.250518798828125;0.169999999570791;18;-0.0300018310546875;100 mA;
79.7711497985972;-0.25335693359375;0.179999999545544;19;-0.0300079345703125;100 mA;
79.781149798572;-0.256103515625;0.189999999520296;20;-0.0300018310546875;100 mA;
79.7911497985467;-0.258758544921875;0.199999999495049;21;-0.0299957275390625;100 mA;
79.8011497985215;-0.2613525390625;0.209999999469801;22;-0.0299957275390625;100 mA;
79.8111497984962;-0.263885498046875;0.219999999444553;23;-0.0300018310546875;100 mA;
79.821149798471;-0.266326904296875;0.229999999419306;24;-0.0299957275390625;100 mA;
79.8311497984457;-0.268707275390625;0.239999999394058;25;-0.0300018310546875;100 mA;
79.8411497984205;-0.271026611328125;0.249999999368811;26;-0.0300018310546875;100 mA;
79.8511497983952;-0.2733154296875;0.259999999343563;27;-0.029998779296875;100 mA;
79.86114979837;-0.275543212890625;0.269999999318316;28;-0.029998779296875;100 mA;
79.8711497983447;-0.277740478515625;0.279999999293068;29;-0.0300018310546875;100 mA;
79.8811497983195;-0.279876708984375;0.28999999926782;30;-0.029998779296875;100 mA;
79.8911497982942;-0.281951904296875;0.299999999242573;31;-0.029998779296875;100 mA;
79.901149798269;-0.284027099609375;0.309999999217325;32;-0.0299957275390625;100 mA;
79.9111497982437;-0.2860107421875;0.319999999192078;33;-0.0300018310546875;100 mA;
79.9211497982185;-0.287994384765625;0.32999999916683;34;-0.0300018310546875;100 mA;
79.9311497981932;-0.2899169921875;0.339999999141583;35;-0.02999267578125;100 mA;
79.941149798168;-0.29180908203125;0.349999999116335;36;-0.029998779296875;100 mA;
79.9511497981428;-0.293701171875;0.359999999091087;37;-0.0299896240234375;100 mA;
79.9611497981175;-0.295501708984375;0.36999999906584;38;-0.0300018310546875;100 mA;
79.9711497980923;-0.29730224609375;0.379999999040592;39;-0.029998779296875;100 mA;
79.981149798067;-0.299041748046875;0.389999999015345;40;-0.029998779296875;100 mA;
79.9911497980418;-0.30078125;0.399999998990097;41;-0.029998779296875;100 mA;
80.0011497980165;-0.302490234375;0.40999999896485;42;-0.0299957275390625;100 mA;
80.0111497979913;-0.304168701171875;0.419999998939602;43;-0.029998779296875;100 mA;
80.021149797966;-0.3057861328125;0.429999998914354;44;-0.0299957275390625;100 mA;
80.0311497979408;-0.307403564453125;0.439999998889107;45;-0.029998779296875;100 mA;
80.0411497979155;-0.30902099609375;0.449999998863859;46;-0.029998779296875;100 mA;
80.0511497978903;-0.310577392578125;0.459999998838612;47;-0.02999267578125;100 mA;
80.061149797865;-0.3121337890625;0.469999998813364;48;-0.02999267578125;100 mA;
80.0711497978398;-0.31365966796875;0.479999998788116;49;-0.0300048828125;100 mA;
80.0811497978145;-0.31512451171875;0.489999998762869;50;-0.0300018310546875;100 mA;
80.0911497977893;-0.316619873046875;0.499999998737621;51;-0.029998779296875;100 mA;
80.101149797764;-0.318084716796875;0.509999998712374;52;-0.0299957275390625;100 mA;
80.1111497977388;-0.319488525390625;0.519999998687126;53;-0.0300018310546875;100 mA;
80.1211497977135;-0.3209228515625;0.529999998661879;54;-0.0300018310546875;100 mA;
80.1311497976883;-0.322296142578125;0.539999998636631;55;-0.029998779296875;100 mA;
80.141149797663;-0.32366943359375;0.549999998611383;56;-0.029998779296875;100 mA;
80.1511497976378;-0.325042724609375;0.559999998586136;57;-0.0299957275390625;100 mA;
80.1611497976126;-0.326385498046875;0.569999998560888;58;-0.0300018310546875;100 mA;
80.1711497975873;-0.32769775390625;0.579999998535641;59;-0.0299957275390625;100 mA;
80.1811497975621;-0.329010009765625;0.589999998510393;60;-0.0299957275390625;100 mA;
80.1911497975368;-0.330291748046875;0.599999998485146;61;-0.0299957275390625;100 mA;
80.2011497975116;-0.331573486328125;0.609999998459898;62;-0.0299957275390625;100 mA;
80.2111497974863;-0.33282470703125;0.61999999843465;63;-0.0299957275390625;100 mA;
80.2211497974611;-0.3341064453125;0.629999998409403;64;-0.029998779296875;100 mA;
80.2311497974358;-0.3353271484375;0.639999998384155;65;-0.0299957275390625;100 mA;
80.2411497974106;-0.3365478515625;0.649999998358908;66;-0.0299957275390625;100 mA;
80.2511497973853;-0.337738037109375;0.65999999833366;67;-0.0300018310546875;100 mA;
80.2611497973601;-0.33892822265625;0.669999998308413;68;-0.0299957275390625;100 mA;
80.2711497973348;-0.340118408203125;0.679999998283165;69;-0.02999267578125;100 mA;
80.2811497973096;-0.34130859375;0.689999998257917;70;-0.029998779296875;100 mA;
80.2911497972843;-0.34246826171875;0.69999999823267;71;-0.029998779296875;100 mA;
80.3011497972591;-0.3436279296875;0.709999998207422;72;-0.0299957275390625;100 mA;
80.3111497972338;-0.344757080078125;0.719999998182175;73;-0.0299957275390625;100 mA;
80.3211497972086;-0.34588623046875;0.729999998156927;74;-0.029998779296875;100 mA;
80.3311497971833;-0.347015380859375;0.73999999813168;75;-0.0299957275390625;100 mA;
80.3411497971581;-0.348114013671875;0.749999998106432;76;-0.0299957275390625;100 mA;
80.3511497971328;-0.349212646484375;0.759999998081184;77;-0.0299957275390625;100 mA;
80.3611497971076;-0.350311279296875;0.769999998055937;78;-0.0299957275390625;100 mA;
80.3711497970824;-0.35137939453125;0.779999998030689;79;-0.0300018310546875;100 mA;
80.3811497970571;-0.352447509765625;0.789999998005442;80;-0.0299957275390625;100 mA;
80.3911497970319;-0.353515625;0.799999997980194;81;-0.0299957275390625;100 mA;
80.4011497970066;-0.354583740234375;0.809999997954947;82;-0.02999267578125;100 mA;
80.4111497969814;-0.355621337890625;0.819999997929699;83;-0.0299957275390625;100 mA;
80.4211497969561;-0.356658935546875;0.829999997904451;84;-0.0299957275390625;100 mA;
80.4311497969309;-0.357696533203125;0.839999997879204;85;-0.029998779296875;100 mA;
80.4411497969056;-0.358734130859375;0.849999997853956;86;-0.029998779296875;100 mA;
80.4511497968804;-0.3597412109375;0.859999997828709;87;-0.0300048828125;100 mA;
80.4611497968551;-0.360748291015625;0.869999997803461;88;-0.0299957275390625;100 mA;
80.4711497968299;-0.36175537109375;0.879999997778214;89;-0.029998779296875;100 mA;
80.4811497968046;-0.36273193359375;0.889999997752966;90;-0.0299957275390625;100 mA;
80.4911497967794;-0.363739013671875;0.899999997727718;91;-0.02999267578125;100 mA;
80.5011497967541;-0.364715576171875;0.909999997702471;92;-0.0300018310546875;100 mA;
80.5111497967289;-0.365692138671875;0.919999997677223;93;-0.029998779296875;100 mA;
80.5211497967036;-0.366668701171875;0.929999997651976;94;-0.029998779296875;100 mA;
80.5311497966784;-0.36761474609375;0.939999997626728;95;-0.029998779296875;100 mA;
80.5411497966531;-0.36859130859375;0.949999997601481;96;-0.0299957275390625;100 mA;
80.5511497966279;-0.369537353515625;0.959999997576233;97;-0.029998779296875;100 mA;
80.5611497966026;-0.3704833984375;0.969999997550985;98;-0.029998779296875;100 mA;
80.5711497965774;-0.371429443359375;0.979999997525738;99;-0.0300018310546875;100 mA;
80.5811497965522;-0.37237548828125;0.98999999750049;100;-0.0299957275390625;100 mA;
80.5911497965269;-0.373321533203125;0.999999997475243;101;-0.0300018310546875;100 mA;
80.6011497965017;-0.374237060546875;1.00999999745;102;-0.0299957275390625;100 mA;
80.6111497964764;-0.375152587890625;1.01999999742475;103;-0.029998779296875;100 mA;
80.6211497964512;-0.376068115234375;1.0299999973995;104;-0.02999267578125;100 mA;
80.6311497964259;-0.376983642578125;1.03999999737425;105;-0.0299957275390625;100 mA;
80.6411497964007;-0.377899169921875;1.049999997349;106;-0.029998779296875;100 mA;
80.6511497963754;-0.378814697265625;1.05999999732376;107;-0.029998779296875;100 mA;
80.6611497963502;-0.379730224609375;1.06999999729851;108;-0.0299957275390625;100 mA;
80.6711497963249;-0.380615234375;1.07999999727326;109;-0.029998779296875;100 mA;
80.6811497962997;-0.381500244140625;1.08999999724801;110;-0.0299957275390625;100 mA;
80.6911497962744;-0.382415771484375;1.09999999722277;111;-0.029998779296875;100 mA;
80.7011497962492;-0.38330078125;1.10999999719752;112;-0.0300018310546875;100 mA;
80.7111497962239;-0.3841552734375;1.11999999717227;113;-0.029998779296875;100 mA;
80.7211497961987;-0.385040283203125;1.12999999714702;114;-0.0300018310546875;100 mA;
80.7311497961734;-0.38592529296875;1.13999999712178;115;-0.0299957275390625;100 mA;
80.7411497961482;-0.38677978515625;1.14999999709653;116;-0.029998779296875;100 mA;
80.7511497961229;-0.387664794921875;1.15999999707128;117;-0.0299957275390625;100 mA;
80.7611497960977;-0.388519287109375;1.16999999704603;118;-0.0299957275390625;100 mA;
80.7711497960725;-0.389404296875;1.17999999702079;119;-0.029998779296875;100 mA;
80.7811497960472;-0.3902587890625;1.18999999699554;120;-0.0299957275390625;100 mA;
80.791149796022;-0.391082763671875;1.19999999697029;121;-0.029998779296875;100 mA;
80.8011497959967;-0.391937255859375;1.20999999694504;122;-0.0300018310546875;100 mA;
80.8111497959715;-0.392791748046875;1.2199999969198;123;-0.02999267578125;100 mA;
80.8211497959462;-0.393646240234375;1.22999999689455;124;-0.029998779296875;100 mA;
80.831149795921;-0.39447021484375;1.2399999968693;125;-0.0299957275390625;100 mA;
80.8411497958957;-0.39532470703125;1.24999999684405;126;-0.029998779296875;100 mA;
80.8511497958705;-0.396148681640625;1.25999999681881;127;-0.0300018310546875;100 mA;
80.8611497958452;-0.39697265625;1.26999999679356;128;-0.0299957275390625;100 mA;
80.87114979582;-0.3978271484375;1.27999999676831;129;-0.0300018310546875;100 mA;
80.8811497957947;-0.398651123046875;1.28999999674306;130;-0.0299957275390625;100 mA;
80.8911497957695;-0.399444580078125;1.29999999671782;131;-0.0299957275390625;100 mA;
80.9011497957442;-0.400299072265625;1.30999999669257;132;-0.0299957275390625;100 mA;
80.911149795719;-0.401123046875;1.31999999666732;133;-0.0300018310546875;100 mA;
80.9211497956937;-0.401947021484375;1.32999999664207;134;-0.0299957275390625;100 mA;
80.9311497956685;-0.40277099609375;1.33999999661683;135;-0.0299957275390625;100 mA;
80.9411497956432;-0.403564453125;1.34999999659158;136;-0.029998779296875;100 mA;
80.951149795618;-0.404388427734375;1.35999999656633;137;-0.0299957275390625;100 mA;
80.9611497955927;-0.40521240234375;1.36999999654108;138;-0.029998779296875;100 mA;
80.9711497955675;-0.406005859375;1.37999999651583;139;-0.0300018310546875;100 mA;
80.9811497955423;-0.406829833984375;1.38999999649059;140;-0.0299957275390625;100 mA;
80.991149795517;-0.407623291015625;1.39999999646534;141;-0.0299957275390625;100 mA;
81.0011497954918;-0.408447265625;1.40999999644009;142;-0.029998779296875;100 mA;
81.0111497954665;-0.40924072265625;1.41999999641484;143;-0.029998779296875;100 mA;
81.0211497954413;-0.4100341796875;1.4299999963896;144;-0.02999267578125;100 mA;
81.031149795416;-0.410858154296875;1.43999999636435;145;-0.0299957275390625;100 mA;
81.0411497953908;-0.411651611328125;1.4499999963391;146;-0.029998779296875;100 mA;
81.0511497953655;-0.412445068359375;1.45999999631385;147;-0.0299957275390625;100 mA;
81.0611497953403;-0.413238525390625;1.46999999628861;148;-0.02999267578125;100 mA;
81.071149795315;-0.4140625;1.47999999626336;149;-0.0299957275390625;100 mA;
81.0811497952898;-0.414825439453125;1.48999999623811;150;-0.0299957275390625;100 mA;
81.0911497952645;-0.415618896484375;1.49999999621286;151;-0.0300018310546875;100 mA;
81.1011497952393;-0.41644287109375;1.50999999618762;152;-0.029998779296875;100 mA;
81.111149795214;-0.417205810546875;1.51999999616237;153;-0.0299957275390625;100 mA;
81.1211497951888;-0.41802978515625;1.52999999613712;154;-0.029998779296875;100 mA;
81.1311497951635;-0.418792724609375;1.53999999611187;155;-0.0300018310546875;100 mA;
81.1411497951383;-0.419586181640625;1.54999999608663;156;-0.029998779296875;100 mA;
81.151149795113;-0.420379638671875;1.55999999606138;157;-0.0300018310546875;100 mA;
81.1611497950878;-0.421173095703125;1.56999999603613;158;-0.029998779296875;100 mA;
81.1711497950625;-0.42193603515625;1.57999999601088;159;-0.0300048828125;100 mA;
81.1811497950373;-0.4227294921875;1.58999999598564;160;-0.0299957275390625;100 mA;
81.1911497950121;-0.423492431640625;1.59999999596039;161;-0.02999267578125;100 mA;
81.2011497949868;-0.424285888671875;1.60999999593514;162;-0.0299957275390625;100 mA;
81.2111497949616;-0.425079345703125;1.61999999590989;163;-0.02999267578125;100 mA;
81.2211497949363;-0.425872802734375;1.62999999588465;164;-0.02999267578125;100 mA;
81.2311497949111;-0.4266357421875;1.6399999958594;165;-0.029998779296875;100 mA;
81.2411497948858;-0.42742919921875;1.64999999583415;166;-0.0299957275390625;100 mA;
81.2511497948606;-0.42822265625;1.6599999958089;167;-0.029998779296875;100 mA;
81.2611497948353;-0.428985595703125;1.66999999578366;168;-0.0299957275390625;100 mA;
81.2711497948101;-0.429779052734375;1.67999999575841;169;-0.0300018310546875;100 mA;
81.2811497947848;-0.4305419921875;1.68999999573316;170;-0.0300018310546875;100 mA;
81.2911497947596;-0.431304931640625;1.69999999570791;171;-0.029998779296875;100 mA;
81.3011497947343;-0.432098388671875;1.70999999568267;172;-0.02999267578125;100 mA;
81.3111497947091;-0.432861328125;1.71999999565742;173;-0.02999267578125;100 mA;
81.3211497946838;-0.43365478515625;1.72999999563217;174;-0.02999267578125;100 mA;
81.3311497946586;-0.4344482421875;1.73999999560692;175;-0.0299957275390625;100 mA;
81.3411497946333;-0.435211181640625;1.74999999558167;176;-0.02999267578125;100 mA;
81.3511497946081;-0.436004638671875;1.75999999555643;177;-0.0299957275390625;100 mA;
81.3611497945828;-0.436767578125;1.76999999553118;178;-0.029998779296875;100 mA;
81.3711497945576;-0.43756103515625;1.77999999550593;179;-0.0299957275390625;100 mA;
81.3811497945323;-0.4383544921875;1.78999999548068;180;-0.029998779296875;100 mA;
81.3911497945071;-0.439117431640625;1.79999999545544;181;-0.0299896240234375;100 mA;
81.4011497944819;-0.439910888671875;1.80999999543019;182;-0.02999267578125;100 mA;
81.4111497944566;-0.440673828125;1.81999999540494;183;-0.0299896240234375;100 mA;
81.4211497944314;-0.44146728515625;1.82999999537969;184;-0.0299896240234375;100 mA;
81.4311497944061;-0.442230224609375;1.83999999535445;185;-0.02999267578125;100 mA;
81.4411497943809;-0.443023681640625;1.8499999953292;186;-0.0299957275390625;100 mA;
81.4511497943556;-0.443817138671875;1.85999999530395;187;-0.0299957275390625;100 mA;
81.4611497943304;-0.444580078125;1.8699999952787;188;-0.0300018310546875;100 mA;
81.4711497943051;-0.44537353515625;1.87999999525346;189;-0.0300018310546875;100 mA;
81.4811497942799;-0.446136474609375;1.88999999522821;190;-0.0300018310546875;100 mA;
81.4911497942546;-0.446929931640625;1.89999999520296;191;-0.0300048828125;100 mA;
81.5011497942294;-0.447723388671875;1.90999999517771;192;-0.029986572265625;100 mA;
81.5111497942041;-0.448486328125;1.91999999515247;193;-0.0299896240234375;100 mA;
81.5211497941789;-0.44927978515625;1.92999999512722;194;-0.0299957275390625;100 mA;
81.5311497941536;-0.4500732421875;1.93999999510197;195;-0.0299957275390625;100 mA;
81.5411497941284;-0.45086669921875;1.94999999507672;196;-0.0299957275390625;100 mA;
81.5511497941031;-0.45166015625;1.95999999505148;197;-0.029986572265625;100 mA;
81.5611497940779;-0.452423095703125;1.96999999502623;198;-0.0299957275390625;100 mA;
81.5711497940526;-0.453216552734375;1.97999999500098;199;-0.0299957275390625;100 mA;
81.5811497940274;-0.454010009765625;1.98999999497573;200;-0.0299957275390625;100 mA;
81.5911497940021;-0.45477294921875;1.99999999495049;201;-0.029998779296875;100 mA;
81.6011497939769;-0.455596923828125;2.00999999492524;202;-0.0299957275390625;100 mA;
81.6111497939517;-0.45635986328125;2.01999999489999;203;-0.029998779296875;100 mA;
81.6211497939264;-0.457183837890625;2.02999999487474;204;-0.02999267578125;100 mA;
81.6311497939012;-0.457977294921875;2.0399999948495;205;-0.0299957275390625;100 mA;
81.6411497938759;-0.458770751953125;2.04999999482425;206;-0.02999267578125;100 mA;
81.6511497938507;-0.459564208984375;2.059999994799;207;-0.029998779296875;100 mA;
81.6611497938254;-0.460357666015625;2.06999999477375;208;-0.0299957275390625;100 mA;
81.6711497938002;-0.461151123046875;2.0799999947485;209;-0.02999267578125;100 mA;
81.6811497937749;-0.461944580078125;2.08999999472326;210;-0.0299957275390625;100 mA;
81.6911497937497;-0.462738037109375;2.09999999469801;211;-0.02999267578125;100 mA;
81.7011497937244;-0.46356201171875;2.10999999467276;212;-0.029998779296875;100 mA;
81.7111497936992;-0.46435546875;2.11999999464751;213;-0.029998779296875;100 mA;
81.7211497936739;-0.465179443359375;2.12999999462227;214;-0.0299957275390625;100 mA;
81.7311497936487;-0.465972900390625;2.13999999459702;215;-0.02999267578125;100 mA;
81.7411497936234;-0.466766357421875;2.14999999457177;216;-0.0299957275390625;100 mA;
81.7511497935982;-0.46759033203125;2.15999999454652;217;-0.02999267578125;100 mA;
81.7611497935729;-0.4683837890625;2.16999999452128;218;-0.0299957275390625;100 mA;
81.7711497935477;-0.469207763671875;2.17999999449603;219;-0.0299957275390625;100 mA;
81.7811497935224;-0.47003173828125;2.18999999447078;220;-0.029998779296875;100 mA;
81.7911497934972;-0.4708251953125;2.19999999444553;221;-0.0299957275390625;100 mA;
81.801149793472;-0.471649169921875;2.20999999442029;222;-0.02999267578125;100 mA;
81.8111497934467;-0.47247314453125;2.21999999439504;223;-0.029998779296875;100 mA;
81.8211497934215;-0.473297119140625;2.22999999436979;224;-0.0299896240234375;100 mA;
81.8311497933962;-0.47412109375;2.23999999434454;225;-0.029998779296875;100 mA;
81.841149793371;-0.47491455078125;2.2499999943193;226;-0.02999267578125;100 mA;
81.8511497933457;-0.47576904296875;2.25999999429405;227;-0.02999267578125;100 mA;
81.8611497933205;-0.4765625;2.2699999942688;228;-0.029998779296875;100 mA;
81.8711497932952;-0.477386474609375;2.27999999424355;229;-0.02999267578125;100 mA;
81.88114979327;-0.47821044921875;2.28999999421831;230;-0.029998779296875;100 mA;
81.8911497932447;-0.47906494140625;2.29999999419306;231;-0.0299957275390625;100 mA;
81.9011497932195;-0.479888916015625;2.30999999416781;232;-0.0299957275390625;100 mA;
81.9111497931942;-0.480712890625;2.31999999414256;233;-0.0300018310546875;100 mA;
81.921149793169;-0.4815673828125;2.32999999411732;234;-0.02999267578125;100 mA;
81.9311497931437;-0.482391357421875;2.33999999409207;235;-0.029998779296875;100 mA;
81.9411497931185;-0.483245849609375;2.34999999406682;236;-0.029998779296875;100 mA;
81.9511497930932;-0.484100341796875;2.35999999404157;237;-0.0299957275390625;100 mA;
81.961149793068;-0.48492431640625;2.36999999401633;238;-0.0299896240234375;100 mA;
81.9711497930427;-0.48577880859375;2.37999999399108;239;-0.029998779296875;100 mA;
81.9811497930175;-0.48663330078125;2.38999999396583;240;-0.0299957275390625;100 mA;
81.9911497929922;-0.48748779296875;2.39999999394058;241;-0.029998779296875;100 mA;
82.001149792967;-0.48834228515625;2.40999999391533;242;-0.02999267578125;100 mA;
82.0111497929418;-0.48919677734375;2.41999999389009;243;-0.0299957275390625;100 mA;
82.0211497929165;-0.490081787109375;2.42999999386484;244;-0.029986572265625;100 mA;
82.0311497928913;-0.490936279296875;2.43999999383959;245;-0.02999267578125;100 mA;
82.041149792866;-0.4918212890625;2.44999999381434;246;-0.029998779296875;100 mA;
82.0511497928408;-0.492706298828125;2.4599999937891;247;-0.029998779296875;100 mA;
82.0611497928155;-0.493560791015625;2.46999999376385;248;-0.0299896240234375;100 mA;
82.0711497927903;-0.49444580078125;2.4799999937386;249;-0.029998779296875;100 mA;
82.081149792765;-0.495361328125;2.48999999371335;250;-0.029998779296875;100 mA;
82.0911497927398;-0.496246337890625;2.49999999368811;251;-0.029998779296875;100 mA;
82.1011497927145;-0.497161865234375;2.50999999366286;252;-0.0299957275390625;100 mA;
82.1111497926893;-0.498046875;2.51999999363761;253;-0.029998779296875;100 mA;
82.121149792664;-0.49896240234375;2.52999999361236;254;-0.0300018310546875;100 mA;
82.1311497926388;-0.4998779296875;2.53999999358712;255;-0.029998779296875;100 mA;
82.1411497926135;-0.50079345703125;2.54999999356187;256;-0.02999267578125;100 mA;
82.1511497925883;-0.501708984375;2.55999999353662;257;-0.0299896240234375;100 mA;
82.161149792563;-0.50262451171875;2.56999999351137;258;-0.0299957275390625;100 mA;
82.1711497925378;-0.5035400390625;2.57999999348613;259;-0.029986572265625;100 mA;
82.1811497925125;-0.50445556640625;2.58999999346088;260;-0.0299957275390625;100 mA;
82.1911497924873;-0.50537109375;2.59999999343563;261;-0.02999267578125;100 mA;
82.201149792462;-0.50628662109375;2.60999999341038;262;-0.0299957275390625;100 mA;
82.2111497924368;-0.5072021484375;2.61999999338514;263;-0.0299896240234375;100 mA;
82.2211497924116;-0.50811767578125;2.62999999335989;264;-0.0299957275390625;100 mA;
82.2311497923863;-0.509033203125;2.63999999333464;265;-0.0299896240234375;100 mA;
82.2411497923611;-0.50994873046875;2.64999999330939;266;-0.02999267578125;100 mA;
82.2511497923358;-0.51116943359375;2.65999999328415;267;-0.0299957275390625;100 mA;
82.2611497923106;-0.5120849609375;2.6699999932589;268;-0.029998779296875;100 mA;
82.2711497922853;-0.51300048828125;2.67999999323365;269;-0.02999267578125;100 mA;
82.2811497922601;-0.513916015625;2.6899999932084;270;-0.02999267578125;100 mA;
82.2911497922348;-0.51513671875;2.69999999318316;271;-0.0299957275390625;100 mA;
82.3011497922096;-0.51605224609375;2.70999999315791;272;-0.0299957275390625;100 mA;
82.3111497921843;-0.5169677734375;2.71999999313266;273;-0.0299957275390625;100 mA;
82.3211497921591;-0.5181884765625;2.72999999310741;274;-0.02999267578125;100 mA;
82.3311497921338;-0.51910400390625;2.73999999308217;275;-0.0299957275390625;100 mA;
82.3411497921086;-0.52001953125;2.74999999305692;276;-0.0299957275390625;100 mA;
82.3511497920833;-0.521240234375;2.75999999303167;277;-0.0299896240234375;100 mA;
82.3611497920581;-0.52215576171875;2.76999999300642;278;-0.029998779296875;100 mA;
82.3711497920328;-0.5230712890625;2.77999999298117;279;-0.0299957275390625;100 mA;
82.3811497920076;-0.5242919921875;2.78999999295593;280;-0.0299957275390625;100 mA;
82.3911497919823;-0.52520751953125;2.79999999293068;281;-0.0299957275390625;100 mA;
82.4011497919571;-0.52642822265625;2.80999999290543;282;-0.0299896240234375;100 mA;
82.4111497919318;-0.52764892578125;2.81999999288018;283;-0.02999267578125;100 mA;
82.4211497919066;-0.528564453125;2.82999999285494;284;-0.0299896240234375;100 mA;
82.4311497918814;-0.52978515625;2.83999999282969;285;-0.0299957275390625;100 mA;
82.4411497918561;-0.53070068359375;2.84999999280444;286;-0.0299957275390625;100 mA;
82.4511497918309;-0.53192138671875;2.85999999277919;287;-0.029998779296875;100 mA;
82.4611497918056;-0.53314208984375;2.86999999275395;288;-0.0299957275390625;100 mA;
82.4711497917804;-0.5340576171875;2.8799999927287;289;-0.02999267578125;100 mA;
82.4811497917551;-0.5352783203125;2.88999999270345;290;-0.0299957275390625;100 mA;
82.4911497917299;-0.5364990234375;2.8999999926782;291;-0.0299957275390625;100 mA;
82.5011497917046;-0.5377197265625;2.90999999265296;292;-0.0299896240234375;100 mA;
82.5111497916794;-0.5389404296875;2.91999999262771;293;-0.0300018310546875;100 mA;
82.5211497916541;-0.53985595703125;2.92999999260246;294;-0.02999267578125;100 mA;
82.5311497916289;-0.54107666015625;2.93999999257721;295;-0.0299896240234375;100 mA;
82.5411497916036;-0.54229736328125;2.94999999255197;296;-0.0299957275390625;100 mA;
82.5511497915784;-0.54351806640625;2.95999999252672;297;-0.02999267578125;100 mA;
82.5611497915531;-0.54473876953125;2.96999999250147;298;-0.0299896240234375;100 mA;
82.5711497915279;-0.54595947265625;2.97999999247622;299;-0.0299957275390625;100 mA;
82.5811497915026;-0.54718017578125;2.98999999245098;300;-0.02999267578125;100 mA;
82.5911497914774;-0.54840087890625;2.99999999242573;301;-0.02999267578125;100 mA;
82.6011497914521;-0.54962158203125;3.00999999240048;302;-0.02999267578125;100 mA;
82.6111497914269;-0.55084228515625;3.01999999237523;303;-0.02999267578125;100 mA;
82.6211497914016;-0.5523681640625;3.02999999234999;304;-0.029986572265625;100 mA;
82.6311497913764;-0.5535888671875;3.03999999232474;305;-0.02999267578125;100 mA;
82.6411497913512;-0.5548095703125;3.04999999229949;306;-0.02999267578125;100 mA;
82.6511497913259;-0.55633544921875;3.05999999227424;307;-0.0299957275390625;100 mA;
82.6611497913007;-0.55755615234375;3.069999992249;308;-0.02999267578125;100 mA;
82.6711497912754;-0.55877685546875;3.07999999222375;309;-0.02999267578125;100 mA;
82.6811497912502;-0.560302734375;3.0899999921985;310;-0.029998779296875;100 mA;
82.6911497912249;-0.56182861328125;3.09999999217325;311;-0.02999267578125;100 mA;
82.7011497911997;-0.56304931640625;3.109999992148;312;-0.0299896240234375;100 mA;
82.7111497911744;-0.5645751953125;3.11999999212276;313;-0.029998779296875;100 mA;
82.7211497911492;-0.56610107421875;3.12999999209751;314;-0.0299957275390625;100 mA;
82.7311497911239;-0.56732177734375;3.13999999207226;315;-0.0299896240234375;100 mA;
82.7411497910987;-0.56884765625;3.14999999204701;316;-0.02999267578125;100 mA;
82.7511497910734;-0.57037353515625;3.15999999202177;317;-0.0299957275390625;100 mA;
82.7611497910482;-0.5718994140625;3.16999999199652;318;-0.02999267578125;100 mA;
82.7711497910229;-0.57342529296875;3.17999999197127;319;-0.0299957275390625;100 mA;
82.7811497909977;-0.574951171875;3.18999999194602;320;-0.029998779296875;100 mA;
82.7911497909724;-0.57647705078125;3.19999999192078;321;-0.02999267578125;100 mA;
82.8011497909472;-0.5780029296875;3.20999999189553;322;-0.029998779296875;100 mA;
82.8111497909219;-0.579833984375;3.21999999187028;323;-0.0299957275390625;100 mA;
82.8211497908967;-0.58135986328125;3.22999999184503;324;-0.0299957275390625;100 mA;
82.8311497908715;-0.5828857421875;3.23999999181979;325;-0.02999267578125;100 mA;
82.8411497908462;-0.584716796875;3.24999999179454;326;-0.02999267578125;100 mA;
82.851149790821;-0.58624267578125;3.25999999176929;327;-0.0299896240234375;100 mA;
82.8611497907957;-0.58807373046875;3.26999999174404;328;-0.02999267578125;100 mA;
82.8711497907705;-0.58990478515625;3.2799999917188;329;-0.02999267578125;100 mA;
82.8811497907452;-0.5914306640625;3.28999999169355;330;-0.02999267578125;100 mA;
82.89114979072;-0.59326171875;3.2999999916683;331;-0.0299957275390625;100 mA;
82.9011497906947;-0.5950927734375;3.30999999164305;332;-0.02999267578125;100 mA;
82.9111497906695;-0.596923828125;3.31999999161781;333;-0.0299957275390625;100 mA;
82.9211497906442;-0.5987548828125;3.32999999159256;334;-0.0299896240234375;100 mA;
82.931149790619;-0.60089111328125;3.33999999156731;335;-0.0299957275390625;100 mA;
82.9411497905937;-0.60272216796875;3.34999999154206;336;-0.029986572265625;100 mA;
82.9511497905685;-0.60455322265625;3.35999999151682;337;-0.0299896240234375;100 mA;
82.9611497905432;-0.606689453125;3.36999999149157;338;-0.02999267578125;100 mA;
82.971149790518;-0.6085205078125;3.37999999146632;339;-0.0299896240234375;100 mA;
82.9811497904927;-0.61065673828125;3.38999999144107;340;-0.02999267578125;100 mA;
82.9911497904675;-0.61279296875;3.39999999141583;341;-0.02999267578125;100 mA;
83.0011497904422;-0.61492919921875;3.40999999139058;342;-0.0299957275390625;100 mA;
83.011149790417;-0.6170654296875;3.41999999136533;343;-0.029986572265625;100 mA;
83.0211497903917;-0.61920166015625;3.42999999134008;344;-0.0299957275390625;100 mA;
83.0311497903665;-0.621337890625;3.43999999131483;345;-0.02999267578125;100 mA;
83.0411497903413;-0.62347412109375;3.44999999128959;346;-0.02999267578125;100 mA;
83.051149790316;-0.62591552734375;3.45999999126434;347;-0.029986572265625;100 mA;
83.0611497902908;-0.62835693359375;3.46999999123909;348;-0.0299957275390625;100 mA;
83.0711497902655;-0.6304931640625;3.47999999121384;349;-0.0299957275390625;100 mA;
83.0811497902403;-0.6329345703125;3.4899999911886;350;-0.0299896240234375;100 mA;
83.091149790215;-0.6353759765625;3.49999999116335;351;-0.0299896240234375;100 mA;
83.1011497901898;-0.6378173828125;3.5099999911381;352;-0.02999267578125;100 mA;
83.1111497901645;-0.64056396484375;3.51999999111285;353;-0.029986572265625;100 mA;
83.1211497901393;-0.64300537109375;3.52999999108761;354;-0.029986572265625;100 mA;
83.131149790114;-0.64544677734375;3.53999999106236;355;-0.0299957275390625;100 mA;
83.1411497900888;-0.648193359375;3.54999999103711;356;-0.0299896240234375;100 mA;
83.1511497900635;-0.65093994140625;3.55999999101186;357;-0.029986572265625;100 mA;
83.1611497900383;-0.65338134765625;3.56999999098662;358;-0.0299957275390625;100 mA;
83.171149790013;-0.6561279296875;3.57999999096137;359;-0.02999267578125;100 mA;
83.1811497899878;-0.65887451171875;3.58999999093612;360;-0.0299957275390625;100 mA;
83.1911497899625;-0.66192626953125;3.59999999091087;361;-0.029986572265625;100 mA;
83.2011497899373;-0.6646728515625;3.60999999088563;362;-0.02999267578125;100 mA;
83.211149789912;-0.667724609375;3.61999999086038;363;-0.02999267578125;100 mA;
83.2211497898868;-0.6707763671875;3.62999999083513;364;-0.02999267578125;100 mA;
83.2311497898615;-0.673828125;3.63999999080988;365;-0.0299896240234375;100 mA;
83.2411497898363;-0.6768798828125;3.64999999078464;366;-0.02999267578125;100 mA;
83.2511497898111;-0.68023681640625;3.65999999075939;367;-0.0299896240234375;100 mA;
83.2611497897858;-0.68359375;3.66999999073414;368;-0.0299957275390625;100 mA;
83.2711497897606;-0.68695068359375;3.67999999070889;369;-0.0299957275390625;100 mA;
83.2811497897353;-0.69061279296875;3.68999999068365;370;-0.0299896240234375;100 mA;
83.2911497897101;-0.6939697265625;3.6999999906584;371;-0.0299896240234375;100 mA;
83.3011497896848;-0.69793701171875;3.70999999063315;372;-0.0299957275390625;100 mA;
83.3111497896596;-0.70159912109375;3.7199999906079;373;-0.02999267578125;100 mA;
83.3211497896343;-0.70556640625;3.72999999058266;374;-0.0299896240234375;100 mA;
83.3311497896091;-0.70953369140625;3.73999999055741;375;-0.02999267578125;100 mA;
83.3411497895838;-0.71380615234375;3.74999999053216;376;-0.0299957275390625;100 mA;
83.3511497895586;-0.71807861328125;3.75999999050691;377;-0.0299896240234375;100 mA;
83.3611497895333;-0.72265625;3.76999999048167;378;-0.02999267578125;100 mA;
83.3711497895081;-0.72723388671875;3.77999999045642;379;-0.0299896240234375;100 mA;
83.3811497894828;-0.7318115234375;3.78999999043117;380;-0.02999267578125;100 mA;
83.3911497894576;-0.7366943359375;3.79999999040592;381;-0.02999267578125;100 mA;
83.4011497894323;-0.74188232421875;3.80999999038067;382;-0.02999267578125;100 mA;
83.4111497894071;-0.7470703125;3.81999999035543;383;-0.02999267578125;100 mA;
83.4211497893818;-0.75225830078125;3.82999999033018;384;-0.02999267578125;100 mA;
83.4311497893566;-0.75775146484375;3.83999999030493;385;-0.0299896240234375;100 mA;
83.4411497893313;-0.76324462890625;3.84999999027968;386;-0.02999267578125;100 mA;
83.4511497893061;-0.76904296875;3.85999999025444;387;-0.029986572265625;100 mA;
83.4611497892809;-0.775146484375;3.86999999022919;388;-0.02999267578125;100 mA;
83.4711497892556;-0.78094482421875;3.87999999020394;389;-0.02999267578125;100 mA;
83.4811497892304;-0.787353515625;3.88999999017869;390;-0.029986572265625;100 mA;
83.4911497892051;-0.79376220703125;3.89999999015345;391;-0.02999267578125;100 mA;
83.5011497891799;-0.8001708984375;3.9099999901282;392;-0.02999267578125;100 mA;WE(1).Potential < -0.8 V
83.5111497891546;-0.806884765625;3.91999999010295;393;-0.029986572265625;100 mA;WE(1).Potential < -0.8 V
83.5211497891294;-0.81390380859375;3.9299999900777;394;-0.029986572265625;100 mA;WE(1).Potential < -0.8 V
83.5311497891041;-0.8209228515625;3.93999999005246;395;-0.0299896240234375;100 mA;WE(1).Potential < -0.8 V
