Time (s);WE(1).Potential (V);Corrected time (s);Index;WE(1).Current (A);Current range;Cutoffs
138.799704649564;0.079071044921875;0;1;0.149932861328125;100 mA;
138.801004649561;0.095672607421875;0.00129999999671782;2;0.149993896484375;100 mA;
138.802304649558;0.106475830078125;0.00259999999343563;3;0.149993896484375;100 mA;
138.803604649555;0.114593505859375;0.00389999999015345;4;0.1500244140625;100 mA;
138.804904649551;0.12109375;0.00519999998687126;5;0.149993896484375;100 mA;
138.806204649548;0.126556396484375;0.00649999998358908;6;0.149932861328125;100 mA;
138.807504649545;0.131256103515625;0.00779999998030689;7;0.149993896484375;100 mA;
138.808804649541;0.135406494140625;0.00909999997702471;8;0.149993896484375;100 mA;
138.810104649538;0.139129638671875;0.0103999999737425;9;0.149993896484375;100 mA;
138.811404649535;0.1424560546875;0.0116999999704603;10;0.149993896484375;100 mA;
138.812704649532;0.145538330078125;0.0129999999671782;11;0.14996337890625;100 mA;
138.814004649528;0.14837646484375;0.014299999963896;12;0.1500244140625;100 mA;
138.815304649525;0.1510009765625;0.0155999999606138;13;0.149993896484375;100 mA;
138.816604649522;0.153472900390625;0.0168999999573316;14;0.149993896484375;100 mA;
138.817904649518;0.15576171875;0.0181999999540494;15;0.14996337890625;100 mA;
138.819204649515;0.157958984375;0.0194999999507672;16;0.1500244140625;100 mA;
138.820504649512;0.160064697265625;0.020799999947485;17;0.149932861328125;100 mA;
138.821804649509;0.16204833984375;0.0220999999442029;18;0.149993896484375;100 mA;
138.823104649505;0.16387939453125;0.0233999999409207;19;0.149993896484375;100 mA;
138.824404649502;0.16571044921875;0.0246999999376385;20;0.149993896484375;100 mA;
138.825704649499;0.16741943359375;0.0259999999343563;21;0.150054931640625;100 mA;
138.827004649496;0.169036865234375;0.0272999999310741;22;0.1500244140625;100 mA;
138.828304649492;0.170623779296875;0.0285999999277919;23;0.14996337890625;100 mA;
138.829604649489;0.172119140625;0.0298999999245098;24;0.149993896484375;100 mA;
138.830904649486;0.173583984375;0.0311999999212276;25;0.149993896484375;100 mA;
138.832204649482;0.175018310546875;0.0324999999179454;26;0.1500244140625;100 mA;
138.833504649479;0.1763916015625;0.0337999999146632;27;0.14996337890625;100 mA;
138.834804649476;0.177734375;0.035099999911381;28;0.150054931640625;100 mA;
138.836104649473;0.179046630859375;0.0363999999080988;29;0.14996337890625;100 mA;
138.837404649469;0.1802978515625;0.0376999999048167;30;0.1500244140625;100 mA;
138.838704649466;0.1815185546875;0.0389999999015345;31;0.1500244140625;100 mA;
138.840004649463;0.182708740234375;0.0402999998982523;32;0.149993896484375;100 mA;
138.841304649459;0.183868408203125;0.0415999998949701;33;0.149993896484375;100 mA;
138.842604649456;0.185028076171875;0.0428999998916879;34;0.1500244140625;100 mA;
138.843904649453;0.186126708984375;0.0441999998884057;35;0.14996337890625;100 mA;
138.84520464945;0.187164306640625;0.0454999998851235;36;0.1500244140625;100 mA;
138.846504649446;0.188262939453125;0.0467999998818414;37;0.1500244140625;100 mA;
138.847804649443;0.189239501953125;0.0480999998785592;38;0.149932861328125;100 mA;
138.84910464944;0.19024658203125;0.049399999875277;39;0.149993896484375;100 mA;
138.850404649436;0.191192626953125;0.0506999998719948;40;0.149993896484375;100 mA;
138.851704649433;0.192169189453125;0.0519999998687126;41;0.149993896484375;100 mA;
138.85300464943;0.193115234375;0.0532999998654304;42;0.149993896484375;100 mA;
138.854304649427;0.194061279296875;0.0545999998621483;43;0.149993896484375;100 mA;
138.855604649423;0.194976806640625;0.0558999998588661;44;0.149993896484375;100 mA;
138.85690464942;0.195892333984375;0.0571999998555839;45;0.149993896484375;100 mA;
138.858204649417;0.19677734375;0.0584999998523017;46;0.1500244140625;100 mA;
138.859504649413;0.1976318359375;0.0597999998490195;47;0.1500244140625;100 mA;
138.86080464941;0.198455810546875;0.0610999998457373;48;0.149993896484375;100 mA;
138.862104649407;0.199310302734375;0.0623999998424551;49;0.149932861328125;100 mA;
138.863404649404;0.2000732421875;0.063699999839173;50;0.149993896484375;100 mA;
138.8647046494;0.20086669921875;0.0649999998358908;51;0.149993896484375;100 mA;
138.866004649397;0.201690673828125;0.0662999998326086;52;0.149993896484375;100 mA;
138.867304649394;0.202484130859375;0.0675999998293264;53;0.1500244140625;100 mA;
138.86860464939;0.203216552734375;0.0688999998260442;54;0.149993896484375;100 mA;
138.869904649387;0.2039794921875;0.070199999822762;55;0.14996337890625;100 mA;
138.871204649384;0.204742431640625;0.0714999998194799;56;0.149993896484375;100 mA;
138.872504649381;0.205474853515625;0.0727999998161977;57;0.149993896484375;100 mA;
138.873804649377;0.206207275390625;0.0740999998129155;58;0.1500244140625;100 mA;
138.875104649374;0.2069091796875;0.0753999998096333;59;0.1500244140625;100 mA;
138.876404649371;0.2076416015625;0.0766999998063511;60;0.149993896484375;100 mA;
138.877704649368;0.208343505859375;0.0779999998030689;61;0.14996337890625;100 mA;
138.879004649364;0.209014892578125;0.0792999997997867;62;0.149993896484375;100 mA;
138.880304649361;0.209686279296875;0.0805999997965046;63;0.149993896484375;100 mA;
138.881604649358;0.2103271484375;0.0818999997932224;64;0.149993896484375;100 mA;
138.882904649354;0.211029052734375;0.0831999997899402;65;0.14996337890625;100 mA;
138.884204649351;0.211639404296875;0.084499999786658;66;0.1500244140625;100 mA;
138.885504649348;0.2122802734375;0.0857999997833758;67;0.150054931640625;100 mA;
138.886804649345;0.212921142578125;0.0870999997800936;68;0.1500244140625;100 mA;
138.888104649341;0.213592529296875;0.0883999997768115;69;0.14996337890625;100 mA;
138.889404649338;0.2142333984375;0.0896999997735293;70;0.14996337890625;100 mA;
138.890704649335;0.21484375;0.0909999997702471;71;0.149993896484375;100 mA;
138.892004649331;0.2154541015625;0.0922999997669649;72;0.1500244140625;100 mA;
138.893304649328;0.216064453125;0.0935999997636827;73;0.14996337890625;100 mA;
138.894604649325;0.216644287109375;0.0948999997604005;74;0.1500244140625;100 mA;
138.895904649322;0.21722412109375;0.0961999997571183;75;0.1500244140625;100 mA;
138.897204649318;0.217803955078125;0.0974999997538362;76;0.1500244140625;100 mA;
138.898504649315;0.2183837890625;0.098799999750554;77;0.1500244140625;100 mA;
138.899804649312;0.218963623046875;0.100099999747272;78;0.1500244140625;100 mA;
138.901104649308;0.21954345703125;0.10139999974399;79;0.149993896484375;100 mA;
138.902404649305;0.2200927734375;0.102699999740707;80;0.1500244140625;100 mA;
138.903704649302;0.22064208984375;0.103999999737425;81;0.149932861328125;100 mA;
138.905004649299;0.22125244140625;0.105299999734143;82;0.1500244140625;100 mA;
138.906304649295;0.221771240234375;0.106599999730861;83;0.149993896484375;100 mA;
138.907604649292;0.222320556640625;0.107899999727579;84;0.149993896484375;100 mA;
138.908904649289;0.222900390625;0.109199999724297;85;0.149993896484375;100 mA;
138.910204649285;0.223419189453125;0.110499999721014;86;0.149993896484375;100 mA;
138.911504649282;0.22393798828125;0.111799999717732;87;0.149932861328125;100 mA;
138.912804649279;0.224456787109375;0.11309999971445;88;0.149993896484375;100 mA;
138.914104649276;0.224945068359375;0.114399999711168;89;0.1500244140625;100 mA;
138.915404649272;0.2254638671875;0.115699999707886;90;0.149993896484375;100 mA;
138.916704649269;0.225982666015625;0.116999999704603;91;0.1500244140625;100 mA;
138.918004649266;0.226470947265625;0.118299999701321;92;0.1500244140625;100 mA;
138.919304649262;0.226959228515625;0.119599999698039;93;0.14996337890625;100 mA;
138.920604649259;0.22747802734375;0.120899999694757;94;0.149993896484375;100 mA;
138.921904649256;0.227996826171875;0.122199999691475;95;0.1500244140625;100 mA;
138.923204649253;0.228515625;0.123499999688192;96;0.150054931640625;100 mA;
138.924504649249;0.22900390625;0.12479999968491;97;0.14996337890625;100 mA;
138.925804649246;0.2294921875;0.126099999681628;98;0.149993896484375;100 mA;
138.927104649243;0.22998046875;0.127399999678346;99;0.149993896484375;100 mA;
138.928404649239;0.230438232421875;0.128699999675064;100;0.149993896484375;100 mA;
138.929704649236;0.23089599609375;0.129999999671782;101;0.1500244140625;100 mA;
138.931004649233;0.23138427734375;0.131299999668499;102;0.1500244140625;100 mA;
138.93230464923;0.2318115234375;0.132599999665217;103;0.149993896484375;100 mA;
138.933604649226;0.2322998046875;0.133899999661935;104;0.1500244140625;100 mA;
138.934904649223;0.23272705078125;0.135199999658653;105;0.14996337890625;100 mA;
138.93620464922;0.23321533203125;0.136499999655371;106;0.149993896484375;100 mA;
138.937504649217;0.233673095703125;0.137799999652088;107;0.149993896484375;100 mA;
138.938804649213;0.234161376953125;0.139099999648806;108;0.149993896484375;100 mA;
138.94010464921;0.234619140625;0.140399999645524;109;0.1500244140625;100 mA;
138.941404649207;0.235076904296875;0.141699999642242;110;0.149993896484375;100 mA;
138.942704649203;0.235504150390625;0.14299999963896;111;0.1500244140625;100 mA;
138.9440046492;0.2359619140625;0.144299999635678;112;0.149993896484375;100 mA;
138.945304649197;0.23638916015625;0.145599999632395;113;0.1500244140625;100 mA;
138.946604649194;0.23681640625;0.146899999629113;114;0.1500244140625;100 mA;
138.94790464919;0.237213134765625;0.148199999625831;115;0.149993896484375;100 mA;
138.949204649187;0.2376708984375;0.149499999622549;116;0.1500244140625;100 mA;
138.950504649184;0.23809814453125;0.150799999619267;117;0.1500244140625;100 mA;
138.95180464918;0.238525390625;0.152099999615984;118;0.149993896484375;100 mA;
138.953104649177;0.238922119140625;0.153399999612702;119;0.149993896484375;100 mA;
138.954404649174;0.239410400390625;0.15469999960942;120;0.149993896484375;100 mA;
138.955704649171;0.239837646484375;0.155999999606138;121;0.1500244140625;100 mA;
138.957004649167;0.240264892578125;0.157299999602856;122;0.14996337890625;100 mA;
138.958304649164;0.24066162109375;0.158599999599573;123;0.14996337890625;100 mA;
138.959604649161;0.2410888671875;0.159899999596291;124;0.1500244140625;100 mA;
138.960904649157;0.24151611328125;0.161199999593009;125;0.15008544921875;100 mA;
138.962204649154;0.241912841796875;0.162499999589727;126;0.149993896484375;100 mA;
138.963504649151;0.242340087890625;0.163799999586445;127;0.14996337890625;100 mA;
138.964804649148;0.24273681640625;0.165099999583163;128;0.149993896484375;100 mA;
138.966104649144;0.2431640625;0.16639999957988;129;0.149993896484375;100 mA;
138.967404649141;0.2435302734375;0.167699999576598;130;0.150054931640625;100 mA;
138.968704649138;0.243927001953125;0.168999999573316;131;0.149993896484375;100 mA;
138.970004649134;0.244354248046875;0.170299999570034;132;0.149993896484375;100 mA;
138.971304649131;0.244781494140625;0.171599999566752;133;0.149993896484375;100 mA;
138.972604649128;0.24517822265625;0.172899999563469;134;0.149993896484375;100 mA;
138.973904649125;0.245574951171875;0.174199999560187;135;0.149993896484375;100 mA;
138.975204649121;0.2459716796875;0.175499999556905;136;0.149993896484375;100 mA;
138.976504649118;0.246368408203125;0.176799999553623;137;0.1500244140625;100 mA;
138.977804649115;0.24676513671875;0.178099999550341;138;0.149993896484375;100 mA;
138.979104649111;0.247161865234375;0.179399999547059;139;0.149932861328125;100 mA;
138.980404649108;0.24749755859375;0.180699999543776;140;0.1500244140625;100 mA;
138.981704649105;0.247894287109375;0.181999999540494;141;0.149993896484375;100 mA;
138.983004649102;0.248321533203125;0.183299999537212;142;0.149993896484375;100 mA;
138.984304649098;0.2486572265625;0.18459999953393;143;0.149993896484375;100 mA;
138.985604649095;0.249053955078125;0.185899999530648;144;0.14996337890625;100 mA;
138.986904649092;0.249481201171875;0.187199999527365;145;0.149993896484375;100 mA;
138.988204649089;0.249847412109375;0.188499999524083;146;0.1500244140625;100 mA;
138.989504649085;0.250213623046875;0.189799999520801;147;0.14996337890625;100 mA;
138.990804649082;0.2506103515625;0.191099999517519;148;0.149993896484375;100 mA;
138.992104649079;0.251007080078125;0.192399999514237;149;0.149993896484375;100 mA;
138.993404649075;0.251373291015625;0.193699999510955;150;0.149993896484375;100 mA;
138.994704649072;0.251739501953125;0.194999999507672;151;0.149993896484375;100 mA;
138.996004649069;0.2520751953125;0.19629999950439;152;0.1500244140625;100 mA;
138.997304649066;0.252471923828125;0.197599999501108;153;0.149993896484375;100 mA;
138.998604649062;0.2528076171875;0.198899999497826;154;0.149993896484375;100 mA;
138.999904649059;0.253204345703125;0.200199999494544;155;0.149993896484375;100 mA;
139.001204649056;0.253509521484375;0.201499999491261;156;0.1500244140625;100 mA;
139.002504649052;0.25390625;0.202799999487979;157;0.149993896484375;100 mA;
139.003804649049;0.254302978515625;0.204099999484697;158;0.149993896484375;100 mA;
139.005104649046;0.254638671875;0.205399999481415;159;0.1500244140625;100 mA;
139.006404649043;0.255035400390625;0.206699999478133;160;0.1500244140625;100 mA;
139.007704649039;0.25537109375;0.20799999947485;161;0.149993896484375;100 mA;
139.009004649036;0.2557373046875;0.209299999471568;162;0.14996337890625;100 mA;
139.010304649033;0.256103515625;0.210599999468286;163;0.149993896484375;100 mA;
139.011604649029;0.256439208984375;0.211899999465004;164;0.149993896484375;100 mA;
139.012904649026;0.25677490234375;0.213199999461722;165;0.149993896484375;100 mA;
139.014204649023;0.257110595703125;0.21449999945844;166;0.1500244140625;100 mA;
139.01550464902;0.257476806640625;0.215799999455157;167;0.15008544921875;100 mA;
139.016804649016;0.2578125;0.217099999451875;168;0.1500244140625;100 mA;
139.018104649013;0.258148193359375;0.218399999448593;169;0.149993896484375;100 mA;
139.01940464901;0.25848388671875;0.219699999445311;170;0.1500244140625;100 mA;
139.020704649006;0.25885009765625;0.220999999442029;171;0.149993896484375;100 mA;
139.022004649003;0.259185791015625;0.222299999438746;172;0.149993896484375;100 mA;
139.023304649;0.25958251953125;0.223599999435464;173;0.14996337890625;100 mA;
139.024604648997;0.2598876953125;0.224899999432182;174;0.1500244140625;100 mA;
139.025904648993;0.26025390625;0.2261999994289;175;0.149993896484375;100 mA;
139.02720464899;0.26055908203125;0.227499999425618;176;0.149993896484375;100 mA;
139.028504648987;0.260894775390625;0.228799999422336;177;0.14996337890625;100 mA;
139.029804648983;0.26123046875;0.230099999419053;178;0.1500244140625;100 mA;
139.03110464898;0.26153564453125;0.231399999415771;179;0.14996337890625;100 mA;
139.032404648977;0.261871337890625;0.232699999412489;180;0.149993896484375;100 mA;
139.033704648974;0.262176513671875;0.233999999409207;181;0.14996337890625;100 mA;
139.03500464897;0.262481689453125;0.235299999405925;182;0.1500244140625;100 mA;
139.036304648967;0.262847900390625;0.236599999402642;183;0.1500244140625;100 mA;
139.037604648964;0.26318359375;0.23789999939936;184;0.1500244140625;100 mA;
139.038904648961;0.263519287109375;0.239199999396078;185;0.14996337890625;100 mA;
139.040204648957;0.263824462890625;0.240499999392796;186;0.1500244140625;100 mA;
139.041504648954;0.26416015625;0.241799999389514;187;0.150054931640625;100 mA;
139.042804648951;0.264495849609375;0.243099999386232;188;0.1500244140625;100 mA;
139.044104648947;0.264801025390625;0.244399999382949;189;0.14996337890625;100 mA;
139.045404648944;0.265106201171875;0.245699999379667;190;0.14996337890625;100 mA;
139.046704648941;0.265411376953125;0.246999999376385;191;0.1500244140625;100 mA;
139.048004648938;0.265716552734375;0.248299999373103;192;0.149993896484375;100 mA;
139.049304648934;0.266021728515625;0.249599999369821;193;0.14990234375;100 mA;
139.050604648931;0.266326904296875;0.250899999366538;194;0.149932861328125;100 mA;
139.051904648928;0.266632080078125;0.252199999363256;195;0.1500244140625;100 mA;
139.053204648924;0.266937255859375;0.253499999359974;196;0.14996337890625;100 mA;
139.054504648921;0.267242431640625;0.254799999356692;197;0.14996337890625;100 mA;
139.055804648918;0.267578125;0.25609999935341;198;0.149993896484375;100 mA;
139.057104648915;0.26788330078125;0.257399999350127;199;0.150054931640625;100 mA;
139.058404648911;0.2681884765625;0.258699999346845;200;0.14996337890625;100 mA;
139.059704648908;0.26849365234375;0.259999999343563;201;0.149993896484375;100 mA;
139.061004648905;0.268798828125;0.261299999340281;202;0.1500244140625;100 mA;
139.062304648901;0.26910400390625;0.262599999336999;203;0.1500244140625;100 mA;
139.063604648898;0.2694091796875;0.263899999333717;204;0.14996337890625;100 mA;
139.064904648895;0.269683837890625;0.265199999330434;205;0.1500244140625;100 mA;
139.066204648892;0.269989013671875;0.266499999327152;206;0.149993896484375;100 mA;
139.067504648888;0.270263671875;0.26779999932387;207;0.1500244140625;100 mA;
139.068804648885;0.27056884765625;0.269099999320588;208;0.14996337890625;100 mA;
139.070104648882;0.2708740234375;0.270399999317306;209;0.15008544921875;100 mA;
139.071404648878;0.271209716796875;0.271699999314023;210;0.150054931640625;100 mA;
139.072704648875;0.271484375;0.272999999310741;211;0.149993896484375;100 mA;
139.074004648872;0.271759033203125;0.274299999307459;212;0.149993896484375;100 mA;
139.075304648869;0.272064208984375;0.275599999304177;213;0.149993896484375;100 mA;
139.076604648865;0.272369384765625;0.276899999300895;214;0.1500244140625;100 mA;
139.077904648862;0.27264404296875;0.278199999297613;215;0.149993896484375;100 mA;
139.079204648859;0.272918701171875;0.27949999929433;216;0.1500244140625;100 mA;
139.080504648855;0.273193359375;0.280799999291048;217;0.1500244140625;100 mA;
139.081804648852;0.27349853515625;0.282099999287766;218;0.14996337890625;100 mA;
139.083104648849;0.273773193359375;0.283399999284484;219;0.149993896484375;100 mA;
139.084404648846;0.274017333984375;0.284699999281202;220;0.150054931640625;100 mA;
139.085704648842;0.274322509765625;0.285999999277919;221;0.149993896484375;100 mA;
139.087004648839;0.274627685546875;0.287299999274637;222;0.1500244140625;100 mA;
139.088304648836;0.274932861328125;0.288599999271355;223;0.150054931640625;100 mA;
139.089604648833;0.27520751953125;0.289899999268073;224;0.1500244140625;100 mA;
139.090904648829;0.275482177734375;0.291199999264791;225;0.14996337890625;100 mA;
139.092204648826;0.2757568359375;0.292499999261508;226;0.14996337890625;100 mA;
139.093504648823;0.276031494140625;0.293799999258226;227;0.1500244140625;100 mA;
139.094804648819;0.276336669921875;0.295099999254944;228;0.149993896484375;100 mA;
139.096104648816;0.276611328125;0.296399999251662;229;0.1500244140625;100 mA;
139.097404648813;0.276885986328125;0.29769999924838;230;0.14996337890625;100 mA;
139.09870464881;0.27716064453125;0.298999999245098;231;0.149993896484375;100 mA;
139.100004648806;0.277435302734375;0.300299999241815;232;0.149993896484375;100 mA;
139.101304648803;0.277679443359375;0.301599999238533;233;0.149993896484375;100 mA;
139.1026046488;0.2779541015625;0.302899999235251;234;0.150054931640625;100 mA;
139.103904648796;0.27825927734375;0.304199999231969;235;0.149932861328125;100 mA;
139.105204648793;0.278533935546875;0.305499999228687;236;0.1500244140625;100 mA;
139.10650464879;0.27880859375;0.306799999225404;237;0.149993896484375;100 mA;
139.107804648787;0.279083251953125;0.308099999222122;238;0.14996337890625;100 mA;
139.109104648783;0.27935791015625;0.30939999921884;239;0.14996337890625;100 mA;
139.11040464878;0.2796630859375;0.310699999215558;240;0.149993896484375;100 mA;
139.111704648777;0.2799072265625;0.311999999212276;241;0.149993896484375;100 mA;
139.113004648773;0.2801513671875;0.313299999208994;242;0.149932861328125;100 mA;
139.11430464877;0.280426025390625;0.314599999205711;243;0.1500244140625;100 mA;
139.115604648767;0.280670166015625;0.315899999202429;244;0.1500244140625;100 mA;
139.116904648764;0.28094482421875;0.317199999199147;245;0.149993896484375;100 mA;
139.11820464876;0.28118896484375;0.318499999195865;246;0.1500244140625;100 mA;
139.119504648757;0.281463623046875;0.319799999192583;247;0.14996337890625;100 mA;
139.120804648754;0.281768798828125;0.3210999991893;248;0.1500244140625;100 mA;
139.12210464875;0.282012939453125;0.322399999186018;249;0.149993896484375;100 mA;
139.123404648747;0.28228759765625;0.323699999182736;250;0.1500244140625;100 mA;
139.124704648744;0.282562255859375;0.324999999179454;251;0.149993896484375;100 mA;
139.126004648741;0.2828369140625;0.326299999176172;252;0.14996337890625;100 mA;
139.127304648737;0.2830810546875;0.32759999917289;253;0.1500244140625;100 mA;
139.128604648734;0.2833251953125;0.328899999169607;254;0.1500244140625;100 mA;
139.129904648731;0.2835693359375;0.330199999166325;255;0.149993896484375;100 mA;
139.131204648727;0.283843994140625;0.331499999163043;256;0.1500244140625;100 mA;
139.132504648724;0.28411865234375;0.332799999159761;257;0.1500244140625;100 mA;
139.133804648721;0.28436279296875;0.334099999156479;258;0.149932861328125;100 mA;
139.135104648718;0.284637451171875;0.335399999153196;259;0.149993896484375;100 mA;
139.136404648714;0.284881591796875;0.336699999149914;260;0.1500244140625;100 mA;
139.137704648711;0.28515625;0.337999999146632;261;0.149993896484375;100 mA;
139.139004648708;0.285430908203125;0.33929999914335;262;0.149932861328125;100 mA;
139.140304648705;0.285675048828125;0.340599999140068;263;0.149993896484375;100 mA;
139.141604648701;0.285980224609375;0.341899999136785;264;0.150054931640625;100 mA;
139.142904648698;0.286224365234375;0.343199999133503;265;0.149993896484375;100 mA;
139.144204648695;0.2864990234375;0.344499999130221;266;0.1500244140625;100 mA;
139.145504648691;0.2867431640625;0.345799999126939;267;0.149993896484375;100 mA;
139.146804648688;0.286956787109375;0.347099999123657;268;0.149932861328125;100 mA;
139.148104648685;0.287200927734375;0.348399999120375;269;0.149993896484375;100 mA;
139.149404648682;0.2874755859375;0.349699999117092;270;0.149993896484375;100 mA;
139.150704648678;0.2877197265625;0.35099999911381;271;0.14996337890625;100 mA;
139.152004648675;0.2879638671875;0.352299999110528;272;0.1500244140625;100 mA;
139.153304648672;0.288238525390625;0.353599999107246;273;0.149993896484375;100 mA;
139.154604648668;0.2884521484375;0.354899999103964;274;0.149993896484375;100 mA;
139.155904648665;0.28875732421875;0.356199999100681;275;0.1500244140625;100 mA;
139.157204648662;0.28900146484375;0.357499999097399;276;0.1500244140625;100 mA;
139.158504648659;0.28924560546875;0.358799999094117;277;0.14996337890625;100 mA;
139.159804648655;0.289520263671875;0.360099999090835;278;0.1500244140625;100 mA;
139.161104648652;0.28973388671875;0.361399999087553;279;0.14996337890625;100 mA;
139.162404648649;0.28997802734375;0.362699999084271;280;0.149993896484375;100 mA;
139.163704648645;0.29022216796875;0.363999999080988;281;0.1500244140625;100 mA;
139.165004648642;0.29046630859375;0.365299999077706;282;0.14996337890625;100 mA;
139.166304648639;0.29071044921875;0.366599999074424;283;0.14996337890625;100 mA;
139.167604648636;0.29095458984375;0.367899999071142;284;0.1500244140625;100 mA;
139.168904648632;0.29119873046875;0.36919999906786;285;0.149993896484375;100 mA;
139.170204648629;0.291473388671875;0.370499999064577;286;0.14996337890625;100 mA;
139.171504648626;0.291748046875;0.371799999061295;287;0.149993896484375;100 mA;
139.172804648622;0.2919921875;0.373099999058013;288;0.1500244140625;100 mA;
139.174104648619;0.292205810546875;0.374399999054731;289;0.1500244140625;100 mA;
139.175404648616;0.292449951171875;0.375699999051449;290;0.149993896484375;100 mA;
139.176704648613;0.292724609375;0.376999999048167;291;0.14996337890625;100 mA;
139.178004648609;0.29296875;0.378299999044884;292;0.149993896484375;100 mA;
139.179304648606;0.293212890625;0.379599999041602;293;0.150054931640625;100 mA;
139.180604648603;0.293426513671875;0.38089999903832;294;0.14996337890625;100 mA;
139.181904648599;0.293701171875;0.382199999035038;295;0.14996337890625;100 mA;
139.183204648596;0.2939453125;0.383499999031756;296;0.14996337890625;100 mA;
139.184504648593;0.294189453125;0.384799999028473;297;0.149993896484375;100 mA;
139.18580464859;0.294403076171875;0.386099999025191;298;0.14996337890625;100 mA;
139.187104648586;0.294677734375;0.387399999021909;299;0.149993896484375;100 mA;
139.188404648583;0.294921875;0.388699999018627;300;0.149932861328125;100 mA;
139.18970464858;0.295166015625;0.389999999015345;301;0.150054931640625;100 mA;
139.191004648576;0.29541015625;0.391299999012062;302;0.149932861328125;100 mA;
139.192304648573;0.295654296875;0.39259999900878;303;0.15008544921875;100 mA;
139.19360464857;0.2958984375;0.393899999005498;304;0.1500244140625;100 mA;
139.194904648567;0.296142578125;0.395199999002216;305;0.149993896484375;100 mA;
139.196204648563;0.296356201171875;0.396499998998934;306;0.1500244140625;100 mA;
139.19750464856;0.296600341796875;0.397799998995652;307;0.1500244140625;100 mA;
139.198804648557;0.296844482421875;0.399099998992369;308;0.1500244140625;100 mA;
139.200104648554;0.29705810546875;0.400399998989087;309;0.149993896484375;100 mA;
139.20140464855;0.29730224609375;0.401699998985805;310;0.149993896484375;100 mA;
139.202704648547;0.29754638671875;0.402999998982523;311;0.1500244140625;100 mA;
139.204004648544;0.29779052734375;0.404299998979241;312;0.14996337890625;100 mA;
139.20530464854;0.298065185546875;0.405599998975958;313;0.1500244140625;100 mA;
139.206604648537;0.29827880859375;0.406899998972676;314;0.1500244140625;100 mA;
139.207904648534;0.29852294921875;0.408199998969394;315;0.149993896484375;100 mA;
139.209204648531;0.29876708984375;0.409499998966112;316;0.1500244140625;100 mA;
139.210504648527;0.29901123046875;0.41079999896283;317;0.149993896484375;100 mA;
139.211804648524;0.299224853515625;0.412099998959548;318;0.149993896484375;100 mA;
139.213104648521;0.299468994140625;0.413399998956265;319;0.149993896484375;100 mA;
139.214404648517;0.299713134765625;0.414699998952983;320;0.150054931640625;100 mA;
139.215704648514;0.299896240234375;0.415999998949701;321;0.149993896484375;100 mA;
139.217004648511;0.3001708984375;0.417299998946419;322;0.149993896484375;100 mA;
139.218304648508;0.300384521484375;0.418599998943137;323;0.1500244140625;100 mA;
139.219604648504;0.300628662109375;0.419899998939854;324;0.149993896484375;100 mA;
139.220904648501;0.3009033203125;0.421199998936572;325;0.1500244140625;100 mA;
139.222204648498;0.3011474609375;0.42249999893329;326;0.1500244140625;100 mA;
139.223504648494;0.3013916015625;0.423799998930008;327;0.14996337890625;100 mA;
139.224804648491;0.301605224609375;0.425099998926726;328;0.1500244140625;100 mA;
139.226104648488;0.301849365234375;0.426399998923443;329;0.149993896484375;100 mA;
139.227404648485;0.3021240234375;0.427699998920161;330;0.1500244140625;100 mA;
139.228704648481;0.30230712890625;0.428999998916879;331;0.14996337890625;100 mA;
139.230004648478;0.30255126953125;0.430299998913597;332;0.149993896484375;100 mA;
139.231304648475;0.302764892578125;0.431599998910315;333;0.149993896484375;100 mA;
139.232604648471;0.303009033203125;0.432899998907033;334;0.1500244140625;100 mA;
139.233904648468;0.30322265625;0.43419999890375;335;0.1500244140625;100 mA;
139.235204648465;0.303466796875;0.435499998900468;336;0.149993896484375;100 mA;
139.236504648462;0.3037109375;0.436799998897186;337;0.149993896484375;100 mA;
139.237804648458;0.303955078125;0.438099998893904;338;0.1500244140625;100 mA;
139.239104648455;0.30419921875;0.439399998890622;339;0.14996337890625;100 mA;
139.240404648452;0.304443359375;0.440699998887339;340;0.149993896484375;100 mA;
139.241704648448;0.304656982421875;0.441999998884057;341;0.149993896484375;100 mA;
139.243004648445;0.304931640625;0.443299998880775;342;0.149993896484375;100 mA;
139.244304648442;0.305145263671875;0.444599998877493;343;0.1500244140625;100 mA;
139.245604648439;0.305328369140625;0.445899998874211;344;0.1500244140625;100 mA;
139.246904648435;0.305572509765625;0.447199998870929;345;0.1500244140625;100 mA;
139.248204648432;0.3057861328125;0.448499998867646;346;0.149993896484375;100 mA;
139.249504648429;0.3060302734375;0.449799998864364;347;0.14996337890625;100 mA;
139.250804648426;0.306243896484375;0.451099998861082;348;0.149932861328125;100 mA;
139.252104648422;0.306488037109375;0.4523999988578;349;0.1500244140625;100 mA;
139.253404648419;0.306732177734375;0.453699998854518;350;0.149993896484375;100 mA;
139.254704648416;0.306976318359375;0.454999998851235;351;0.1500244140625;100 mA;
139.256004648412;0.307220458984375;0.456299998847953;352;0.149993896484375;100 mA;
139.257304648409;0.307464599609375;0.457599998844671;353;0.1500244140625;100 mA;
139.258604648406;0.30767822265625;0.458899998841389;354;0.150054931640625;100 mA;
139.259904648403;0.307952880859375;0.460199998838107;355;0.149993896484375;100 mA;
139.261204648399;0.308135986328125;0.461499998834825;356;0.149993896484375;100 mA;
139.262504648396;0.308380126953125;0.462799998831542;357;0.1500244140625;100 mA;
139.263804648393;0.308563232421875;0.46409999882826;358;0.1500244140625;100 mA;
139.265104648389;0.308807373046875;0.465399998824978;359;0.14996337890625;100 mA;
139.266404648386;0.309051513671875;0.466699998821696;360;0.149993896484375;100 mA;
139.267704648383;0.30926513671875;0.467999998818414;361;0.1500244140625;100 mA;
139.26900464838;0.309478759765625;0.469299998815131;362;0.149993896484375;100 mA;
139.270304648376;0.309722900390625;0.470599998811849;363;0.149993896484375;100 mA;
139.271604648373;0.30999755859375;0.471899998808567;364;0.149993896484375;100 mA;
139.27290464837;0.310211181640625;0.473199998805285;365;0.14996337890625;100 mA;
139.274204648366;0.310455322265625;0.474499998802003;366;0.1500244140625;100 mA;
139.275504648363;0.3106689453125;0.47579999879872;367;0.149993896484375;100 mA;
139.27680464836;0.3109130859375;0.477099998795438;368;0.1500244140625;100 mA;
139.278104648357;0.311126708984375;0.478399998792156;369;0.1500244140625;100 mA;
139.279404648353;0.31134033203125;0.479699998788874;370;0.149993896484375;100 mA;
139.28070464835;0.311553955078125;0.480999998785592;371;0.1500244140625;100 mA;
139.282004648347;0.311798095703125;0.48229999878231;372;0.149993896484375;100 mA;
139.283304648343;0.312042236328125;0.483599998779027;373;0.149993896484375;100 mA;
139.28460464834;0.312255859375;0.484899998775745;374;0.150054931640625;100 mA;
139.285904648337;0.31243896484375;0.486199998772463;375;0.149993896484375;100 mA;
139.287204648334;0.312713623046875;0.487499998769181;376;0.149993896484375;100 mA;
139.28850464833;0.312957763671875;0.488799998765899;377;0.1500244140625;100 mA;
139.289804648327;0.313201904296875;0.490099998762616;378;0.14996337890625;100 mA;
139.291104648324;0.31341552734375;0.491399998759334;379;0.149993896484375;100 mA;
139.29240464832;0.313629150390625;0.492699998756052;380;0.1500244140625;100 mA;
139.293704648317;0.31390380859375;0.49399999875277;381;0.15008544921875;100 mA;
139.295004648314;0.314117431640625;0.495299998749488;382;0.1500244140625;100 mA;
139.296304648311;0.3143310546875;0.496599998746206;383;0.14996337890625;100 mA;
139.297604648307;0.314544677734375;0.497899998742923;384;0.1500244140625;100 mA;
139.298904648304;0.314788818359375;0.499199998739641;385;0.149993896484375;100 mA;
139.300204648301;0.31500244140625;0.500499998736359;386;0.1500244140625;100 mA;
139.301504648298;0.315216064453125;0.501799998733077;387;0.1500244140625;100 mA;
139.302804648294;0.315460205078125;0.503099998729795;388;0.1500244140625;100 mA;
139.304104648291;0.315673828125;0.504399998726512;389;0.150054931640625;100 mA;
139.305404648288;0.315948486328125;0.50569999872323;390;0.149993896484375;100 mA;
139.306704648284;0.316131591796875;0.506999998719948;391;0.1500244140625;100 mA;
139.308004648281;0.316375732421875;0.508299998716666;392;0.1500244140625;100 mA;
139.309304648278;0.316619873046875;0.509599998713384;393;0.1500244140625;100 mA;
139.310604648275;0.316864013671875;0.510899998710101;394;0.1500244140625;100 mA;
139.311904648271;0.31707763671875;0.512199998706819;395;0.1500244140625;100 mA;
139.313204648268;0.317291259765625;0.513499998703537;396;0.150054931640625;100 mA;
139.314504648265;0.3175048828125;0.514799998700255;397;0.14996337890625;100 mA;
139.315804648261;0.317718505859375;0.516099998696973;398;0.1500244140625;100 mA;
139.317104648258;0.317962646484375;0.517399998693691;399;0.1500244140625;100 mA;
139.318404648255;0.31817626953125;0.518699998690408;400;0.149993896484375;100 mA;
139.319704648252;0.31842041015625;0.519999998687126;401;0.1500244140625;100 mA;
139.321004648248;0.31866455078125;0.521299998683844;402;0.149993896484375;100 mA;
139.322304648245;0.31890869140625;0.522599998680562;403;0.14996337890625;100 mA;
139.323604648242;0.319122314453125;0.52389999867728;404;0.14996337890625;100 mA;
139.324904648238;0.3193359375;0.525199998673997;405;0.149993896484375;100 mA;
139.326204648235;0.319580078125;0.526499998670715;406;0.1500244140625;100 mA;
139.327504648232;0.319793701171875;0.527799998667433;407;0.14996337890625;100 mA;
139.328804648229;0.32000732421875;0.529099998664151;408;0.1500244140625;100 mA;
139.330104648225;0.320220947265625;0.530399998660869;409;0.149993896484375;100 mA;
139.331404648222;0.320465087890625;0.531699998657587;410;0.149993896484375;100 mA;
139.332704648219;0.3206787109375;0.532999998654304;411;0.149993896484375;100 mA;
139.334004648215;0.320892333984375;0.534299998651022;412;0.1500244140625;100 mA;
139.335304648212;0.321136474609375;0.53559999864774;413;0.1500244140625;100 mA;
139.336604648209;0.32135009765625;0.536899998644458;414;0.149932861328125;100 mA;
139.337904648206;0.321563720703125;0.538199998641176;415;0.149993896484375;100 mA;
139.339204648202;0.321807861328125;0.539499998637893;416;0.1500244140625;100 mA;
139.340504648199;0.322052001953125;0.540799998634611;417;0.14996337890625;100 mA;
139.341804648196;0.322265625;0.542099998631329;418;0.150054931640625;100 mA;
139.343104648192;0.322509765625;0.543399998628047;419;0.149993896484375;100 mA;
139.344404648189;0.322723388671875;0.544699998624765;420;0.1500244140625;100 mA;
139.345704648186;0.322967529296875;0.545999998621483;421;0.1500244140625;100 mA;
139.347004648183;0.32318115234375;0.5472999986182;422;0.1500244140625;100 mA;
139.348304648179;0.3233642578125;0.548599998614918;423;0.1500244140625;100 mA;
139.349604648176;0.3236083984375;0.549899998611636;424;0.150054931640625;100 mA;
139.350904648173;0.323822021484375;0.551199998608354;425;0.1500244140625;100 mA;
139.35220464817;0.32403564453125;0.552499998605072;426;0.149993896484375;100 mA;
139.353504648166;0.32427978515625;0.553799998601789;427;0.1500244140625;100 mA;
139.354804648163;0.324554443359375;0.555099998598507;428;0.149932861328125;100 mA;
139.35610464816;0.32476806640625;0.556399998595225;429;0.149993896484375;100 mA;
139.357404648156;0.324981689453125;0.557699998591943;430;0.1500244140625;100 mA;
139.358704648153;0.325225830078125;0.558999998588661;431;0.1500244140625;100 mA;
139.36000464815;0.325439453125;0.560299998585378;432;0.149993896484375;100 mA;
139.361304648147;0.32568359375;0.561599998582096;433;0.149993896484375;100 mA;
139.362604648143;0.325897216796875;0.562899998578814;434;0.149993896484375;100 mA;
139.36390464814;0.326080322265625;0.564199998575532;435;0.1500244140625;100 mA;
139.365204648137;0.326324462890625;0.56549999857225;436;0.149993896484375;100 mA;
139.366504648133;0.326568603515625;0.566799998568968;437;0.1500244140625;100 mA;
139.36780464813;0.326751708984375;0.568099998565685;438;0.1500244140625;100 mA;
139.369104648127;0.3270263671875;0.569399998562403;439;0.1500244140625;100 mA;
139.370404648124;0.327239990234375;0.570699998559121;440;0.1500244140625;100 mA;
139.37170464812;0.3275146484375;0.571999998555839;441;0.149993896484375;100 mA;
139.373004648117;0.327728271484375;0.573299998552557;442;0.1500244140625;100 mA;
139.374304648114;0.32794189453125;0.574599998549274;443;0.1500244140625;100 mA;
139.37560464811;0.328155517578125;0.575899998545992;444;0.149993896484375;100 mA;
139.376904648107;0.328369140625;0.57719999854271;445;0.149993896484375;100 mA;
139.378204648104;0.32861328125;0.578499998539428;446;0.149993896484375;100 mA;
139.379504648101;0.328826904296875;0.579799998536146;447;0.1500244140625;100 mA;
139.380804648097;0.32904052734375;0.581099998532864;448;0.149993896484375;100 mA;
139.382104648094;0.329254150390625;0.582399998529581;449;0.149993896484375;100 mA;
139.383404648091;0.329498291015625;0.583699998526299;450;0.149993896484375;100 mA;
139.384704648087;0.3297119140625;0.584999998523017;451;0.149993896484375;100 mA;
139.386004648084;0.329925537109375;0.586299998519735;452;0.150054931640625;100 mA;
139.387304648081;0.3302001953125;0.587599998516453;453;0.1500244140625;100 mA;
139.388604648078;0.330413818359375;0.58889999851317;454;0.1500244140625;100 mA;
139.389904648074;0.330657958984375;0.590199998509888;455;0.1500244140625;100 mA;
139.391204648071;0.33087158203125;0.591499998506606;456;0.1500244140625;100 mA;
139.392504648068;0.33111572265625;0.592799998503324;457;0.149993896484375;100 mA;
139.393804648064;0.33135986328125;0.594099998500042;458;0.14996337890625;100 mA;
139.395104648061;0.33154296875;0.59539999849676;459;0.1500244140625;100 mA;
139.396404648058;0.331756591796875;0.596699998493477;460;0.1500244140625;100 mA;
139.397704648055;0.33197021484375;0.597999998490195;461;0.1500244140625;100 mA;
139.399004648051;0.33221435546875;0.599299998486913;462;0.150054931640625;100 mA;
139.400304648048;0.33245849609375;0.600599998483631;463;0.149993896484375;100 mA;
139.401604648045;0.3326416015625;0.601899998480349;464;0.1500244140625;100 mA;
139.402904648041;0.3328857421875;0.603199998477066;465;0.149993896484375;100 mA;
139.404204648038;0.333160400390625;0.604499998473784;466;0.149993896484375;100 mA;
139.405504648035;0.333404541015625;0.605799998470502;467;0.14996337890625;100 mA;
139.406804648032;0.333587646484375;0.60709999846722;468;0.149993896484375;100 mA;
139.408104648028;0.3338623046875;0.608399998463938;469;0.1500244140625;100 mA;
139.409404648025;0.334075927734375;0.609699998460655;470;0.149993896484375;100 mA;
139.410704648022;0.3343505859375;0.610999998457373;471;0.14996337890625;100 mA;
139.412004648019;0.33453369140625;0.612299998454091;472;0.1500244140625;100 mA;
139.413304648015;0.334747314453125;0.613599998450809;473;0.149993896484375;100 mA;
139.414604648012;0.3349609375;0.614899998447527;474;0.149993896484375;100 mA;
139.415904648009;0.335174560546875;0.616199998444245;475;0.149932861328125;100 mA;
139.417204648005;0.33538818359375;0.617499998440962;476;0.1500244140625;100 mA;
139.418504648002;0.33563232421875;0.61879999843768;477;0.149993896484375;100 mA;
139.419804647999;0.335845947265625;0.620099998434398;478;0.149993896484375;100 mA;
139.421104647996;0.33612060546875;0.621399998431116;479;0.149993896484375;100 mA;
139.422404647992;0.336334228515625;0.622699998427834;480;0.14996337890625;100 mA;
139.423704647989;0.336578369140625;0.623999998424551;481;0.1500244140625;100 mA;
139.425004647986;0.3367919921875;0.625299998421269;482;0.149993896484375;100 mA;
139.426304647982;0.337066650390625;0.626599998417987;483;0.149993896484375;100 mA;
139.427604647979;0.3372802734375;0.627899998414705;484;0.150054931640625;100 mA;
139.428904647976;0.33746337890625;0.629199998411423;485;0.1500244140625;100 mA;
139.430204647973;0.33770751953125;0.630499998408141;486;0.1500244140625;100 mA;
139.431504647969;0.33795166015625;0.631799998404858;487;0.14996337890625;100 mA;
139.432804647966;0.338165283203125;0.633099998401576;488;0.1500244140625;100 mA;
139.434104647963;0.33837890625;0.634399998398294;489;0.149932861328125;100 mA;
139.435404647959;0.338623046875;0.635699998395012;490;0.149993896484375;100 mA;
139.436704647956;0.3388671875;0.63699999839173;491;0.150054931640625;100 mA;
139.438004647953;0.339080810546875;0.638299998388447;492;0.1500244140625;100 mA;
139.43930464795;0.339324951171875;0.639599998385165;493;0.1500244140625;100 mA;
139.440604647946;0.33953857421875;0.640899998381883;494;0.149993896484375;100 mA;
139.441904647943;0.33984375;0.642199998378601;495;0.1500244140625;100 mA;
139.44320464794;0.340057373046875;0.643499998375319;496;0.149932861328125;100 mA;
139.444504647936;0.340301513671875;0.644799998372036;497;0.149932861328125;100 mA;
139.445804647933;0.340484619140625;0.646099998368754;498;0.1500244140625;100 mA;
139.44710464793;0.3406982421875;0.647399998365472;499;0.1500244140625;100 mA;
139.448404647927;0.3409423828125;0.64869999836219;500;0.149993896484375;100 mA;
139.449704647923;0.341156005859375;0.649999998358908;501;0.150054931640625;100 mA;
139.45100464792;0.341400146484375;0.651299998355626;502;0.149993896484375;100 mA;
139.452304647917;0.34161376953125;0.652599998352343;503;0.1500244140625;100 mA;
139.453604647913;0.341888427734375;0.653899998349061;504;0.149993896484375;100 mA;
139.45490464791;0.342132568359375;0.655199998345779;505;0.149993896484375;100 mA;
139.456204647907;0.342376708984375;0.656499998342497;506;0.14996337890625;100 mA;
139.457504647904;0.34259033203125;0.657799998339215;507;0.14996337890625;100 mA;
139.4588046479;0.34283447265625;0.659099998335932;508;0.1500244140625;100 mA;
139.460104647897;0.343048095703125;0.66039999833265;509;0.1500244140625;100 mA;
139.461404647894;0.34332275390625;0.661699998329368;510;0.14996337890625;100 mA;
139.462704647891;0.343505859375;0.662999998326086;511;0.149993896484375;100 mA;
139.464004647887;0.34375;0.664299998322804;512;0.1500244140625;100 mA;
139.465304647884;0.343963623046875;0.665599998319522;513;0.149993896484375;100 mA;
139.466604647881;0.344207763671875;0.666899998316239;514;0.149993896484375;100 mA;
139.467904647877;0.34442138671875;0.668199998312957;515;0.149993896484375;100 mA;
139.469204647874;0.34466552734375;0.669499998309675;516;0.150054931640625;100 mA;
139.470504647871;0.344940185546875;0.670799998306393;517;0.14996337890625;100 mA;
139.471804647868;0.34515380859375;0.672099998303111;518;0.1500244140625;100 mA;
139.473104647864;0.34539794921875;0.673399998299828;519;0.14996337890625;100 mA;
139.474404647861;0.34564208984375;0.674699998296546;520;0.1500244140625;100 mA;
139.475704647858;0.34588623046875;0.675999998293264;521;0.14996337890625;100 mA;
139.477004647854;0.34613037109375;0.677299998289982;522;0.149993896484375;100 mA;
139.478304647851;0.34637451171875;0.6785999982867;523;0.14996337890625;100 mA;
139.479604647848;0.346588134765625;0.679899998283418;524;0.149993896484375;100 mA;
139.480904647845;0.346771240234375;0.681199998280135;525;0.1500244140625;100 mA;
139.482204647841;0.347015380859375;0.682499998276853;526;0.149993896484375;100 mA;
139.483504647838;0.347259521484375;0.683799998273571;527;0.149993896484375;100 mA;
139.484804647835;0.34747314453125;0.685099998270289;528;0.149993896484375;100 mA;
139.486104647831;0.34771728515625;0.686399998267007;529;0.1500244140625;100 mA;
139.487404647828;0.347991943359375;0.687699998263724;530;0.1500244140625;100 mA;
139.488704647825;0.348236083984375;0.688999998260442;531;0.1500244140625;100 mA;
139.490004647822;0.348480224609375;0.69029999825716;532;0.1500244140625;100 mA;
139.491304647818;0.348724365234375;0.691599998253878;533;0.149993896484375;100 mA;
139.492604647815;0.34893798828125;0.692899998250596;534;0.1500244140625;100 mA;
139.493904647812;0.349212646484375;0.694199998247313;535;0.149993896484375;100 mA;
139.495204647808;0.34942626953125;0.695499998244031;536;0.149993896484375;100 mA;
139.496504647805;0.34967041015625;0.696799998240749;537;0.14996337890625;100 mA;
139.497804647802;0.349884033203125;0.698099998237467;538;0.1500244140625;100 mA;
139.499104647799;0.350128173828125;0.699399998234185;539;0.14996337890625;100 mA;
139.500404647795;0.350341796875;0.700699998230903;540;0.14996337890625;100 mA;
139.501704647792;0.350555419921875;0.70199999822762;541;0.149993896484375;100 mA;
139.503004647789;0.350830078125;0.703299998224338;542;0.14996337890625;100 mA;
139.504304647785;0.35107421875;0.704599998221056;543;0.1500244140625;100 mA;
139.505604647782;0.351348876953125;0.705899998217774;544;0.1500244140625;100 mA;
139.506904647779;0.351593017578125;0.707199998214492;545;0.149993896484375;100 mA;
139.508204647776;0.351806640625;0.708499998211209;546;0.14996337890625;100 mA;
139.509504647772;0.35205078125;0.709799998207927;547;0.14996337890625;100 mA;
139.510804647769;0.352325439453125;0.711099998204645;548;0.1500244140625;100 mA;
139.512104647766;0.352508544921875;0.712399998201363;549;0.149993896484375;100 mA;
139.513404647763;0.352752685546875;0.713699998198081;550;0.14996337890625;100 mA;
139.514704647759;0.352996826171875;0.714999998194799;551;0.150054931640625;100 mA;
139.516004647756;0.353240966796875;0.716299998191516;552;0.149993896484375;100 mA;
139.517304647753;0.353485107421875;0.717599998188234;553;0.1500244140625;100 mA;
139.518604647749;0.35369873046875;0.718899998184952;554;0.1500244140625;100 mA;
139.519904647746;0.35394287109375;0.72019999818167;555;0.149993896484375;100 mA;
139.521204647743;0.354217529296875;0.721499998178388;556;0.14996337890625;100 mA;
139.52250464774;0.3544921875;0.722799998175105;557;0.1500244140625;100 mA;
139.523804647736;0.354736328125;0.724099998171823;558;0.1500244140625;100 mA;
139.525104647733;0.35498046875;0.725399998168541;559;0.1500244140625;100 mA;
139.52640464773;0.355194091796875;0.726699998165259;560;0.1500244140625;100 mA;
139.527704647726;0.35546875;0.727999998161977;561;0.149993896484375;100 mA;
139.529004647723;0.355712890625;0.729299998158695;562;0.149993896484375;100 mA;
139.53030464772;0.355926513671875;0.730599998155412;563;0.149993896484375;100 mA;
139.531604647717;0.356170654296875;0.73189999815213;564;0.1500244140625;100 mA;
139.532904647713;0.356414794921875;0.733199998148848;565;0.149993896484375;100 mA;
139.53420464771;0.356658935546875;0.734499998145566;566;0.14996337890625;100 mA;
139.535504647707;0.356903076171875;0.735799998142284;567;0.1500244140625;100 mA;
139.536804647703;0.357147216796875;0.737099998139001;568;0.1500244140625;100 mA;
139.5381046477;0.357421875;0.738399998135719;569;0.150054931640625;100 mA;
139.539404647697;0.357635498046875;0.739699998132437;570;0.149993896484375;100 mA;
139.540704647694;0.35791015625;0.740999998129155;571;0.1500244140625;100 mA;
139.54200464769;0.358154296875;0.742299998125873;572;0.149993896484375;100 mA;
139.543304647687;0.358428955078125;0.74359999812259;573;0.1500244140625;100 mA;
139.544604647684;0.358673095703125;0.744899998119308;574;0.149993896484375;100 mA;
139.54590464768;0.35888671875;0.746199998116026;575;0.149993896484375;100 mA;
139.547204647677;0.359130859375;0.747499998112744;576;0.150054931640625;100 mA;
139.548504647674;0.359375;0.748799998109462;577;0.149993896484375;100 mA;
139.549804647671;0.359619140625;0.75009999810618;578;0.14996337890625;100 mA;
139.551104647667;0.35986328125;0.751399998102897;579;0.14996337890625;100 mA;
139.552404647664;0.360107421875;0.752699998099615;580;0.14996337890625;100 mA;
139.553704647661;0.3603515625;0.753999998096333;581;0.149993896484375;100 mA;
139.555004647657;0.360626220703125;0.755299998093051;582;0.1500244140625;100 mA;
139.556304647654;0.360870361328125;0.756599998089769;583;0.1500244140625;100 mA;
139.557604647651;0.361114501953125;0.757899998086486;584;0.14996337890625;100 mA;
139.558904647648;0.36138916015625;0.759199998083204;585;0.149993896484375;100 mA;
139.560204647644;0.361663818359375;0.760499998079922;586;0.150054931640625;100 mA;
139.561504647641;0.36187744140625;0.76179999807664;587;0.149932861328125;100 mA;
139.562804647638;0.362152099609375;0.763099998073358;588;0.150054931640625;100 mA;
139.564104647635;0.362396240234375;0.764399998070076;589;0.1500244140625;100 mA;
139.565404647631;0.3626708984375;0.765699998066793;590;0.149993896484375;100 mA;
139.566704647628;0.362884521484375;0.766999998063511;591;0.149993896484375;100 mA;
139.568004647625;0.363128662109375;0.768299998060229;592;0.14996337890625;100 mA;
139.569304647621;0.363372802734375;0.769599998056947;593;0.149993896484375;100 mA;
139.570604647618;0.363677978515625;0.770899998053665;594;0.149993896484375;100 mA;
139.571904647615;0.363922119140625;0.772199998050382;595;0.150054931640625;100 mA;
139.573204647612;0.364166259765625;0.7734999980471;596;0.1500244140625;100 mA;
139.574504647608;0.36444091796875;0.774799998043818;597;0.149993896484375;100 mA;
139.575804647605;0.36468505859375;0.776099998040536;598;0.149993896484375;100 mA;
139.577104647602;0.364959716796875;0.777399998037254;599;0.149993896484375;100 mA;
139.578404647598;0.365203857421875;0.778699998033971;600;0.1500244140625;100 mA;
139.579704647595;0.365478515625;0.779999998030689;601;0.149993896484375;100 mA;
139.581004647592;0.36572265625;0.781299998027407;602;0.149932861328125;100 mA;
139.582304647589;0.365966796875;0.782599998024125;603;0.1500244140625;100 mA;
139.583604647585;0.3662109375;0.783899998020843;604;0.14996337890625;100 mA;
139.584904647582;0.366455078125;0.785199998017561;605;0.1500244140625;100 mA;
139.586204647579;0.366729736328125;0.786499998014278;606;0.149993896484375;100 mA;
139.587504647575;0.36700439453125;0.787799998010996;607;0.14996337890625;100 mA;
139.588804647572;0.36724853515625;0.789099998007714;608;0.14996337890625;100 mA;
139.590104647569;0.367523193359375;0.790399998004432;609;0.1500244140625;100 mA;
139.591404647566;0.3677978515625;0.79169999800115;610;0.1500244140625;100 mA;
139.592704647562;0.368072509765625;0.792999997997867;611;0.1500244140625;100 mA;
139.594004647559;0.368316650390625;0.794299997994585;612;0.150054931640625;100 mA;
139.595304647556;0.36859130859375;0.795599997991303;613;0.1500244140625;100 mA;
139.596604647552;0.36883544921875;0.796899997988021;614;0.149993896484375;100 mA;
139.597904647549;0.369110107421875;0.798199997984739;615;0.14996337890625;100 mA;
139.599204647546;0.36932373046875;0.799499997981457;616;0.150054931640625;100 mA;
139.600504647543;0.369598388671875;0.800799997978174;617;0.14996337890625;100 mA;
139.601804647539;0.369873046875;0.802099997974892;618;0.149932861328125;100 mA;
139.603104647536;0.370147705078125;0.80339999797161;619;0.14996337890625;100 mA;
139.604404647533;0.37042236328125;0.804699997968328;620;0.1500244140625;100 mA;
139.605704647529;0.370697021484375;0.805999997965046;621;0.149993896484375;100 mA;
139.607004647526;0.3709716796875;0.807299997961763;622;0.150054931640625;100 mA;
139.608304647523;0.371246337890625;0.808599997958481;623;0.14996337890625;100 mA;
139.60960464752;0.37152099609375;0.809899997955199;624;0.1500244140625;100 mA;
139.610904647516;0.37176513671875;0.811199997951917;625;0.1500244140625;100 mA;
139.612204647513;0.37200927734375;0.812499997948635;626;0.149993896484375;100 mA;
139.61350464751;0.372283935546875;0.813799997945353;627;0.1500244140625;100 mA;
139.614804647507;0.372528076171875;0.81509999794207;628;0.1500244140625;100 mA;
139.616104647503;0.372802734375;0.816399997938788;629;0.1500244140625;100 mA;
139.6174046475;0.373077392578125;0.817699997935506;630;0.149993896484375;100 mA;
139.618704647497;0.373321533203125;0.818999997932224;631;0.1500244140625;100 mA;
139.620004647493;0.373626708984375;0.820299997928942;632;0.149993896484375;100 mA;
139.62130464749;0.3739013671875;0.821599997925659;633;0.150054931640625;100 mA;
139.622604647487;0.37420654296875;0.822899997922377;634;0.1500244140625;100 mA;
139.623904647484;0.374481201171875;0.824199997919095;635;0.149993896484375;100 mA;
139.62520464748;0.374755859375;0.825499997915813;636;0.14996337890625;100 mA;
139.626504647477;0.375030517578125;0.826799997912531;637;0.150054931640625;100 mA;
139.627804647474;0.375274658203125;0.828099997909248;638;0.150054931640625;100 mA;
139.62910464747;0.37554931640625;0.829399997905966;639;0.149993896484375;100 mA;
139.630404647467;0.37579345703125;0.830699997902684;640;0.149993896484375;100 mA;
139.631704647464;0.3760986328125;0.831999997899402;641;0.14996337890625;100 mA;
139.633004647461;0.376373291015625;0.83329999789612;642;0.149993896484375;100 mA;
139.634304647457;0.37664794921875;0.834599997892838;643;0.149993896484375;100 mA;
139.635604647454;0.376922607421875;0.835899997889555;644;0.1500244140625;100 mA;
139.636904647451;0.377197265625;0.837199997886273;645;0.149993896484375;100 mA;
139.638204647447;0.37750244140625;0.838499997882991;646;0.14996337890625;100 mA;
139.639504647444;0.377777099609375;0.839799997879709;647;0.1500244140625;100 mA;
139.640804647441;0.3780517578125;0.841099997876427;648;0.149993896484375;100 mA;
139.642104647438;0.378326416015625;0.842399997873144;649;0.150054931640625;100 mA;
139.643404647434;0.378631591796875;0.843699997869862;650;0.14996337890625;100 mA;
139.644704647431;0.37890625;0.84499999786658;651;0.1500244140625;100 mA;
139.646004647428;0.379180908203125;0.846299997863298;652;0.149993896484375;100 mA;
139.647304647424;0.379425048828125;0.847599997860016;653;0.149993896484375;100 mA;
139.648604647421;0.379730224609375;0.848899997856734;654;0.149993896484375;100 mA;
139.649904647418;0.3800048828125;0.850199997853451;655;0.14996337890625;100 mA;
139.651204647415;0.3802490234375;0.851499997850169;656;0.1500244140625;100 mA;
139.652504647411;0.38055419921875;0.852799997846887;657;0.149993896484375;100 mA;
139.653804647408;0.380889892578125;0.854099997843605;658;0.149993896484375;100 mA;
139.655104647405;0.38116455078125;0.855399997840323;659;0.1500244140625;100 mA;
139.656404647401;0.3814697265625;0.85669999783704;660;0.150054931640625;100 mA;
139.657704647398;0.381744384765625;0.857999997833758;661;0.14996337890625;100 mA;
139.659004647395;0.38201904296875;0.859299997830476;662;0.149993896484375;100 mA;
139.660304647392;0.38232421875;0.860599997827194;663;0.1500244140625;100 mA;
139.661604647388;0.382598876953125;0.861899997823912;664;0.149993896484375;100 mA;
139.662904647385;0.38287353515625;0.86319999782063;665;0.149993896484375;100 mA;
139.664204647382;0.383148193359375;0.864499997817347;666;0.14996337890625;100 mA;
139.665504647378;0.383453369140625;0.865799997814065;667;0.150054931640625;100 mA;
139.666804647375;0.38372802734375;0.867099997810783;668;0.149993896484375;100 mA;
139.668104647372;0.384002685546875;0.868399997807501;669;0.149993896484375;100 mA;
139.669404647369;0.384307861328125;0.869699997804219;670;0.149993896484375;100 mA;
139.670704647365;0.384613037109375;0.870999997800936;671;0.1500244140625;100 mA;
139.672004647362;0.384918212890625;0.872299997797654;672;0.14996337890625;100 mA;
139.673304647359;0.385223388671875;0.873599997794372;673;0.1500244140625;100 mA;
139.674604647356;0.385528564453125;0.87489999779109;674;0.149993896484375;100 mA;
139.675904647352;0.385833740234375;0.876199997787808;675;0.1500244140625;100 mA;
139.677204647349;0.386138916015625;0.877499997784525;676;0.149993896484375;100 mA;
139.678504647346;0.38641357421875;0.878799997781243;677;0.149993896484375;100 mA;
139.679804647342;0.386688232421875;0.880099997777961;678;0.149993896484375;100 mA;
139.681104647339;0.386993408203125;0.881399997774679;679;0.1500244140625;100 mA;
139.682404647336;0.387298583984375;0.882699997771397;680;0.1500244140625;100 mA;
139.683704647333;0.3875732421875;0.883999997768115;681;0.149993896484375;100 mA;
139.685004647329;0.38787841796875;0.885299997764832;682;0.1500244140625;100 mA;
139.686304647326;0.38818359375;0.88659999776155;683;0.1500244140625;100 mA;
139.687604647323;0.388519287109375;0.887899997758268;684;0.1500244140625;100 mA;
139.688904647319;0.388824462890625;0.889199997754986;685;0.1500244140625;100 mA;
139.690204647316;0.389129638671875;0.890499997751704;686;0.150054931640625;100 mA;
139.691504647313;0.389404296875;0.891799997748421;687;0.150054931640625;100 mA;
139.69280464731;0.389739990234375;0.893099997745139;688;0.149993896484375;100 mA;
139.694104647306;0.39007568359375;0.894399997741857;689;0.14996337890625;100 mA;
139.695404647303;0.390350341796875;0.895699997738575;690;0.1500244140625;100 mA;
139.6967046473;0.390625;0.896999997735293;691;0.149993896484375;100 mA;
139.698004647296;0.39093017578125;0.898299997732011;692;0.149993896484375;100 mA;
139.699304647293;0.3912353515625;0.899599997728728;693;0.149993896484375;100 mA;
139.70060464729;0.39154052734375;0.900899997725446;694;0.149993896484375;100 mA;
139.701904647287;0.391845703125;0.902199997722164;695;0.149993896484375;100 mA;
139.703204647283;0.39215087890625;0.903499997718882;696;0.149993896484375;100 mA;
139.70450464728;0.392486572265625;0.9047999977156;697;0.14996337890625;100 mA;
139.705804647277;0.392822265625;0.906099997712317;698;0.1500244140625;100 mA;
139.707104647273;0.39312744140625;0.907399997709035;699;0.149993896484375;100 mA;
139.70840464727;0.3934326171875;0.908699997705753;700;0.150054931640625;100 mA;
139.709704647267;0.393798828125;0.909999997702471;701;0.150054931640625;100 mA;
139.711004647264;0.394073486328125;0.911299997699189;702;0.150054931640625;100 mA;
139.71230464726;0.394378662109375;0.912599997695906;703;0.1500244140625;100 mA;
139.713604647257;0.394683837890625;0.913899997692624;704;0.1500244140625;100 mA;
139.714904647254;0.394989013671875;0.915199997689342;705;0.149993896484375;100 mA;
139.71620464725;0.395294189453125;0.91649999768606;706;0.14996337890625;100 mA;
139.717504647247;0.3956298828125;0.917799997682778;707;0.1500244140625;100 mA;
139.718804647244;0.39593505859375;0.919099997679496;708;0.1500244140625;100 mA;
139.720104647241;0.396270751953125;0.920399997676213;709;0.149993896484375;100 mA;
139.721404647237;0.396636962890625;0.921699997672931;710;0.149993896484375;100 mA;
139.722704647234;0.39697265625;0.922999997669649;711;0.14996337890625;100 mA;
139.724004647231;0.397308349609375;0.924299997666367;712;0.150054931640625;100 mA;
139.725304647228;0.3975830078125;0.925599997663085;713;0.1500244140625;100 mA;
139.726604647224;0.397979736328125;0.926899997659802;714;0.1500244140625;100 mA;
139.727904647221;0.398284912109375;0.92819999765652;715;0.149993896484375;100 mA;
139.729204647218;0.398590087890625;0.929499997653238;716;0.149993896484375;100 mA;
139.730504647214;0.398895263671875;0.930799997649956;717;0.14996337890625;100 mA;
139.731804647211;0.39923095703125;0.932099997646674;718;0.149993896484375;100 mA;
139.733104647208;0.399566650390625;0.933399997643392;719;0.1500244140625;100 mA;
139.734404647205;0.399871826171875;0.934699997640109;720;0.1500244140625;100 mA;
139.735704647201;0.400238037109375;0.935999997636827;721;0.149993896484375;100 mA;
139.737004647198;0.40057373046875;0.937299997633545;722;0.149993896484375;100 mA;
139.738304647195;0.400909423828125;0.938599997630263;723;0.14996337890625;100 mA;
139.739604647191;0.4012451171875;0.939899997626981;724;0.14996337890625;100 mA;
139.740904647188;0.401611328125;0.941199997623698;725;0.1500244140625;100 mA;
139.742204647185;0.4019775390625;0.942499997620416;726;0.149993896484375;100 mA;
139.743504647182;0.402313232421875;0.943799997617134;727;0.14996337890625;100 mA;
139.744804647178;0.40264892578125;0.945099997613852;728;0.149932861328125;100 mA;
139.746104647175;0.4029541015625;0.94639999761057;729;0.1500244140625;100 mA;
139.747404647172;0.403289794921875;0.947699997607288;730;0.150054931640625;100 mA;
139.748704647168;0.40362548828125;0.948999997604005;731;0.15008544921875;100 mA;
139.750004647165;0.40399169921875;0.950299997600723;732;0.149993896484375;100 mA;
139.751304647162;0.40435791015625;0.951599997597441;733;0.149993896484375;100 mA;
139.752604647159;0.4046630859375;0.952899997594159;734;0.150054931640625;100 mA;
139.753904647155;0.405059814453125;0.954199997590877;735;0.149993896484375;100 mA;
139.755204647152;0.4053955078125;0.955499997587594;736;0.149993896484375;100 mA;
139.756504647149;0.405731201171875;0.956799997584312;737;0.1500244140625;100 mA;
139.757804647145;0.406097412109375;0.95809999758103;738;0.1500244140625;100 mA;
139.759104647142;0.406463623046875;0.959399997577748;739;0.149993896484375;100 mA;
139.760404647139;0.406829833984375;0.960699997574466;740;0.149993896484375;100 mA;
139.761704647136;0.40716552734375;0.961999997571183;741;0.149993896484375;100 mA;
139.763004647132;0.40753173828125;0.963299997567901;742;0.149993896484375;100 mA;
139.764304647129;0.407867431640625;0.964599997564619;743;0.1500244140625;100 mA;
139.765604647126;0.408233642578125;0.965899997561337;744;0.1500244140625;100 mA;
139.766904647122;0.408599853515625;0.967199997558055;745;0.14996337890625;100 mA;
139.768204647119;0.408935546875;0.968499997554773;746;0.150054931640625;100 mA;
139.769504647116;0.409332275390625;0.96979999755149;747;0.149993896484375;100 mA;
139.770804647113;0.40966796875;0.971099997548208;748;0.1500244140625;100 mA;
139.772104647109;0.410064697265625;0.972399997544926;749;0.1500244140625;100 mA;
139.773404647106;0.410430908203125;0.973699997541644;750;0.149993896484375;100 mA;
139.774704647103;0.410797119140625;0.974999997538362;751;0.149993896484375;100 mA;
139.7760046471;0.41119384765625;0.976299997535079;752;0.1500244140625;100 mA;
139.777304647096;0.41156005859375;0.977599997531797;753;0.1500244140625;100 mA;
139.778604647093;0.41192626953125;0.978899997528515;754;0.1500244140625;100 mA;
139.77990464709;0.41229248046875;0.980199997525233;755;0.149993896484375;100 mA;
139.781204647086;0.412628173828125;0.981499997521951;756;0.149993896484375;100 mA;
139.782504647083;0.41302490234375;0.982799997518669;757;0.149993896484375;100 mA;
139.78380464708;0.413421630859375;0.984099997515386;758;0.149993896484375;100 mA;
139.785104647077;0.41375732421875;0.985399997512104;759;0.149993896484375;100 mA;
139.786404647073;0.414154052734375;0.986699997508822;760;0.1500244140625;100 mA;
139.78770464707;0.41455078125;0.98799999750554;761;0.149993896484375;100 mA;
139.789004647067;0.414947509765625;0.989299997502258;762;0.150054931640625;100 mA;
139.790304647063;0.415313720703125;0.990599997498975;763;0.14996337890625;100 mA;
139.79160464706;0.41571044921875;0.991899997495693;764;0.1500244140625;100 mA;
139.792904647057;0.4161376953125;0.993199997492411;765;0.149993896484375;100 mA;
139.794204647054;0.416534423828125;0.994499997489129;766;0.1500244140625;100 mA;
139.79550464705;0.4168701171875;0.995799997485847;767;0.149993896484375;100 mA;
139.796804647047;0.417266845703125;0.997099997482565;768;0.149993896484375;100 mA;
139.798104647044;0.417633056640625;0.998399997479282;769;0.1500244140625;100 mA;
139.79940464704;0.418060302734375;0.999699997476;770;0.1500244140625;100 mA;
139.800704647037;0.418487548828125;1.00099999747272;771;0.149993896484375;100 mA;
139.802004647034;0.418853759765625;1.00229999746944;772;0.14996337890625;100 mA;
139.803304647031;0.419281005859375;1.00359999746615;773;0.14996337890625;100 mA;
139.804604647027;0.419677734375;1.00489999746287;774;0.14996337890625;100 mA;
139.805904647024;0.420074462890625;1.00619999745959;775;0.1500244140625;100 mA;
139.807204647021;0.42047119140625;1.00749999745631;776;0.1500244140625;100 mA;
139.808504647017;0.4208984375;1.00879999745302;777;0.1500244140625;100 mA;
139.809804647014;0.42132568359375;1.01009999744974;778;0.14996337890625;100 mA;
139.811104647011;0.421722412109375;1.01139999744646;779;0.1500244140625;100 mA;
139.812404647008;0.422119140625;1.01269999744318;780;0.14996337890625;100 mA;
139.813704647004;0.422515869140625;1.0139999974399;781;0.14996337890625;100 mA;
139.815004647001;0.422943115234375;1.01529999743661;782;0.1500244140625;100 mA;
139.816304646998;0.42333984375;1.01659999743333;783;0.1500244140625;100 mA;
139.817604646994;0.42376708984375;1.01789999743005;784;0.149993896484375;100 mA;
139.818904646991;0.424163818359375;1.01919999742677;785;0.14996337890625;100 mA;
139.820204646988;0.42462158203125;1.02049999742349;786;0.1500244140625;100 mA;
139.821504646985;0.425079345703125;1.0217999974202;787;0.150054931640625;100 mA;
139.822804646981;0.42547607421875;1.02309999741692;788;0.149993896484375;100 mA;
139.824104646978;0.4259033203125;1.02439999741364;789;0.149993896484375;100 mA;
139.825404646975;0.426361083984375;1.02569999741036;790;0.149993896484375;100 mA;
139.826704646972;0.426788330078125;1.02699999740707;791;0.1500244140625;100 mA;
139.828004646968;0.427215576171875;1.02829999740379;792;0.149993896484375;100 mA;
139.829304646965;0.427642822265625;1.02959999740051;793;0.149993896484375;100 mA;
139.830604646962;0.428070068359375;1.03089999739723;794;0.149993896484375;100 mA;
139.831904646958;0.428497314453125;1.03219999739395;795;0.149993896484375;100 mA;
139.833204646955;0.428955078125;1.03349999739066;796;0.14996337890625;100 mA;
139.834504646952;0.429412841796875;1.03479999738738;797;0.149993896484375;100 mA;
139.835804646949;0.429840087890625;1.0360999973841;798;0.14996337890625;100 mA;
139.837104646945;0.430328369140625;1.03739999738082;799;0.149993896484375;100 mA;
139.838404646942;0.4307861328125;1.03869999737753;800;0.149993896484375;100 mA;
139.839704646939;0.431243896484375;1.03999999737425;801;0.150054931640625;100 mA;
139.841004646935;0.431671142578125;1.04129999737097;802;0.1500244140625;100 mA;
139.842304646932;0.432159423828125;1.04259999736769;803;0.149993896484375;100 mA;
139.843604646929;0.4326171875;1.04389999736441;804;0.1500244140625;100 mA;
139.844904646926;0.433074951171875;1.04519999736112;805;0.1500244140625;100 mA;
139.846204646922;0.43353271484375;1.04649999735784;806;0.14996337890625;100 mA;
139.847504646919;0.433990478515625;1.04779999735456;807;0.1500244140625;100 mA;
139.848804646916;0.4344482421875;1.04909999735128;808;0.149993896484375;100 mA;
139.850104646912;0.434906005859375;1.05039999734799;809;0.149993896484375;100 mA;
139.851404646909;0.435394287109375;1.05169999734471;810;0.1500244140625;100 mA;
139.852704646906;0.435882568359375;1.05299999734143;811;0.1500244140625;100 mA;
139.854004646903;0.436370849609375;1.05429999733815;812;0.14996337890625;100 mA;
139.855304646899;0.436859130859375;1.05559999733487;813;0.14996337890625;100 mA;
139.856604646896;0.437347412109375;1.05689999733158;814;0.149993896484375;100 mA;
139.857904646893;0.437835693359375;1.0581999973283;815;0.149993896484375;100 mA;
139.859204646889;0.4383544921875;1.05949999732502;816;0.149993896484375;100 mA;
139.860504646886;0.4388427734375;1.06079999732174;817;0.150054931640625;100 mA;
139.861804646883;0.4393310546875;1.06209999731846;818;0.149993896484375;100 mA;
139.86310464688;0.439788818359375;1.06339999731517;819;0.149993896484375;100 mA;
139.864404646876;0.4403076171875;1.06469999731189;820;0.149993896484375;100 mA;
139.865704646873;0.4407958984375;1.06599999730861;821;0.149993896484375;100 mA;
139.86700464687;0.441314697265625;1.06729999730533;822;0.149993896484375;100 mA;
139.868304646866;0.441802978515625;1.06859999730204;823;0.149993896484375;100 mA;
139.869604646863;0.442352294921875;1.06989999729876;824;0.149993896484375;100 mA;
139.87090464686;0.442840576171875;1.07119999729548;825;0.149993896484375;100 mA;
139.872204646857;0.443389892578125;1.0724999972922;826;0.149993896484375;100 mA;
139.873504646853;0.44390869140625;1.07379999728892;827;0.149993896484375;100 mA;
139.87480464685;0.444427490234375;1.07509999728563;828;0.149993896484375;100 mA;
139.876104646847;0.4449462890625;1.07639999728235;829;0.14996337890625;100 mA;
139.877404646844;0.445465087890625;1.07769999727907;830;0.1500244140625;100 mA;
139.87870464684;0.446014404296875;1.07899999727579;831;0.149993896484375;100 mA;
139.880004646837;0.446533203125;1.0802999972725;832;0.1500244140625;100 mA;
139.881304646834;0.447052001953125;1.08159999726922;833;0.149993896484375;100 mA;
139.88260464683;0.4476318359375;1.08289999726594;834;0.149993896484375;100 mA;
139.883904646827;0.44818115234375;1.08419999726266;835;0.1500244140625;100 mA;
139.885204646824;0.448699951171875;1.08549999725938;836;0.149993896484375;100 mA;
139.886504646821;0.449249267578125;1.08679999725609;837;0.149993896484375;100 mA;
139.887804646817;0.4498291015625;1.08809999725281;838;0.149993896484375;100 mA;
139.889104646814;0.45037841796875;1.08939999724953;839;0.1500244140625;100 mA;
139.890404646811;0.45098876953125;1.09069999724625;840;0.14996337890625;100 mA;
139.891704646807;0.4515380859375;1.09199999724297;841;0.150054931640625;100 mA;
139.893004646804;0.452117919921875;1.09329999723968;842;0.14996337890625;100 mA;
139.894304646801;0.45269775390625;1.0945999972364;843;0.149993896484375;100 mA;
139.895604646798;0.4532470703125;1.09589999723312;844;0.1500244140625;100 mA;
139.896904646794;0.453826904296875;1.09719999722984;845;0.14996337890625;100 mA;
139.898204646791;0.45440673828125;1.09849999722655;846;0.1500244140625;100 mA;
139.899504646788;0.454986572265625;1.09979999722327;847;0.149932861328125;100 mA;
139.900804646784;0.455596923828125;1.10109999721999;848;0.1500244140625;100 mA;
139.902104646781;0.4561767578125;1.10239999721671;849;0.1500244140625;100 mA;
139.903404646778;0.456787109375;1.10369999721343;850;0.14996337890625;100 mA;
139.904704646775;0.4573974609375;1.10499999721014;851;0.14996337890625;100 mA;
139.906004646771;0.4580078125;1.10629999720686;852;0.1500244140625;100 mA;
139.907304646768;0.458648681640625;1.10759999720358;853;0.149993896484375;100 mA;
139.908604646765;0.459259033203125;1.1088999972003;854;0.149993896484375;100 mA;
139.909904646761;0.45989990234375;1.11019999719701;855;0.1500244140625;100 mA;
139.911204646758;0.460540771484375;1.11149999719373;856;0.149993896484375;100 mA;
139.912504646755;0.46112060546875;1.11279999719045;857;0.1500244140625;100 mA;
139.913804646752;0.461761474609375;1.11409999718717;858;0.14996337890625;100 mA;
139.915104646748;0.46240234375;1.11539999718389;859;0.149993896484375;100 mA;
139.916404646745;0.463043212890625;1.1166999971806;860;0.149993896484375;100 mA;
139.917704646742;0.463653564453125;1.11799999717732;861;0.14996337890625;100 mA;
139.919004646738;0.464324951171875;1.11929999717404;862;0.1500244140625;100 mA;
139.920304646735;0.464996337890625;1.12059999717076;863;0.149993896484375;100 mA;
139.921604646732;0.4656982421875;1.12189999716747;864;0.14996337890625;100 mA;
139.922904646729;0.46636962890625;1.12319999716419;865;0.149993896484375;100 mA;
139.924204646725;0.467041015625;1.12449999716091;866;0.149993896484375;100 mA;
139.925504646722;0.467742919921875;1.12579999715763;867;0.149993896484375;100 mA;
139.926804646719;0.468414306640625;1.12709999715435;868;0.1500244140625;100 mA;
139.928104646715;0.4691162109375;1.12839999715106;869;0.14996337890625;100 mA;
139.929404646712;0.46978759765625;1.12969999714778;870;0.149932861328125;100 mA;
139.930704646709;0.470489501953125;1.1309999971445;871;0.1500244140625;100 mA;
139.932004646706;0.47119140625;1.13229999714122;872;0.1500244140625;100 mA;
139.933304646702;0.471923828125;1.13359999713794;873;0.14996337890625;100 mA;
139.934604646699;0.472625732421875;1.13489999713465;874;0.14990234375;100 mA;
139.935904646696;0.47332763671875;1.13619999713137;875;0.149993896484375;100 mA;
139.937204646693;0.474090576171875;1.13749999712809;876;0.149993896484375;100 mA;
139.938504646689;0.474853515625;1.13879999712481;877;0.149993896484375;100 mA;
139.939804646686;0.475616455078125;1.14009999712152;878;0.1500244140625;100 mA;
139.941104646683;0.476348876953125;1.14139999711824;879;0.149993896484375;100 mA;
139.942404646679;0.477081298828125;1.14269999711496;880;0.14996337890625;100 mA;
139.943704646676;0.477874755859375;1.14399999711168;881;0.14996337890625;100 mA;
139.945004646673;0.4786376953125;1.1452999971084;882;0.1500244140625;100 mA;
139.94630464667;0.479400634765625;1.14659999710511;883;0.149993896484375;100 mA;
139.947604646666;0.48016357421875;1.14789999710183;884;0.14996337890625;100 mA;
139.948904646663;0.48095703125;1.14919999709855;885;0.149993896484375;100 mA;
139.95020464666;0.481781005859375;1.15049999709527;886;0.1500244140625;100 mA;
139.951504646656;0.4825439453125;1.15179999709198;887;0.1500244140625;100 mA;
139.952804646653;0.483367919921875;1.1530999970887;888;0.149993896484375;100 mA;
139.95410464665;0.484222412109375;1.15439999708542;889;0.149993896484375;100 mA;
139.955404646647;0.48504638671875;1.15569999708214;890;0.1500244140625;100 mA;
139.956704646643;0.485870361328125;1.15699999707886;891;0.1500244140625;100 mA;
139.95800464664;0.486724853515625;1.15829999707557;892;0.1500244140625;100 mA;
139.959304646637;0.487579345703125;1.15959999707229;893;0.149993896484375;100 mA;
139.960604646633;0.488433837890625;1.16089999706901;894;0.150054931640625;100 mA;
139.96190464663;0.48931884765625;1.16219999706573;895;0.14996337890625;100 mA;
139.963204646627;0.49017333984375;1.16349999706244;896;0.149993896484375;100 mA;
139.964504646624;0.491058349609375;1.16479999705916;897;0.14996337890625;100 mA;
139.96580464662;0.491943359375;1.16609999705588;898;0.14996337890625;100 mA;
139.967104646617;0.492828369140625;1.1673999970526;899;0.149993896484375;100 mA;
139.968404646614;0.493743896484375;1.16869999704932;900;0.14996337890625;100 mA;
139.96970464661;0.494659423828125;1.16999999704603;901;0.1500244140625;100 mA;
139.971004646607;0.49560546875;1.17129999704275;902;0.14996337890625;100 mA;
139.972304646604;0.49658203125;1.17259999703947;903;0.15008544921875;100 mA;
139.973604646601;0.49749755859375;1.17389999703619;904;0.150054931640625;100 mA;
139.974904646597;0.49847412109375;1.17519999703291;905;0.149993896484375;100 mA;
139.976204646594;0.49945068359375;1.17649999702962;906;0.14996337890625;100 mA;
139.977504646591;0.50042724609375;1.17779999702634;907;0.149993896484375;100 mA;
139.978804646587;0.501434326171875;1.17909999702306;908;0.149993896484375;100 mA;
139.980104646584;0.502410888671875;1.18039999701978;909;0.14996337890625;100 mA;
139.981404646581;0.503387451171875;1.18169999701649;910;0.149993896484375;100 mA;
139.982704646578;0.504425048828125;1.18299999701321;911;0.14996337890625;100 mA;
139.984004646574;0.505462646484375;1.18429999700993;912;0.149993896484375;100 mA;
139.985304646571;0.5064697265625;1.18559999700665;913;0.149993896484375;100 mA;
139.986604646568;0.507537841796875;1.18689999700337;914;0.149993896484375;100 mA;
139.987904646565;0.508636474609375;1.18819999700008;915;0.14996337890625;100 mA;
139.989204646561;0.50970458984375;1.1894999969968;916;0.1500244140625;100 mA;
139.990504646558;0.510833740234375;1.19079999699352;917;0.14996337890625;100 mA;
139.991804646555;0.51190185546875;1.19209999699024;918;0.149993896484375;100 mA;
139.993104646551;0.513031005859375;1.19339999698695;919;0.1500244140625;100 mA;
139.994404646548;0.514190673828125;1.19469999698367;920;0.149993896484375;100 mA;
139.995704646545;0.515289306640625;1.19599999698039;921;0.150054931640625;100 mA;
139.997004646542;0.51641845703125;1.19729999697711;922;0.14996337890625;100 mA;
139.998304646538;0.517578125;1.19859999697383;923;0.149993896484375;100 mA;
139.999604646535;0.51873779296875;1.19989999697054;924;0.14996337890625;100 mA;
140.000904646532;0.51995849609375;1.20119999696726;925;0.149993896484375;100 mA;
140.002204646528;0.521148681640625;1.20249999696398;926;0.149993896484375;100 mA;
140.003504646525;0.522369384765625;1.2037999969607;927;0.14996337890625;100 mA;
140.004804646522;0.52362060546875;1.20509999695741;928;0.1500244140625;100 mA;
140.006104646519;0.52484130859375;1.20639999695413;929;0.1500244140625;100 mA;
140.007404646515;0.526123046875;1.20769999695085;930;0.1500244140625;100 mA;
140.008704646512;0.52740478515625;1.20899999694757;931;0.14996337890625;100 mA;
140.010004646509;0.5286865234375;1.21029999694429;932;0.149993896484375;100 mA;
140.011304646505;0.529998779296875;1.211599996941;933;0.149993896484375;100 mA;
140.012604646502;0.531341552734375;1.21289999693772;934;0.149993896484375;100 mA;
140.013904646499;0.532623291015625;1.21419999693444;935;0.150054931640625;100 mA;
140.015204646496;0.533966064453125;1.21549999693116;936;0.1500244140625;100 mA;
140.016504646492;0.53533935546875;1.21679999692788;937;0.1500244140625;100 mA;
140.017804646489;0.5367431640625;1.21809999692459;938;0.14996337890625;100 mA;
140.019104646486;0.5380859375;1.21939999692131;939;0.1500244140625;100 mA;
140.020404646482;0.539520263671875;1.22069999691803;940;0.14996337890625;100 mA;
140.021704646479;0.54095458984375;1.22199999691475;941;0.150054931640625;100 mA;
140.023004646476;0.542388916015625;1.22329999691146;942;0.14996337890625;100 mA;
140.024304646473;0.543853759765625;1.22459999690818;943;0.149993896484375;100 mA;
140.025604646469;0.545318603515625;1.2258999969049;944;0.1500244140625;100 mA;
140.026904646466;0.54681396484375;1.22719999690162;945;0.149993896484375;100 mA;
140.028204646463;0.54827880859375;1.22849999689834;946;0.1500244140625;100 mA;
140.029504646459;0.5498046875;1.22979999689505;947;0.149932861328125;100 mA;
140.030804646456;0.551300048828125;1.23109999689177;948;0.1500244140625;100 mA;
140.032104646453;0.5528564453125;1.23239999688849;949;0.14996337890625;100 mA;
140.03340464645;0.554412841796875;1.23369999688521;950;0.149993896484375;100 mA;
140.034704646446;0.555938720703125;1.23499999688192;951;0.1500244140625;100 mA;
140.036004646443;0.557525634765625;1.23629999687864;952;0.149993896484375;100 mA;
140.03730464644;0.559173583984375;1.23759999687536;953;0.149993896484375;100 mA;
140.038604646437;0.560760498046875;1.23889999687208;954;0.149993896484375;100 mA;
140.039904646433;0.56243896484375;1.2401999968688;955;0.14996337890625;100 mA;
140.04120464643;0.564056396484375;1.24149999686551;956;0.149993896484375;100 mA;
140.042504646427;0.565704345703125;1.24279999686223;957;0.1500244140625;100 mA;
140.043804646423;0.5673828125;1.24409999685895;958;0.14996337890625;100 mA;
140.04510464642;0.56903076171875;1.24539999685567;959;0.1500244140625;100 mA;
140.046404646417;0.570709228515625;1.24669999685239;960;0.1500244140625;100 mA;
140.047704646414;0.5723876953125;1.2479999968491;961;0.1500244140625;100 mA;
140.04900464641;0.574066162109375;1.24929999684582;962;0.149993896484375;100 mA;
140.050304646407;0.5758056640625;1.25059999684254;963;0.149993896484375;100 mA;
140.051604646404;0.5775146484375;1.25189999683926;964;0.150054931640625;100 mA;
140.0529046464;0.5792236328125;1.25319999683597;965;0.149993896484375;100 mA;
140.054204646397;0.580963134765625;1.25449999683269;966;0.1500244140625;100 mA;
140.055504646394;0.582733154296875;1.25579999682941;967;0.149993896484375;100 mA;
140.056804646391;0.58447265625;1.25709999682613;968;0.149993896484375;100 mA;
140.058104646387;0.586181640625;1.25839999682285;969;0.149993896484375;100 mA;
140.059404646384;0.58795166015625;1.25969999681956;970;0.1500244140625;100 mA;
140.060704646381;0.5897216796875;1.26099999681628;971;0.149932861328125;100 mA;
140.062004646377;0.591461181640625;1.262299996813;972;0.1500244140625;100 mA;
140.063304646374;0.59320068359375;1.26359999680972;973;0.14996337890625;100 mA;
140.064604646371;0.594940185546875;1.26489999680643;974;0.1500244140625;100 mA;
140.065904646368;0.596710205078125;1.26619999680315;975;0.149993896484375;100 mA;
140.067204646364;0.59844970703125;1.26749999679987;976;0.149993896484375;100 mA;
140.068504646361;0.600189208984375;1.26879999679659;977;0.1500244140625;100 mA;
140.069804646358;0.6019287109375;1.27009999679331;978;0.149993896484375;100 mA;
140.071104646354;0.603729248046875;1.27139999679002;979;0.149993896484375;100 mA;
140.072404646351;0.605438232421875;1.27269999678674;980;0.149993896484375;100 mA;
140.073704646348;0.607208251953125;1.27399999678346;981;0.149993896484375;100 mA;
140.075004646345;0.608917236328125;1.27529999678018;982;0.14996337890625;100 mA;
140.076304646341;0.610626220703125;1.27659999677689;983;0.1500244140625;100 mA;
140.077604646338;0.612335205078125;1.27789999677361;984;0.1500244140625;100 mA;
140.078904646335;0.614044189453125;1.27919999677033;985;0.14996337890625;100 mA;
140.080204646331;0.615692138671875;1.28049999676705;986;0.149993896484375;100 mA;
140.081504646328;0.61737060546875;1.28179999676377;987;0.149993896484375;100 mA;
140.082804646325;0.619049072265625;1.28309999676048;988;0.149993896484375;100 mA;
140.084104646322;0.6207275390625;1.2843999967572;989;0.1500244140625;100 mA;
140.085404646318;0.62237548828125;1.28569999675392;990;0.14996337890625;100 mA;
140.086704646315;0.6240234375;1.28699999675064;991;0.149993896484375;100 mA;
140.088004646312;0.62567138671875;1.28829999674736;992;0.14996337890625;100 mA;
140.089304646309;0.6273193359375;1.28959999674407;993;0.149932861328125;100 mA;
140.090604646305;0.628936767578125;1.29089999674079;994;0.149993896484375;100 mA;
140.091904646302;0.630523681640625;1.29219999673751;995;0.14996337890625;100 mA;
140.093204646299;0.63214111328125;1.29349999673423;996;0.14996337890625;100 mA;
140.094504646295;0.633697509765625;1.29479999673094;997;0.1500244140625;100 mA;
140.095804646292;0.63525390625;1.29609999672766;998;0.14996337890625;100 mA;
140.097104646289;0.636810302734375;1.29739999672438;999;0.1500244140625;100 mA;
140.098404646286;0.638336181640625;1.2986999967211;1000;0.149993896484375;100 mA;
140.099704646282;0.639862060546875;1.29999999671782;1001;0.1500244140625;100 mA;
140.101004646279;0.641357421875;1.30129999671453;1002;0.1500244140625;100 mA;
140.102304646276;0.642852783203125;1.30259999671125;1003;0.149993896484375;100 mA;
140.103604646272;0.644317626953125;1.30389999670797;1004;0.1500244140625;100 mA;
140.104904646269;0.6458740234375;1.30519999670469;1005;0.150054931640625;100 mA;
140.106204646266;0.6473388671875;1.3064999967014;1006;0.149993896484375;100 mA;
140.107504646263;0.648773193359375;1.30779999669812;1007;0.1500244140625;100 mA;
140.108804646259;0.650238037109375;1.30909999669484;1008;0.1500244140625;100 mA;
140.110104646256;0.651702880859375;1.31039999669156;1009;0.14996337890625;100 mA;
140.111404646253;0.653106689453125;1.31169999668828;1010;0.1500244140625;100 mA;
140.112704646249;0.65447998046875;1.31299999668499;1011;0.149993896484375;100 mA;
140.114004646246;0.6558837890625;1.31429999668171;1012;0.149993896484375;100 mA;
140.115304646243;0.657257080078125;1.31559999667843;1013;0.1500244140625;100 mA;
140.11660464624;0.65863037109375;1.31689999667515;1014;0.14996337890625;100 mA;
140.117904646236;0.65997314453125;1.31819999667186;1015;0.1500244140625;100 mA;
140.119204646233;0.66131591796875;1.31949999666858;1016;0.149993896484375;100 mA;
140.12050464623;0.66265869140625;1.3207999966653;1017;0.1500244140625;100 mA;
140.121804646226;0.66400146484375;1.32209999666202;1018;0.149993896484375;100 mA;
140.123104646223;0.66534423828125;1.32339999665874;1019;0.1500244140625;100 mA;
140.12440464622;0.6666259765625;1.32469999665545;1020;0.149993896484375;100 mA;
140.125704646217;0.66790771484375;1.32599999665217;1021;0.149993896484375;100 mA;
140.127004646213;0.669219970703125;1.32729999664889;1022;0.149993896484375;100 mA;
140.12830464621;0.67047119140625;1.32859999664561;1023;0.1500244140625;100 mA;
140.129604646207;0.671722412109375;1.32989999664233;1024;0.14996337890625;100 mA;
140.130904646203;0.672943115234375;1.33119999663904;1025;0.149993896484375;100 mA;
140.1322046462;0.674163818359375;1.33249999663576;1026;0.150054931640625;100 mA;
140.133504646197;0.6754150390625;1.33379999663248;1027;0.149993896484375;100 mA;
140.134804646194;0.676605224609375;1.3350999966292;1028;0.1500244140625;100 mA;
140.13610464619;0.67779541015625;1.33639999662591;1029;0.149993896484375;100 mA;
140.137404646187;0.67901611328125;1.33769999662263;1030;0.1500244140625;100 mA;
140.138704646184;0.680206298828125;1.33899999661935;1031;0.1500244140625;100 mA;
140.140004646181;0.681365966796875;1.34029999661607;1032;0.149993896484375;100 mA;
140.141304646177;0.6824951171875;1.34159999661279;1033;0.1500244140625;100 mA;
140.142604646174;0.68365478515625;1.3428999966095;1034;0.14996337890625;100 mA;
140.143904646171;0.684814453125;1.34419999660622;1035;0.149993896484375;100 mA;
140.145204646167;0.6859130859375;1.34549999660294;1036;0.149993896484375;100 mA;
140.146504646164;0.68701171875;1.34679999659966;1037;0.1500244140625;100 mA;
140.147804646161;0.6881103515625;1.34809999659637;1038;0.1500244140625;100 mA;
140.149104646158;0.689208984375;1.34939999659309;1039;0.149993896484375;100 mA;
140.150404646154;0.69024658203125;1.35069999658981;1040;0.149993896484375;100 mA;
140.151704646151;0.691314697265625;1.35199999658653;1041;0.14996337890625;100 mA;
140.153004646148;0.6923828125;1.35329999658325;1042;0.150054931640625;100 mA;
140.154304646144;0.693450927734375;1.35459999657996;1043;0.149993896484375;100 mA;
140.155604646141;0.6944580078125;1.35589999657668;1044;0.149932861328125;100 mA;
140.156904646138;0.69549560546875;1.3571999965734;1045;0.1500244140625;100 mA;
140.158204646135;0.696502685546875;1.35849999657012;1046;0.1500244140625;100 mA;
140.159504646131;0.697509765625;1.35979999656684;1047;0.14996337890625;100 mA;
140.160804646128;0.698486328125;1.36109999656355;1048;0.1500244140625;100 mA;
140.162104646125;0.699493408203125;1.36239999656027;1049;0.1500244140625;100 mA;
140.163404646121;0.700439453125;1.36369999655699;1050;0.14996337890625;100 mA;WE(1).Potential > 0.7 V
140.164704646118;0.701385498046875;1.36499999655371;1051;0.1500244140625;100 mA;WE(1).Potential > 0.7 V
140.166004646115;0.702362060546875;1.36629999655042;1052;0.14996337890625;100 mA;WE(1).Potential > 0.7 V
140.167304646112;0.7032470703125;1.36759999654714;1053;0.149993896484375;100 mA;WE(1).Potential > 0.7 V
