Time (s);WE(1).Potential (V);Corrected time (s);Index;WE(1).Current (A);Current range;Cutoffs
200.168752494622;0.088470458984375;0;1;0.170013427734375;100 mA;
200.170052494619;0.104339599609375;0.00129999999671782;2;0.1700439453125;100 mA;
200.171352494616;0.114990234375;0.00259999999343563;3;0.170013427734375;100 mA;
200.172652494613;0.123046875;0.00389999999015345;4;0.170013427734375;100 mA;
200.173952494609;0.129547119140625;0.00519999998687126;5;0.1700439453125;100 mA;
200.175252494606;0.134979248046875;0.00649999998358908;6;0.16998291015625;100 mA;
200.176552494603;0.1397705078125;0.00779999998030689;7;0.1700439453125;100 mA;
200.1778524946;0.143951416015625;0.00909999997702471;8;0.170013427734375;100 mA;
200.179152494596;0.147705078125;0.0103999999737425;9;0.170074462890625;100 mA;
200.180452494593;0.151123046875;0.0116999999704603;10;0.1700439453125;100 mA;
200.18175249459;0.15423583984375;0.0129999999671782;11;0.170013427734375;100 mA;
200.183052494586;0.1571044921875;0.014299999963896;12;0.1700439453125;100 mA;
200.184352494583;0.159820556640625;0.0155999999606138;13;0.1700439453125;100 mA;
200.18565249458;0.162322998046875;0.0168999999573316;14;0.170013427734375;100 mA;
200.186952494577;0.1646728515625;0.0181999999540494;15;0.1700439453125;100 mA;
200.188252494573;0.166900634765625;0.0194999999507672;16;0.170013427734375;100 mA;
200.18955249457;0.1690673828125;0.020799999947485;17;0.170013427734375;100 mA;
200.190852494567;0.17108154296875;0.0220999999442029;18;0.1700439453125;100 mA;
200.192152494563;0.1729736328125;0.0233999999409207;19;0.1700439453125;100 mA;
200.19345249456;0.174835205078125;0.0246999999376385;20;0.170074462890625;100 mA;
200.194752494557;0.1766357421875;0.0259999999343563;21;0.1700439453125;100 mA;
200.196052494554;0.178314208984375;0.0272999999310741;22;0.1700439453125;100 mA;
200.19735249455;0.179931640625;0.0285999999277919;23;0.170074462890625;100 mA;
200.198652494547;0.181488037109375;0.0298999999245098;24;0.1700439453125;100 mA;
200.199952494544;0.1829833984375;0.0311999999212276;25;0.170074462890625;100 mA;
200.20125249454;0.1844482421875;0.0324999999179454;26;0.1700439453125;100 mA;
200.202552494537;0.18585205078125;0.0337999999146632;27;0.1700439453125;100 mA;
200.203852494534;0.187225341796875;0.035099999911381;28;0.170013427734375;100 mA;
200.205152494531;0.188568115234375;0.0363999999080988;29;0.1700439453125;100 mA;
200.206452494527;0.189910888671875;0.0376999999048167;30;0.170074462890625;100 mA;
200.207752494524;0.191192626953125;0.0389999999015345;31;0.17010498046875;100 mA;
200.209052494521;0.192413330078125;0.0402999998982523;32;0.1700439453125;100 mA;
200.210352494517;0.193634033203125;0.0415999998949701;33;0.1700439453125;100 mA;
200.211652494514;0.194793701171875;0.0428999998916879;34;0.170074462890625;100 mA;
200.212952494511;0.195953369140625;0.0441999998884057;35;0.1700439453125;100 mA;
200.214252494508;0.197052001953125;0.0454999998851235;36;0.1700439453125;100 mA;
200.215552494504;0.198150634765625;0.0467999998818414;37;0.17010498046875;100 mA;
200.216852494501;0.199188232421875;0.0480999998785592;38;0.1700439453125;100 mA;
200.218152494498;0.20025634765625;0.049399999875277;39;0.170013427734375;100 mA;
200.219452494494;0.201263427734375;0.0506999998719948;40;0.170013427734375;100 mA;
200.220752494491;0.2022705078125;0.0519999998687126;41;0.1700439453125;100 mA;
200.222052494488;0.2032470703125;0.0532999998654304;42;0.170074462890625;100 mA;
200.223352494485;0.2042236328125;0.0545999998621483;43;0.1700439453125;100 mA;
200.224652494481;0.205169677734375;0.0558999998588661;44;0.170074462890625;100 mA;
200.225952494478;0.20611572265625;0.0571999998555839;45;0.170074462890625;100 mA;
200.227252494475;0.20703125;0.0584999998523017;46;0.1700439453125;100 mA;
200.228552494472;0.20794677734375;0.0597999998490195;47;0.170013427734375;100 mA;
200.229852494468;0.2088623046875;0.0610999998457373;48;0.170013427734375;100 mA;
200.231152494465;0.209686279296875;0.0623999998424551;49;0.170013427734375;100 mA;
200.232452494462;0.210540771484375;0.063699999839173;50;0.170013427734375;100 mA;
200.233752494458;0.21136474609375;0.0649999998358908;51;0.170074462890625;100 mA;
200.235052494455;0.212188720703125;0.0662999998326086;52;0.170074462890625;100 mA;
200.236352494452;0.212982177734375;0.0675999998293264;53;0.170074462890625;100 mA;
200.237652494449;0.21380615234375;0.0688999998260442;54;0.1700439453125;100 mA;
200.238952494445;0.214630126953125;0.070199999822762;55;0.1700439453125;100 mA;
200.240252494442;0.215423583984375;0.0714999998194799;56;0.1700439453125;100 mA;
200.241552494439;0.216217041015625;0.0727999998161977;57;0.170074462890625;100 mA;
200.242852494435;0.21697998046875;0.0740999998129155;58;0.1700439453125;100 mA;
200.244152494432;0.217742919921875;0.0753999998096333;59;0.170013427734375;100 mA;
200.245452494429;0.218475341796875;0.0766999998063511;60;0.1700439453125;100 mA;
200.246752494426;0.21923828125;0.0779999998030689;61;0.170074462890625;100 mA;
200.248052494422;0.21990966796875;0.0792999997997867;62;0.170074462890625;100 mA;
200.249352494419;0.220611572265625;0.0805999997965046;63;0.170013427734375;100 mA;
200.250652494416;0.221343994140625;0.0818999997932224;64;0.1700439453125;100 mA;
200.251952494412;0.222076416015625;0.0831999997899402;65;0.170074462890625;100 mA;
200.253252494409;0.22271728515625;0.084499999786658;66;0.170013427734375;100 mA;
200.254552494406;0.223388671875;0.0857999997833758;67;0.17010498046875;100 mA;
200.255852494403;0.22412109375;0.0870999997800936;68;0.1700439453125;100 mA;
200.257152494399;0.22479248046875;0.0883999997768115;69;0.1700439453125;100 mA;
200.258452494396;0.2254638671875;0.0896999997735293;70;0.16998291015625;100 mA;
200.259752494393;0.226104736328125;0.0909999997702471;71;0.1700439453125;100 mA;
200.261052494389;0.226776123046875;0.0922999997669649;72;0.170074462890625;100 mA;
200.262352494386;0.2274169921875;0.0935999997636827;73;0.170074462890625;100 mA;
200.263652494383;0.22802734375;0.0948999997604005;74;0.170013427734375;100 mA;
200.26495249438;0.228668212890625;0.0961999997571183;75;0.1700439453125;100 mA;
200.266252494376;0.229278564453125;0.0974999997538362;76;0.170074462890625;100 mA;
200.267552494373;0.229888916015625;0.098799999750554;77;0.1700439453125;100 mA;
200.26885249437;0.230499267578125;0.100099999747272;78;0.16998291015625;100 mA;
200.270152494366;0.231109619140625;0.10139999974399;79;0.170074462890625;100 mA;
200.271452494363;0.231719970703125;0.102699999740707;80;0.1700439453125;100 mA;
200.27275249436;0.2322998046875;0.103999999737425;81;0.17010498046875;100 mA;
200.274052494357;0.232940673828125;0.105299999734143;82;0.170074462890625;100 mA;
200.275352494353;0.233489990234375;0.106599999730861;83;0.170074462890625;100 mA;
200.27665249435;0.23406982421875;0.107899999727579;84;0.1700439453125;100 mA;
200.277952494347;0.23468017578125;0.109199999724297;85;0.1700439453125;100 mA;
200.279252494343;0.2352294921875;0.110499999721014;86;0.1700439453125;100 mA;
200.28055249434;0.23577880859375;0.111799999717732;87;0.1700439453125;100 mA;
200.281852494337;0.236328125;0.11309999971445;88;0.1700439453125;100 mA;
200.283152494334;0.23687744140625;0.114399999711168;89;0.1700439453125;100 mA;
200.28445249433;0.2374267578125;0.115699999707886;90;0.1700439453125;100 mA;
200.285752494327;0.238006591796875;0.116999999704603;91;0.170074462890625;100 mA;
200.287052494324;0.238525390625;0.118299999701321;92;0.1700439453125;100 mA;
200.288352494321;0.23907470703125;0.119599999698039;93;0.1700439453125;100 mA;
200.289652494317;0.2396240234375;0.120899999694757;94;0.170074462890625;100 mA;
200.290952494314;0.240142822265625;0.122199999691475;95;0.16998291015625;100 mA;
200.292252494311;0.24072265625;0.123499999688192;96;0.1700439453125;100 mA;
200.293552494307;0.2412109375;0.12479999968491;97;0.170074462890625;100 mA;
200.294852494304;0.241790771484375;0.126099999681628;98;0.1700439453125;100 mA;
200.296152494301;0.242279052734375;0.127399999678346;99;0.170013427734375;100 mA;
200.297452494298;0.2427978515625;0.128699999675064;100;0.1700439453125;100 mA;
200.298752494294;0.243316650390625;0.129999999671782;101;0.170013427734375;100 mA;
200.300052494291;0.2437744140625;0.131299999668499;102;0.1700439453125;100 mA;
200.301352494288;0.244293212890625;0.132599999665217;103;0.170013427734375;100 mA;
200.302652494284;0.24481201171875;0.133899999661935;104;0.170013427734375;100 mA;
200.303952494281;0.24530029296875;0.135199999658653;105;0.170074462890625;100 mA;
200.305252494278;0.245819091796875;0.136499999655371;106;0.170074462890625;100 mA;
200.306552494275;0.246337890625;0.137799999652088;107;0.170074462890625;100 mA;
200.307852494271;0.246826171875;0.139099999648806;108;0.1700439453125;100 mA;
200.309152494268;0.247314453125;0.140399999645524;109;0.1700439453125;100 mA;
200.310452494265;0.247833251953125;0.141699999642242;110;0.1700439453125;100 mA;
200.311752494261;0.248321533203125;0.14299999963896;111;0.1700439453125;100 mA;
200.313052494258;0.248809814453125;0.144299999635678;112;0.1700439453125;100 mA;
200.314352494255;0.249237060546875;0.145599999632395;113;0.1700439453125;100 mA;
200.315652494252;0.249725341796875;0.146899999629113;114;0.170013427734375;100 mA;
200.316952494248;0.250213623046875;0.148199999625831;115;0.1700439453125;100 mA;
200.318252494245;0.25067138671875;0.149499999622549;116;0.170013427734375;100 mA;
200.319552494242;0.251129150390625;0.150799999619267;117;0.17010498046875;100 mA;
200.320852494238;0.251617431640625;0.152099999615984;118;0.1700439453125;100 mA;
200.322152494235;0.252105712890625;0.153399999612702;119;0.17010498046875;100 mA;
200.323452494232;0.252593994140625;0.15469999960942;120;0.170013427734375;100 mA;
200.324752494229;0.2530517578125;0.155999999606138;121;0.1700439453125;100 mA;
200.326052494225;0.253509521484375;0.157299999602856;122;0.17010498046875;100 mA;
200.327352494222;0.253997802734375;0.158599999599573;123;0.170074462890625;100 mA;
200.328652494219;0.254486083984375;0.159899999596291;124;0.170013427734375;100 mA;
200.329952494215;0.254913330078125;0.161199999593009;125;0.170013427734375;100 mA;
200.331252494212;0.25537109375;0.162499999589727;126;0.170074462890625;100 mA;
200.332552494209;0.25579833984375;0.163799999586445;127;0.16998291015625;100 mA;
200.333852494206;0.256256103515625;0.165099999583163;128;0.170074462890625;100 mA;
200.335152494202;0.2567138671875;0.16639999957988;129;0.1700439453125;100 mA;
200.336452494199;0.257110595703125;0.167699999576598;130;0.1700439453125;100 mA;
200.337752494196;0.257568359375;0.168999999573316;131;0.1700439453125;100 mA;
200.339052494193;0.258056640625;0.170299999570034;132;0.170074462890625;100 mA;
200.340352494189;0.25848388671875;0.171599999566752;133;0.170074462890625;100 mA;
200.341652494186;0.258941650390625;0.172899999563469;134;0.170013427734375;100 mA;
200.342952494183;0.259368896484375;0.174199999560187;135;0.1700439453125;100 mA;
200.344252494179;0.25982666015625;0.175499999556905;136;0.170013427734375;100 mA;
200.345552494176;0.26025390625;0.176799999553623;137;0.170074462890625;100 mA;
200.346852494173;0.26068115234375;0.178099999550341;138;0.1700439453125;100 mA;
200.34815249417;0.2611083984375;0.179399999547059;139;0.170074462890625;100 mA;
200.349452494166;0.26153564453125;0.180699999543776;140;0.170074462890625;100 mA;
200.350752494163;0.261962890625;0.181999999540494;141;0.1700439453125;100 mA;
200.35205249416;0.262359619140625;0.183299999537212;142;0.1700439453125;100 mA;
200.353352494156;0.262786865234375;0.18459999953393;143;0.1700439453125;100 mA;
200.354652494153;0.263214111328125;0.185899999530648;144;0.1700439453125;100 mA;
200.35595249415;0.263671875;0.187199999527365;145;0.1700439453125;100 mA;
200.357252494147;0.26409912109375;0.188499999524083;146;0.170074462890625;100 mA;
200.358552494143;0.2645263671875;0.189799999520801;147;0.1700439453125;100 mA;
200.35985249414;0.26495361328125;0.191099999517519;148;0.1700439453125;100 mA;
200.361152494137;0.265350341796875;0.192399999514237;149;0.170013427734375;100 mA;
200.362452494133;0.265777587890625;0.193699999510955;150;0.1700439453125;100 mA;
200.36375249413;0.266143798828125;0.194999999507672;151;0.170074462890625;100 mA;
200.365052494127;0.26654052734375;0.19629999950439;152;0.170074462890625;100 mA;
200.366352494124;0.266937255859375;0.197599999501108;153;0.170074462890625;100 mA;
200.36765249412;0.267333984375;0.198899999497826;154;0.170013427734375;100 mA;
200.368952494117;0.26776123046875;0.200199999494544;155;0.170013427734375;100 mA;
200.370252494114;0.26812744140625;0.201499999491261;156;0.1700439453125;100 mA;
200.37155249411;0.268524169921875;0.202799999487979;157;0.17010498046875;100 mA;
200.372852494107;0.268951416015625;0.204099999484697;158;0.170074462890625;100 mA;
200.374152494104;0.269378662109375;0.205399999481415;159;0.1700439453125;100 mA;
200.375452494101;0.269775390625;0.206699999478133;160;0.170074462890625;100 mA;
200.376752494097;0.270172119140625;0.20799999947485;161;0.170013427734375;100 mA;
200.378052494094;0.27056884765625;0.209299999471568;162;0.1700439453125;100 mA;
200.379352494091;0.27093505859375;0.210599999468286;163;0.1700439453125;100 mA;
200.380652494087;0.271331787109375;0.211899999465004;164;0.1700439453125;100 mA;
200.381952494084;0.271697998046875;0.213199999461722;165;0.17010498046875;100 mA;
200.383252494081;0.2720947265625;0.21449999945844;166;0.170074462890625;100 mA;
200.384552494078;0.272491455078125;0.215799999455157;167;0.170074462890625;100 mA;
200.385852494074;0.272857666015625;0.217099999451875;168;0.170013427734375;100 mA;
200.387152494071;0.273223876953125;0.218399999448593;169;0.170074462890625;100 mA;
200.388452494068;0.273590087890625;0.219699999445311;170;0.1700439453125;100 mA;
200.389752494065;0.27398681640625;0.220999999442029;171;0.17010498046875;100 mA;
200.391052494061;0.274383544921875;0.222299999438746;172;0.16998291015625;100 mA;
200.392352494058;0.274749755859375;0.223599999435464;173;0.1700439453125;100 mA;
200.393652494055;0.275146484375;0.224899999432182;174;0.1700439453125;100 mA;
200.394952494051;0.2755126953125;0.2261999994289;175;0.1700439453125;100 mA;
200.396252494048;0.27587890625;0.227499999425618;176;0.170074462890625;100 mA;
200.397552494045;0.2762451171875;0.228799999422336;177;0.1700439453125;100 mA;
200.398852494042;0.276611328125;0.230099999419053;178;0.170074462890625;100 mA;
200.400152494038;0.2769775390625;0.231399999415771;179;0.1700439453125;100 mA;
200.401452494035;0.27734375;0.232699999412489;180;0.1700439453125;100 mA;
200.402752494032;0.277679443359375;0.233999999409207;181;0.170074462890625;100 mA;
200.404052494028;0.278045654296875;0.235299999405925;182;0.170074462890625;100 mA;
200.405352494025;0.278411865234375;0.236599999402642;183;0.1700439453125;100 mA;
200.406652494022;0.278778076171875;0.23789999939936;184;0.1700439453125;100 mA;
200.407952494019;0.279144287109375;0.239199999396078;185;0.17010498046875;100 mA;
200.409252494015;0.279510498046875;0.240499999392796;186;0.1700439453125;100 mA;
200.410552494012;0.279876708984375;0.241799999389514;187;0.17010498046875;100 mA;
200.411852494009;0.280242919921875;0.243099999386232;188;0.170013427734375;100 mA;
200.413152494005;0.28057861328125;0.244399999382949;189;0.1700439453125;100 mA;
200.414452494002;0.2808837890625;0.245699999379667;190;0.17010498046875;100 mA;
200.415752493999;0.28125;0.246999999376385;191;0.170013427734375;100 mA;
200.417052493996;0.2816162109375;0.248299999373103;192;0.170013427734375;100 mA;
200.418352493992;0.281982421875;0.249599999369821;193;0.1700439453125;100 mA;
200.419652493989;0.28228759765625;0.250899999366538;194;0.16998291015625;100 mA;
200.420952493986;0.282623291015625;0.252199999363256;195;0.170074462890625;100 mA;
200.422252493982;0.282989501953125;0.253499999359974;196;0.1700439453125;100 mA;
200.423552493979;0.283355712890625;0.254799999356692;197;0.1700439453125;100 mA;
200.424852493976;0.283721923828125;0.25609999935341;198;0.170074462890625;100 mA;
200.426152493973;0.2840576171875;0.257399999350127;199;0.1700439453125;100 mA;
200.427452493969;0.284393310546875;0.258699999346845;200;0.170074462890625;100 mA;
200.428752493966;0.28472900390625;0.259999999343563;201;0.170074462890625;100 mA;
200.430052493963;0.28509521484375;0.261299999340281;202;0.16998291015625;100 mA;
200.431352493959;0.285400390625;0.262599999336999;203;0.170074462890625;100 mA;
200.432652493956;0.285736083984375;0.263899999333717;204;0.170074462890625;100 mA;
200.433952493953;0.286041259765625;0.265199999330434;205;0.1700439453125;100 mA;
200.43525249395;0.286376953125;0.266499999327152;206;0.170013427734375;100 mA;
200.436552493946;0.2867431640625;0.26779999932387;207;0.170013427734375;100 mA;
200.437852493943;0.28704833984375;0.269099999320588;208;0.170074462890625;100 mA;
200.43915249394;0.28741455078125;0.270399999317306;209;0.1700439453125;100 mA;
200.440452493937;0.287750244140625;0.271699999314023;210;0.170013427734375;100 mA;
200.441752493933;0.2880859375;0.272999999310741;211;0.1700439453125;100 mA;
200.44305249393;0.28839111328125;0.274299999307459;212;0.1700439453125;100 mA;
200.444352493927;0.28875732421875;0.275599999304177;213;0.170074462890625;100 mA;
200.445652493923;0.289093017578125;0.276899999300895;214;0.1700439453125;100 mA;
200.44695249392;0.289398193359375;0.278199999297613;215;0.170074462890625;100 mA;
200.448252493917;0.28973388671875;0.27949999929433;216;0.170013427734375;100 mA;
200.449552493914;0.290069580078125;0.280799999291048;217;0.170013427734375;100 mA;
200.45085249391;0.290374755859375;0.282099999287766;218;0.170013427734375;100 mA;
200.452152493907;0.290679931640625;0.283399999284484;219;0.170013427734375;100 mA;
200.453452493904;0.290985107421875;0.284699999281202;220;0.170074462890625;100 mA;
200.4547524939;0.29132080078125;0.285999999277919;221;0.1700439453125;100 mA;
200.456052493897;0.291656494140625;0.287299999274637;222;0.1700439453125;100 mA;
200.457352493894;0.2919921875;0.288599999271355;223;0.1700439453125;100 mA;
200.458652493891;0.292327880859375;0.289899999268073;224;0.170013427734375;100 mA;
200.459952493887;0.292633056640625;0.291199999264791;225;0.1700439453125;100 mA;
200.461252493884;0.29296875;0.292499999261508;226;0.1700439453125;100 mA;
200.462552493881;0.29327392578125;0.293799999258226;227;0.1700439453125;100 mA;
200.463852493877;0.293609619140625;0.295099999254944;228;0.170074462890625;100 mA;
200.465152493874;0.293914794921875;0.296399999251662;229;0.1700439453125;100 mA;
200.466452493871;0.294219970703125;0.29769999924838;230;0.1700439453125;100 mA;
200.467752493868;0.2945556640625;0.298999999245098;231;0.170013427734375;100 mA;
200.469052493864;0.294830322265625;0.300299999241815;232;0.1700439453125;100 mA;
200.470352493861;0.295166015625;0.301599999238533;233;0.17010498046875;100 mA;
200.471652493858;0.29547119140625;0.302899999235251;234;0.170013427734375;100 mA;
200.472952493854;0.29583740234375;0.304199999231969;235;0.170074462890625;100 mA;
200.474252493851;0.296112060546875;0.305499999228687;236;0.170013427734375;100 mA;
200.475552493848;0.29644775390625;0.306799999225404;237;0.1700439453125;100 mA;
200.476852493845;0.296783447265625;0.308099999222122;238;0.170013427734375;100 mA;
200.478152493841;0.297088623046875;0.30939999921884;239;0.170013427734375;100 mA;
200.479452493838;0.297393798828125;0.310699999215558;240;0.170013427734375;100 mA;
200.480752493835;0.297698974609375;0.311999999212276;241;0.170013427734375;100 mA;
200.482052493831;0.298004150390625;0.313299999208994;242;0.1700439453125;100 mA;
200.483352493828;0.298309326171875;0.314599999205711;243;0.170074462890625;100 mA;
200.484652493825;0.298614501953125;0.315899999202429;244;0.170013427734375;100 mA;
200.485952493822;0.298919677734375;0.317199999199147;245;0.170074462890625;100 mA;
200.487252493818;0.2991943359375;0.318499999195865;246;0.1700439453125;100 mA;
200.488552493815;0.299530029296875;0.319799999192583;247;0.170074462890625;100 mA;
200.489852493812;0.29986572265625;0.3210999991893;248;0.170074462890625;100 mA;
200.491152493808;0.3001708984375;0.322399999186018;249;0.1700439453125;100 mA;
200.492452493805;0.30047607421875;0.323699999182736;250;0.1700439453125;100 mA;
200.493752493802;0.30078125;0.324999999179454;251;0.1700439453125;100 mA;
200.495052493799;0.301116943359375;0.326299999176172;252;0.17010498046875;100 mA;
200.496352493795;0.301422119140625;0.32759999917289;253;0.1700439453125;100 mA;
200.497652493792;0.301727294921875;0.328899999169607;254;0.169952392578125;100 mA;
200.498952493789;0.302001953125;0.330199999166325;255;0.1700439453125;100 mA;
200.500252493786;0.30230712890625;0.331499999163043;256;0.1700439453125;100 mA;
200.501552493782;0.3026123046875;0.332799999159761;257;0.17010498046875;100 mA;
200.502852493779;0.30291748046875;0.334099999156479;258;0.170074462890625;100 mA;
200.504152493776;0.303192138671875;0.335399999153196;259;0.170013427734375;100 mA;
200.505452493772;0.30352783203125;0.336699999149914;260;0.170013427734375;100 mA;
200.506752493769;0.3038330078125;0.337999999146632;261;0.1700439453125;100 mA;
200.508052493766;0.304168701171875;0.33929999914335;262;0.1700439453125;100 mA;
200.509352493763;0.304473876953125;0.340599999140068;263;0.1700439453125;100 mA;
200.510652493759;0.30474853515625;0.341899999136785;264;0.170013427734375;100 mA;
200.511952493756;0.305084228515625;0.343199999133503;265;0.1700439453125;100 mA;
200.513252493753;0.30535888671875;0.344499999130221;266;0.16998291015625;100 mA;
200.514552493749;0.3056640625;0.345799999126939;267;0.1700439453125;100 mA;
200.515852493746;0.305938720703125;0.347099999123657;268;0.17010498046875;100 mA;
200.517152493743;0.306243896484375;0.348399999120375;269;0.170074462890625;100 mA;
200.51845249374;0.306549072265625;0.349699999117092;270;0.170074462890625;100 mA;
200.519752493736;0.30682373046875;0.35099999911381;271;0.170074462890625;100 mA;
200.521052493733;0.30712890625;0.352299999110528;272;0.170074462890625;100 mA;
200.52235249373;0.307464599609375;0.353599999107246;273;0.170013427734375;100 mA;
200.523652493726;0.3077392578125;0.354899999103964;274;0.170074462890625;100 mA;
200.524952493723;0.308074951171875;0.356199999100681;275;0.16998291015625;100 mA;
200.52625249372;0.308380126953125;0.357499999097399;276;0.1700439453125;100 mA;
200.527552493717;0.30865478515625;0.358799999094117;277;0.170013427734375;100 mA;
200.528852493713;0.3089599609375;0.360099999090835;278;0.170074462890625;100 mA;
200.53015249371;0.30926513671875;0.361399999087553;279;0.1700439453125;100 mA;
200.531452493707;0.309539794921875;0.362699999084271;280;0.170013427734375;100 mA;
200.532752493703;0.309844970703125;0.363999999080988;281;0.1700439453125;100 mA;
200.5340524937;0.31011962890625;0.365299999077706;282;0.1700439453125;100 mA;
200.535352493697;0.3104248046875;0.366599999074424;283;0.170013427734375;100 mA;
200.536652493694;0.310699462890625;0.367899999071142;284;0.170074462890625;100 mA;
200.53795249369;0.31103515625;0.36919999906786;285;0.170013427734375;100 mA;
200.539252493687;0.311309814453125;0.370499999064577;286;0.170013427734375;100 mA;
200.540552493684;0.311614990234375;0.371799999061295;287;0.170074462890625;100 mA;
200.54185249368;0.31195068359375;0.373099999058013;288;0.1700439453125;100 mA;
200.543152493677;0.312225341796875;0.374399999054731;289;0.16998291015625;100 mA;
200.544452493674;0.31256103515625;0.375699999051449;290;0.170013427734375;100 mA;
200.545752493671;0.312835693359375;0.376999999048167;291;0.1700439453125;100 mA;
200.547052493667;0.313140869140625;0.378299999044884;292;0.17010498046875;100 mA;
200.548352493664;0.31341552734375;0.379599999041602;293;0.170013427734375;100 mA;
200.549652493661;0.313690185546875;0.38089999903832;294;0.1700439453125;100 mA;
200.550952493658;0.313995361328125;0.382199999035038;295;0.1700439453125;100 mA;
200.552252493654;0.31427001953125;0.383499999031756;296;0.1700439453125;100 mA;
200.553552493651;0.3145751953125;0.384799999028473;297;0.17010498046875;100 mA;
200.554852493648;0.314849853515625;0.386099999025191;298;0.170013427734375;100 mA;
200.556152493644;0.315185546875;0.387399999021909;299;0.170013427734375;100 mA;
200.557452493641;0.315460205078125;0.388699999018627;300;0.170013427734375;100 mA;
200.558752493638;0.3157958984375;0.389999999015345;301;0.1700439453125;100 mA;
200.560052493635;0.316070556640625;0.391299999012062;302;0.1700439453125;100 mA;
200.561352493631;0.31640625;0.39259999900878;303;0.170074462890625;100 mA;
200.562652493628;0.316680908203125;0.393899999005498;304;0.170013427734375;100 mA;
200.563952493625;0.31695556640625;0.395199999002216;305;0.170074462890625;100 mA;
200.565252493621;0.3172607421875;0.396499998998934;306;0.170074462890625;100 mA;
200.566552493618;0.3175048828125;0.397799998995652;307;0.1700439453125;100 mA;
200.567852493615;0.31781005859375;0.399099998992369;308;0.170013427734375;100 mA;
200.569152493612;0.318115234375;0.400399998989087;309;0.17010498046875;100 mA;
200.570452493608;0.318389892578125;0.401699998985805;310;0.1700439453125;100 mA;
200.571752493605;0.31866455078125;0.402999998982523;311;0.1700439453125;100 mA;
200.573052493602;0.319000244140625;0.404299998979241;312;0.1700439453125;100 mA;
200.574352493598;0.319305419921875;0.405599998975958;313;0.16998291015625;100 mA;
200.575652493595;0.319580078125;0.406899998972676;314;0.170013427734375;100 mA;
200.576952493592;0.31988525390625;0.408199998969394;315;0.170074462890625;100 mA;
200.578252493589;0.3201904296875;0.409499998966112;316;0.1700439453125;100 mA;
200.579552493585;0.320465087890625;0.41079999896283;317;0.170074462890625;100 mA;
200.580852493582;0.320770263671875;0.412099998959548;318;0.170013427734375;100 mA;
200.582152493579;0.321044921875;0.413399998956265;319;0.170013427734375;100 mA;
200.583452493575;0.321319580078125;0.414699998952983;320;0.170074462890625;100 mA;
200.584752493572;0.321624755859375;0.415999998949701;321;0.170074462890625;100 mA;
200.586052493569;0.321929931640625;0.417299998946419;322;0.170074462890625;100 mA;
200.587352493566;0.32220458984375;0.418599998943137;323;0.1700439453125;100 mA;
200.588652493562;0.322509765625;0.419899998939854;324;0.170013427734375;100 mA;
200.589952493559;0.32281494140625;0.421199998936572;325;0.170013427734375;100 mA;
200.591252493556;0.3231201171875;0.42249999893329;326;0.170013427734375;100 mA;
200.592552493552;0.323394775390625;0.423799998930008;327;0.170013427734375;100 mA;
200.593852493549;0.323699951171875;0.425099998926726;328;0.170074462890625;100 mA;
200.595152493546;0.324005126953125;0.426399998923443;329;0.170013427734375;100 mA;
200.596452493543;0.32427978515625;0.427699998920161;330;0.1700439453125;100 mA;
200.597752493539;0.3245849609375;0.428999998916879;331;0.1700439453125;100 mA;
200.599052493536;0.3248291015625;0.430299998913597;332;0.1700439453125;100 mA;
200.600352493533;0.32513427734375;0.431599998910315;333;0.1700439453125;100 mA;
200.60165249353;0.325408935546875;0.432899998907033;334;0.170074462890625;100 mA;
200.602952493526;0.32574462890625;0.43419999890375;335;0.170013427734375;100 mA;
200.604252493523;0.326019287109375;0.435499998900468;336;0.170074462890625;100 mA;
200.60555249352;0.3262939453125;0.436799998897186;337;0.170074462890625;100 mA;
200.606852493516;0.32659912109375;0.438099998893904;338;0.1700439453125;100 mA;
200.608152493513;0.32696533203125;0.439399998890622;339;0.1700439453125;100 mA;
200.60945249351;0.32720947265625;0.440699998887339;340;0.170013427734375;100 mA;
200.610752493507;0.3275146484375;0.441999998884057;341;0.17010498046875;100 mA;
200.612052493503;0.32781982421875;0.443299998880775;342;0.170074462890625;100 mA;
200.6133524935;0.328125;0.444599998877493;343;0.170074462890625;100 mA;
200.614652493497;0.328399658203125;0.445899998874211;344;0.1700439453125;100 mA;
200.615952493493;0.328643798828125;0.447199998870929;345;0.1700439453125;100 mA;
200.61725249349;0.328948974609375;0.448499998867646;346;0.170013427734375;100 mA;
200.618552493487;0.3292236328125;0.449799998864364;347;0.170074462890625;100 mA;
200.619852493484;0.32952880859375;0.451099998861082;348;0.170074462890625;100 mA;
200.62115249348;0.329803466796875;0.4523999988578;349;0.1700439453125;100 mA;
200.622452493477;0.330108642578125;0.453699998854518;350;0.170013427734375;100 mA;
200.623752493474;0.3304443359375;0.454999998851235;351;0.1700439453125;100 mA;
200.62505249347;0.330718994140625;0.456299998847953;352;0.1700439453125;100 mA;
200.626352493467;0.331024169921875;0.457599998844671;353;0.170013427734375;100 mA;
200.627652493464;0.331298828125;0.458899998841389;354;0.170013427734375;100 mA;
200.628952493461;0.331634521484375;0.460199998838107;355;0.1700439453125;100 mA;
200.630252493457;0.3319091796875;0.461499998834825;356;0.16998291015625;100 mA;
200.631552493454;0.332183837890625;0.462799998831542;357;0.170074462890625;100 mA;
200.632852493451;0.332489013671875;0.46409999882826;358;0.170013427734375;100 mA;
200.634152493447;0.332763671875;0.465399998824978;359;0.170013427734375;100 mA;
200.635452493444;0.333038330078125;0.466699998821696;360;0.1700439453125;100 mA;
200.636752493441;0.333343505859375;0.467999998818414;361;0.170013427734375;100 mA;
200.638052493438;0.333648681640625;0.469299998815131;362;0.1700439453125;100 mA;
200.639352493434;0.333953857421875;0.470599998811849;363;0.1700439453125;100 mA;
200.640652493431;0.334259033203125;0.471899998808567;364;0.170074462890625;100 mA;
200.641952493428;0.334564208984375;0.473199998805285;365;0.1700439453125;100 mA;
200.643252493424;0.334869384765625;0.474499998802003;366;0.1700439453125;100 mA;
200.644552493421;0.335174560546875;0.47579999879872;367;0.1700439453125;100 mA;
200.645852493418;0.33544921875;0.477099998795438;368;0.1700439453125;100 mA;
200.647152493415;0.33575439453125;0.478399998792156;369;0.170074462890625;100 mA;
200.648452493411;0.336029052734375;0.479699998788874;370;0.1700439453125;100 mA;
200.649752493408;0.3363037109375;0.480999998785592;371;0.1700439453125;100 mA;
200.651052493405;0.33660888671875;0.48229999878231;372;0.1700439453125;100 mA;
200.652352493402;0.336883544921875;0.483599998779027;373;0.170013427734375;100 mA;
200.653652493398;0.337188720703125;0.484899998775745;374;0.170013427734375;100 mA;
200.654952493395;0.337493896484375;0.486199998772463;375;0.170074462890625;100 mA;
200.656252493392;0.337799072265625;0.487499998769181;376;0.1700439453125;100 mA;
200.657552493388;0.338134765625;0.488799998765899;377;0.1700439453125;100 mA;
200.658852493385;0.338409423828125;0.490099998762616;378;0.1700439453125;100 mA;
200.660152493382;0.338714599609375;0.491399998759334;379;0.170074462890625;100 mA;
200.661452493379;0.339019775390625;0.492699998756052;380;0.170074462890625;100 mA;
200.662752493375;0.339324951171875;0.49399999875277;381;0.170074462890625;100 mA;
200.664052493372;0.339630126953125;0.495299998749488;382;0.1700439453125;100 mA;
200.665352493369;0.33990478515625;0.496599998746206;383;0.1700439453125;100 mA;
200.666652493365;0.340179443359375;0.497899998742923;384;0.170013427734375;100 mA;
200.667952493362;0.34051513671875;0.499199998739641;385;0.1700439453125;100 mA;
200.669252493359;0.340789794921875;0.500499998736359;386;0.170013427734375;100 mA;
200.670552493356;0.341094970703125;0.501799998733077;387;0.170013427734375;100 mA;
200.671852493352;0.34136962890625;0.503099998729795;388;0.170013427734375;100 mA;
200.673152493349;0.341705322265625;0.504399998726512;389;0.170074462890625;100 mA;
200.674452493346;0.342010498046875;0.50569999872323;390;0.170074462890625;100 mA;
200.675752493342;0.342315673828125;0.506999998719948;391;0.16998291015625;100 mA;
200.677052493339;0.342620849609375;0.508299998716666;392;0.170013427734375;100 mA;
200.678352493336;0.342926025390625;0.509599998713384;393;0.170074462890625;100 mA;
200.679652493333;0.343231201171875;0.510899998710101;394;0.170013427734375;100 mA;
200.680952493329;0.343505859375;0.512199998706819;395;0.1700439453125;100 mA;
200.682252493326;0.34381103515625;0.513499998703537;396;0.1700439453125;100 mA;
200.683552493323;0.344085693359375;0.514799998700255;397;0.170074462890625;100 mA;
200.684852493319;0.344390869140625;0.516099998696973;398;0.1700439453125;100 mA;
200.686152493316;0.344696044921875;0.517399998693691;399;0.170074462890625;100 mA;
200.687452493313;0.345001220703125;0.518699998690408;400;0.170074462890625;100 mA;
200.68875249331;0.345306396484375;0.519999998687126;401;0.1700439453125;100 mA;
200.690052493306;0.34564208984375;0.521299998683844;402;0.170074462890625;100 mA;
200.691352493303;0.345947265625;0.522599998680562;403;0.1700439453125;100 mA;
200.6926524933;0.34625244140625;0.52389999867728;404;0.1700439453125;100 mA;
200.693952493296;0.3465576171875;0.525199998673997;405;0.170013427734375;100 mA;
200.695252493293;0.34686279296875;0.526499998670715;406;0.170013427734375;100 mA;
200.69655249329;0.347198486328125;0.527799998667433;407;0.170074462890625;100 mA;
200.697852493287;0.347442626953125;0.529099998664151;408;0.1700439453125;100 mA;
200.699152493283;0.3477783203125;0.530399998660869;409;0.170074462890625;100 mA;
200.70045249328;0.348052978515625;0.531699998657587;410;0.1700439453125;100 mA;
200.701752493277;0.348358154296875;0.532999998654304;411;0.170074462890625;100 mA;
200.703052493274;0.348663330078125;0.534299998651022;412;0.1700439453125;100 mA;
200.70435249327;0.348968505859375;0.53559999864774;413;0.170074462890625;100 mA;
200.705652493267;0.34930419921875;0.536899998644458;414;0.170013427734375;100 mA;
200.706952493264;0.349609375;0.538199998641176;415;0.1700439453125;100 mA;
200.70825249326;0.34991455078125;0.539499998637893;416;0.1700439453125;100 mA;
200.709552493257;0.3502197265625;0.540799998634611;417;0.170074462890625;100 mA;
200.710852493254;0.350555419921875;0.542099998631329;418;0.170074462890625;100 mA;
200.712152493251;0.35089111328125;0.543399998628047;419;0.1700439453125;100 mA;
200.713452493247;0.3511962890625;0.544699998624765;420;0.1700439453125;100 mA;
200.714752493244;0.351470947265625;0.545999998621483;421;0.170074462890625;100 mA;
200.716052493241;0.351776123046875;0.5472999986182;422;0.170013427734375;100 mA;
200.717352493237;0.352081298828125;0.548599998614918;423;0.1700439453125;100 mA;
200.718652493234;0.35235595703125;0.549899998611636;424;0.17010498046875;100 mA;
200.719952493231;0.352691650390625;0.551199998608354;425;0.1700439453125;100 mA;
200.721252493228;0.352996826171875;0.552499998605072;426;0.1700439453125;100 mA;
200.722552493224;0.35333251953125;0.553799998601789;427;0.170074462890625;100 mA;
200.723852493221;0.353668212890625;0.555099998598507;428;0.1700439453125;100 mA;
200.725152493218;0.353973388671875;0.556399998595225;429;0.1700439453125;100 mA;
200.726452493214;0.354278564453125;0.557699998591943;430;0.170074462890625;100 mA;
200.727752493211;0.354583740234375;0.558999998588661;431;0.170074462890625;100 mA;
200.729052493208;0.35491943359375;0.560299998585378;432;0.1700439453125;100 mA;
200.730352493205;0.355224609375;0.561599998582096;433;0.170013427734375;100 mA;
200.731652493201;0.355499267578125;0.562899998578814;434;0.1700439453125;100 mA;
200.732952493198;0.355865478515625;0.564199998575532;435;0.17010498046875;100 mA;
200.734252493195;0.35614013671875;0.56549999857225;436;0.1700439453125;100 mA;
200.735552493191;0.356475830078125;0.566799998568968;437;0.17010498046875;100 mA;
200.736852493188;0.35675048828125;0.568099998565685;438;0.1700439453125;100 mA;
200.738152493185;0.357086181640625;0.569399998562403;439;0.17010498046875;100 mA;
200.739452493182;0.357421875;0.570699998559121;440;0.170013427734375;100 mA;
200.740752493178;0.357757568359375;0.571999998555839;441;0.1700439453125;100 mA;
200.742052493175;0.35809326171875;0.573299998552557;442;0.1700439453125;100 mA;
200.743352493172;0.358428955078125;0.574599998549274;443;0.1700439453125;100 mA;
200.744652493168;0.3587646484375;0.575899998545992;444;0.170013427734375;100 mA;
200.745952493165;0.35906982421875;0.57719999854271;445;0.1700439453125;100 mA;
200.747252493162;0.359375;0.578499998539428;446;0.1700439453125;100 mA;
200.748552493159;0.35968017578125;0.579799998536146;447;0.170013427734375;100 mA;
200.749852493155;0.359954833984375;0.581099998532864;448;0.1700439453125;100 mA;
200.751152493152;0.360321044921875;0.582399998529581;449;0.170074462890625;100 mA;
200.752452493149;0.360626220703125;0.583699998526299;450;0.17010498046875;100 mA;
200.753752493145;0.360931396484375;0.584999998523017;451;0.170013427734375;100 mA;
200.755052493142;0.36126708984375;0.586299998519735;452;0.1700439453125;100 mA;
200.756352493139;0.36163330078125;0.587599998516453;453;0.170013427734375;100 mA;
200.757652493136;0.3619384765625;0.58889999851317;454;0.170013427734375;100 mA;
200.758952493132;0.3623046875;0.590199998509888;455;0.170074462890625;100 mA;
200.760252493129;0.36260986328125;0.591499998506606;456;0.1700439453125;100 mA;
200.761552493126;0.362945556640625;0.592799998503324;457;0.170074462890625;100 mA;
200.762852493123;0.363311767578125;0.594099998500042;458;0.170074462890625;100 mA;
200.764152493119;0.36358642578125;0.59539999849676;459;0.1700439453125;100 mA;
200.765452493116;0.363922119140625;0.596699998493477;460;0.170013427734375;100 mA;
200.766752493113;0.364227294921875;0.597999998490195;461;0.170074462890625;100 mA;
200.768052493109;0.36456298828125;0.599299998486913;462;0.170074462890625;100 mA;
200.769352493106;0.364898681640625;0.600599998483631;463;0.1700439453125;100 mA;
200.770652493103;0.365203857421875;0.601899998480349;464;0.170013427734375;100 mA;
200.7719524931;0.365570068359375;0.603199998477066;465;0.170074462890625;100 mA;
200.773252493096;0.36590576171875;0.604499998473784;466;0.1700439453125;100 mA;
200.774552493093;0.366241455078125;0.605799998470502;467;0.170013427734375;100 mA;
200.77585249309;0.366607666015625;0.60709999846722;468;0.170074462890625;100 mA;
200.777152493086;0.366912841796875;0.608399998463938;469;0.1700439453125;100 mA;
200.778452493083;0.367279052734375;0.609699998460655;470;0.1700439453125;100 mA;
200.77975249308;0.36761474609375;0.610999998457373;471;0.1700439453125;100 mA;
200.781052493077;0.367919921875;0.612299998454091;472;0.170074462890625;100 mA;
200.782352493073;0.368255615234375;0.613599998450809;473;0.17010498046875;100 mA;
200.78365249307;0.36859130859375;0.614899998447527;474;0.170074462890625;100 mA;
200.784952493067;0.368927001953125;0.616199998444245;475;0.170074462890625;100 mA;
200.786252493063;0.3692626953125;0.617499998440962;476;0.1700439453125;100 mA;
200.78755249306;0.369598388671875;0.61879999843768;477;0.1700439453125;100 mA;
200.788852493057;0.369964599609375;0.620099998434398;478;0.1700439453125;100 mA;
200.790152493054;0.37030029296875;0.621399998431116;479;0.1700439453125;100 mA;
200.79145249305;0.370635986328125;0.622699998427834;480;0.1700439453125;100 mA;
200.792752493047;0.371002197265625;0.623999998424551;481;0.1700439453125;100 mA;
200.794052493044;0.371337890625;0.625299998421269;482;0.170013427734375;100 mA;
200.79535249304;0.3717041015625;0.626599998417987;483;0.170074462890625;100 mA;
200.796652493037;0.372039794921875;0.627899998414705;484;0.1700439453125;100 mA;
200.797952493034;0.372406005859375;0.629199998411423;485;0.170074462890625;100 mA;
200.799252493031;0.372711181640625;0.630499998408141;486;0.1700439453125;100 mA;
200.800552493027;0.373077392578125;0.631799998404858;487;0.1700439453125;100 mA;
200.801852493024;0.3734130859375;0.633099998401576;488;0.170074462890625;100 mA;
200.803152493021;0.373779296875;0.634399998398294;489;0.170074462890625;100 mA;
200.804452493017;0.374114990234375;0.635699998395012;490;0.1700439453125;100 mA;
200.805752493014;0.374481201171875;0.63699999839173;491;0.170074462890625;100 mA;
200.807052493011;0.374847412109375;0.638299998388447;492;0.170013427734375;100 mA;
200.808352493008;0.375152587890625;0.639599998385165;493;0.1700439453125;100 mA;
200.809652493004;0.37554931640625;0.640899998381883;494;0.170013427734375;100 mA;
200.810952493001;0.37591552734375;0.642199998378601;495;0.170074462890625;100 mA;
200.812252492998;0.37628173828125;0.643499998375319;496;0.1700439453125;100 mA;
200.813552492995;0.376617431640625;0.644799998372036;497;0.170074462890625;100 mA;
200.814852492991;0.376953125;0.646099998368754;498;0.1700439453125;100 mA;
200.816152492988;0.377349853515625;0.647399998365472;499;0.170074462890625;100 mA;
200.817452492985;0.377655029296875;0.64869999836219;500;0.170013427734375;100 mA;
200.818752492981;0.3780517578125;0.649999998358908;501;0.170074462890625;100 mA;
200.820052492978;0.378387451171875;0.651299998355626;502;0.1700439453125;100 mA;
200.821352492975;0.3787841796875;0.652599998352343;503;0.170074462890625;100 mA;
200.822652492972;0.379119873046875;0.653899998349061;504;0.170074462890625;100 mA;
200.823952492968;0.379486083984375;0.655199998345779;505;0.1700439453125;100 mA;
200.825252492965;0.379852294921875;0.656499998342497;506;0.1700439453125;100 mA;
200.826552492962;0.380218505859375;0.657799998339215;507;0.170074462890625;100 mA;
200.827852492958;0.380615234375;0.659099998335932;508;0.170013427734375;100 mA;
200.829152492955;0.3809814453125;0.66039999833265;509;0.1700439453125;100 mA;
200.830452492952;0.38134765625;0.661699998329368;510;0.170013427734375;100 mA;
200.831752492949;0.3817138671875;0.662999998326086;511;0.170074462890625;100 mA;
200.833052492945;0.382080078125;0.664299998322804;512;0.1700439453125;100 mA;
200.834352492942;0.3824462890625;0.665599998319522;513;0.170074462890625;100 mA;
200.835652492939;0.3828125;0.666899998316239;514;0.170074462890625;100 mA;
200.836952492935;0.383148193359375;0.668199998312957;515;0.1700439453125;100 mA;
200.838252492932;0.383575439453125;0.669499998309675;516;0.1700439453125;100 mA;
200.839552492929;0.383941650390625;0.670799998306393;517;0.1700439453125;100 mA;
200.840852492926;0.38433837890625;0.672099998303111;518;0.1700439453125;100 mA;
200.842152492922;0.384735107421875;0.673399998299828;519;0.169952392578125;100 mA;
200.843452492919;0.385101318359375;0.674699998296546;520;0.16998291015625;100 mA;
200.844752492916;0.385498046875;0.675999998293264;521;0.170013427734375;100 mA;
200.846052492912;0.3858642578125;0.677299998289982;522;0.17010498046875;100 mA;
200.847352492909;0.386260986328125;0.6785999982867;523;0.170074462890625;100 mA;
200.848652492906;0.3865966796875;0.679899998283418;524;0.17010498046875;100 mA;
200.849952492903;0.38702392578125;0.681199998280135;525;0.1700439453125;100 mA;
200.851252492899;0.38739013671875;0.682499998276853;526;0.170013427734375;100 mA;
200.852552492896;0.387786865234375;0.683799998273571;527;0.1700439453125;100 mA;
200.853852492893;0.388153076171875;0.685099998270289;528;0.1700439453125;100 mA;
200.855152492889;0.3885498046875;0.686399998267007;529;0.1700439453125;100 mA;
200.856452492886;0.38897705078125;0.687699998263724;530;0.170074462890625;100 mA;
200.857752492883;0.389373779296875;0.688999998260442;531;0.1700439453125;100 mA;
200.85905249288;0.3897705078125;0.69029999825716;532;0.1700439453125;100 mA;
200.860352492876;0.390167236328125;0.691599998253878;533;0.170074462890625;100 mA;
200.861652492873;0.39056396484375;0.692899998250596;534;0.170074462890625;100 mA;
200.86295249287;0.390960693359375;0.694199998247313;535;0.170074462890625;100 mA;
200.864252492867;0.391326904296875;0.695499998244031;536;0.170074462890625;100 mA;
200.865552492863;0.3917236328125;0.696799998240749;537;0.170013427734375;100 mA;
200.86685249286;0.392120361328125;0.698099998237467;538;0.1700439453125;100 mA;
200.868152492857;0.392547607421875;0.699399998234185;539;0.170013427734375;100 mA;
200.869452492853;0.392913818359375;0.700699998230903;540;0.170074462890625;100 mA;
200.87075249285;0.393310546875;0.70199999822762;541;0.1700439453125;100 mA;
200.872052492847;0.39373779296875;0.703299998224338;542;0.170135498046875;100 mA;
200.873352492844;0.3941650390625;0.704599998221056;543;0.170074462890625;100 mA;
200.87465249284;0.394561767578125;0.705899998217774;544;0.17010498046875;100 mA;
200.875952492837;0.39501953125;0.707199998214492;545;0.1700439453125;100 mA;
200.877252492834;0.395416259765625;0.708499998211209;546;0.1700439453125;100 mA;
200.87855249283;0.395843505859375;0.709799998207927;547;0.170013427734375;100 mA;
200.879852492827;0.396270751953125;0.711099998204645;548;0.1700439453125;100 mA;
200.881152492824;0.396697998046875;0.712399998201363;549;0.170013427734375;100 mA;
200.882452492821;0.39703369140625;0.713699998198081;550;0.170013427734375;100 mA;
200.883752492817;0.3974609375;0.714999998194799;551;0.170074462890625;100 mA;
200.885052492814;0.397918701171875;0.716299998191516;552;0.170013427734375;100 mA;
200.886352492811;0.3983154296875;0.717599998188234;553;0.170074462890625;100 mA;
200.887652492807;0.39874267578125;0.718899998184952;554;0.170074462890625;100 mA;
200.888952492804;0.399169921875;0.72019999818167;555;0.1700439453125;100 mA;
200.890252492801;0.39959716796875;0.721499998178388;556;0.1700439453125;100 mA;
200.891552492798;0.40008544921875;0.722799998175105;557;0.170013427734375;100 mA;
200.892852492794;0.4005126953125;0.724099998171823;558;0.170013427734375;100 mA;
200.894152492791;0.40093994140625;0.725399998168541;559;0.170074462890625;100 mA;
200.895452492788;0.401397705078125;0.726699998165259;560;0.170013427734375;100 mA;
200.896752492784;0.401824951171875;0.727999998161977;561;0.1700439453125;100 mA;
200.898052492781;0.402252197265625;0.729299998158695;562;0.170074462890625;100 mA;
200.899352492778;0.4027099609375;0.730599998155412;563;0.170074462890625;100 mA;
200.900652492775;0.40313720703125;0.73189999815213;564;0.1700439453125;100 mA;
200.901952492771;0.403564453125;0.733199998148848;565;0.170013427734375;100 mA;
200.903252492768;0.404022216796875;0.734499998145566;566;0.170074462890625;100 mA;
200.904552492765;0.40447998046875;0.735799998142284;567;0.170013427734375;100 mA;
200.905852492761;0.4049072265625;0.737099998139001;568;0.1700439453125;100 mA;
200.907152492758;0.4053955078125;0.738399998135719;569;0.170074462890625;100 mA;
200.908452492755;0.40582275390625;0.739699998132437;570;0.170013427734375;100 mA;
200.909752492752;0.40631103515625;0.740999998129155;571;0.170013427734375;100 mA;
200.911052492748;0.40679931640625;0.742299998125873;572;0.17010498046875;100 mA;
200.912352492745;0.407257080078125;0.74359999812259;573;0.170074462890625;100 mA;
200.913652492742;0.407684326171875;0.744899998119308;574;0.170074462890625;100 mA;
200.914952492739;0.40814208984375;0.746199998116026;575;0.170074462890625;100 mA;
200.916252492735;0.408599853515625;0.747499998112744;576;0.170013427734375;100 mA;
200.917552492732;0.409088134765625;0.748799998109462;577;0.170135498046875;100 mA;
200.918852492729;0.4095458984375;0.75009999810618;578;0.170074462890625;100 mA;
200.920152492725;0.4100341796875;0.751399998102897;579;0.170074462890625;100 mA;
200.921452492722;0.410491943359375;0.752699998099615;580;0.1700439453125;100 mA;
200.922752492719;0.410980224609375;0.753999998096333;581;0.170074462890625;100 mA;
200.924052492716;0.411468505859375;0.755299998093051;582;0.170013427734375;100 mA;
200.925352492712;0.411956787109375;0.756599998089769;583;0.1700439453125;100 mA;
200.926652492709;0.412445068359375;0.757899998086486;584;0.170013427734375;100 mA;
200.927952492706;0.412933349609375;0.759199998083204;585;0.16998291015625;100 mA;
200.929252492702;0.413421630859375;0.760499998079922;586;0.1700439453125;100 mA;
200.930552492699;0.413909912109375;0.76179999807664;587;0.170013427734375;100 mA;
200.931852492696;0.414398193359375;0.763099998073358;588;0.170074462890625;100 mA;
200.933152492693;0.41485595703125;0.764399998070076;589;0.1700439453125;100 mA;
200.934452492689;0.415374755859375;0.765699998066793;590;0.1700439453125;100 mA;
200.935752492686;0.415863037109375;0.766999998063511;591;0.170013427734375;100 mA;
200.937052492683;0.4163818359375;0.768299998060229;592;0.1700439453125;100 mA;
200.938352492679;0.4168701171875;0.769599998056947;593;0.1700439453125;100 mA;
200.939652492676;0.41741943359375;0.770899998053665;594;0.170074462890625;100 mA;
200.940952492673;0.417938232421875;0.772199998050382;595;0.170074462890625;100 mA;
200.94225249267;0.41845703125;0.7734999980471;596;0.17010498046875;100 mA;
200.943552492666;0.4189453125;0.774799998043818;597;0.1700439453125;100 mA;
200.944852492663;0.41949462890625;0.776099998040536;598;0.170074462890625;100 mA;
200.94615249266;0.420013427734375;0.777399998037254;599;0.1700439453125;100 mA;
200.947452492656;0.420562744140625;0.778699998033971;600;0.1700439453125;100 mA;
200.948752492653;0.421051025390625;0.779999998030689;601;0.1700439453125;100 mA;
200.95005249265;0.421600341796875;0.781299998027407;602;0.1700439453125;100 mA;
200.951352492647;0.422088623046875;0.782599998024125;603;0.17010498046875;100 mA;
200.952652492643;0.422637939453125;0.783899998020843;604;0.170074462890625;100 mA;
200.95395249264;0.42315673828125;0.785199998017561;605;0.1700439453125;100 mA;
200.955252492637;0.4237060546875;0.786499998014278;606;0.1700439453125;100 mA;
200.956552492633;0.42425537109375;0.787799998010996;607;0.170074462890625;100 mA;
200.95785249263;0.424835205078125;0.789099998007714;608;0.170013427734375;100 mA;
200.959152492627;0.425384521484375;0.790399998004432;609;0.170074462890625;100 mA;
200.960452492624;0.42596435546875;0.79169999800115;610;0.170074462890625;100 mA;
200.96175249262;0.426544189453125;0.792999997997867;611;0.170074462890625;100 mA;
200.963052492617;0.42706298828125;0.794299997994585;612;0.1700439453125;100 mA;
200.964352492614;0.427642822265625;0.795599997991303;613;0.1700439453125;100 mA;
200.965652492611;0.428192138671875;0.796899997988021;614;0.1700439453125;100 mA;
200.966952492607;0.42877197265625;0.798199997984739;615;0.170074462890625;100 mA;
200.968252492604;0.4293212890625;0.799499997981457;616;0.1700439453125;100 mA;
200.969552492601;0.429901123046875;0.800799997978174;617;0.1700439453125;100 mA;
200.970852492597;0.43048095703125;0.802099997974892;618;0.170013427734375;100 mA;
200.972152492594;0.43109130859375;0.80339999797161;619;0.1700439453125;100 mA;
200.973452492591;0.43170166015625;0.804699997968328;620;0.1700439453125;100 mA;
200.974752492588;0.432281494140625;0.805999997965046;621;0.170074462890625;100 mA;
200.976052492584;0.432891845703125;0.807299997961763;622;0.1700439453125;100 mA;
200.977352492581;0.433502197265625;0.808599997958481;623;0.1700439453125;100 mA;
200.978652492578;0.434112548828125;0.809899997955199;624;0.16998291015625;100 mA;
200.979952492574;0.434722900390625;0.811199997951917;625;0.170074462890625;100 mA;
200.981252492571;0.435333251953125;0.812499997948635;626;0.170074462890625;100 mA;
200.982552492568;0.435943603515625;0.813799997945353;627;0.170013427734375;100 mA;
200.983852492565;0.43658447265625;0.81509999794207;628;0.1700439453125;100 mA;
200.985152492561;0.43719482421875;0.816399997938788;629;0.1700439453125;100 mA;
200.986452492558;0.43780517578125;0.817699997935506;630;0.1700439453125;100 mA;
200.987752492555;0.43841552734375;0.818999997932224;631;0.1700439453125;100 mA;
200.989052492551;0.4390869140625;0.820299997928942;632;0.170074462890625;100 mA;
200.990352492548;0.439727783203125;0.821599997925659;633;0.170074462890625;100 mA;
200.991652492545;0.4404296875;0.822899997922377;634;0.1700439453125;100 mA;
200.992952492542;0.4410400390625;0.824199997919095;635;0.170074462890625;100 mA;
200.994252492538;0.44171142578125;0.825499997915813;636;0.170074462890625;100 mA;
200.995552492535;0.442413330078125;0.826799997912531;637;0.1700439453125;100 mA;
200.996852492532;0.44305419921875;0.828099997909248;638;0.170074462890625;100 mA;
200.998152492528;0.4437255859375;0.829399997905966;639;0.16998291015625;100 mA;
200.999452492525;0.44439697265625;0.830699997902684;640;0.1700439453125;100 mA;
201.000752492522;0.445098876953125;0.831999997899402;641;0.17010498046875;100 mA;
201.002052492519;0.44573974609375;0.83329999789612;642;0.1700439453125;100 mA;
201.003352492515;0.4464111328125;0.834599997892838;643;0.17010498046875;100 mA;
201.004652492512;0.4471435546875;0.835899997889555;644;0.170013427734375;100 mA;
201.005952492509;0.4478759765625;0.837199997886273;645;0.170013427734375;100 mA;
201.007252492505;0.448577880859375;0.838499997882991;646;0.1700439453125;100 mA;
201.008552492502;0.449310302734375;0.839799997879709;647;0.170074462890625;100 mA;
201.009852492499;0.450042724609375;0.841099997876427;648;0.1700439453125;100 mA;
201.011152492496;0.450775146484375;0.842399997873144;649;0.170013427734375;100 mA;
201.012452492492;0.451507568359375;0.843699997869862;650;0.17010498046875;100 mA;
201.013752492489;0.452239990234375;0.84499999786658;651;0.170013427734375;100 mA;
201.015052492486;0.452972412109375;0.846299997863298;652;0.170074462890625;100 mA;
201.016352492482;0.4537353515625;0.847599997860016;653;0.170074462890625;100 mA;
201.017652492479;0.454437255859375;0.848899997856734;654;0.1700439453125;100 mA;
201.018952492476;0.455230712890625;0.850199997853451;655;0.170074462890625;100 mA;
201.020252492473;0.455963134765625;0.851499997850169;656;0.170013427734375;100 mA;
201.021552492469;0.456756591796875;0.852799997846887;657;0.17010498046875;100 mA;
201.022852492466;0.45758056640625;0.854099997843605;658;0.170013427734375;100 mA;
201.024152492463;0.4583740234375;0.855399997840323;659;0.170074462890625;100 mA;
201.02545249246;0.459197998046875;0.85669999783704;660;0.1700439453125;100 mA;
201.026752492456;0.459991455078125;0.857999997833758;661;0.170013427734375;100 mA;
201.028052492453;0.460845947265625;0.859299997830476;662;0.1700439453125;100 mA;
201.02935249245;0.461669921875;0.860599997827194;663;0.170074462890625;100 mA;
201.030652492446;0.462493896484375;0.861899997823912;664;0.1700439453125;100 mA;
201.031952492443;0.463287353515625;0.86319999782063;665;0.1700439453125;100 mA;
201.03325249244;0.464141845703125;0.864499997817347;666;0.170074462890625;100 mA;
201.034552492437;0.464996337890625;0.865799997814065;667;0.1700439453125;100 mA;
201.035852492433;0.46588134765625;0.867099997810783;668;0.170074462890625;100 mA;
201.03715249243;0.466705322265625;0.868399997807501;669;0.170074462890625;100 mA;
201.038452492427;0.467620849609375;0.869699997804219;670;0.1700439453125;100 mA;
201.039752492423;0.468505859375;0.870999997800936;671;0.1700439453125;100 mA;
201.04105249242;0.469451904296875;0.872299997797654;672;0.170074462890625;100 mA;
201.042352492417;0.4703369140625;0.873599997794372;673;0.1700439453125;100 mA;
201.043652492414;0.471282958984375;0.87489999779109;674;0.1700439453125;100 mA;
201.04495249241;0.472198486328125;0.876199997787808;675;0.170013427734375;100 mA;
201.046252492407;0.473175048828125;0.877499997784525;676;0.170074462890625;100 mA;
201.047552492404;0.474090576171875;0.878799997781243;677;0.1700439453125;100 mA;
201.0488524924;0.47503662109375;0.880099997777961;678;0.1700439453125;100 mA;
201.050152492397;0.47601318359375;0.881399997774679;679;0.170013427734375;100 mA;
201.051452492394;0.476959228515625;0.882699997771397;680;0.1700439453125;100 mA;
201.052752492391;0.47796630859375;0.883999997768115;681;0.1700439453125;100 mA;
201.054052492387;0.478973388671875;0.885299997764832;682;0.16998291015625;100 mA;
201.055352492384;0.47998046875;0.88659999776155;683;0.170074462890625;100 mA;
201.056652492381;0.48101806640625;0.887899997758268;684;0.170074462890625;100 mA;
201.057952492377;0.482086181640625;0.889199997754986;685;0.1700439453125;100 mA;
201.059252492374;0.483154296875;0.890499997751704;686;0.170013427734375;100 mA;
201.060552492371;0.48419189453125;0.891799997748421;687;0.170013427734375;100 mA;
201.061852492368;0.48529052734375;0.893099997745139;688;0.17010498046875;100 mA;
201.063152492364;0.486358642578125;0.894399997741857;689;0.1700439453125;100 mA;
201.064452492361;0.487457275390625;0.895699997738575;690;0.1700439453125;100 mA;
201.065752492358;0.48858642578125;0.896999997735293;691;0.170013427734375;100 mA;
201.067052492354;0.48968505859375;0.898299997732011;692;0.1700439453125;100 mA;
201.068352492351;0.4908447265625;0.899599997728728;693;0.170074462890625;100 mA;
201.069652492348;0.49200439453125;0.900899997725446;694;0.1700439453125;100 mA;
201.070952492345;0.4931640625;0.902199997722164;695;0.170013427734375;100 mA;
201.072252492341;0.494384765625;0.903499997718882;696;0.170074462890625;100 mA;
201.073552492338;0.495574951171875;0.9047999977156;697;0.1700439453125;100 mA;
201.074852492335;0.496826171875;0.906099997712317;698;0.170013427734375;100 mA;
201.076152492332;0.49810791015625;0.907399997709035;699;0.1700439453125;100 mA;
201.077452492328;0.49932861328125;0.908699997705753;700;0.170013427734375;100 mA;
201.078752492325;0.500640869140625;0.909999997702471;701;0.170013427734375;100 mA;
201.080052492322;0.501953125;0.911299997699189;702;0.170013427734375;100 mA;
201.081352492318;0.50323486328125;0.912599997695906;703;0.170013427734375;100 mA;
201.082652492315;0.50457763671875;0.913899997692624;704;0.170074462890625;100 mA;
201.083952492312;0.505889892578125;0.915199997689342;705;0.170013427734375;100 mA;
201.085252492309;0.507293701171875;0.91649999768606;706;0.170074462890625;100 mA;
201.086552492305;0.5086669921875;0.917799997682778;707;0.1700439453125;100 mA;
201.087852492302;0.510040283203125;0.919099997679496;708;0.170013427734375;100 mA;
201.089152492299;0.51153564453125;0.920399997676213;709;0.1700439453125;100 mA;
201.090452492295;0.51300048828125;0.921699997672931;710;0.1700439453125;100 mA;
201.091752492292;0.514495849609375;0.922999997669649;711;0.1700439453125;100 mA;
201.093052492289;0.515960693359375;0.924299997666367;712;0.170074462890625;100 mA;
201.094352492286;0.517486572265625;0.925599997663085;713;0.1700439453125;100 mA;
201.095652492282;0.51904296875;0.926899997659802;714;0.170013427734375;100 mA;
201.096952492279;0.520599365234375;0.92819999765652;715;0.170013427734375;100 mA;
201.098252492276;0.522216796875;0.929499997653238;716;0.1700439453125;100 mA;
201.099552492272;0.523773193359375;0.930799997649956;717;0.170074462890625;100 mA;
201.100852492269;0.525421142578125;0.932099997646674;718;0.170013427734375;100 mA;
201.102152492266;0.527099609375;0.933399997643392;719;0.170074462890625;100 mA;
201.103452492263;0.528778076171875;0.934699997640109;720;0.1700439453125;100 mA;
201.104752492259;0.530517578125;0.935999997636827;721;0.1700439453125;100 mA;
201.106052492256;0.532257080078125;0.937299997633545;722;0.170013427734375;100 mA;
201.107352492253;0.5340576171875;0.938599997630263;723;0.1700439453125;100 mA;
201.108652492249;0.535858154296875;0.939899997626981;724;0.1700439453125;100 mA;
201.109952492246;0.53765869140625;0.941199997623698;725;0.170074462890625;100 mA;
201.111252492243;0.53955078125;0.942499997620416;726;0.1700439453125;100 mA;
201.11255249224;0.54144287109375;0.943799997617134;727;0.170074462890625;100 mA;
201.113852492236;0.543365478515625;0.945099997613852;728;0.170074462890625;100 mA;
201.115152492233;0.545318603515625;0.94639999761057;729;0.170074462890625;100 mA;
201.11645249223;0.5472412109375;0.947699997607288;730;0.1700439453125;100 mA;
201.117752492226;0.549224853515625;0.948999997604005;731;0.1700439453125;100 mA;
201.119052492223;0.551239013671875;0.950299997600723;732;0.170013427734375;100 mA;
201.12035249222;0.553314208984375;0.951599997597441;733;0.170074462890625;100 mA;
201.121652492217;0.555419921875;0.952899997594159;734;0.170013427734375;100 mA;
201.122952492213;0.557525634765625;0.954199997590877;735;0.170074462890625;100 mA;
201.12425249221;0.559661865234375;0.955499997587594;736;0.170074462890625;100 mA;
201.125552492207;0.56182861328125;0.956799997584312;737;0.170074462890625;100 mA;
201.126852492204;0.56402587890625;0.95809999758103;738;0.170074462890625;100 mA;
201.1281524922;0.566253662109375;0.959399997577748;739;0.170074462890625;100 mA;
201.129452492197;0.5684814453125;0.960699997574466;740;0.170074462890625;100 mA;
201.130752492194;0.57073974609375;0.961999997571183;741;0.16998291015625;100 mA;
201.13205249219;0.572998046875;0.963299997567901;742;0.170013427734375;100 mA;
201.133352492187;0.57525634765625;0.964599997564619;743;0.1700439453125;100 mA;
201.134652492184;0.577606201171875;0.965899997561337;744;0.1700439453125;100 mA;
201.135952492181;0.579925537109375;0.967199997558055;745;0.170013427734375;100 mA;
201.137252492177;0.582244873046875;0.968499997554773;746;0.1700439453125;100 mA;
201.138552492174;0.5845947265625;0.96979999755149;747;0.1700439453125;100 mA;
201.139852492171;0.587005615234375;0.971099997548208;748;0.1700439453125;100 mA;
201.141152492167;0.58941650390625;0.972399997544926;749;0.1700439453125;100 mA;
201.142452492164;0.591796875;0.973699997541644;750;0.1700439453125;100 mA;
201.143752492161;0.59417724609375;0.974999997538362;751;0.170013427734375;100 mA;
201.145052492158;0.596588134765625;0.976299997535079;752;0.170074462890625;100 mA;
201.146352492154;0.5989990234375;0.977599997531797;753;0.170074462890625;100 mA;
201.147652492151;0.601348876953125;0.978899997528515;754;0.1700439453125;100 mA;
201.148952492148;0.603759765625;0.980199997525233;755;0.170074462890625;100 mA;
201.150252492144;0.60614013671875;0.981499997521951;756;0.170013427734375;100 mA;
201.151552492141;0.608489990234375;0.982799997518669;757;0.170074462890625;100 mA;
201.152852492138;0.61083984375;0.984099997515386;758;0.170074462890625;100 mA;
201.154152492135;0.61322021484375;0.985399997512104;759;0.170074462890625;100 mA;
201.155452492131;0.6156005859375;0.986699997508822;760;0.170074462890625;100 mA;
201.156752492128;0.617919921875;0.98799999750554;761;0.170074462890625;100 mA;
201.158052492125;0.6202392578125;0.989299997502258;762;0.16998291015625;100 mA;
201.159352492121;0.62255859375;0.990599997498975;763;0.17010498046875;100 mA;
201.160652492118;0.624847412109375;0.991899997495693;764;0.17010498046875;100 mA;
201.161952492115;0.62713623046875;0.993199997492411;765;0.170013427734375;100 mA;
201.163252492112;0.629425048828125;0.994499997489129;766;0.170013427734375;100 mA;
201.164552492108;0.631622314453125;0.995799997485847;767;0.170074462890625;100 mA;
201.165852492105;0.633819580078125;0.997099997482565;768;0.16998291015625;100 mA;
201.167152492102;0.636016845703125;0.998399997479282;769;0.1700439453125;100 mA;
201.168452492098;0.638214111328125;0.999699997476;770;0.17010498046875;100 mA;
201.169752492095;0.640350341796875;1.00099999747272;771;0.170013427734375;100 mA;
201.171052492092;0.6424560546875;1.00229999746944;772;0.170074462890625;100 mA;
201.172352492089;0.644561767578125;1.00359999746615;773;0.170013427734375;100 mA;
201.173652492085;0.646697998046875;1.00489999746287;774;0.170013427734375;100 mA;
201.174952492082;0.6488037109375;1.00619999745959;775;0.1700439453125;100 mA;
201.176252492079;0.650848388671875;1.00749999745631;776;0.1700439453125;100 mA;
201.177552492076;0.65289306640625;1.00879999745302;777;0.170074462890625;100 mA;
201.178852492072;0.654937744140625;1.01009999744974;778;0.1700439453125;100 mA;
201.180152492069;0.65692138671875;1.01139999744646;779;0.1700439453125;100 mA;
201.181452492066;0.65887451171875;1.01269999744318;780;0.170013427734375;100 mA;
201.182752492062;0.66082763671875;1.0139999974399;781;0.170074462890625;100 mA;
201.184052492059;0.66278076171875;1.01529999743661;782;0.1700439453125;100 mA;
201.185352492056;0.6646728515625;1.01659999743333;783;0.17010498046875;100 mA;
201.186652492053;0.66656494140625;1.01789999743005;784;0.170074462890625;100 mA;
201.187952492049;0.66845703125;1.01919999742677;785;0.17010498046875;100 mA;
201.189252492046;0.670318603515625;1.02049999742349;786;0.170074462890625;100 mA;
201.190552492043;0.67218017578125;1.0217999974202;787;0.1700439453125;100 mA;
201.191852492039;0.67401123046875;1.02309999741692;788;0.170074462890625;100 mA;
201.193152492036;0.67584228515625;1.02439999741364;789;0.1700439453125;100 mA;
201.194452492033;0.677642822265625;1.02569999741036;790;0.1700439453125;100 mA;
201.19575249203;0.67938232421875;1.02699999740707;791;0.1700439453125;100 mA;
201.197052492026;0.68115234375;1.02829999740379;792;0.1700439453125;100 mA;
201.198352492023;0.682830810546875;1.02959999740051;793;0.170074462890625;100 mA;
201.19965249202;0.6845703125;1.03089999739723;794;0.1700439453125;100 mA;
201.200952492016;0.686279296875;1.03219999739395;795;0.1700439453125;100 mA;
201.202252492013;0.68798828125;1.03349999739066;796;0.1700439453125;100 mA;
201.20355249201;0.689605712890625;1.03479999738738;797;0.1700439453125;100 mA;
201.204852492007;0.691253662109375;1.0360999973841;798;0.170013427734375;100 mA;
201.206152492003;0.69287109375;1.03739999738082;799;0.170074462890625;100 mA;
201.207452492;0.694488525390625;1.03869999737753;800;0.170013427734375;100 mA;
201.208752491997;0.696075439453125;1.03999999737425;801;0.1700439453125;100 mA;
201.210052491993;0.697662353515625;1.04129999737097;802;0.1700439453125;100 mA;
201.21135249199;0.69921875;1.04259999736769;803;0.170074462890625;100 mA;
201.212652491987;0.700775146484375;1.04389999736441;804;0.1700439453125;100 mA;WE(1).Potential > 0.7 V
201.213952491984;0.7022705078125;1.04519999736112;805;0.1700439453125;100 mA;WE(1).Potential > 0.7 V
201.21525249198;0.7037353515625;1.04649999735784;806;0.170013427734375;100 mA;WE(1).Potential > 0.7 V
201.216552491977;0.7052001953125;1.04779999735456;807;0.16998291015625;100 mA;WE(1).Potential > 0.7 V
