Time (s);WE(1).Potential (V);Corrected time (s);Index;WE(1).Current (A);Current range
82.470910791781;-0.16864013671875;0;1;-0.0179901123046875;100 mA
82.4809107917557;-0.17852783203125;0.00999999997475243;2;-0.0179901123046875;100 mA
82.4909107917305;-0.185699462890625;0.0199999999495049;3;-0.0179901123046875;100 mA
82.5009107917052;-0.191314697265625;0.0299999999242573;4;-0.017999267578125;100 mA
82.51091079168;-0.196014404296875;0.0399999998990097;5;-0.0179931640625;100 mA
82.5209107916547;-0.2000732421875;0.0499999998737621;6;-0.0179962158203125;100 mA
82.5309107916295;-0.203582763671875;0.0599999998485146;7;-0.0179931640625;100 mA
82.5409107916042;-0.206787109375;0.069999999823267;8;-0.0179962158203125;100 mA
82.550910791579;-0.209686279296875;0.0799999997980194;9;-0.0179931640625;100 mA
82.5609107915537;-0.21234130859375;0.0899999997727718;10;-0.017999267578125;100 mA
82.5709107915285;-0.21478271484375;0.0999999997475243;11;-0.0179962158203125;100 mA
82.5809107915032;-0.217071533203125;0.109999999722277;12;-0.0179962158203125;100 mA
82.590910791478;-0.219207763671875;0.119999999697029;13;-0.0179962158203125;100 mA
82.6009107914527;-0.22119140625;0.129999999671782;14;-0.0179901123046875;100 mA
82.6109107914275;-0.22308349609375;0.139999999646534;15;-0.0179931640625;100 mA
82.6209107914023;-0.224884033203125;0.149999999621286;16;-0.017987060546875;100 mA
82.630910791377;-0.226593017578125;0.159999999596039;17;-0.0179901123046875;100 mA
82.6409107913518;-0.228240966796875;0.169999999570791;18;-0.0179962158203125;100 mA
82.6509107913265;-0.22979736328125;0.179999999545544;19;-0.0179901123046875;100 mA
82.6609107913013;-0.231292724609375;0.189999999520296;20;-0.0179931640625;100 mA
82.670910791276;-0.232757568359375;0.199999999495049;21;-0.017999267578125;100 mA
82.6809107912508;-0.234100341796875;0.209999999469801;22;-0.0179901123046875;100 mA
82.6909107912255;-0.235443115234375;0.219999999444553;23;-0.0179901123046875;100 mA
82.7009107912003;-0.236724853515625;0.229999999419306;24;-0.0179962158203125;100 mA
82.710910791175;-0.238006591796875;0.239999999394058;25;-0.017999267578125;100 mA
82.7209107911498;-0.239227294921875;0.249999999368811;26;-0.017987060546875;100 mA
82.7309107911245;-0.2403564453125;0.259999999343563;27;-0.0179962158203125;100 mA
82.7409107910993;-0.241546630859375;0.269999999318316;28;-0.0179931640625;100 mA
82.750910791074;-0.242645263671875;0.279999999293068;29;-0.0179962158203125;100 mA
82.7609107910488;-0.24371337890625;0.28999999926782;30;-0.0179931640625;100 mA
82.7709107910235;-0.244781494140625;0.299999999242573;31;-0.0179962158203125;100 mA
82.7809107909983;-0.24578857421875;0.309999999217325;32;-0.017999267578125;100 mA
82.790910790973;-0.246795654296875;0.319999999192078;33;-0.0179962158203125;100 mA
82.8009107909478;-0.247772216796875;0.32999999916683;34;-0.0179901123046875;100 mA
82.8109107909225;-0.248748779296875;0.339999999141583;35;-0.0179962158203125;100 mA
82.8209107908973;-0.249664306640625;0.349999999116335;36;-0.0179931640625;100 mA
82.8309107908721;-0.250579833984375;0.359999999091087;37;-0.0179931640625;100 mA
82.8409107908468;-0.251495361328125;0.36999999906584;38;-0.0179931640625;100 mA
82.8509107908216;-0.252349853515625;0.379999999040592;39;-0.0179962158203125;100 mA
82.8609107907963;-0.253204345703125;0.389999999015345;40;-0.0179931640625;100 mA
82.8709107907711;-0.254058837890625;0.399999998990097;41;-0.0179931640625;100 mA
82.8809107907458;-0.2548828125;0.40999999896485;42;-0.0179962158203125;100 mA
82.8909107907206;-0.255706787109375;0.419999998939602;43;-0.0179931640625;100 mA
82.9009107906953;-0.256500244140625;0.429999998914354;44;-0.0179931640625;100 mA
82.9109107906701;-0.257293701171875;0.439999998889107;45;-0.017987060546875;100 mA
82.9209107906448;-0.258087158203125;0.449999998863859;46;-0.0179901123046875;100 mA
82.9309107906196;-0.258819580078125;0.459999998838612;47;-0.0179901123046875;100 mA
82.9409107905943;-0.25958251953125;0.469999998813364;48;-0.0179962158203125;100 mA
82.9509107905691;-0.26031494140625;0.479999998788116;49;-0.0179931640625;100 mA
82.9609107905438;-0.26104736328125;0.489999998762869;50;-0.0179901123046875;100 mA
82.9709107905186;-0.26177978515625;0.499999998737621;51;-0.017999267578125;100 mA
82.9809107904933;-0.262451171875;0.509999998712374;52;-0.0179931640625;100 mA
82.9909107904681;-0.26318359375;0.519999998687126;53;-0.0179901123046875;100 mA
83.0009107904428;-0.26385498046875;0.529999998661879;54;-0.0179962158203125;100 mA
83.0109107904176;-0.2645263671875;0.539999998636631;55;-0.0179931640625;100 mA
83.0209107903923;-0.26519775390625;0.549999998611383;56;-0.0179931640625;100 mA
83.0309107903671;-0.265838623046875;0.559999998586136;57;-0.017999267578125;100 mA
83.0409107903419;-0.266510009765625;0.569999998560888;58;-0.0179931640625;100 mA
83.0509107903166;-0.26715087890625;0.579999998535641;59;-0.0179931640625;100 mA
83.0609107902914;-0.267791748046875;0.589999998510393;60;-0.0179901123046875;100 mA
83.0709107902661;-0.268402099609375;0.599999998485146;61;-0.0179901123046875;100 mA
83.0809107902409;-0.269012451171875;0.609999998459898;62;-0.017987060546875;100 mA
83.0909107902156;-0.2696533203125;0.61999999843465;63;-0.017987060546875;100 mA
83.1009107901904;-0.270233154296875;0.629999998409403;64;-0.0179931640625;100 mA
83.1109107901651;-0.270843505859375;0.639999998384155;65;-0.0179931640625;100 mA
83.1209107901399;-0.271453857421875;0.649999998358908;66;-0.0179901123046875;100 mA
83.1309107901146;-0.272003173828125;0.65999999833366;67;-0.0179962158203125;100 mA
83.1409107900894;-0.272613525390625;0.669999998308413;68;-0.0179931640625;100 mA
83.1509107900641;-0.273193359375;0.679999998283165;69;-0.0179901123046875;100 mA
83.1609107900389;-0.27374267578125;0.689999998257917;70;-0.017987060546875;100 mA
83.1709107900136;-0.274322509765625;0.69999999823267;71;-0.0179931640625;100 mA
83.1809107899884;-0.274871826171875;0.709999998207422;72;-0.0179931640625;100 mA
83.1909107899631;-0.27545166015625;0.719999998182175;73;-0.0179901123046875;100 mA
83.2009107899379;-0.275970458984375;0.729999998156927;74;-0.0179901123046875;100 mA
83.2109107899126;-0.276519775390625;0.73999999813168;75;-0.0179931640625;100 mA
83.2209107898874;-0.277069091796875;0.749999998106432;76;-0.0179931640625;100 mA
83.2309107898622;-0.277587890625;0.759999998081184;77;-0.0179962158203125;100 mA
83.2409107898369;-0.27813720703125;0.769999998055937;78;-0.0179901123046875;100 mA
83.2509107898117;-0.278656005859375;0.779999998030689;79;-0.017999267578125;100 mA
83.2609107897864;-0.2791748046875;0.789999998005442;80;-0.0179962158203125;100 mA
83.2709107897612;-0.279693603515625;0.799999997980194;81;-0.0179931640625;100 mA
83.2809107897359;-0.280181884765625;0.809999997954947;82;-0.0179931640625;100 mA
83.2909107897107;-0.28070068359375;0.819999997929699;83;-0.017987060546875;100 mA
83.3009107896854;-0.28118896484375;0.829999997904451;84;-0.0179962158203125;100 mA
83.3109107896602;-0.28167724609375;0.839999997879204;85;-0.0179962158203125;100 mA
83.3209107896349;-0.282196044921875;0.849999997853956;86;-0.0179901123046875;100 mA
83.3309107896097;-0.28265380859375;0.859999997828709;87;-0.0179931640625;100 mA
83.3409107895844;-0.283172607421875;0.869999997803461;88;-0.0179962158203125;100 mA
83.3509107895592;-0.28363037109375;0.879999997778214;89;-0.0179901123046875;100 mA
83.3609107895339;-0.28411865234375;0.889999997752966;90;-0.0179931640625;100 mA
83.3709107895087;-0.28460693359375;0.899999997727718;91;-0.0179931640625;100 mA
83.3809107894834;-0.285064697265625;0.909999997702471;92;-0.0179901123046875;100 mA
83.3909107894582;-0.285552978515625;0.919999997677223;93;-0.0179901123046875;100 mA
83.4009107894329;-0.2860107421875;0.929999997651976;94;-0.017999267578125;100 mA
83.4109107894077;-0.286468505859375;0.939999997626728;95;-0.017999267578125;100 mA
83.4209107893824;-0.286956787109375;0.949999997601481;96;-0.0179962158203125;100 mA
83.4309107893572;-0.287384033203125;0.959999997576233;97;-0.0179931640625;100 mA
83.440910789332;-0.287841796875;0.969999997550985;98;-0.0179901123046875;100 mA
83.4509107893067;-0.288299560546875;0.979999997525738;99;-0.0179901123046875;100 mA
83.4609107892815;-0.28875732421875;0.98999999750049;100;-0.0179931640625;100 mA
83.4709107892562;-0.289215087890625;0.999999997475243;101;-0.0179931640625;100 mA
83.480910789231;-0.289642333984375;1.00999999745;102;-0.0179901123046875;100 mA
83.4909107892057;-0.29010009765625;1.01999999742475;103;-0.0179931640625;100 mA
83.5009107891805;-0.29052734375;1.0299999973995;104;-0.0179931640625;100 mA
83.5109107891552;-0.29095458984375;1.03999999737425;105;-0.0179901123046875;100 mA
83.52091078913;-0.291412353515625;1.049999997349;106;-0.0179931640625;100 mA
83.5309107891047;-0.29180908203125;1.05999999732376;107;-0.0179931640625;100 mA
83.5409107890795;-0.292266845703125;1.06999999729851;108;-0.017987060546875;100 mA
83.5509107890542;-0.29266357421875;1.07999999727326;109;-0.0179901123046875;100 mA
83.560910789029;-0.293121337890625;1.08999999724801;110;-0.0179962158203125;100 mA
83.5709107890037;-0.293548583984375;1.09999999722277;111;-0.0179962158203125;100 mA
83.5809107889785;-0.2939453125;1.10999999719752;112;-0.0179931640625;100 mA
83.5909107889532;-0.29437255859375;1.11999999717227;113;-0.0179931640625;100 mA
83.600910788928;-0.294769287109375;1.12999999714702;114;-0.017987060546875;100 mA
83.6109107889027;-0.295196533203125;1.13999999712178;115;-0.0179931640625;100 mA
83.6209107888775;-0.295623779296875;1.14999999709653;116;-0.0179962158203125;100 mA
83.6309107888522;-0.295989990234375;1.15999999707128;117;-0.0179962158203125;100 mA
83.640910788827;-0.296417236328125;1.16999999704603;118;-0.0179901123046875;100 mA
83.6509107888018;-0.29681396484375;1.17999999702079;119;-0.0179931640625;100 mA
83.6609107887765;-0.297210693359375;1.18999999699554;120;-0.0179901123046875;100 mA
83.6709107887513;-0.297637939453125;1.19999999697029;121;-0.0179901123046875;100 mA
83.680910788726;-0.298004150390625;1.20999999694504;122;-0.017999267578125;100 mA
83.6909107887008;-0.298431396484375;1.2199999969198;123;-0.0179901123046875;100 mA
83.7009107886755;-0.298797607421875;1.22999999689455;124;-0.0179901123046875;100 mA
83.7109107886503;-0.2991943359375;1.2399999968693;125;-0.0179962158203125;100 mA
83.720910788625;-0.299591064453125;1.24999999684405;126;-0.0179962158203125;100 mA
83.7309107885998;-0.29998779296875;1.25999999681881;127;-0.0179901123046875;100 mA
83.7409107885745;-0.300384521484375;1.26999999679356;128;-0.0179901123046875;100 mA
83.7509107885493;-0.300750732421875;1.27999999676831;129;-0.017999267578125;100 mA
83.760910788524;-0.3011474609375;1.28999999674306;130;-0.0179931640625;100 mA
83.7709107884988;-0.301544189453125;1.29999999671782;131;-0.0179901123046875;100 mA
83.7809107884735;-0.301910400390625;1.30999999669257;132;-0.0179962158203125;100 mA
83.7909107884483;-0.30230712890625;1.31999999666732;133;-0.017999267578125;100 mA
83.800910788423;-0.30267333984375;1.32999999664207;134;-0.0179962158203125;100 mA
83.8109107883978;-0.30303955078125;1.33999999661683;135;-0.0179962158203125;100 mA
83.8209107883725;-0.303436279296875;1.34999999659158;136;-0.0179931640625;100 mA
83.8309107883473;-0.303802490234375;1.35999999656633;137;-0.0179962158203125;100 mA
83.840910788322;-0.30419921875;1.36999999654108;138;-0.0179962158203125;100 mA
83.8509107882968;-0.3045654296875;1.37999999651583;139;-0.0179901123046875;100 mA
83.8609107882716;-0.304931640625;1.38999999649059;140;-0.0179931640625;100 mA
83.8709107882463;-0.3052978515625;1.39999999646534;141;-0.0179931640625;100 mA
83.8809107882211;-0.3056640625;1.40999999644009;142;-0.0179901123046875;100 mA
83.8909107881958;-0.3060302734375;1.41999999641484;143;-0.0179901123046875;100 mA
83.9009107881706;-0.306396484375;1.4299999963896;144;-0.017987060546875;100 mA
83.9109107881453;-0.3067626953125;1.43999999636435;145;-0.0179931640625;100 mA
83.9209107881201;-0.30712890625;1.4499999963391;146;-0.0179901123046875;100 mA
83.9309107880948;-0.307464599609375;1.45999999631385;147;-0.0179901123046875;100 mA
83.9409107880696;-0.307861328125;1.46999999628861;148;-0.017987060546875;100 mA
83.9509107880443;-0.308197021484375;1.47999999626336;149;-0.0179962158203125;100 mA
83.9609107880191;-0.308563232421875;1.48999999623811;150;-0.0179962158203125;100 mA
83.9709107879938;-0.308929443359375;1.49999999621286;151;-0.0179931640625;100 mA
83.9809107879686;-0.30926513671875;1.50999999618762;152;-0.0179962158203125;100 mA
83.9909107879433;-0.30963134765625;1.51999999616237;153;-0.0179962158203125;100 mA
84.0009107879181;-0.30999755859375;1.52999999613712;154;-0.0179901123046875;100 mA
84.0109107878928;-0.310333251953125;1.53999999611187;155;-0.0179962158203125;100 mA
84.0209107878676;-0.310699462890625;1.54999999608663;156;-0.0179901123046875;100 mA
84.0309107878423;-0.31103515625;1.55999999606138;157;-0.0179840087890625;100 mA
84.0409107878171;-0.3114013671875;1.56999999603613;158;-0.0179901123046875;100 mA
84.0509107877918;-0.311737060546875;1.57999999601088;159;-0.0179931640625;100 mA
84.0609107877666;-0.312103271484375;1.58999999598564;160;-0.0179962158203125;100 mA
84.0709107877414;-0.31243896484375;1.59999999596039;161;-0.0179931640625;100 mA
84.0809107877161;-0.312774658203125;1.60999999593514;162;-0.0179931640625;100 mA
84.0909107876909;-0.313140869140625;1.61999999590989;163;-0.0179901123046875;100 mA
84.1009107876656;-0.3134765625;1.62999999588465;164;-0.0179931640625;100 mA
84.1109107876404;-0.313812255859375;1.6399999958594;165;-0.0179901123046875;100 mA
84.1209107876151;-0.314178466796875;1.64999999583415;166;-0.0179962158203125;100 mA
84.1309107875899;-0.31451416015625;1.6599999958089;167;-0.0179901123046875;100 mA
84.1409107875646;-0.314849853515625;1.66999999578366;168;-0.0179931640625;100 mA
84.1509107875394;-0.315185546875;1.67999999575841;169;-0.0179931640625;100 mA
84.1609107875141;-0.315521240234375;1.68999999573316;170;-0.0179931640625;100 mA
84.1709107874889;-0.315887451171875;1.69999999570791;171;-0.0179901123046875;100 mA
84.1809107874636;-0.316192626953125;1.70999999568267;172;-0.0179901123046875;100 mA
84.1909107874384;-0.316558837890625;1.71999999565742;173;-0.0179962158203125;100 mA
84.2009107874131;-0.316864013671875;1.72999999563217;174;-0.0179931640625;100 mA
84.2109107873879;-0.31719970703125;1.73999999560692;175;-0.0179931640625;100 mA
84.2209107873626;-0.31756591796875;1.74999999558167;176;-0.0179931640625;100 mA
84.2309107873374;-0.31787109375;1.75999999555643;177;-0.0179901123046875;100 mA
84.2409107873121;-0.318206787109375;1.76999999553118;178;-0.0179931640625;100 mA
84.2509107872869;-0.31854248046875;1.77999999550593;179;-0.0179901123046875;100 mA
84.2609107872617;-0.318878173828125;1.78999999548068;180;-0.0179962158203125;100 mA
84.2709107872364;-0.3192138671875;1.79999999545544;181;-0.0179962158203125;100 mA
84.2809107872112;-0.31951904296875;1.80999999543019;182;-0.017987060546875;100 mA
84.2909107871859;-0.319854736328125;1.81999999540494;183;-0.0179901123046875;100 mA
84.3009107871607;-0.3201904296875;1.82999999537969;184;-0.0179962158203125;100 mA
84.3109107871354;-0.320526123046875;1.83999999535445;185;-0.0179962158203125;100 mA
84.3209107871102;-0.32086181640625;1.8499999953292;186;-0.017987060546875;100 mA
84.3309107870849;-0.3211669921875;1.85999999530395;187;-0.0179931640625;100 mA
84.3409107870597;-0.321502685546875;1.8699999952787;188;-0.0179931640625;100 mA
84.3509107870344;-0.321807861328125;1.87999999525346;189;-0.0179962158203125;100 mA
84.3609107870092;-0.3221435546875;1.88999999522821;190;-0.017987060546875;100 mA
84.3709107869839;-0.322479248046875;1.89999999520296;191;-0.0179901123046875;100 mA
84.3809107869587;-0.322784423828125;1.90999999517771;192;-0.0179901123046875;100 mA
84.3909107869334;-0.3231201171875;1.91999999515247;193;-0.0179901123046875;100 mA
84.4009107869082;-0.32342529296875;1.92999999512722;194;-0.0179931640625;100 mA
84.4109107868829;-0.323760986328125;1.93999999510197;195;-0.0179931640625;100 mA
84.4209107868577;-0.3240966796875;1.94999999507672;196;-0.0179962158203125;100 mA
84.4309107868324;-0.32440185546875;1.95999999505148;197;-0.0179901123046875;100 mA
84.4409107868072;-0.324737548828125;1.96999999502623;198;-0.0179901123046875;100 mA
84.4509107867819;-0.325042724609375;1.97999999500098;199;-0.0179962158203125;100 mA
84.4609107867567;-0.325347900390625;1.98999999497573;200;-0.0179931640625;100 mA
84.4709107867315;-0.32568359375;1.99999999495049;201;-0.017987060546875;100 mA
84.4809107867062;-0.32598876953125;2.00999999492524;202;-0.0179901123046875;100 mA
84.490910786681;-0.326324462890625;2.01999999489999;203;-0.0179901123046875;100 mA
84.5009107866557;-0.326629638671875;2.02999999487474;204;-0.017987060546875;100 mA
84.5109107866305;-0.326934814453125;2.0399999948495;205;-0.0179901123046875;100 mA
84.5209107866052;-0.3272705078125;2.04999999482425;206;-0.0179962158203125;100 mA
84.53091078658;-0.32757568359375;2.059999994799;207;-0.0179931640625;100 mA
84.5409107865547;-0.327880859375;2.06999999477375;208;-0.0179962158203125;100 mA
84.5509107865295;-0.32818603515625;2.0799999947485;209;-0.0179931640625;100 mA
84.5609107865042;-0.3284912109375;2.08999999472326;210;-0.0179901123046875;100 mA
84.570910786479;-0.328826904296875;2.09999999469801;211;-0.0179931640625;100 mA
84.5809107864537;-0.329132080078125;2.10999999467276;212;-0.0179962158203125;100 mA
84.5909107864285;-0.329437255859375;2.11999999464751;213;-0.0179901123046875;100 mA
84.6009107864032;-0.329742431640625;2.12999999462227;214;-0.017987060546875;100 mA
84.610910786378;-0.330047607421875;2.13999999459702;215;-0.0179931640625;100 mA
84.6209107863527;-0.33038330078125;2.14999999457177;216;-0.0179931640625;100 mA
84.6309107863275;-0.3306884765625;2.15999999454652;217;-0.0179931640625;100 mA
84.6409107863022;-0.33099365234375;2.16999999452128;218;-0.0179931640625;100 mA
84.650910786277;-0.331298828125;2.17999999449603;219;-0.0179901123046875;100 mA
84.6609107862517;-0.33160400390625;2.18999999447078;220;-0.0179962158203125;100 mA
84.6709107862265;-0.331939697265625;2.19999999444553;221;-0.0179901123046875;100 mA
84.6809107862013;-0.332244873046875;2.20999999442029;222;-0.0179931640625;100 mA
84.690910786176;-0.332550048828125;2.21999999439504;223;-0.0179931640625;100 mA
84.7009107861508;-0.332855224609375;2.22999999436979;224;-0.0179901123046875;100 mA
84.7109107861255;-0.333160400390625;2.23999999434454;225;-0.0179962158203125;100 mA
84.7209107861003;-0.33349609375;2.2499999943193;226;-0.0179901123046875;100 mA
84.730910786075;-0.333770751953125;2.25999999429405;227;-0.0179931640625;100 mA
84.7409107860498;-0.3341064453125;2.2699999942688;228;-0.0179931640625;100 mA
84.7509107860245;-0.334381103515625;2.27999999424355;229;-0.017987060546875;100 mA
84.7609107859993;-0.334686279296875;2.28999999421831;230;-0.0179931640625;100 mA
84.770910785974;-0.33502197265625;2.29999999419306;231;-0.0179901123046875;100 mA
84.7809107859488;-0.335296630859375;2.30999999416781;232;-0.0179931640625;100 mA
84.7909107859235;-0.33563232421875;2.31999999414256;233;-0.0179901123046875;100 mA
84.8009107858983;-0.3359375;2.32999999411732;234;-0.0179931640625;100 mA
84.810910785873;-0.33624267578125;2.33999999409207;235;-0.0179962158203125;100 mA
84.8209107858478;-0.3365478515625;2.34999999406682;236;-0.0179901123046875;100 mA
84.8309107858225;-0.336822509765625;2.35999999404157;237;-0.0179931640625;100 mA
84.8409107857973;-0.337158203125;2.36999999401633;238;-0.0179901123046875;100 mA
84.850910785772;-0.33746337890625;2.37999999399108;239;-0.0179962158203125;100 mA
84.8609107857468;-0.3377685546875;2.38999999396583;240;-0.017999267578125;100 mA
84.8709107857215;-0.33807373046875;2.39999999394058;241;-0.0179931640625;100 mA
84.8809107856963;-0.338348388671875;2.40999999391533;242;-0.0179901123046875;100 mA
84.8909107856711;-0.33868408203125;2.41999999389009;243;-0.0179931640625;100 mA
84.9009107856458;-0.338958740234375;2.42999999386484;244;-0.017987060546875;100 mA
84.9109107856206;-0.339263916015625;2.43999999383959;245;-0.0179901123046875;100 mA
84.9209107855953;-0.339599609375;2.44999999381434;246;-0.0179901123046875;100 mA
84.9309107855701;-0.339874267578125;2.4599999937891;247;-0.0179962158203125;100 mA
84.9409107855448;-0.340179443359375;2.46999999376385;248;-0.0179962158203125;100 mA
84.9509107855196;-0.340484619140625;2.4799999937386;249;-0.0179901123046875;100 mA
84.9609107854943;-0.340789794921875;2.48999999371335;250;-0.017987060546875;100 mA
84.9709107854691;-0.341094970703125;2.49999999368811;251;-0.0179931640625;100 mA
84.9809107854438;-0.34136962890625;2.50999999366286;252;-0.0179901123046875;100 mA
84.9909107854186;-0.341705322265625;2.51999999363761;253;-0.0179901123046875;100 mA
85.0009107853933;-0.342010498046875;2.52999999361236;254;-0.0179901123046875;100 mA
85.0109107853681;-0.34228515625;2.53999999358712;255;-0.0179931640625;100 mA
85.0209107853428;-0.342620849609375;2.54999999356187;256;-0.0179901123046875;100 mA
85.0309107853176;-0.3428955078125;2.55999999353662;257;-0.0179931640625;100 mA
85.0409107852923;-0.34320068359375;2.56999999351137;258;-0.0179962158203125;100 mA
85.0509107852671;-0.343505859375;2.57999999348613;259;-0.0179931640625;100 mA
85.0609107852418;-0.343780517578125;2.58999999346088;260;-0.0179901123046875;100 mA
85.0709107852166;-0.344085693359375;2.59999999343563;261;-0.0179962158203125;100 mA
85.0809107851913;-0.344390869140625;2.60999999341038;262;-0.017987060546875;100 mA
85.0909107851661;-0.344696044921875;2.61999999338514;263;-0.0179931640625;100 mA
85.1009107851409;-0.345001220703125;2.62999999335989;264;-0.0179931640625;100 mA
85.1109107851156;-0.34527587890625;2.63999999333464;265;-0.0179901123046875;100 mA
85.1209107850904;-0.345611572265625;2.64999999330939;266;-0.0179901123046875;100 mA
85.1309107850651;-0.34588623046875;2.65999999328415;267;-0.0179931640625;100 mA
85.1409107850399;-0.34619140625;2.6699999932589;268;-0.0179962158203125;100 mA
85.1509107850146;-0.34649658203125;2.67999999323365;269;-0.0179901123046875;100 mA
85.1609107849894;-0.3468017578125;2.6899999932084;270;-0.0179901123046875;100 mA
85.1709107849641;-0.34710693359375;2.69999999318316;271;-0.0179901123046875;100 mA
85.1809107849389;-0.347381591796875;2.70999999315791;272;-0.0179901123046875;100 mA
85.1909107849136;-0.347686767578125;2.71999999313266;273;-0.017987060546875;100 mA
85.2009107848884;-0.347991943359375;2.72999999310741;274;-0.0179931640625;100 mA
85.2109107848631;-0.348297119140625;2.73999999308217;275;-0.0179931640625;100 mA
85.2209107848379;-0.348602294921875;2.74999999305692;276;-0.0179901123046875;100 mA
85.2309107848126;-0.348876953125;2.75999999303167;277;-0.0179901123046875;100 mA
85.2409107847874;-0.349212646484375;2.76999999300642;278;-0.017987060546875;100 mA
85.2509107847621;-0.3494873046875;2.77999999298117;279;-0.0179931640625;100 mA
85.2609107847369;-0.34979248046875;2.78999999295593;280;-0.0179931640625;100 mA
85.2709107847116;-0.35009765625;2.79999999293068;281;-0.0179901123046875;100 mA
85.2809107846864;-0.35040283203125;2.80999999290543;282;-0.0179931640625;100 mA
85.2909107846612;-0.3507080078125;2.81999999288018;283;-0.0179962158203125;100 mA
85.3009107846359;-0.35101318359375;2.82999999285494;284;-0.0179962158203125;100 mA
85.3109107846107;-0.351287841796875;2.83999999282969;285;-0.0179901123046875;100 mA
85.3209107845854;-0.35162353515625;2.84999999280444;286;-0.0179901123046875;100 mA
85.3309107845602;-0.351898193359375;2.85999999277919;287;-0.017987060546875;100 mA
85.3409107845349;-0.352203369140625;2.86999999275395;288;-0.0179901123046875;100 mA
85.3509107845097;-0.352508544921875;2.8799999927287;289;-0.0179962158203125;100 mA
85.3609107844844;-0.352783203125;2.88999999270345;290;-0.0179931640625;100 mA
85.3709107844592;-0.353118896484375;2.8999999926782;291;-0.017987060546875;100 mA
85.3809107844339;-0.3533935546875;2.90999999265296;292;-0.0179931640625;100 mA
85.3909107844087;-0.353729248046875;2.91999999262771;293;-0.0179901123046875;100 mA
85.4009107843834;-0.35400390625;2.92999999260246;294;-0.0179931640625;100 mA
85.4109107843582;-0.35430908203125;2.93999999257721;295;-0.0179931640625;100 mA
85.4209107843329;-0.3546142578125;2.94999999255197;296;-0.0179931640625;100 mA
85.4309107843077;-0.35491943359375;2.95999999252672;297;-0.0179901123046875;100 mA
85.4409107842824;-0.355224609375;2.96999999250147;298;-0.0179931640625;100 mA
85.4509107842572;-0.355499267578125;2.97999999247622;299;-0.017987060546875;100 mA
85.4609107842319;-0.355804443359375;2.98999999245098;300;-0.0179931640625;100 mA
85.4709107842067;-0.35614013671875;2.99999999242573;301;-0.0179901123046875;100 mA
85.4809107841814;-0.356414794921875;3.00999999240048;302;-0.0179901123046875;100 mA
85.4909107841562;-0.356719970703125;3.01999999237523;303;-0.0179931640625;100 mA
85.500910784131;-0.357025146484375;3.02999999234999;304;-0.0179931640625;100 mA
85.5109107841057;-0.357330322265625;3.03999999232474;305;-0.017999267578125;100 mA
85.5209107840805;-0.357635498046875;3.04999999229949;306;-0.0179901123046875;100 mA
85.5309107840552;-0.35791015625;3.05999999227424;307;-0.0179931640625;100 mA
85.54091078403;-0.358245849609375;3.069999992249;308;-0.0179901123046875;100 mA
85.5509107840047;-0.3585205078125;3.07999999222375;309;-0.0179901123046875;100 mA
85.5609107839795;-0.35882568359375;3.0899999921985;310;-0.0179901123046875;100 mA
85.5709107839542;-0.359161376953125;3.09999999217325;311;-0.0179931640625;100 mA
85.580910783929;-0.35943603515625;3.109999992148;312;-0.0179962158203125;100 mA
85.5909107839037;-0.3597412109375;3.11999999212276;313;-0.0179901123046875;100 mA
85.6009107838785;-0.36004638671875;3.12999999209751;314;-0.0179931640625;100 mA
85.6109107838532;-0.3603515625;3.13999999207226;315;-0.0179901123046875;100 mA
85.620910783828;-0.36065673828125;3.14999999204701;316;-0.0179931640625;100 mA
85.6309107838027;-0.360931396484375;3.15999999202177;317;-0.0179840087890625;100 mA
85.6409107837775;-0.36126708984375;3.16999999199652;318;-0.0179931640625;100 mA
85.6509107837522;-0.361572265625;3.17999999197127;319;-0.0179901123046875;100 mA
85.660910783727;-0.361846923828125;3.18999999194602;320;-0.0179962158203125;100 mA
85.6709107837017;-0.3621826171875;3.19999999192078;321;-0.017987060546875;100 mA
85.6809107836765;-0.362457275390625;3.20999999189553;322;-0.0179931640625;100 mA
85.6909107836512;-0.36279296875;3.21999999187028;323;-0.0179931640625;100 mA
85.700910783626;-0.36309814453125;3.22999999184503;324;-0.0179931640625;100 mA
85.7109107836008;-0.3634033203125;3.23999999181979;325;-0.017987060546875;100 mA
85.7209107835755;-0.36370849609375;3.24999999179454;326;-0.0179901123046875;100 mA
85.7309107835503;-0.364013671875;3.25999999176929;327;-0.0179901123046875;100 mA
85.740910783525;-0.36431884765625;3.26999999174404;328;-0.0179962158203125;100 mA
85.7509107834998;-0.3646240234375;3.2799999917188;329;-0.0179840087890625;100 mA
85.7609107834745;-0.36492919921875;3.28999999169355;330;-0.0179931640625;100 mA
85.7709107834493;-0.365264892578125;3.2999999916683;331;-0.0179901123046875;100 mA
85.780910783424;-0.36553955078125;3.30999999164305;332;-0.0179931640625;100 mA
85.7909107833988;-0.365875244140625;3.31999999161781;333;-0.0179962158203125;100 mA
85.8009107833735;-0.366180419921875;3.32999999159256;334;-0.0179901123046875;100 mA
85.8109107833483;-0.366485595703125;3.33999999156731;335;-0.0179931640625;100 mA
85.820910783323;-0.366790771484375;3.34999999154206;336;-0.017987060546875;100 mA
85.8309107832978;-0.367095947265625;3.35999999151682;337;-0.0179901123046875;100 mA
85.8409107832725;-0.367401123046875;3.36999999149157;338;-0.0179901123046875;100 mA
85.8509107832473;-0.367706298828125;3.37999999146632;339;-0.0179901123046875;100 mA
85.860910783222;-0.368011474609375;3.38999999144107;340;-0.0179962158203125;100 mA
85.8709107831968;-0.36834716796875;3.39999999141583;341;-0.0179962158203125;100 mA
85.8809107831715;-0.36865234375;3.40999999139058;342;-0.017987060546875;100 mA
85.8909107831463;-0.36895751953125;3.41999999136533;343;-0.0179901123046875;100 mA
85.900910783121;-0.369293212890625;3.42999999134008;344;-0.0179901123046875;100 mA
85.9109107830958;-0.36956787109375;3.43999999131483;345;-0.0179901123046875;100 mA
85.9209107830706;-0.369903564453125;3.44999999128959;346;-0.0179901123046875;100 mA
85.9309107830453;-0.370208740234375;3.45999999126434;347;-0.0179901123046875;100 mA
85.9409107830201;-0.37054443359375;3.46999999123909;348;-0.017987060546875;100 mA
85.9509107829948;-0.370849609375;3.47999999121384;349;-0.0179931640625;100 mA
85.9609107829696;-0.37115478515625;3.4899999911886;350;-0.0179901123046875;100 mA
85.9709107829443;-0.371490478515625;3.49999999116335;351;-0.017987060546875;100 mA
85.9809107829191;-0.371795654296875;3.5099999911381;352;-0.0179962158203125;100 mA
85.9909107828938;-0.372100830078125;3.51999999111285;353;-0.0179931640625;100 mA
86.0009107828686;-0.3724365234375;3.52999999108761;354;-0.017987060546875;100 mA
86.0109107828433;-0.37274169921875;3.53999999106236;355;-0.0179962158203125;100 mA
86.0209107828181;-0.373077392578125;3.54999999103711;356;-0.0179901123046875;100 mA
86.0309107827928;-0.37335205078125;3.55999999101186;357;-0.0179962158203125;100 mA
86.0409107827676;-0.373687744140625;3.56999999098662;358;-0.0179931640625;100 mA
86.0509107827423;-0.3740234375;3.57999999096137;359;-0.0179931640625;100 mA
86.0609107827171;-0.37432861328125;3.58999999093612;360;-0.0179962158203125;100 mA
86.0709107826918;-0.374664306640625;3.59999999091087;361;-0.017987060546875;100 mA
86.0809107826666;-0.37493896484375;3.60999999088563;362;-0.0179901123046875;100 mA
86.0909107826413;-0.375274658203125;3.61999999086038;363;-0.017987060546875;100 mA
86.1009107826161;-0.3756103515625;3.62999999083513;364;-0.0179901123046875;100 mA
86.1109107825908;-0.37591552734375;3.63999999080988;365;-0.0179931640625;100 mA
86.1209107825656;-0.376251220703125;3.64999999078464;366;-0.017987060546875;100 mA
86.1309107825404;-0.376556396484375;3.65999999075939;367;-0.0179901123046875;100 mA
86.1409107825151;-0.37689208984375;3.66999999073414;368;-0.0179931640625;100 mA
86.1509107824899;-0.377197265625;3.67999999070889;369;-0.0179962158203125;100 mA
86.1609107824646;-0.377532958984375;3.68999999068365;370;-0.017987060546875;100 mA
86.1709107824394;-0.37786865234375;3.6999999906584;371;-0.017987060546875;100 mA
86.1809107824141;-0.378173828125;3.70999999063315;372;-0.017987060546875;100 mA
86.1909107823889;-0.378509521484375;3.7199999906079;373;-0.017987060546875;100 mA
86.2009107823636;-0.378814697265625;3.72999999058266;374;-0.0179931640625;100 mA
86.2109107823384;-0.379150390625;3.73999999055741;375;-0.0179901123046875;100 mA
86.2209107823131;-0.379486083984375;3.74999999053216;376;-0.0179901123046875;100 mA
86.2309107822879;-0.37982177734375;3.75999999050691;377;-0.0179901123046875;100 mA
86.2409107822626;-0.380157470703125;3.76999999048167;378;-0.0179931640625;100 mA
86.2509107822374;-0.380462646484375;3.77999999045642;379;-0.017987060546875;100 mA
86.2609107822121;-0.38079833984375;3.78999999043117;380;-0.017987060546875;100 mA
86.2709107821869;-0.381134033203125;3.79999999040592;381;-0.0179901123046875;100 mA
86.2809107821616;-0.3814697265625;3.80999999038067;382;-0.0179931640625;100 mA
86.2909107821364;-0.381805419921875;3.81999999035543;383;-0.0179901123046875;100 mA
86.3009107821111;-0.38214111328125;3.82999999033018;384;-0.0179931640625;100 mA
86.3109107820859;-0.3824462890625;3.83999999030493;385;-0.0179901123046875;100 mA
86.3209107820607;-0.3828125;3.84999999027968;386;-0.0179901123046875;100 mA
86.3309107820354;-0.38311767578125;3.85999999025444;387;-0.0179931640625;100 mA
86.3409107820102;-0.383453369140625;3.86999999022919;388;-0.0179931640625;100 mA
86.3509107819849;-0.3837890625;3.87999999020394;389;-0.0179931640625;100 mA
86.3609107819597;-0.384124755859375;3.88999999017869;390;-0.0179901123046875;100 mA
86.3709107819344;-0.384490966796875;3.89999999015345;391;-0.0179901123046875;100 mA
86.3809107819092;-0.384796142578125;3.9099999901282;392;-0.0179901123046875;100 mA
86.3909107818839;-0.385162353515625;3.91999999010295;393;-0.0179962158203125;100 mA
86.4009107818587;-0.385498046875;3.9299999900777;394;-0.017987060546875;100 mA
86.4109107818334;-0.385833740234375;3.93999999005246;395;-0.0179901123046875;100 mA
86.4209107818082;-0.38616943359375;3.94999999002721;396;-0.0179931640625;100 mA
86.4309107817829;-0.386505126953125;3.95999999000196;397;-0.0179901123046875;100 mA
86.4409107817577;-0.386871337890625;3.96999998997671;398;-0.017987060546875;100 mA
86.4509107817324;-0.38720703125;3.97999998995147;399;-0.0179931640625;100 mA
86.4609107817072;-0.387542724609375;3.98999998992622;400;-0.017987060546875;100 mA
86.4709107816819;-0.387908935546875;3.99999998990097;401;-0.017987060546875;100 mA
86.4809107816567;-0.388214111328125;4.00999998987572;402;-0.0179901123046875;100 mA
86.4909107816314;-0.388580322265625;4.01999998985048;403;-0.0179931640625;100 mA
86.5009107816062;-0.388916015625;4.02999998982523;404;-0.017987060546875;100 mA
86.5109107815809;-0.3892822265625;4.03999998979998;405;-0.0179931640625;100 mA
86.5209107815557;-0.389617919921875;4.04999998977473;406;-0.017987060546875;100 mA
86.5309107815305;-0.38995361328125;4.05999998974949;407;-0.0179901123046875;100 mA
86.5409107815052;-0.39031982421875;4.06999998972424;408;-0.0179962158203125;100 mA
86.55091078148;-0.390655517578125;4.07999998969899;409;-0.0179901123046875;100 mA
86.5609107814547;-0.3909912109375;4.08999998967374;410;-0.017987060546875;100 mA
86.5709107814295;-0.391387939453125;4.0999999896485;411;-0.0179931640625;100 mA
86.5809107814042;-0.391693115234375;4.10999998962325;412;-0.0179931640625;100 mA
86.590910781379;-0.39208984375;4.119999989598;413;-0.0179901123046875;100 mA
86.6009107813537;-0.392425537109375;4.12999998957275;414;-0.0179840087890625;100 mA
86.6109107813285;-0.392791748046875;4.1399999895475;415;-0.0179962158203125;100 mA
86.6209107813032;-0.393157958984375;4.14999998952226;416;-0.017987060546875;100 mA
86.630910781278;-0.39349365234375;4.15999998949701;417;-0.0179962158203125;100 mA
86.6409107812527;-0.39385986328125;4.16999998947176;418;-0.0179901123046875;100 mA
86.6509107812275;-0.39422607421875;4.17999998944651;419;-0.017999267578125;100 mA
86.6609107812022;-0.394561767578125;4.18999998942127;420;-0.017999267578125;100 mA
86.670910781177;-0.39495849609375;4.19999998939602;421;-0.0179901123046875;100 mA
86.6809107811517;-0.395294189453125;4.20999998937077;422;-0.017987060546875;100 mA
86.6909107811265;-0.39569091796875;4.21999998934552;423;-0.0179901123046875;100 mA
86.7009107811012;-0.396026611328125;4.22999998932028;424;-0.0179901123046875;100 mA
86.710910781076;-0.396392822265625;4.23999998929503;425;-0.0179931640625;100 mA
86.7209107810507;-0.39678955078125;4.24999998926978;426;-0.0179901123046875;100 mA
86.7309107810255;-0.397125244140625;4.25999998924453;427;-0.0179931640625;100 mA
86.7409107810003;-0.39752197265625;4.26999998921929;428;-0.0179901123046875;100 mA
86.750910780975;-0.39788818359375;4.27999998919404;429;-0.0179901123046875;100 mA
86.7609107809498;-0.39825439453125;4.28999998916879;430;-0.0179962158203125;100 mA
86.7709107809245;-0.398651123046875;4.29999998914354;431;-0.0179901123046875;100 mA
86.7809107808993;-0.39898681640625;4.3099999891183;432;-0.0179840087890625;100 mA
86.790910780874;-0.399383544921875;4.31999998909305;433;-0.0179901123046875;100 mA
86.8009107808488;-0.399749755859375;4.3299999890678;434;-0.0179901123046875;100 mA
86.8109107808235;-0.400115966796875;4.33999998904255;435;-0.0179901123046875;100 mA
86.8209107807983;-0.4005126953125;4.34999998901731;436;-0.0179901123046875;100 mA
86.830910780773;-0.40087890625;4.35999998899206;437;-0.0179901123046875;100 mA
86.8409107807478;-0.401275634765625;4.36999998896681;438;-0.0179931640625;100 mA
86.8509107807225;-0.401641845703125;4.37999998894156;439;-0.017987060546875;100 mA
86.8609107806973;-0.40203857421875;4.38999998891632;440;-0.0179931640625;100 mA
86.870910780672;-0.402435302734375;4.39999998889107;441;-0.0179931640625;100 mA
86.8809107806468;-0.402801513671875;4.40999998886582;442;-0.0179901123046875;100 mA
86.8909107806215;-0.4031982421875;4.41999998884057;443;-0.017987060546875;100 mA
86.9009107805963;-0.403594970703125;4.42999998881533;444;-0.0179901123046875;100 mA
86.910910780571;-0.403961181640625;4.43999998879008;445;-0.0179931640625;100 mA
86.9209107805458;-0.404388427734375;4.44999998876483;446;-0.017987060546875;100 mA
86.9309107805205;-0.404754638671875;4.45999998873958;447;-0.0179901123046875;100 mA
86.9409107804953;-0.4051513671875;4.46999998871433;448;-0.0179901123046875;100 mA
86.9509107804701;-0.405548095703125;4.47999998868909;449;-0.017987060546875;100 mA
86.9609107804448;-0.40594482421875;4.48999998866384;450;-0.0179931640625;100 mA
86.9709107804196;-0.406341552734375;4.49999998863859;451;-0.017987060546875;100 mA
86.9809107803943;-0.406707763671875;4.50999998861334;452;-0.0179931640625;100 mA
86.9909107803691;-0.407135009765625;4.5199999885881;453;-0.0179901123046875;100 mA
87.0009107803438;-0.40753173828125;4.52999998856285;454;-0.0179931640625;100 mA
87.0109107803186;-0.407928466796875;4.5399999885376;455;-0.0179931640625;100 mA
87.0209107802933;-0.408355712890625;4.54999998851235;456;-0.0179931640625;100 mA
87.0309107802681;-0.40875244140625;4.55999998848711;457;-0.0179901123046875;100 mA
87.0409107802428;-0.409149169921875;4.56999998846186;458;-0.0179901123046875;100 mA
87.0509107802176;-0.409576416015625;4.57999998843661;459;-0.0179962158203125;100 mA
87.0609107801923;-0.40997314453125;4.58999998841136;460;-0.017987060546875;100 mA
87.0709107801671;-0.410400390625;4.59999998838612;461;-0.0179901123046875;100 mA
87.0809107801418;-0.410797119140625;4.60999998836087;462;-0.0179931640625;100 mA
87.0909107801166;-0.411224365234375;4.61999998833562;463;-0.0179901123046875;100 mA
87.1009107800913;-0.411651611328125;4.62999998831037;464;-0.0179962158203125;100 mA
87.1109107800661;-0.41204833984375;4.63999998828513;465;-0.0179901123046875;100 mA
87.1209107800408;-0.412506103515625;4.64999998825988;466;-0.017987060546875;100 mA
87.1309107800156;-0.41290283203125;4.65999998823463;467;-0.0179931640625;100 mA
87.1409107799903;-0.413330078125;4.66999998820938;468;-0.0179931640625;100 mA
87.1509107799651;-0.41375732421875;4.67999998818414;469;-0.0179931640625;100 mA
87.1609107799399;-0.4141845703125;4.68999998815889;470;-0.0179901123046875;100 mA
87.1709107799146;-0.414642333984375;4.69999998813364;471;-0.0179931640625;100 mA
87.1809107798894;-0.4150390625;4.70999998810839;472;-0.0179840087890625;100 mA
87.1909107798641;-0.415496826171875;4.71999998808315;473;-0.0179901123046875;100 mA
87.2009107798389;-0.415924072265625;4.7299999880579;474;-0.0179901123046875;100 mA
87.2109107798136;-0.416351318359375;4.73999998803265;475;-0.0179931640625;100 mA
87.2209107797884;-0.41680908203125;4.7499999880074;476;-0.0179901123046875;100 mA
87.2309107797631;-0.417236328125;4.75999998798216;477;-0.0179962158203125;100 mA
87.2409107797379;-0.417694091796875;4.76999998795691;478;-0.0179931640625;100 mA
87.2509107797126;-0.41815185546875;4.77999998793166;479;-0.0179901123046875;100 mA
87.2609107796874;-0.4185791015625;4.78999998790641;480;-0.017987060546875;100 mA
87.2709107796621;-0.419036865234375;4.79999998788116;481;-0.0179840087890625;100 mA
87.2809107796369;-0.419464111328125;4.80999998785592;482;-0.017987060546875;100 mA
87.2909107796116;-0.419952392578125;4.81999998783067;483;-0.0179962158203125;100 mA
87.3009107795864;-0.42041015625;4.82999998780542;484;-0.0179901123046875;100 mA
87.3109107795611;-0.42083740234375;4.83999998778017;485;-0.0179901123046875;100 mA
87.3209107795359;-0.42132568359375;4.84999998775493;486;-0.017987060546875;100 mA
87.3309107795106;-0.4217529296875;4.85999998772968;487;-0.017987060546875;100 mA
87.3409107794854;-0.4222412109375;4.86999998770443;488;-0.0179901123046875;100 mA
87.3509107794602;-0.422698974609375;4.87999998767918;489;-0.0179931640625;100 mA
87.3609107794349;-0.42315673828125;4.88999998765394;490;-0.0179901123046875;100 mA
87.3709107794097;-0.42364501953125;4.89999998762869;491;-0.0179931640625;100 mA
87.3809107793844;-0.424102783203125;4.90999998760344;492;-0.0179931640625;100 mA
87.3909107793592;-0.424591064453125;4.91999998757819;493;-0.0179901123046875;100 mA
87.4009107793339;-0.425079345703125;4.92999998755295;494;-0.0179901123046875;100 mA
87.4109107793087;-0.425537109375;4.9399999875277;495;-0.0179962158203125;100 mA
87.4209107792834;-0.426055908203125;4.94999998750245;496;-0.0179931640625;100 mA
87.4309107792582;-0.426513671875;4.9599999874772;497;-0.0179840087890625;100 mA
87.4409107792329;-0.427001953125;4.96999998745196;498;-0.0179901123046875;100 mA
87.4509107792077;-0.427490234375;4.97999998742671;499;-0.0179901123046875;100 mA
87.4609107791824;-0.427978515625;4.98999998740146;500;-0.0179901123046875;100 mA
87.4709107791572;-0.428497314453125;4.99999998737621;501;-0.0179931640625;100 mA
87.4809107791319;-0.428985595703125;5.00999998735097;502;-0.0179901123046875;100 mA
87.4909107791067;-0.42950439453125;5.01999998732572;503;-0.0179901123046875;100 mA
87.5009107790814;-0.430023193359375;5.02999998730047;504;-0.0179901123046875;100 mA
87.5109107790562;-0.430511474609375;5.03999998727522;505;-0.0179931640625;100 mA
87.5209107790309;-0.4310302734375;5.04999998724998;506;-0.017987060546875;100 mA
87.5309107790057;-0.4315185546875;5.05999998722473;507;-0.0179931640625;100 mA
87.5409107789804;-0.43206787109375;5.06999998719948;508;-0.0179931640625;100 mA
87.5509107789552;-0.432586669921875;5.07999998717423;509;-0.0179931640625;100 mA
87.56091077893;-0.433074951171875;5.08999998714899;510;-0.0179931640625;100 mA
87.5709107789047;-0.433624267578125;5.09999998712374;511;-0.0179901123046875;100 mA
87.5809107788795;-0.43414306640625;5.10999998709849;512;-0.0179962158203125;100 mA
87.5909107788542;-0.4346923828125;5.11999998707324;513;-0.017987060546875;100 mA
87.600910778829;-0.435211181640625;5.129999987048;514;-0.0179901123046875;100 mA
87.6109107788037;-0.435760498046875;5.13999998702275;515;-0.0179901123046875;100 mA
87.6209107787785;-0.436309814453125;5.1499999869975;516;-0.0179901123046875;100 mA
87.6309107787532;-0.43682861328125;5.15999998697225;517;-0.0179931640625;100 mA
87.640910778728;-0.437408447265625;5.169999986947;518;-0.0179901123046875;100 mA
87.6509107787027;-0.437957763671875;5.17999998692176;519;-0.0179901123046875;100 mA
87.6609107786775;-0.438507080078125;5.18999998689651;520;-0.0179901123046875;100 mA
87.6709107786522;-0.4390869140625;5.19999998687126;521;-0.0179901123046875;100 mA
87.680910778627;-0.43963623046875;5.20999998684601;522;-0.017987060546875;100 mA
87.6909107786017;-0.440216064453125;5.21999998682077;523;-0.0179901123046875;100 mA
87.7009107785765;-0.4407958984375;5.22999998679552;524;-0.0179840087890625;100 mA
87.7109107785512;-0.44134521484375;5.23999998677027;525;-0.0179901123046875;100 mA
87.720910778526;-0.44195556640625;5.24999998674502;526;-0.017987060546875;100 mA
87.7309107785007;-0.4425048828125;5.25999998671978;527;-0.0179931640625;100 mA
87.7409107784755;-0.443115234375;5.26999998669453;528;-0.0179931640625;100 mA
87.7509107784502;-0.443695068359375;5.27999998666928;529;-0.017987060546875;100 mA
87.760910778425;-0.44427490234375;5.28999998664403;530;-0.0179901123046875;100 mA
87.7709107783998;-0.444915771484375;5.29999998661879;531;-0.0179931640625;100 mA
87.7809107783745;-0.44549560546875;5.30999998659354;532;-0.0179840087890625;100 mA
87.7909107783493;-0.44610595703125;5.31999998656829;533;-0.0179901123046875;100 mA
87.800910778324;-0.446746826171875;5.32999998654304;534;-0.0179901123046875;100 mA
87.8109107782988;-0.44732666015625;5.3399999865178;535;-0.0179901123046875;100 mA
87.8209107782735;-0.447967529296875;5.34999998649255;536;-0.0179931640625;100 mA
87.8309107782483;-0.448577880859375;5.3599999864673;537;-0.0179901123046875;100 mA
87.840910778223;-0.44921875;5.36999998644205;538;-0.0179962158203125;100 mA
87.8509107781978;-0.449859619140625;5.37999998641681;539;-0.0179931640625;100 mA
87.8609107781725;-0.45050048828125;5.38999998639156;540;-0.0179931640625;100 mA
87.8709107781473;-0.451171875;5.39999998636631;541;-0.017987060546875;100 mA
87.880910778122;-0.4517822265625;5.40999998634106;542;-0.0179901123046875;100 mA
87.8909107780968;-0.45245361328125;5.41999998631582;543;-0.0179962158203125;100 mA
87.9009107780715;-0.453125;5.42999998629057;544;-0.0179901123046875;100 mA
87.9109107780463;-0.453765869140625;5.43999998626532;545;-0.017987060546875;100 mA
87.920910778021;-0.4544677734375;5.44999998624007;546;-0.017987060546875;100 mA
87.9309107779958;-0.45513916015625;5.45999998621483;547;-0.0179962158203125;100 mA
87.9409107779705;-0.455810546875;5.46999998618958;548;-0.0179931640625;100 mA
87.9509107779453;-0.456512451171875;5.47999998616433;549;-0.0179901123046875;100 mA
87.96091077792;-0.45721435546875;5.48999998613908;550;-0.0179901123046875;100 mA
87.9709107778948;-0.457916259765625;5.49999998611383;551;-0.01798095703125;100 mA
87.9809107778696;-0.4586181640625;5.50999998608859;552;-0.0179901123046875;100 mA
87.9909107778443;-0.4593505859375;5.51999998606334;553;-0.0179901123046875;100 mA
88.0009107778191;-0.460052490234375;5.52999998603809;554;-0.0179901123046875;100 mA
88.0109107777938;-0.460784912109375;5.53999998601284;555;-0.0179962158203125;100 mA
88.0209107777686;-0.4615478515625;5.5499999859876;556;-0.0179901123046875;100 mA
88.0309107777433;-0.462249755859375;5.55999998596235;557;-0.0179901123046875;100 mA
88.0409107777181;-0.4630126953125;5.5699999859371;558;-0.0179962158203125;100 mA
88.0509107776928;-0.463775634765625;5.57999998591185;559;-0.017987060546875;100 mA
88.0609107776676;-0.46453857421875;5.58999998588661;560;-0.0179901123046875;100 mA
88.0709107776423;-0.46533203125;5.59999998586136;561;-0.0179901123046875;100 mA
88.0809107776171;-0.466094970703125;5.60999998583611;562;-0.017987060546875;100 mA
88.0909107775918;-0.466888427734375;5.61999998581086;563;-0.0179901123046875;100 mA
88.1009107775666;-0.467681884765625;5.62999998578562;564;-0.0179931640625;100 mA
88.1109107775413;-0.468475341796875;5.63999998576037;565;-0.0179962158203125;100 mA
88.1209107775161;-0.469268798828125;5.64999998573512;566;-0.0179901123046875;100 mA
88.1309107774908;-0.4700927734375;5.65999998570987;567;-0.0179901123046875;100 mA
88.1409107774656;-0.470916748046875;5.66999998568463;568;-0.0179901123046875;100 mA
88.1509107774403;-0.471771240234375;5.67999998565938;569;-0.0179931640625;100 mA
88.1609107774151;-0.47259521484375;5.68999998563413;570;-0.0179901123046875;100 mA
88.1709107773898;-0.473480224609375;5.69999998560888;571;-0.017987060546875;100 mA
88.1809107773646;-0.47430419921875;5.70999998558364;572;-0.0179901123046875;100 mA
88.1909107773394;-0.475189208984375;5.71999998555839;573;-0.0179901123046875;100 mA
88.2009107773141;-0.47607421875;5.72999998553314;574;-0.0179901123046875;100 mA
88.2109107772889;-0.476959228515625;5.73999998550789;575;-0.0179840087890625;100 mA
88.2209107772636;-0.4779052734375;5.74999998548265;576;-0.0179931640625;100 mA
88.2309107772384;-0.478790283203125;5.7599999854574;577;-0.0179901123046875;100 mA
88.2409107772131;-0.479736328125;5.76999998543215;578;-0.0179901123046875;100 mA
88.2509107771879;-0.480682373046875;5.7799999854069;579;-0.0179901123046875;100 mA
88.2609107771626;-0.481597900390625;5.78999998538166;580;-0.0179962158203125;100 mA
88.2709107771374;-0.48260498046875;5.79999998535641;581;-0.0179840087890625;100 mA
88.2809107771121;-0.483551025390625;5.80999998533116;582;-0.0179901123046875;100 mA
88.2909107770869;-0.484527587890625;5.81999998530591;583;-0.0179901123046875;100 mA
88.3009107770616;-0.48553466796875;5.82999998528066;584;-0.017987060546875;100 mA
88.3109107770364;-0.486541748046875;5.83999998525542;585;-0.0179962158203125;100 mA
88.3209107770111;-0.487579345703125;5.84999998523017;586;-0.0179962158203125;100 mA
88.3309107769859;-0.48858642578125;5.85999998520492;587;-0.0179901123046875;100 mA
88.3409107769606;-0.489654541015625;5.86999998517967;588;-0.0179931640625;100 mA
88.3509107769354;-0.49072265625;5.87999998515443;589;-0.0179931640625;100 mA
88.3609107769101;-0.491790771484375;5.88999998512918;590;-0.0179931640625;100 mA
88.3709107768849;-0.492919921875;5.89999998510393;591;-0.017987060546875;100 mA
88.3809107768597;-0.493988037109375;5.90999998507868;592;-0.0179901123046875;100 mA
88.3909107768344;-0.495147705078125;5.91999998505344;593;-0.017987060546875;100 mA
88.4009107768092;-0.49627685546875;5.92999998502819;594;-0.017987060546875;100 mA
88.4109107767839;-0.4974365234375;5.93999998500294;595;-0.0179901123046875;100 mA
88.4209107767587;-0.498626708984375;5.94999998497769;596;-0.0179901123046875;100 mA
88.4309107767334;-0.49957275390625;5.95999998495245;597;-0.0179901123046875;100 mA
88.4409107767082;-0.5010986328125;5.9699999849272;598;-0.01798095703125;100 mA
88.4509107766829;-0.5023193359375;5.97999998490195;599;-0.0179840087890625;100 mA
88.4609107766577;-0.5035400390625;5.9899999848767;600;-0.0179931640625;100 mA
88.4709107766324;-0.5047607421875;5.99999998485146;601;-0.017987060546875;100 mA
88.4809107766072;-0.5059814453125;6.00999998482621;602;-0.0179901123046875;100 mA
88.4909107765819;-0.5072021484375;6.01999998480096;603;-0.0179840087890625;100 mA
88.5009107765567;-0.50872802734375;6.02999998477571;604;-0.017987060546875;100 mA
88.5109107765314;-0.50994873046875;6.03999998475047;605;-0.0179931640625;100 mA
88.5209107765062;-0.511474609375;6.04999998472522;606;-0.0179840087890625;100 mA
88.5309107764809;-0.5126953125;6.05999998469997;607;-0.017987060546875;100 mA
88.5409107764557;-0.51422119140625;6.06999998467472;608;-0.0179901123046875;100 mA
88.5509107764304;-0.5157470703125;6.07999998464948;609;-0.017987060546875;100 mA
88.5609107764052;-0.51727294921875;6.08999998462423;610;-0.0179901123046875;100 mA
88.5709107763799;-0.518798828125;6.09999998459898;611;-0.0179840087890625;100 mA
88.5809107763547;-0.52032470703125;6.10999998457373;612;-0.0179901123046875;100 mA
88.5909107763295;-0.5218505859375;6.11999998454849;613;-0.0179840087890625;100 mA
88.6009107763042;-0.52337646484375;6.12999998452324;614;-0.017987060546875;100 mA
88.610910776279;-0.52490234375;6.13999998449799;615;-0.01798095703125;100 mA
88.6209107762537;-0.5267333984375;6.14999998447274;616;-0.0179840087890625;100 mA
88.6309107762285;-0.52825927734375;6.1599999844475;617;-0.0179901123046875;100 mA
88.6409107762032;-0.53009033203125;6.16999998442225;618;-0.017987060546875;100 mA
88.650910776178;-0.53192138671875;6.179999984397;619;-0.017987060546875;100 mA
88.6609107761527;-0.53375244140625;6.18999998437175;620;-0.0179901123046875;100 mA
88.6709107761275;-0.53558349609375;6.1999999843465;621;-0.01798095703125;100 mA
88.6809107761022;-0.53741455078125;6.20999998432126;622;-0.017987060546875;100 mA
88.690910776077;-0.53924560546875;6.21999998429601;623;-0.017987060546875;100 mA
88.7009107760517;-0.54107666015625;6.22999998427076;624;-0.0179840087890625;100 mA
88.7109107760265;-0.543212890625;6.23999998424551;625;-0.017987060546875;100 mA
88.7209107760012;-0.54534912109375;6.24999998422027;626;-0.0179840087890625;100 mA
88.730910775976;-0.5474853515625;6.25999998419502;627;-0.0179901123046875;100 mA
88.7409107759507;-0.54962158203125;6.26999998416977;628;-0.0179901123046875;100 mA
88.7509107759255;-0.5517578125;6.27999998414452;629;-0.0179901123046875;100 mA
88.7609107759002;-0.55389404296875;6.28999998411928;630;-0.0179931640625;100 mA
88.770910775875;-0.55633544921875;6.29999998409403;631;-0.017987060546875;100 mA
88.7809107758497;-0.5584716796875;6.30999998406878;632;-0.0179840087890625;100 mA
88.7909107758245;-0.5609130859375;6.31999998404353;633;-0.017987060546875;100 mA
88.8009107757993;-0.5633544921875;6.32999998401829;634;-0.017987060546875;100 mA
88.810910775774;-0.5657958984375;6.33999998399304;635;-0.0179901123046875;100 mA
88.8209107757488;-0.56854248046875;6.34999998396779;636;-0.01798095703125;100 mA
88.8309107757235;-0.57098388671875;6.35999998394254;637;-0.0179901123046875;100 mA
88.8409107756983;-0.57373046875;6.3699999839173;638;-0.017987060546875;100 mA
88.850910775673;-0.57647705078125;6.37999998389205;639;-0.01798095703125;100 mA
88.8609107756478;-0.5792236328125;6.3899999838668;640;-0.017987060546875;100 mA
88.8709107756225;-0.582275390625;6.39999998384155;641;-0.017987060546875;100 mA
88.8809107755973;-0.58502197265625;6.40999998381631;642;-0.017987060546875;100 mA
88.890910775572;-0.58807373046875;6.41999998379106;643;-0.017987060546875;100 mA
88.9009107755468;-0.59112548828125;6.42999998376581;644;-0.0179901123046875;100 mA
88.9109107755215;-0.594482421875;6.43999998374056;645;-0.0179840087890625;100 mA
88.9209107754963;-0.5975341796875;6.44999998371532;646;-0.017987060546875;100 mA
88.930910775471;-0.60089111328125;6.45999998369007;647;-0.017987060546875;100 mA
88.9409107754458;-0.604248046875;6.46999998366482;648;-0.0179931640625;100 mA
88.9509107754205;-0.60791015625;6.47999998363957;649;-0.0179901123046875;100 mA
88.9609107753953;-0.61126708984375;6.48999998361433;650;-0.017987060546875;100 mA
88.97091077537;-0.61492919921875;6.49999998358908;651;-0.0179840087890625;100 mA
88.9809107753448;-0.61859130859375;6.50999998356383;652;-0.0179840087890625;100 mA
88.9909107753195;-0.62225341796875;6.51999998353858;653;-0.017987060546875;100 mA
89.0009107752943;-0.626220703125;6.52999998351333;654;-0.01798095703125;100 mA
89.0109107752691;-0.63018798828125;6.53999998348809;655;-0.0179931640625;100 mA
89.0209107752438;-0.6341552734375;6.54999998346284;656;-0.0179840087890625;100 mA
89.0309107752186;-0.63812255859375;6.55999998343759;657;-0.017987060546875;100 mA
89.0409107751933;-0.64208984375;6.56999998341234;658;-0.0179901123046875;100 mA
89.0509107751681;-0.6463623046875;6.5799999833871;659;-0.017987060546875;100 mA
89.0609107751428;-0.65032958984375;6.58999998336185;660;-0.0179840087890625;100 mA
89.0709107751176;-0.6549072265625;6.5999999833366;661;-0.0179840087890625;100 mA
89.0809107750923;-0.6591796875;6.60999998331135;662;-0.017987060546875;100 mA
89.0909107750671;-0.6634521484375;6.61999998328611;663;-0.017987060546875;100 mA
89.1009107750418;-0.66802978515625;6.62999998326086;664;-0.01798095703125;100 mA
89.1109107750166;-0.67230224609375;6.63999998323561;665;-0.017987060546875;100 mA
89.1209107749913;-0.6768798828125;6.64999998321036;666;-0.0179931640625;100 mA
89.1309107749661;-0.68145751953125;6.65999998318512;667;-0.0179840087890625;100 mA
89.1409107749408;-0.68603515625;6.66999998315987;668;-0.0179840087890625;100 mA
89.1509107749156;-0.69061279296875;6.67999998313462;669;-0.0179840087890625;100 mA
89.1609107748903;-0.6951904296875;6.68999998310937;670;-0.0179840087890625;100 mA
89.1709107748651;-0.69976806640625;6.69999998308413;671;-0.0179840087890625;100 mA
89.1809107748398;-0.70465087890625;6.70999998305888;672;-0.0179779052734375;100 mA
89.1909107748146;-0.709228515625;6.71999998303363;673;-0.0179840087890625;100 mA
89.2009107747893;-0.71380615234375;6.72999998300838;674;-0.01798095703125;100 mA
89.2109107747641;-0.71868896484375;6.73999998298314;675;-0.017987060546875;100 mA
89.2209107747389;-0.7232666015625;6.74999998295789;676;-0.0179840087890625;100 mA
89.2309107747136;-0.72784423828125;6.75999998293264;677;-0.017987060546875;100 mA
89.2409107746884;-0.73272705078125;6.76999998290739;678;-0.017987060546875;100 mA
89.2509107746631;-0.7373046875;6.77999998288215;679;-0.01798095703125;100 mA
89.2609107746379;-0.74188232421875;6.7899999828569;680;-0.017987060546875;100 mA
89.2709107746126;-0.74676513671875;6.79999998283165;681;-0.01798095703125;100 mA
89.2809107745874;-0.7513427734375;6.8099999828064;682;-0.0179840087890625;100 mA
89.2909107745621;-0.7562255859375;6.81999998278116;683;-0.0179840087890625;100 mA
89.3009107745369;-0.76080322265625;6.82999998275591;684;-0.0179901123046875;100 mA
89.3109107745116;-0.765380859375;6.83999998273066;685;-0.0179840087890625;100 mA
89.3209107744864;-0.76995849609375;6.84999998270541;686;-0.0179840087890625;100 mA
89.3309107744611;-0.7745361328125;6.85999998268016;687;-0.0179840087890625;100 mA
89.3409107744359;-0.77911376953125;6.86999998265492;688;-0.01798095703125;100 mA
89.3509107744106;-0.78369140625;6.87999998262967;689;-0.0179840087890625;100 mA
89.3609107743854;-0.78826904296875;6.88999998260442;690;-0.017987060546875;100 mA
89.3709107743601;-0.7928466796875;6.89999998257917;691;-0.0179840087890625;100 mA
89.3809107743349;-0.79742431640625;6.90999998255393;692;-0.0179840087890625;100 mA
89.3909107743096;-0.802001953125;6.91999998252868;693;-0.017987060546875;100 mA
89.4009107742844;-0.80657958984375;6.92999998250343;694;-0.01798095703125;100 mA
89.4109107742592;-0.8111572265625;6.93999998247818;695;-0.017987060546875;100 mA
89.4209107742339;-0.81573486328125;6.94999998245294;696;-0.0179840087890625;100 mA
89.4309107742087;-0.8203125;6.95999998242769;697;-0.0179779052734375;100 mA
89.4409107741834;-0.8251953125;6.96999998240244;698;-0.01798095703125;100 mA
89.4509107741582;-0.82977294921875;6.97999998237719;699;-0.01798095703125;100 mA
89.4609107741329;-0.83404541015625;6.98999998235195;700;-0.017987060546875;100 mA
89.4709107741077;-0.83892822265625;6.9999999823267;701;-0.017987060546875;100 mA
89.4809107740824;-0.84320068359375;7.00999998230145;702;-0.0179840087890625;100 mA
89.4909107740572;-0.8477783203125;7.0199999822762;703;-0.01798095703125;100 mA
89.5009107740319;-0.85235595703125;7.02999998225096;704;-0.0179840087890625;100 mA
89.5109107740067;-0.85693359375;7.03999998222571;705;-0.0179840087890625;100 mA
89.5209107739814;-0.86181640625;7.04999998220046;706;-0.01798095703125;100 mA
89.5309107739562;-0.86639404296875;7.05999998217521;707;-0.01798095703125;100 mA
89.5409107739309;-0.8709716796875;7.06999998214997;708;-0.0179840087890625;100 mA
89.5509107739057;-0.87554931640625;7.07999998212472;709;-0.0179840087890625;100 mA
89.5609107738804;-0.880126953125;7.08999998209947;710;-0.0179840087890625;100 mA
89.5709107738552;-0.88470458984375;7.09999998207422;711;-0.0179840087890625;100 mA
89.5809107738299;-0.8892822265625;7.10999998204898;712;-0.0179779052734375;100 mA
89.5909107738047;-0.8935546875;7.11999998202373;713;-0.01798095703125;100 mA
89.6009107737794;-0.8984375;7.12999998199848;714;-0.0179840087890625;100 mA
89.6109107737542;-0.90301513671875;7.13999998197323;715;-0.0179840087890625;100 mA
89.620910773729;-0.90728759765625;7.14999998194799;716;-0.01798095703125;100 mA
89.6309107737037;-0.911865234375;7.15999998192274;717;-0.01798095703125;100 mA
89.6409107736785;-0.91644287109375;7.16999998189749;718;-0.0179840087890625;100 mA
89.6509107736532;-0.9210205078125;7.17999998187224;719;-0.01798095703125;100 mA
89.660910773628;-0.92559814453125;7.189999981847;720;-0.0179840087890625;100 mA
89.6709107736027;-0.92987060546875;7.19999998182175;721;-0.01798095703125;100 mA
89.6809107735775;-0.9344482421875;7.2099999817965;722;-0.01798095703125;100 mA
89.6909107735522;-0.938720703125;7.21999998177125;723;-0.01798095703125;100 mA
89.700910773527;-0.94329833984375;7.229999981746;724;-0.01798095703125;100 mA
89.7109107735017;-0.94757080078125;7.23999998172076;725;-0.01798095703125;100 mA
89.7209107734765;-0.9521484375;7.24999998169551;726;-0.01798095703125;100 mA
89.7309107734512;-0.9564208984375;7.25999998167026;727;-0.01798095703125;100 mA
89.740910773426;-0.960693359375;7.26999998164501;728;-0.0179840087890625;100 mA
89.7509107734007;-0.96527099609375;7.27999998161977;729;-0.0179840087890625;100 mA
89.7609107733755;-0.96954345703125;7.28999998159452;730;-0.0179840087890625;100 mA
89.7709107733502;-0.97381591796875;7.29999998156927;731;-0.0179779052734375;100 mA
89.780910773325;-0.97808837890625;7.30999998154402;732;-0.01798095703125;100 mA
89.7909107732997;-0.98236083984375;7.31999998151878;733;-0.01798095703125;100 mA
89.8009107732745;-0.98663330078125;7.32999998149353;734;-0.01798095703125;100 mA
89.8109107732492;-0.99090576171875;7.33999998146828;735;-0.0179840087890625;100 mA
89.820910773224;-0.99517822265625;7.34999998144303;736;-0.017987060546875;100 mA
89.8309107731988;-0.99945068359375;7.35999998141779;737;-0.0179779052734375;100 mA
89.8409107731735;-1.00341796875;7.36999998139254;738;-0.0179779052734375;100 mA
89.8509107731483;-1.0076904296875;7.37999998136729;739;-0.01798095703125;100 mA
89.860910773123;-1.011962890625;7.38999998134204;740;-0.01798095703125;100 mA
89.8709107730978;-1.01593017578125;7.3999999813168;741;-0.0179840087890625;100 mA
89.8809107730725;-1.02020263671875;7.40999998129155;742;-0.017987060546875;100 mA
89.8909107730473;-1.024169921875;7.4199999812663;743;-0.01798095703125;100 mA
89.900910773022;-1.02813720703125;7.42999998124105;744;-0.0179840087890625;100 mA
89.9109107729968;-1.0321044921875;7.43999998121581;745;-0.0179840087890625;100 mA
89.9209107729715;-1.03607177734375;7.44999998119056;746;-0.0179840087890625;100 mA
89.9309107729463;-1.0400390625;7.45999998116531;747;-0.0179901123046875;100 mA
89.940910772921;-1.04400634765625;7.46999998114006;748;-0.01798095703125;100 mA
89.9509107728958;-1.04766845703125;7.47999998111482;749;-0.0179840087890625;100 mA
89.9609107728705;-1.0516357421875;7.48999998108957;750;-0.0179901123046875;100 mA
89.9709107728453;-1.0552978515625;7.49999998106432;751;-0.0179840087890625;100 mA
89.98091077282;-1.05926513671875;7.50999998103907;752;-0.0179779052734375;100 mA
89.9909107727948;-1.06292724609375;7.51999998101383;753;-0.01798095703125;100 mA
90.0009107727695;-1.06658935546875;7.52999998098858;754;-0.01798095703125;100 mA
90.0109107727443;-1.07025146484375;7.53999998096333;755;-0.01798095703125;100 mA
90.020910772719;-1.07391357421875;7.54999998093808;756;-0.0179779052734375;100 mA
90.0309107726938;-1.07757568359375;7.55999998091283;757;-0.01798095703125;100 mA
90.0409107726686;-1.08123779296875;7.56999998088759;758;-0.01798095703125;100 mA
90.0509107726433;-1.0845947265625;7.57999998086234;759;-0.01798095703125;100 mA
90.0609107726181;-1.0882568359375;7.58999998083709;760;-0.0179779052734375;100 mA
90.0709107725928;-1.09161376953125;7.59999998081184;761;-0.0179840087890625;100 mA
90.0809107725676;-1.094970703125;7.6099999807866;762;-0.01798095703125;100 mA
90.0909107725423;-1.09832763671875;7.61999998076135;763;-0.017987060546875;100 mA
90.1009107725171;-1.1016845703125;7.6299999807361;764;-0.01798095703125;100 mA
90.1109107724918;-1.10504150390625;7.63999998071085;765;-0.01798095703125;100 mA
90.1209107724666;-1.1083984375;7.64999998068561;766;-0.01798095703125;100 mA
90.1309107724413;-1.1114501953125;7.65999998066036;767;-0.0179840087890625;100 mA
90.1409107724161;-1.11480712890625;7.66999998063511;768;-0.017987060546875;100 mA
90.1509107723908;-1.11785888671875;7.67999998060986;769;-0.01798095703125;100 mA
90.1609107723656;-1.1212158203125;7.68999998058462;770;-0.0179840087890625;100 mA
90.1709107723403;-1.124267578125;7.69999998055937;771;-0.0179840087890625;100 mA
90.1809107723151;-1.12762451171875;7.70999998053412;772;-0.017987060546875;100 mA
90.1909107722898;-1.13067626953125;7.71999998050887;773;-0.01798095703125;100 mA
90.2009107722646;-1.134033203125;7.72999998048363;774;-0.0179840087890625;100 mA
90.2109107722393;-1.1370849609375;7.73999998045838;775;-0.0179779052734375;100 mA
90.2209107722141;-1.14013671875;7.74999998043313;776;-0.017974853515625;100 mA
90.2309107721888;-1.1431884765625;7.75999998040788;777;-0.01798095703125;100 mA
90.2409107721636;-1.146240234375;7.76999998038264;778;-0.0179840087890625;100 mA
90.2509107721384;-1.1492919921875;7.77999998035739;779;-0.0179779052734375;100 mA
90.2609107721131;-1.15234375;7.78999998033214;780;-0.0179840087890625;100 mA
90.2709107720879;-1.1553955078125;7.79999998030689;781;-0.017987060546875;100 mA
90.2809107720626;-1.158447265625;7.80999998028165;782;-0.017974853515625;100 mA
90.2909107720374;-1.1614990234375;7.8199999802564;783;-0.0179779052734375;100 mA
90.3009107720121;-1.16455078125;7.82999998023115;784;-0.017987060546875;100 mA
90.3109107719869;-1.1676025390625;7.8399999802059;785;-0.01798095703125;100 mA
90.3209107719616;-1.170654296875;7.84999998018066;786;-0.01798095703125;100 mA
90.3309107719364;-1.1737060546875;7.85999998015541;787;-0.0179840087890625;100 mA
90.3409107719111;-1.17645263671875;7.86999998013016;788;-0.0179779052734375;100 mA
90.3509107718859;-1.17950439453125;7.87999998010491;789;-0.0179840087890625;100 mA
90.3609107718606;-1.18255615234375;7.88999998007966;790;-0.0179840087890625;100 mA
90.3709107718354;-1.185302734375;7.89999998005442;791;-0.0179779052734375;100 mA
90.3809107718101;-1.1883544921875;7.90999998002917;792;-0.01798095703125;100 mA
90.3909107717849;-1.19110107421875;7.91999998000392;793;-0.01798095703125;100 mA
90.4009107717596;-1.19415283203125;7.92999997997867;794;-0.01798095703125;100 mA
90.4109107717344;-1.1968994140625;7.93999997995343;795;-0.01798095703125;100 mA
90.4209107717091;-1.199951171875;7.94999997992818;796;-0.017974853515625;100 mA
90.4309107716839;-1.20269775390625;7.95999997990293;797;-0.0179779052734375;100 mA
90.4409107716587;-1.2054443359375;7.96999997987768;798;-0.017974853515625;100 mA
90.4509107716334;-1.20819091796875;7.97999997985244;799;-0.01798095703125;100 mA
90.4609107716082;-1.21124267578125;7.98999997982719;800;-0.0179779052734375;100 mA
90.4709107715829;-1.2139892578125;7.99999997980194;801;-0.01798095703125;100 mA
90.4809107715577;-1.21673583984375;8.00999997977669;802;-0.01798095703125;100 mA
90.4909107715324;-1.219482421875;8.01999997975145;803;-0.0179779052734375;100 mA
90.5009107715072;-1.22222900390625;8.0299999797262;804;-0.0179779052734375;100 mA
90.5109107714819;-1.2249755859375;8.03999997970095;805;-0.017974853515625;100 mA
90.5209107714567;-1.22772216796875;8.0499999796757;806;-0.0179779052734375;100 mA
90.5309107714314;-1.23046875;8.05999997965046;807;-0.01798095703125;100 mA
90.5409107714062;-1.23321533203125;8.06999997962521;808;-0.017974853515625;100 mA
90.5509107713809;-1.2359619140625;8.07999997959996;809;-0.017974853515625;100 mA
90.5609107713557;-1.23870849609375;8.08999997957471;810;-0.017987060546875;100 mA
90.5709107713304;-1.241455078125;8.09999997954947;811;-0.01798095703125;100 mA
90.5809107713052;-1.243896484375;8.10999997952422;812;-0.017974853515625;100 mA
90.5909107712799;-1.24664306640625;8.11999997949897;813;-0.01798095703125;100 mA
90.6009107712547;-1.24908447265625;8.12999997947372;814;-0.01798095703125;100 mA
90.6109107712294;-1.2518310546875;8.13999997944848;815;-0.01798095703125;100 mA
90.6209107712042;-1.2542724609375;8.14999997942323;816;-0.0179779052734375;100 mA
90.6309107711789;-1.25701904296875;8.15999997939798;817;-0.0179840087890625;100 mA
90.6409107711537;-1.25946044921875;8.16999997937273;818;-0.0179779052734375;100 mA
90.6509107711285;-1.26220703125;8.17999997934749;819;-0.01798095703125;100 mA
90.6609107711032;-1.2646484375;8.18999997932224;820;-0.01798095703125;100 mA
90.670910771078;-1.26708984375;8.19999997929699;821;-0.0179779052734375;100 mA
90.6809107710527;-1.26983642578125;8.20999997927174;822;-0.0179779052734375;100 mA
90.6909107710275;-1.27227783203125;8.2199999792465;823;-0.0179779052734375;100 mA
90.7009107710022;-1.27471923828125;8.22999997922125;824;-0.01798095703125;100 mA
90.710910770977;-1.27716064453125;8.239999979196;825;-0.017974853515625;100 mA
90.7209107709517;-1.2799072265625;8.24999997917075;826;-0.017974853515625;100 mA
90.7309107709265;-1.2823486328125;8.2599999791455;827;-0.01798095703125;100 mA
90.7409107709012;-1.2847900390625;8.26999997912026;828;-0.0179779052734375;100 mA
90.750910770876;-1.2872314453125;8.27999997909501;829;-0.0179779052734375;100 mA
90.7609107708507;-1.2896728515625;8.28999997906976;830;-0.0179779052734375;100 mA
90.7709107708255;-1.2921142578125;8.29999997904451;831;-0.01798095703125;100 mA
90.7809107708002;-1.2945556640625;8.30999997901927;832;-0.01798095703125;100 mA
90.790910770775;-1.2969970703125;8.31999997899402;833;-0.017974853515625;100 mA
90.8009107707497;-1.2994384765625;8.32999997896877;834;-0.01798095703125;100 mA
90.8109107707245;-1.3018798828125;8.33999997894352;835;-0.01798095703125;100 mA
90.8209107706992;-1.3043212890625;8.34999997891828;836;-0.0179779052734375;100 mA
90.830910770674;-1.3067626953125;8.35999997889303;837;-0.0179779052734375;100 mA
90.8409107706487;-1.3092041015625;8.36999997886778;838;-0.0179840087890625;100 mA
90.8509107706235;-1.3116455078125;8.37999997884253;839;-0.01798095703125;100 mA
90.8609107705983;-1.3140869140625;8.38999997881729;840;-0.01798095703125;100 mA
90.870910770573;-1.31622314453125;8.39999997879204;841;-0.0179779052734375;100 mA
90.8809107705478;-1.31866455078125;8.40999997876679;842;-0.01798095703125;100 mA
90.8909107705225;-1.32110595703125;8.41999997874154;843;-0.0179779052734375;100 mA
90.9009107704973;-1.32354736328125;8.4299999787163;844;-0.01798095703125;100 mA
90.910910770472;-1.32598876953125;8.43999997869105;845;-0.01798095703125;100 mA
90.9209107704468;-1.328125;8.4499999786658;846;-0.0179779052734375;100 mA
90.9309107704215;-1.33056640625;8.45999997864055;847;-0.0179779052734375;100 mA
90.9409107703963;-1.3330078125;8.46999997861531;848;-0.017974853515625;100 mA
90.950910770371;-1.33544921875;8.47999997859006;849;-0.0179840087890625;100 mA
90.9609107703458;-1.33758544921875;8.48999997856481;850;-0.01798095703125;100 mA
90.9709107703205;-1.34002685546875;8.49999997853956;851;-0.0179718017578125;100 mA
90.9809107702953;-1.34246826171875;8.50999997851432;852;-0.0179779052734375;100 mA
90.99091077027;-1.3446044921875;8.51999997848907;853;-0.0179718017578125;100 mA
91.0009107702448;-1.3470458984375;8.52999997846382;854;-0.0179779052734375;100 mA
91.0109107702195;-1.3494873046875;8.53999997843857;855;-0.0179779052734375;100 mA
91.0209107701943;-1.3519287109375;8.54999997841333;856;-0.0179779052734375;100 mA
91.030910770169;-1.35406494140625;8.55999997838808;857;-0.01798095703125;100 mA
91.0409107701438;-1.35650634765625;8.56999997836283;858;-0.01798095703125;100 mA
91.0509107701185;-1.35894775390625;8.57999997833758;859;-0.0179718017578125;100 mA
91.0609107700933;-1.361083984375;8.58999997831233;860;-0.017974853515625;100 mA
91.0709107700681;-1.363525390625;8.59999997828709;861;-0.0179840087890625;100 mA
91.0809107700428;-1.365966796875;8.60999997826184;862;-0.01798095703125;100 mA
91.0909107700176;-1.368408203125;8.61999997823659;863;-0.0179840087890625;100 mA
91.1009107699923;-1.37054443359375;8.62999997821134;864;-0.0179779052734375;100 mA
91.1109107699671;-1.37298583984375;8.6399999781861;865;-0.0179779052734375;100 mA
91.1209107699418;-1.37542724609375;8.64999997816085;866;-0.017974853515625;100 mA
91.1309107699166;-1.3775634765625;8.6599999781356;867;-0.01798095703125;100 mA
91.1409107698913;-1.3800048828125;8.66999997811035;868;-0.01798095703125;100 mA
91.1509107698661;-1.38214111328125;8.67999997808511;869;-0.0179779052734375;100 mA
91.1609107698408;-1.38458251953125;8.68999997805986;870;-0.01798095703125;100 mA
91.1709107698156;-1.38702392578125;8.69999997803461;871;-0.0179840087890625;100 mA
91.1809107697903;-1.38916015625;8.70999997800936;872;-0.0179840087890625;100 mA
91.1909107697651;-1.3916015625;8.71999997798412;873;-0.0179840087890625;100 mA
91.2009107697398;-1.39373779296875;8.72999997795887;874;-0.0179779052734375;100 mA
91.2109107697146;-1.39617919921875;8.73999997793362;875;-0.017974853515625;100 mA
91.2209107696893;-1.3983154296875;8.74999997790837;876;-0.01796875;100 mA
91.2309107696641;-1.40045166015625;8.75999997788313;877;-0.0179779052734375;100 mA
91.2409107696388;-1.40289306640625;8.76999997785788;878;-0.01798095703125;100 mA
91.2509107696136;-1.405029296875;8.77999997783263;879;-0.0179779052734375;100 mA
91.2609107695883;-1.40716552734375;8.78999997780738;880;-0.017974853515625;100 mA
91.2709107695631;-1.4093017578125;8.79999997778214;881;-0.0179779052734375;100 mA
91.2809107695379;-1.4117431640625;8.80999997775689;882;-0.017974853515625;100 mA
91.2909107695126;-1.41387939453125;8.81999997773164;883;-0.017974853515625;100 mA
91.3009107694874;-1.416015625;8.82999997770639;884;-0.017974853515625;100 mA
91.3109107694621;-1.41815185546875;8.83999997768115;885;-0.0179779052734375;100 mA
91.3209107694369;-1.4202880859375;8.8499999776559;886;-0.0179779052734375;100 mA
91.3309107694116;-1.42242431640625;8.85999997763065;887;-0.0179779052734375;100 mA
91.3409107693864;-1.424560546875;8.8699999776054;888;-0.0179779052734375;100 mA
91.3509107693611;-1.4263916015625;8.87999997758016;889;-0.01798095703125;100 mA
91.3609107693359;-1.42852783203125;8.88999997755491;890;-0.01798095703125;100 mA
91.3709107693106;-1.4306640625;8.89999997752966;891;-0.017974853515625;100 mA
91.3809107692854;-1.4324951171875;8.90999997750441;892;-0.0179779052734375;100 mA
91.3909107692601;-1.43463134765625;8.91999997747916;893;-0.0179779052734375;100 mA
91.4009107692349;-1.43646240234375;8.92999997745392;894;-0.017974853515625;100 mA
91.4109107692096;-1.43829345703125;8.93999997742867;895;-0.017974853515625;100 mA
91.4209107691844;-1.4404296875;8.94999997740342;896;-0.017974853515625;100 mA
91.4309107691591;-1.4422607421875;8.95999997737817;897;-0.017974853515625;100 mA
91.4409107691339;-1.444091796875;8.96999997735293;898;-0.0179718017578125;100 mA
91.4509107691086;-1.4459228515625;8.97999997732768;899;-0.017974853515625;100 mA
91.4609107690834;-1.44775390625;8.98999997730243;900;-0.017987060546875;100 mA
91.4709107690582;-1.4495849609375;8.99999997727718;901;-0.0179718017578125;100 mA
91.4809107690329;-1.451416015625;9.00999997725194;902;-0.0179718017578125;100 mA
91.4909107690077;-1.4532470703125;9.01999997722669;903;-0.01798095703125;100 mA
91.5009107689824;-1.45477294921875;9.02999997720144;904;-0.01798095703125;100 mA
91.5109107689572;-1.45660400390625;9.03999997717619;905;-0.0179779052734375;100 mA
91.5209107689319;-1.4581298828125;9.04999997715095;906;-0.0179718017578125;100 mA
91.5309107689067;-1.4599609375;9.0599999771257;907;-0.0179779052734375;100 mA
91.5409107688814;-1.46148681640625;9.06999997710045;908;-0.01796875;100 mA
91.5509107688562;-1.4630126953125;9.0799999770752;909;-0.0179718017578125;100 mA
91.5609107688309;-1.46484375;9.08999997704996;910;-0.0179840087890625;100 mA
91.5709107688057;-1.46636962890625;9.09999997702471;911;-0.0179779052734375;100 mA
91.5809107687804;-1.4678955078125;9.10999997699946;912;-0.0179779052734375;100 mA
91.5909107687552;-1.46942138671875;9.11999997697421;913;-0.0179718017578125;100 mA
91.6009107687299;-1.470947265625;9.12999997694897;914;-0.0179779052734375;100 mA
91.6109107687047;-1.47247314453125;9.13999997692372;915;-0.017974853515625;100 mA
91.6209107686794;-1.4739990234375;9.14999997689847;916;-0.017974853515625;100 mA
91.6309107686542;-1.4752197265625;9.15999997687322;917;-0.017974853515625;100 mA
91.6409107686289;-1.47674560546875;9.16999997684798;918;-0.017974853515625;100 mA
91.6509107686037;-1.478271484375;9.17999997682273;919;-0.017974853515625;100 mA
91.6609107685784;-1.47979736328125;9.18999997679748;920;-0.0179779052734375;100 mA
91.6709107685532;-1.48101806640625;9.19999997677223;921;-0.01798095703125;100 mA
91.680910768528;-1.4825439453125;9.20999997674699;922;-0.01798095703125;100 mA
91.6909107685027;-1.4837646484375;9.21999997672174;923;-0.0179779052734375;100 mA
91.7009107684775;-1.48529052734375;9.22999997669649;924;-0.0179779052734375;100 mA
91.7109107684522;-1.48651123046875;9.23999997667124;925;-0.0179779052734375;100 mA
91.720910768427;-1.488037109375;9.249999976646;926;-0.017974853515625;100 mA
91.7309107684017;-1.4892578125;9.25999997662075;927;-0.017974853515625;100 mA
91.7409107683765;-1.490478515625;9.2699999765955;928;-0.017974853515625;100 mA
91.7509107683512;-1.49200439453125;9.27999997657025;929;-0.0179779052734375;100 mA
91.760910768326;-1.49322509765625;9.289999976545;930;-0.017974853515625;100 mA
91.7709107683007;-1.49444580078125;9.29999997651976;931;-0.0179779052734375;100 mA
91.7809107682755;-1.4959716796875;9.30999997649451;932;-0.0179779052734375;100 mA
91.7909107682502;-1.4971923828125;9.31999997646926;933;-0.017974853515625;100 mA
91.800910768225;-1.4984130859375;9.32999997644401;934;-0.0179718017578125;100 mA
91.8109107681997;-1.4996337890625;9.33999997641877;935;-0.0179718017578125;100 mA
91.8209107681745;-1.5008544921875;9.34999997639352;936;-0.0179779052734375;100 mA
91.8309107681492;-1.50238037109375;9.35999997636827;937;-0.01798095703125;100 mA
91.840910768124;-1.50360107421875;9.36999997634302;938;-0.017974853515625;100 mA
91.8509107680987;-1.50482177734375;9.37999997631778;939;-0.017974853515625;100 mA
91.8609107680735;-1.50604248046875;9.38999997629253;940;-0.017974853515625;100 mA
91.8709107680482;-1.50726318359375;9.39999997626728;941;-0.017974853515625;100 mA
91.880910768023;-1.50848388671875;9.40999997624203;942;-0.017974853515625;100 mA
91.8909107679978;-1.510009765625;9.41999997621679;943;-0.0179718017578125;100 mA
91.9009107679725;-1.51123046875;9.42999997619154;944;-0.0179779052734375;100 mA
91.9109107679473;-1.512451171875;9.43999997616629;945;-0.0179779052734375;100 mA
91.920910767922;-1.513671875;9.44999997614104;946;-0.0179718017578125;100 mA
91.9309107678968;-1.514892578125;9.4599999761158;947;-0.0179779052734375;100 mA
91.9409107678715;-1.51611328125;9.46999997609055;948;-0.017974853515625;100 mA
91.9509107678463;-1.517333984375;9.4799999760653;949;-0.017974853515625;100 mA
91.960910767821;-1.5185546875;9.48999997604005;950;-0.0179779052734375;100 mA
91.9709107677958;-1.519775390625;9.49999997601481;951;-0.017974853515625;100 mA
91.9809107677705;-1.52099609375;9.50999997598956;952;-0.0179718017578125;100 mA
91.9909107677453;-1.522216796875;9.51999997596431;953;-0.017974853515625;100 mA
92.00091076772;-1.52374267578125;9.52999997593906;954;-0.017974853515625;100 mA
92.0109107676948;-1.52496337890625;9.53999997591382;955;-0.017974853515625;100 mA
92.0209107676695;-1.52618408203125;9.54999997588857;956;-0.0179718017578125;100 mA
92.0309107676443;-1.52740478515625;9.55999997586332;957;-0.0179718017578125;100 mA
92.040910767619;-1.52862548828125;9.56999997583807;958;-0.017974853515625;100 mA
92.0509107675938;-1.52984619140625;9.57999997581283;959;-0.0179779052734375;100 mA
92.0609107675685;-1.53106689453125;9.58999997578758;960;-0.0179779052734375;100 mA
92.0709107675433;-1.53228759765625;9.59999997576233;961;-0.0179779052734375;100 mA
92.080910767518;-1.53350830078125;9.60999997573708;962;-0.0179718017578125;100 mA
92.0909107674928;-1.53472900390625;9.61999997571183;963;-0.0179718017578125;100 mA
92.1009107674676;-1.5362548828125;9.62999997568659;964;-0.017974853515625;100 mA
92.1109107674423;-1.5374755859375;9.63999997566134;965;-0.0179718017578125;100 mA
92.1209107674171;-1.5386962890625;9.64999997563609;966;-0.017974853515625;100 mA
92.1309107673918;-1.5399169921875;9.65999997561084;967;-0.01798095703125;100 mA
92.1409107673666;-1.5411376953125;9.6699999755856;968;-0.017974853515625;100 mA
92.1509107673413;-1.5423583984375;9.67999997556035;969;-0.0179779052734375;100 mA
92.1609107673161;-1.5435791015625;9.6899999755351;970;-0.017974853515625;100 mA
92.1709107672908;-1.5447998046875;9.69999997550985;971;-0.017974853515625;100 mA
92.1809107672656;-1.5460205078125;9.70999997548461;972;-0.0179779052734375;100 mA
92.1909107672403;-1.54754638671875;9.71999997545936;973;-0.017974853515625;100 mA
92.2009107672151;-1.54876708984375;9.72999997543411;974;-0.0179779052734375;100 mA
92.2109107671898;-1.54998779296875;9.73999997540886;975;-0.0179718017578125;100 mA
92.2209107671646;-1.55120849609375;9.74999997538362;976;-0.017974853515625;100 mA
92.2309107671393;-1.55242919921875;9.75999997535837;977;-0.0179779052734375;100 mA
92.2409107671141;-1.55364990234375;9.76999997533312;978;-0.017974853515625;100 mA
92.2509107670888;-1.55517578125;9.77999997530787;979;-0.0179779052734375;100 mA
92.2609107670636;-1.556396484375;9.78999997528263;980;-0.0179718017578125;100 mA
92.2709107670383;-1.5576171875;9.79999997525738;981;-0.0179779052734375;100 mA
92.2809107670131;-1.558837890625;9.80999997523213;982;-0.0179718017578125;100 mA
92.2909107669878;-1.56005859375;9.81999997520688;983;-0.0179718017578125;100 mA
92.3009107669626;-1.56158447265625;9.82999997518164;984;-0.01796875;100 mA
92.3109107669374;-1.5625;9.83999997515639;985;-0.01798095703125;100 mA
92.3209107669121;-1.56402587890625;9.84999997513114;986;-0.0179779052734375;100 mA
92.3309107668869;-1.56524658203125;9.85999997510589;987;-0.0179779052734375;100 mA
92.3409107668616;-1.56646728515625;9.86999997508065;988;-0.0179779052734375;100 mA
92.3509107668364;-1.56768798828125;9.8799999750554;989;-0.01798095703125;100 mA
92.3609107668111;-1.56890869140625;9.88999997503015;990;-0.0179718017578125;100 mA
92.3709107667859;-1.5704345703125;9.8999999750049;991;-0.017974853515625;100 mA
92.3809107667606;-1.5716552734375;9.90999997497966;992;-0.017974853515625;100 mA
92.3909107667354;-1.5728759765625;9.91999997495441;993;-0.017974853515625;100 mA
92.4009107667101;-1.5740966796875;9.92999997492916;994;-0.0179718017578125;100 mA
92.4109107666849;-1.5753173828125;9.93999997490391;995;-0.0179779052734375;100 mA
92.4209107666596;-1.5765380859375;9.94999997487866;996;-0.017974853515625;100 mA
92.4309107666344;-1.5777587890625;9.95999997485342;997;-0.017974853515625;100 mA
92.4409107666091;-1.5789794921875;9.96999997482817;998;-0.017974853515625;100 mA
92.4509107665839;-1.58050537109375;9.97999997480292;999;-0.0179779052734375;100 mA
92.4609107665586;-1.58172607421875;9.98999997477767;1000;-0.0179779052734375;100 mA
