Time (s);WE(1).Potential (V);Corrected time (s);Index;WE(1).Current (A);Current range
152.470961615048;-0.18096923828125;0;1;-0.019989013671875;100 mA
152.480961615023;-0.190673828125;0.00999999997475243;2;-0.019989013671875;100 mA
152.490961614997;-0.197662353515625;0.0199999999495049;3;-0.0199920654296875;100 mA
152.500961614972;-0.203216552734375;0.0299999999242573;4;-0.0199981689453125;100 mA
152.510961614947;-0.20782470703125;0.0399999998990097;5;-0.019989013671875;100 mA
152.520961614922;-0.21185302734375;0.0499999998737621;6;-0.0199951171875;100 mA
152.530961614896;-0.215362548828125;0.0599999998485146;7;-0.0199920654296875;100 mA
152.540961614871;-0.218536376953125;0.069999999823267;8;-0.019989013671875;100 mA
152.550961614846;-0.221435546875;0.0799999997980194;9;-0.0199951171875;100 mA
152.560961614821;-0.22406005859375;0.0899999997727718;10;-0.0199951171875;100 mA
152.570961614795;-0.226531982421875;0.0999999997475243;11;-0.019989013671875;100 mA
152.58096161477;-0.22882080078125;0.109999999722277;12;-0.019989013671875;100 mA
152.590961614745;-0.230987548828125;0.119999999697029;13;-0.0199920654296875;100 mA
152.60096161472;-0.2330322265625;0.129999999671782;14;-0.0199951171875;100 mA
152.610961614694;-0.23492431640625;0.139999999646534;15;-0.0199920654296875;100 mA
152.620961614669;-0.23675537109375;0.149999999621286;16;-0.0199920654296875;100 mA
152.630961614644;-0.23846435546875;0.159999999596039;17;-0.0199920654296875;100 mA
152.640961614619;-0.240142822265625;0.169999999570791;18;-0.0199920654296875;100 mA
152.650961614593;-0.241729736328125;0.179999999545544;19;-0.0199920654296875;100 mA
152.660961614568;-0.243255615234375;0.189999999520296;20;-0.0199951171875;100 mA
152.670961614543;-0.2447509765625;0.199999999495049;21;-0.019989013671875;100 mA
152.680961614518;-0.24615478515625;0.209999999469801;22;-0.0199981689453125;100 mA
152.690961614492;-0.24749755859375;0.219999999444553;23;-0.019989013671875;100 mA
152.700961614467;-0.24884033203125;0.229999999419306;24;-0.0199981689453125;100 mA
152.710961614442;-0.2501220703125;0.239999999394058;25;-0.0199951171875;100 mA
152.720961614417;-0.251373291015625;0.249999999368811;26;-0.0199951171875;100 mA
152.730961614391;-0.2525634765625;0.259999999343563;27;-0.0199951171875;100 mA
152.740961614366;-0.253753662109375;0.269999999318316;28;-0.0199981689453125;100 mA
152.750961614341;-0.254913330078125;0.279999999293068;29;-0.0199920654296875;100 mA
152.760961614316;-0.2559814453125;0.28999999926782;30;-0.0199951171875;100 mA
152.77096161429;-0.257110595703125;0.299999999242573;31;-0.0199951171875;100 mA
152.780961614265;-0.258148193359375;0.309999999217325;32;-0.0199920654296875;100 mA
152.79096161424;-0.259185791015625;0.319999999192078;33;-0.0199920654296875;100 mA
152.800961614215;-0.260223388671875;0.32999999916683;34;-0.0199951171875;100 mA
152.810961614189;-0.261199951171875;0.339999999141583;35;-0.019989013671875;100 mA
152.820961614164;-0.262176513671875;0.349999999116335;36;-0.019989013671875;100 mA
152.830961614139;-0.26312255859375;0.359999999091087;37;-0.0199920654296875;100 mA
152.840961614114;-0.2640380859375;0.36999999906584;38;-0.0199951171875;100 mA
152.850961614088;-0.264984130859375;0.379999999040592;39;-0.019989013671875;100 mA
152.860961614063;-0.265838623046875;0.389999999015345;40;-0.0199920654296875;100 mA
152.870961614038;-0.266754150390625;0.399999998990097;41;-0.0199859619140625;100 mA
152.880961614013;-0.267608642578125;0.40999999896485;42;-0.0199951171875;100 mA
152.890961613987;-0.268463134765625;0.419999998939602;43;-0.0199920654296875;100 mA
152.900961613962;-0.269317626953125;0.429999998914354;44;-0.019989013671875;100 mA
152.910961613937;-0.270111083984375;0.439999998889107;45;-0.019989013671875;100 mA
152.920961613912;-0.27093505859375;0.449999998863859;46;-0.0199920654296875;100 mA
152.930961613886;-0.271728515625;0.459999998838612;47;-0.0199951171875;100 mA
152.940961613861;-0.27252197265625;0.469999998813364;48;-0.0199981689453125;100 mA
152.950961613836;-0.2733154296875;0.479999998788116;49;-0.019989013671875;100 mA
152.960961613811;-0.274078369140625;0.489999998762869;50;-0.0199981689453125;100 mA
152.970961613785;-0.27484130859375;0.499999998737621;51;-0.0199951171875;100 mA
152.98096161376;-0.27557373046875;0.509999998712374;52;-0.019989013671875;100 mA
152.990961613735;-0.27630615234375;0.519999998687126;53;-0.0199920654296875;100 mA
153.00096161371;-0.27703857421875;0.529999998661879;54;-0.019989013671875;100 mA
153.010961613684;-0.277740478515625;0.539999998636631;55;-0.019989013671875;100 mA
153.020961613659;-0.278472900390625;0.549999998611383;56;-0.019989013671875;100 mA
153.030961613634;-0.279144287109375;0.559999998586136;57;-0.0199951171875;100 mA
153.040961613609;-0.27984619140625;0.569999998560888;58;-0.0199951171875;100 mA
153.050961613583;-0.280548095703125;0.579999998535641;59;-0.019989013671875;100 mA
153.060961613558;-0.28118896484375;0.589999998510393;60;-0.0199920654296875;100 mA
153.070961613533;-0.2818603515625;0.599999998485146;61;-0.0199920654296875;100 mA
153.080961613508;-0.28253173828125;0.609999998459898;62;-0.019989013671875;100 mA
153.090961613482;-0.283172607421875;0.61999999843465;63;-0.0199920654296875;100 mA
153.100961613457;-0.283843994140625;0.629999998409403;64;-0.0199920654296875;100 mA
153.110961613432;-0.284454345703125;0.639999998384155;65;-0.019989013671875;100 mA
153.120961613407;-0.28509521484375;0.649999998358908;66;-0.019989013671875;100 mA
153.130961613381;-0.285736083984375;0.65999999833366;67;-0.019989013671875;100 mA
153.140961613356;-0.286346435546875;0.669999998308413;68;-0.0199951171875;100 mA
153.150961613331;-0.2869873046875;0.679999998283165;69;-0.0199920654296875;100 mA
153.160961613306;-0.287567138671875;0.689999998257917;70;-0.019989013671875;100 mA
153.17096161328;-0.288177490234375;0.69999999823267;71;-0.0199920654296875;100 mA
153.180961613255;-0.288787841796875;0.709999998207422;72;-0.0199951171875;100 mA
153.19096161323;-0.28936767578125;0.719999998182175;73;-0.0199951171875;100 mA
153.200961613205;-0.28997802734375;0.729999998156927;74;-0.0199859619140625;100 mA
153.21096161318;-0.29052734375;0.73999999813168;75;-0.0199859619140625;100 mA
153.220961613154;-0.2911376953125;0.749999998106432;76;-0.0199920654296875;100 mA
153.230961613129;-0.291717529296875;0.759999998081184;77;-0.0199951171875;100 mA
153.240961613104;-0.292266845703125;0.769999998055937;78;-0.0199920654296875;100 mA
153.250961613079;-0.2928466796875;0.779999998030689;79;-0.0199981689453125;100 mA
153.260961613053;-0.29339599609375;0.789999998005442;80;-0.0199951171875;100 mA
153.270961613028;-0.293975830078125;0.799999997980194;81;-0.0199951171875;100 mA
153.280961613003;-0.294525146484375;0.809999997954947;82;-0.0199920654296875;100 mA
153.290961612978;-0.295074462890625;0.819999997929699;83;-0.019989013671875;100 mA
153.300961612952;-0.295623779296875;0.829999997904451;84;-0.0199920654296875;100 mA
153.310961612927;-0.296142578125;0.839999997879204;85;-0.0199920654296875;100 mA
153.320961612902;-0.29669189453125;0.849999997853956;86;-0.0199920654296875;100 mA
153.330961612877;-0.297210693359375;0.859999997828709;87;-0.0199920654296875;100 mA
153.340961612851;-0.2977294921875;0.869999997803461;88;-0.0199920654296875;100 mA
153.350961612826;-0.29827880859375;0.879999997778214;89;-0.0199951171875;100 mA
153.360961612801;-0.298797607421875;0.889999997752966;90;-0.0199951171875;100 mA
153.370961612776;-0.29931640625;0.899999997727718;91;-0.0199981689453125;100 mA
153.38096161275;-0.299835205078125;0.909999997702471;92;-0.0199951171875;100 mA
153.390961612725;-0.30035400390625;0.919999997677223;93;-0.0199859619140625;100 mA
153.4009616127;-0.300872802734375;0.929999997651976;94;-0.019989013671875;100 mA
153.410961612675;-0.301361083984375;0.939999997626728;95;-0.0199920654296875;100 mA
153.420961612649;-0.3018798828125;0.949999997601481;96;-0.0199951171875;100 mA
153.430961612624;-0.3023681640625;0.959999997576233;97;-0.019989013671875;100 mA
153.440961612599;-0.302886962890625;0.969999997550985;98;-0.019989013671875;100 mA
153.450961612574;-0.303375244140625;0.979999997525738;99;-0.0199920654296875;100 mA
153.460961612548;-0.303863525390625;0.98999999750049;100;-0.0199920654296875;100 mA
153.470961612523;-0.30438232421875;0.999999997475243;101;-0.019989013671875;100 mA
153.480961612498;-0.304840087890625;1.00999999745;102;-0.0199920654296875;100 mA
153.490961612473;-0.305328369140625;1.01999999742475;103;-0.0199920654296875;100 mA
153.500961612447;-0.305816650390625;1.0299999973995;104;-0.0199920654296875;100 mA
153.510961612422;-0.306304931640625;1.03999999737425;105;-0.0199920654296875;100 mA
153.520961612397;-0.306793212890625;1.049999997349;106;-0.0199951171875;100 mA
153.530961612372;-0.3072509765625;1.05999999732376;107;-0.0199951171875;100 mA
153.540961612346;-0.3077392578125;1.06999999729851;108;-0.0199951171875;100 mA
153.550961612321;-0.3082275390625;1.07999999727326;109;-0.0199920654296875;100 mA
153.560961612296;-0.308685302734375;1.08999999724801;110;-0.019989013671875;100 mA
153.570961612271;-0.30914306640625;1.09999999722277;111;-0.0199920654296875;100 mA
153.580961612245;-0.30963134765625;1.10999999719752;112;-0.019989013671875;100 mA
153.59096161222;-0.310089111328125;1.11999999717227;113;-0.0199859619140625;100 mA
153.600961612195;-0.310546875;1.12999999714702;114;-0.0199981689453125;100 mA
153.61096161217;-0.311004638671875;1.13999999712178;115;-0.0199951171875;100 mA
153.620961612144;-0.31146240234375;1.14999999709653;116;-0.0199920654296875;100 mA
153.630961612119;-0.311920166015625;1.15999999707128;117;-0.0199920654296875;100 mA
153.640961612094;-0.3123779296875;1.16999999704603;118;-0.0199859619140625;100 mA
153.650961612069;-0.312835693359375;1.17999999702079;119;-0.0199920654296875;100 mA
153.660961612043;-0.313262939453125;1.18999999699554;120;-0.0199951171875;100 mA
153.670961612018;-0.313751220703125;1.19999999697029;121;-0.019989013671875;100 mA
153.680961611993;-0.314178466796875;1.20999999694504;122;-0.0199920654296875;100 mA
153.690961611968;-0.31463623046875;1.2199999969198;123;-0.0199951171875;100 mA
153.700961611942;-0.315093994140625;1.22999999689455;124;-0.0199920654296875;100 mA
153.710961611917;-0.31549072265625;1.2399999968693;125;-0.0199920654296875;100 mA
153.720961611892;-0.31597900390625;1.24999999684405;126;-0.0199951171875;100 mA
153.730961611867;-0.31640625;1.25999999681881;127;-0.019989013671875;100 mA
153.740961611841;-0.31683349609375;1.26999999679356;128;-0.019989013671875;100 mA
153.750961611816;-0.317291259765625;1.27999999676831;129;-0.0199859619140625;100 mA
153.760961611791;-0.31768798828125;1.28999999674306;130;-0.0199920654296875;100 mA
153.770961611766;-0.318145751953125;1.29999999671782;131;-0.0199951171875;100 mA
153.78096161174;-0.318572998046875;1.30999999669257;132;-0.019989013671875;100 mA
153.790961611715;-0.319000244140625;1.31999999666732;133;-0.0199920654296875;100 mA
153.80096161169;-0.3194580078125;1.32999999664207;134;-0.0199920654296875;100 mA
153.810961611665;-0.319854736328125;1.33999999661683;135;-0.0199920654296875;100 mA
153.820961611639;-0.320281982421875;1.34999999659158;136;-0.019989013671875;100 mA
153.830961611614;-0.320709228515625;1.35999999656633;137;-0.0199920654296875;100 mA
153.840961611589;-0.321136474609375;1.36999999654108;138;-0.0199920654296875;100 mA
153.850961611564;-0.321563720703125;1.37999999651583;139;-0.0199920654296875;100 mA
153.860961611538;-0.321990966796875;1.38999999649059;140;-0.019989013671875;100 mA
153.870961611513;-0.322418212890625;1.39999999646534;141;-0.019989013671875;100 mA
153.880961611488;-0.322845458984375;1.40999999644009;142;-0.0199920654296875;100 mA
153.890961611463;-0.3232421875;1.41999999641484;143;-0.0199920654296875;100 mA
153.900961611437;-0.32366943359375;1.4299999963896;144;-0.019989013671875;100 mA
153.910961611412;-0.324066162109375;1.43999999636435;145;-0.0199951171875;100 mA
153.920961611387;-0.32452392578125;1.4499999963391;146;-0.0199951171875;100 mA
153.930961611362;-0.324920654296875;1.45999999631385;147;-0.0199920654296875;100 mA
153.940961611336;-0.3253173828125;1.46999999628861;148;-0.019989013671875;100 mA
153.950961611311;-0.32574462890625;1.47999999626336;149;-0.0199951171875;100 mA
153.960961611286;-0.326141357421875;1.48999999623811;150;-0.0199951171875;100 mA
153.970961611261;-0.326568603515625;1.49999999621286;151;-0.0199920654296875;100 mA
153.980961611235;-0.32696533203125;1.50999999618762;152;-0.019989013671875;100 mA
153.99096161121;-0.327392578125;1.51999999616237;153;-0.0199951171875;100 mA
154.000961611185;-0.327789306640625;1.52999999613712;154;-0.0199920654296875;100 mA
154.01096161116;-0.32818603515625;1.53999999611187;155;-0.0199920654296875;100 mA
154.020961611134;-0.32861328125;1.54999999608663;156;-0.0199951171875;100 mA
154.030961611109;-0.329010009765625;1.55999999606138;157;-0.019989013671875;100 mA
154.040961611084;-0.32940673828125;1.56999999603613;158;-0.0199951171875;100 mA
154.050961611059;-0.329803466796875;1.57999999601088;159;-0.0199920654296875;100 mA
154.060961611033;-0.3302001953125;1.58999999598564;160;-0.0199951171875;100 mA
154.070961611008;-0.33062744140625;1.59999999596039;161;-0.0199920654296875;100 mA
154.080961610983;-0.331024169921875;1.60999999593514;162;-0.0199951171875;100 mA
154.090961610958;-0.3314208984375;1.61999999590989;163;-0.019989013671875;100 mA
154.100961610932;-0.331817626953125;1.62999999588465;164;-0.0199920654296875;100 mA
154.110961610907;-0.33221435546875;1.6399999958594;165;-0.019989013671875;100 mA
154.120961610882;-0.332611083984375;1.64999999583415;166;-0.0199951171875;100 mA
154.130961610857;-0.3330078125;1.6599999958089;167;-0.0199920654296875;100 mA
154.140961610831;-0.333404541015625;1.66999999578366;168;-0.0199920654296875;100 mA
154.150961610806;-0.333831787109375;1.67999999575841;169;-0.0199951171875;100 mA
154.160961610781;-0.334197998046875;1.68999999573316;170;-0.0199920654296875;100 mA
154.170961610756;-0.334625244140625;1.69999999570791;171;-0.01998291015625;100 mA
154.18096161073;-0.334991455078125;1.70999999568267;172;-0.0199920654296875;100 mA
154.190961610705;-0.33538818359375;1.71999999565742;173;-0.019989013671875;100 mA
154.20096161068;-0.3358154296875;1.72999999563217;174;-0.0199920654296875;100 mA
154.210961610655;-0.336181640625;1.73999999560692;175;-0.0199920654296875;100 mA
154.22096161063;-0.336578369140625;1.74999999558167;176;-0.0199920654296875;100 mA
154.230961610604;-0.33697509765625;1.75999999555643;177;-0.0199951171875;100 mA
154.240961610579;-0.337371826171875;1.76999999553118;178;-0.0199920654296875;100 mA
154.250961610554;-0.3377685546875;1.77999999550593;179;-0.019989013671875;100 mA
154.260961610529;-0.338134765625;1.78999999548068;180;-0.0199951171875;100 mA
154.270961610503;-0.338531494140625;1.79999999545544;181;-0.019989013671875;100 mA
154.280961610478;-0.33892822265625;1.80999999543019;182;-0.019989013671875;100 mA
154.290961610453;-0.339324951171875;1.81999999540494;183;-0.0199951171875;100 mA
154.300961610428;-0.3397216796875;1.82999999537969;184;-0.0199920654296875;100 mA
154.310961610402;-0.340087890625;1.83999999535445;185;-0.019989013671875;100 mA
154.320961610377;-0.340484619140625;1.8499999953292;186;-0.019989013671875;100 mA
154.330961610352;-0.34088134765625;1.85999999530395;187;-0.019989013671875;100 mA
154.340961610327;-0.341278076171875;1.8699999952787;188;-0.019989013671875;100 mA
154.350961610301;-0.3416748046875;1.87999999525346;189;-0.0199951171875;100 mA
154.360961610276;-0.342041015625;1.88999999522821;190;-0.0199951171875;100 mA
154.370961610251;-0.342437744140625;1.89999999520296;191;-0.0199951171875;100 mA
154.380961610226;-0.34283447265625;1.90999999517771;192;-0.0199920654296875;100 mA
154.3909616102;-0.34320068359375;1.91999999515247;193;-0.019989013671875;100 mA
154.400961610175;-0.343597412109375;1.92999999512722;194;-0.0199951171875;100 mA
154.41096161015;-0.343963623046875;1.93999999510197;195;-0.0199920654296875;100 mA
154.420961610125;-0.3443603515625;1.94999999507672;196;-0.0199859619140625;100 mA
154.430961610099;-0.3447265625;1.95999999505148;197;-0.0199920654296875;100 mA
154.440961610074;-0.345123291015625;1.96999999502623;198;-0.0199981689453125;100 mA
154.450961610049;-0.34552001953125;1.97999999500098;199;-0.0199920654296875;100 mA
154.460961610024;-0.34588623046875;1.98999999497573;200;-0.019989013671875;100 mA
154.470961609998;-0.346282958984375;1.99999999495049;201;-0.0199951171875;100 mA
154.480961609973;-0.346649169921875;2.00999999492524;202;-0.019989013671875;100 mA
154.490961609948;-0.3470458984375;2.01999999489999;203;-0.019989013671875;100 mA
154.500961609923;-0.347442626953125;2.02999999487474;204;-0.0199920654296875;100 mA
154.510961609897;-0.347808837890625;2.0399999948495;205;-0.019989013671875;100 mA
154.520961609872;-0.34820556640625;2.04999999482425;206;-0.019989013671875;100 mA
154.530961609847;-0.34857177734375;2.059999994799;207;-0.0199859619140625;100 mA
154.540961609822;-0.348968505859375;2.06999999477375;208;-0.019989013671875;100 mA
154.550961609796;-0.349365234375;2.0799999947485;209;-0.019989013671875;100 mA
154.560961609771;-0.3497314453125;2.08999999472326;210;-0.0199951171875;100 mA
154.570961609746;-0.350128173828125;2.09999999469801;211;-0.0199920654296875;100 mA
154.580961609721;-0.350494384765625;2.10999999467276;212;-0.0199951171875;100 mA
154.590961609695;-0.35089111328125;2.11999999464751;213;-0.0199920654296875;100 mA
154.60096160967;-0.351287841796875;2.12999999462227;214;-0.0199859619140625;100 mA
154.610961609645;-0.351654052734375;2.13999999459702;215;-0.0199920654296875;100 mA
154.62096160962;-0.35205078125;2.14999999457177;216;-0.0199920654296875;100 mA
154.630961609594;-0.3524169921875;2.15999999454652;217;-0.0199920654296875;100 mA
154.640961609569;-0.352813720703125;2.16999999452128;218;-0.0199981689453125;100 mA
154.650961609544;-0.35321044921875;2.17999999449603;219;-0.019989013671875;100 mA
154.660961609519;-0.35357666015625;2.18999999447078;220;-0.0199920654296875;100 mA
154.670961609493;-0.353973388671875;2.19999999444553;221;-0.0199920654296875;100 mA
154.680961609468;-0.354339599609375;2.20999999442029;222;-0.0199920654296875;100 mA
154.690961609443;-0.354736328125;2.21999999439504;223;-0.0199920654296875;100 mA
154.700961609418;-0.355133056640625;2.22999999436979;224;-0.0199951171875;100 mA
154.710961609392;-0.355499267578125;2.23999999434454;225;-0.019989013671875;100 mA
154.720961609367;-0.35589599609375;2.2499999943193;226;-0.019989013671875;100 mA
154.730961609342;-0.35626220703125;2.25999999429405;227;-0.019989013671875;100 mA
154.740961609317;-0.356658935546875;2.2699999942688;228;-0.019989013671875;100 mA
154.750961609291;-0.3570556640625;2.27999999424355;229;-0.0199920654296875;100 mA
154.760961609266;-0.357421875;2.28999999421831;230;-0.0199920654296875;100 mA
154.770961609241;-0.357818603515625;2.29999999419306;231;-0.019989013671875;100 mA
154.780961609216;-0.358184814453125;2.30999999416781;232;-0.019989013671875;100 mA
154.79096160919;-0.35858154296875;2.31999999414256;233;-0.0199920654296875;100 mA
154.800961609165;-0.358978271484375;2.32999999411732;234;-0.0199981689453125;100 mA
154.81096160914;-0.35931396484375;2.33999999409207;235;-0.019989013671875;100 mA
154.820961609115;-0.359710693359375;2.34999999406682;236;-0.019989013671875;100 mA
154.830961609089;-0.360107421875;2.35999999404157;237;-0.0199951171875;100 mA
154.840961609064;-0.3604736328125;2.36999999401633;238;-0.0199920654296875;100 mA
154.850961609039;-0.36090087890625;2.37999999399108;239;-0.0199951171875;100 mA
154.860961609014;-0.36126708984375;2.38999999396583;240;-0.0199920654296875;100 mA
154.870961608988;-0.361663818359375;2.39999999394058;241;-0.0199920654296875;100 mA
154.880961608963;-0.362030029296875;2.40999999391533;242;-0.0199920654296875;100 mA
154.890961608938;-0.3624267578125;2.41999999389009;243;-0.019989013671875;100 mA
154.900961608913;-0.362823486328125;2.42999999386484;244;-0.019989013671875;100 mA
154.910961608887;-0.363189697265625;2.43999999383959;245;-0.0199951171875;100 mA
154.920961608862;-0.36358642578125;2.44999999381434;246;-0.019989013671875;100 mA
154.930961608837;-0.363983154296875;2.4599999937891;247;-0.019989013671875;100 mA
154.940961608812;-0.364349365234375;2.46999999376385;248;-0.0199920654296875;100 mA
154.950961608786;-0.364776611328125;2.4799999937386;249;-0.0199920654296875;100 mA
154.960961608761;-0.365142822265625;2.48999999371335;250;-0.019989013671875;100 mA
154.970961608736;-0.36553955078125;2.49999999368811;251;-0.01998291015625;100 mA
154.980961608711;-0.365936279296875;2.50999999366286;252;-0.0199920654296875;100 mA
154.990961608685;-0.366302490234375;2.51999999363761;253;-0.0199920654296875;100 mA
155.00096160866;-0.366729736328125;2.52999999361236;254;-0.0199859619140625;100 mA
155.010961608635;-0.367095947265625;2.53999999358712;255;-0.0199951171875;100 mA
155.02096160861;-0.36749267578125;2.54999999356187;256;-0.0199920654296875;100 mA
155.030961608584;-0.367889404296875;2.55999999353662;257;-0.019989013671875;100 mA
155.040961608559;-0.3682861328125;2.56999999351137;258;-0.0199951171875;100 mA
155.050961608534;-0.368682861328125;2.57999999348613;259;-0.0199951171875;100 mA
155.060961608509;-0.369049072265625;2.58999999346088;260;-0.0199920654296875;100 mA
155.070961608483;-0.369476318359375;2.59999999343563;261;-0.019989013671875;100 mA
155.080961608458;-0.369873046875;2.60999999341038;262;-0.019989013671875;100 mA
155.090961608433;-0.3702392578125;2.61999999338514;263;-0.019989013671875;100 mA
155.100961608408;-0.37066650390625;2.62999999335989;264;-0.0199951171875;100 mA
155.110961608382;-0.37103271484375;2.63999999333464;265;-0.0199920654296875;100 mA
155.120961608357;-0.3714599609375;2.64999999330939;266;-0.019989013671875;100 mA
155.130961608332;-0.371856689453125;2.65999999328415;267;-0.01998291015625;100 mA
155.140961608307;-0.372222900390625;2.6699999932589;268;-0.0199920654296875;100 mA
155.150961608281;-0.372650146484375;2.67999999323365;269;-0.019989013671875;100 mA
155.160961608256;-0.373016357421875;2.6899999932084;270;-0.019989013671875;100 mA
155.170961608231;-0.373443603515625;2.69999999318316;271;-0.0199859619140625;100 mA
155.180961608206;-0.37384033203125;2.70999999315791;272;-0.0199920654296875;100 mA
155.19096160818;-0.374237060546875;2.71999999313266;273;-0.019989013671875;100 mA
155.200961608155;-0.3746337890625;2.72999999310741;274;-0.0199951171875;100 mA
155.21096160813;-0.375030517578125;2.73999999308217;275;-0.0199920654296875;100 mA
155.220961608105;-0.37542724609375;2.74999999305692;276;-0.0199920654296875;100 mA
155.230961608079;-0.375823974609375;2.75999999303167;277;-0.019989013671875;100 mA
155.240961608054;-0.376220703125;2.76999999300642;278;-0.019989013671875;100 mA
155.250961608029;-0.37664794921875;2.77999999298117;279;-0.019989013671875;100 mA
155.260961608004;-0.377044677734375;2.78999999295593;280;-0.0199920654296875;100 mA
155.270961607979;-0.37744140625;2.79999999293068;281;-0.0199951171875;100 mA
155.280961607953;-0.37786865234375;2.80999999290543;282;-0.0199859619140625;100 mA
155.290961607928;-0.378265380859375;2.81999999288018;283;-0.0199920654296875;100 mA
155.300961607903;-0.378692626953125;2.82999999285494;284;-0.0199920654296875;100 mA
155.310961607878;-0.379058837890625;2.83999999282969;285;-0.0199920654296875;100 mA
155.320961607852;-0.379486083984375;2.84999999280444;286;-0.019989013671875;100 mA
155.330961607827;-0.379913330078125;2.85999999277919;287;-0.0199981689453125;100 mA
155.340961607802;-0.38031005859375;2.86999999275395;288;-0.019989013671875;100 mA
155.350961607777;-0.3807373046875;2.8799999927287;289;-0.0199951171875;100 mA
155.360961607751;-0.381134033203125;2.88999999270345;290;-0.0199951171875;100 mA
155.370961607726;-0.381561279296875;2.8999999926782;291;-0.019989013671875;100 mA
155.380961607701;-0.3819580078125;2.90999999265296;292;-0.0199920654296875;100 mA
155.390961607676;-0.38238525390625;2.91999999262771;293;-0.0199920654296875;100 mA
155.40096160765;-0.3828125;2.92999999260246;294;-0.0199920654296875;100 mA
155.410961607625;-0.383209228515625;2.93999999257721;295;-0.0199859619140625;100 mA
155.4209616076;-0.383636474609375;2.94999999255197;296;-0.0199920654296875;100 mA
155.430961607575;-0.384063720703125;2.95999999252672;297;-0.0199920654296875;100 mA
155.440961607549;-0.38446044921875;2.96999999250147;298;-0.019989013671875;100 mA
155.450961607524;-0.384918212890625;2.97999999247622;299;-0.0199859619140625;100 mA
155.460961607499;-0.38531494140625;2.98999999245098;300;-0.0199859619140625;100 mA
155.470961607474;-0.3857421875;2.99999999242573;301;-0.0199981689453125;100 mA
155.480961607448;-0.38616943359375;3.00999999240048;302;-0.0199920654296875;100 mA
155.490961607423;-0.3865966796875;3.01999999237523;303;-0.0199951171875;100 mA
155.500961607398;-0.38702392578125;3.02999999234999;304;-0.0199920654296875;100 mA
155.510961607373;-0.387420654296875;3.03999999232474;305;-0.019989013671875;100 mA
155.520961607347;-0.38787841796875;3.04999999229949;306;-0.0199951171875;100 mA
155.530961607322;-0.3883056640625;3.05999999227424;307;-0.0199859619140625;100 mA
155.540961607297;-0.38873291015625;3.069999992249;308;-0.01998291015625;100 mA
155.550961607272;-0.38916015625;3.07999999222375;309;-0.019989013671875;100 mA
155.560961607246;-0.38958740234375;3.0899999921985;310;-0.0199859619140625;100 mA
155.570961607221;-0.390045166015625;3.09999999217325;311;-0.019989013671875;100 mA
155.580961607196;-0.390472412109375;3.109999992148;312;-0.019989013671875;100 mA
155.590961607171;-0.390869140625;3.11999999212276;313;-0.0199951171875;100 mA
155.600961607145;-0.391326904296875;3.12999999209751;314;-0.019989013671875;100 mA
155.61096160712;-0.391754150390625;3.13999999207226;315;-0.0199920654296875;100 mA
155.620961607095;-0.3922119140625;3.14999999204701;316;-0.019989013671875;100 mA
155.63096160707;-0.39263916015625;3.15999999202177;317;-0.019989013671875;100 mA
155.640961607044;-0.39306640625;3.16999999199652;318;-0.0199920654296875;100 mA
155.650961607019;-0.3935546875;3.17999999197127;319;-0.0199951171875;100 mA
155.660961606994;-0.393951416015625;3.18999999194602;320;-0.0199920654296875;100 mA
155.670961606969;-0.3944091796875;3.19999999192078;321;-0.0199859619140625;100 mA
155.680961606943;-0.394866943359375;3.20999999189553;322;-0.0199920654296875;100 mA
155.690961606918;-0.39532470703125;3.21999999187028;323;-0.0199920654296875;100 mA
155.700961606893;-0.395782470703125;3.22999999184503;324;-0.0199920654296875;100 mA
155.710961606868;-0.396209716796875;3.23999999181979;325;-0.0199920654296875;100 mA
155.720961606842;-0.39666748046875;3.24999999179454;326;-0.019989013671875;100 mA
155.730961606817;-0.397125244140625;3.25999999176929;327;-0.0199920654296875;100 mA
155.740961606792;-0.3975830078125;3.26999999174404;328;-0.0199920654296875;100 mA
155.750961606767;-0.398040771484375;3.2799999917188;329;-0.0199920654296875;100 mA
155.760961606741;-0.39849853515625;3.28999999169355;330;-0.019989013671875;100 mA
155.770961606716;-0.398956298828125;3.2999999916683;331;-0.019989013671875;100 mA
155.780961606691;-0.3994140625;3.30999999164305;332;-0.0199951171875;100 mA
155.790961606666;-0.399871826171875;3.31999999161781;333;-0.0199920654296875;100 mA
155.80096160664;-0.400360107421875;3.32999999159256;334;-0.019989013671875;100 mA
155.810961606615;-0.40081787109375;3.33999999156731;335;-0.019989013671875;100 mA
155.82096160659;-0.40130615234375;3.34999999154206;336;-0.0199951171875;100 mA
155.830961606565;-0.401763916015625;3.35999999151682;337;-0.0199920654296875;100 mA
155.840961606539;-0.4022216796875;3.36999999149157;338;-0.019989013671875;100 mA
155.850961606514;-0.4027099609375;3.37999999146632;339;-0.0199951171875;100 mA
155.860961606489;-0.403167724609375;3.38999999144107;340;-0.0199951171875;100 mA
155.870961606464;-0.403656005859375;3.39999999141583;341;-0.019989013671875;100 mA
155.880961606438;-0.404144287109375;3.40999999139058;342;-0.0199859619140625;100 mA
155.890961606413;-0.40460205078125;3.41999999136533;343;-0.0199951171875;100 mA
155.900961606388;-0.405120849609375;3.42999999134008;344;-0.019989013671875;100 mA
155.910961606363;-0.40557861328125;3.43999999131483;345;-0.0199920654296875;100 mA
155.920961606337;-0.40606689453125;3.44999999128959;346;-0.0199920654296875;100 mA
155.930961606312;-0.406524658203125;3.45999999126434;347;-0.019989013671875;100 mA
155.940961606287;-0.407012939453125;3.46999999123909;348;-0.019989013671875;100 mA
155.950961606262;-0.40753173828125;3.47999999121384;349;-0.019989013671875;100 mA
155.960961606236;-0.407989501953125;3.4899999911886;350;-0.0199859619140625;100 mA
155.970961606211;-0.40850830078125;3.49999999116335;351;-0.0199951171875;100 mA
155.980961606186;-0.40899658203125;3.5099999911381;352;-0.0199920654296875;100 mA
155.990961606161;-0.40948486328125;3.51999999111285;353;-0.0199920654296875;100 mA
156.000961606135;-0.4100341796875;3.52999999108761;354;-0.0199859619140625;100 mA
156.01096160611;-0.4105224609375;3.53999999106236;355;-0.019989013671875;100 mA
156.020961606085;-0.4110107421875;3.54999999103711;356;-0.019989013671875;100 mA
156.03096160606;-0.411529541015625;3.55999999101186;357;-0.0199920654296875;100 mA
156.040961606034;-0.412017822265625;3.56999999098662;358;-0.019989013671875;100 mA
156.050961606009;-0.412567138671875;3.57999999096137;359;-0.019989013671875;100 mA
156.060961605984;-0.413055419921875;3.58999999093612;360;-0.0199859619140625;100 mA
156.070961605959;-0.413604736328125;3.59999999091087;361;-0.01998291015625;100 mA
156.080961605933;-0.41412353515625;3.60999999088563;362;-0.0199859619140625;100 mA
156.090961605908;-0.414642333984375;3.61999999086038;363;-0.0199920654296875;100 mA
156.100961605883;-0.4151611328125;3.62999999083513;364;-0.019989013671875;100 mA
156.110961605858;-0.415679931640625;3.63999999080988;365;-0.0199951171875;100 mA
156.120961605832;-0.416229248046875;3.64999999078464;366;-0.0199859619140625;100 mA
156.130961605807;-0.416748046875;3.65999999075939;367;-0.019989013671875;100 mA
156.140961605782;-0.417266845703125;3.66999999073414;368;-0.0199859619140625;100 mA
156.150961605757;-0.4178466796875;3.67999999070889;369;-0.019989013671875;100 mA
156.160961605731;-0.418365478515625;3.68999999068365;370;-0.0199920654296875;100 mA
156.170961605706;-0.418914794921875;3.6999999906584;371;-0.01998291015625;100 mA
156.180961605681;-0.419464111328125;3.70999999063315;372;-0.0199920654296875;100 mA
156.190961605656;-0.420013427734375;3.7199999906079;373;-0.0199920654296875;100 mA
156.20096160563;-0.420562744140625;3.72999999058266;374;-0.019989013671875;100 mA
156.210961605605;-0.421112060546875;3.73999999055741;375;-0.0199859619140625;100 mA
156.22096160558;-0.421661376953125;3.74999999053216;376;-0.01998291015625;100 mA
156.230961605555;-0.422210693359375;3.75999999050691;377;-0.0199920654296875;100 mA
156.240961605529;-0.422760009765625;3.76999999048167;378;-0.0199859619140625;100 mA
156.250961605504;-0.42333984375;3.77999999045642;379;-0.0199859619140625;100 mA
156.260961605479;-0.423919677734375;3.78999999043117;380;-0.019989013671875;100 mA
156.270961605454;-0.42449951171875;3.79999999040592;381;-0.0199951171875;100 mA
156.280961605429;-0.425079345703125;3.80999999038067;382;-0.0199920654296875;100 mA
156.290961605403;-0.4256591796875;3.81999999035543;383;-0.019989013671875;100 mA
156.300961605378;-0.426239013671875;3.82999999033018;384;-0.0199859619140625;100 mA
156.310961605353;-0.42681884765625;3.83999999030493;385;-0.019989013671875;100 mA
156.320961605328;-0.427398681640625;3.84999999027968;386;-0.0199951171875;100 mA
156.330961605302;-0.428009033203125;3.85999999025444;387;-0.0199951171875;100 mA
156.340961605277;-0.4285888671875;3.86999999022919;388;-0.019989013671875;100 mA
156.350961605252;-0.42919921875;3.87999999020394;389;-0.0199859619140625;100 mA
156.360961605227;-0.4298095703125;3.88999999017869;390;-0.0199920654296875;100 mA
156.370961605201;-0.430419921875;3.89999999015345;391;-0.0199920654296875;100 mA
156.380961605176;-0.4310302734375;3.9099999901282;392;-0.0199920654296875;100 mA
156.390961605151;-0.431640625;3.91999999010295;393;-0.019989013671875;100 mA
156.400961605126;-0.432281494140625;3.9299999900777;394;-0.019989013671875;100 mA
156.4109616051;-0.432861328125;3.93999999005246;395;-0.01998291015625;100 mA
156.420961605075;-0.433502197265625;3.94999999002721;396;-0.019989013671875;100 mA
156.43096160505;-0.43414306640625;3.95999999000196;397;-0.0199951171875;100 mA
156.440961605025;-0.434783935546875;3.96999998997671;398;-0.019989013671875;100 mA
156.450961604999;-0.4354248046875;3.97999998995147;399;-0.0199920654296875;100 mA
156.460961604974;-0.436065673828125;3.98999998992622;400;-0.0199920654296875;100 mA
156.470961604949;-0.436737060546875;3.99999998990097;401;-0.0199859619140625;100 mA
156.480961604924;-0.4373779296875;4.00999998987572;402;-0.019989013671875;100 mA
156.490961604898;-0.438018798828125;4.01999998985048;403;-0.0199920654296875;100 mA
156.500961604873;-0.438720703125;4.02999998982523;404;-0.0199859619140625;100 mA
156.510961604848;-0.439361572265625;4.03999998979998;405;-0.019989013671875;100 mA
156.520961604823;-0.440032958984375;4.04999998977473;406;-0.019989013671875;100 mA
156.530961604797;-0.44073486328125;4.05999998974949;407;-0.019989013671875;100 mA
156.540961604772;-0.44140625;4.06999998972424;408;-0.0199920654296875;100 mA
156.550961604747;-0.442108154296875;4.07999998969899;409;-0.0199920654296875;100 mA
156.560961604722;-0.442779541015625;4.08999998967374;410;-0.01998291015625;100 mA
156.570961604696;-0.4434814453125;4.0999999896485;411;-0.019989013671875;100 mA
156.580961604671;-0.444183349609375;4.10999998962325;412;-0.0199920654296875;100 mA
156.590961604646;-0.44488525390625;4.119999989598;413;-0.019989013671875;100 mA
156.600961604621;-0.44561767578125;4.12999998957275;414;-0.019989013671875;100 mA
156.610961604595;-0.446319580078125;4.1399999895475;415;-0.019989013671875;100 mA
156.62096160457;-0.44708251953125;4.14999998952226;416;-0.0199920654296875;100 mA
156.630961604545;-0.44781494140625;4.15999998949701;417;-0.0199920654296875;100 mA
156.64096160452;-0.44854736328125;4.16999998947176;418;-0.01998291015625;100 mA
156.650961604494;-0.449310302734375;4.17999998944651;419;-0.0199951171875;100 mA
156.660961604469;-0.450042724609375;4.18999998942127;420;-0.01998291015625;100 mA
156.670961604444;-0.4508056640625;4.19999998939602;421;-0.0199951171875;100 mA
156.680961604419;-0.451568603515625;4.20999998937077;422;-0.019989013671875;100 mA
156.690961604393;-0.45233154296875;4.21999998934552;423;-0.0199920654296875;100 mA
156.700961604368;-0.453125;4.22999998932028;424;-0.0199859619140625;100 mA
156.710961604343;-0.453887939453125;4.23999998929503;425;-0.0199920654296875;100 mA
156.720961604318;-0.454681396484375;4.24999998926978;426;-0.019989013671875;100 mA
156.730961604292;-0.455474853515625;4.25999998924453;427;-0.0199920654296875;100 mA
156.740961604267;-0.456298828125;4.26999998921929;428;-0.0199859619140625;100 mA
156.750961604242;-0.457122802734375;4.27999998919404;429;-0.019989013671875;100 mA
156.760961604217;-0.457916259765625;4.28999998916879;430;-0.019989013671875;100 mA
156.770961604191;-0.458770751953125;4.29999998914354;431;-0.0199859619140625;100 mA
156.780961604166;-0.459625244140625;4.3099999891183;432;-0.019989013671875;100 mA
156.790961604141;-0.46044921875;4.31999998909305;433;-0.0199951171875;100 mA
156.800961604116;-0.461334228515625;4.3299999890678;434;-0.019989013671875;100 mA
156.81096160409;-0.462188720703125;4.33999998904255;435;-0.0199859619140625;100 mA
156.820961604065;-0.46307373046875;4.34999998901731;436;-0.0199920654296875;100 mA
156.83096160404;-0.463958740234375;4.35999998899206;437;-0.0199859619140625;100 mA
156.840961604015;-0.464813232421875;4.36999998896681;438;-0.019989013671875;100 mA
156.850961603989;-0.46575927734375;4.37999998894156;439;-0.0199920654296875;100 mA
156.860961603964;-0.466644287109375;4.38999998891632;440;-0.019989013671875;100 mA
156.870961603939;-0.46759033203125;4.39999998889107;441;-0.0199920654296875;100 mA
156.880961603914;-0.468505859375;4.40999998886582;442;-0.0199859619140625;100 mA
156.890961603888;-0.46942138671875;4.41999998884057;443;-0.0199859619140625;100 mA
156.900961603863;-0.47039794921875;4.42999998881533;444;-0.019989013671875;100 mA
156.910961603838;-0.471343994140625;4.43999998879008;445;-0.0199859619140625;100 mA
156.920961603813;-0.47235107421875;4.44999998876483;446;-0.019989013671875;100 mA
156.930961603787;-0.47332763671875;4.45999998873958;447;-0.0199920654296875;100 mA
156.940961603762;-0.474334716796875;4.46999998871433;448;-0.019989013671875;100 mA
156.950961603737;-0.475372314453125;4.47999998868909;449;-0.019989013671875;100 mA
156.960961603712;-0.47637939453125;4.48999998866384;450;-0.0199920654296875;100 mA
156.970961603686;-0.4774169921875;4.49999998863859;451;-0.0199859619140625;100 mA
156.980961603661;-0.478485107421875;4.50999998861334;452;-0.019989013671875;100 mA
156.990961603636;-0.479522705078125;4.5199999885881;453;-0.0199859619140625;100 mA
157.000961603611;-0.480621337890625;4.52999998856285;454;-0.0199920654296875;100 mA
157.010961603585;-0.481719970703125;4.5399999885376;455;-0.0199859619140625;100 mA
157.02096160356;-0.482818603515625;4.54999998851235;456;-0.0199920654296875;100 mA
157.030961603535;-0.48394775390625;4.55999998848711;457;-0.0199920654296875;100 mA
157.04096160351;-0.485076904296875;4.56999998846186;458;-0.019989013671875;100 mA
157.050961603484;-0.486236572265625;4.57999998843661;459;-0.0199951171875;100 mA
157.060961603459;-0.487396240234375;4.58999998841136;460;-0.0199920654296875;100 mA
157.070961603434;-0.48858642578125;4.59999998838612;461;-0.019989013671875;100 mA
157.080961603409;-0.48980712890625;4.60999998836087;462;-0.019989013671875;100 mA
157.090961603383;-0.49102783203125;4.61999998833562;463;-0.019989013671875;100 mA
157.100961603358;-0.492279052734375;4.62999998831037;464;-0.019989013671875;100 mA
157.110961603333;-0.4935302734375;4.63999998828513;465;-0.019989013671875;100 mA
157.120961603308;-0.49481201171875;4.64999998825988;466;-0.0199859619140625;100 mA
157.130961603282;-0.496124267578125;4.65999998823463;467;-0.0199859619140625;100 mA
157.140961603257;-0.4974365234375;4.66999998820938;468;-0.01998291015625;100 mA
157.150961603232;-0.498809814453125;4.67999998818414;469;-0.0199859619140625;100 mA
157.160961603207;-0.50018310546875;4.68999998815889;470;-0.019989013671875;100 mA
157.170961603181;-0.50140380859375;4.69999998813364;471;-0.0199859619140625;100 mA
157.180961603156;-0.5029296875;4.70999998810839;472;-0.0199859619140625;100 mA
157.190961603131;-0.504150390625;4.71999998808315;473;-0.0199951171875;100 mA
157.200961603106;-0.50567626953125;4.7299999880579;474;-0.0199859619140625;100 mA
157.21096160308;-0.5072021484375;4.73999998803265;475;-0.0199859619140625;100 mA
157.220961603055;-0.50872802734375;4.7499999880074;476;-0.019989013671875;100 mA
157.23096160303;-0.51025390625;4.75999998798216;477;-0.019989013671875;100 mA
157.240961603005;-0.51177978515625;4.76999998795691;478;-0.019989013671875;100 mA
157.250961602979;-0.51361083984375;4.77999998793166;479;-0.0199920654296875;100 mA
157.260961602954;-0.51513671875;4.78999998790641;480;-0.01998291015625;100 mA
157.270961602929;-0.51666259765625;4.79999998788116;481;-0.0199859619140625;100 mA
157.280961602904;-0.51849365234375;4.80999998785592;482;-0.0199859619140625;100 mA
157.290961602878;-0.52032470703125;4.81999998783067;483;-0.019989013671875;100 mA
157.300961602853;-0.5218505859375;4.82999998780542;484;-0.0199859619140625;100 mA
157.310961602828;-0.523681640625;4.83999998778017;485;-0.019989013671875;100 mA
157.320961602803;-0.5255126953125;4.84999998775493;486;-0.019989013671875;100 mA
157.330961602778;-0.52764892578125;4.85999998772968;487;-0.01998291015625;100 mA
157.340961602752;-0.52947998046875;4.86999998770443;488;-0.019989013671875;100 mA
157.350961602727;-0.53131103515625;4.87999998767918;489;-0.0199859619140625;100 mA
157.360961602702;-0.533447265625;4.88999998765394;490;-0.0199920654296875;100 mA
157.370961602677;-0.5352783203125;4.89999998762869;491;-0.0199859619140625;100 mA
157.380961602651;-0.53741455078125;4.90999998760344;492;-0.019989013671875;100 mA
157.390961602626;-0.53955078125;4.91999998757819;493;-0.01998291015625;100 mA
157.400961602601;-0.54168701171875;4.92999998755295;494;-0.0199859619140625;100 mA
157.410961602576;-0.54412841796875;4.9399999875277;495;-0.019989013671875;100 mA
157.42096160255;-0.5462646484375;4.94999998750245;496;-0.0199859619140625;100 mA
157.430961602525;-0.5487060546875;4.9599999874772;497;-0.0199920654296875;100 mA
157.4409616025;-0.5511474609375;4.96999998745196;498;-0.0199859619140625;100 mA
157.450961602475;-0.5535888671875;4.97999998742671;499;-0.0199920654296875;100 mA
157.460961602449;-0.5560302734375;4.98999998740146;500;-0.019989013671875;100 mA
157.470961602424;-0.5584716796875;4.99999998737621;501;-0.0199859619140625;100 mA
157.480961602399;-0.56121826171875;5.00999998735097;502;-0.0199859619140625;100 mA
157.490961602374;-0.56396484375;5.01999998732572;503;-0.01998291015625;100 mA
157.500961602348;-0.56671142578125;5.02999998730047;504;-0.019989013671875;100 mA
157.510961602323;-0.5694580078125;5.03999998727522;505;-0.01998291015625;100 mA
157.520961602298;-0.57220458984375;5.04999998724998;506;-0.0199859619140625;100 mA
157.530961602273;-0.57525634765625;5.05999998722473;507;-0.019989013671875;100 mA
157.540961602247;-0.57830810546875;5.06999998719948;508;-0.0199798583984375;100 mA
157.550961602222;-0.58135986328125;5.07999998717423;509;-0.01998291015625;100 mA
157.560961602197;-0.584716796875;5.08999998714899;510;-0.01998291015625;100 mA
157.570961602172;-0.5877685546875;5.09999998712374;511;-0.0199798583984375;100 mA
157.580961602146;-0.59112548828125;5.10999998709849;512;-0.019989013671875;100 mA
157.590961602121;-0.594482421875;5.11999998707324;513;-0.019989013671875;100 mA
157.600961602096;-0.59814453125;5.129999987048;514;-0.0199859619140625;100 mA
157.610961602071;-0.601806640625;5.13999998702275;515;-0.01998291015625;100 mA
157.620961602045;-0.60546875;5.1499999869975;516;-0.0199859619140625;100 mA
157.63096160202;-0.609130859375;5.15999998697225;517;-0.0199859619140625;100 mA
157.640961601995;-0.61279296875;5.169999986947;518;-0.019989013671875;100 mA
157.65096160197;-0.61676025390625;5.17999998692176;519;-0.0199951171875;100 mA
157.660961601944;-0.6207275390625;5.18999998689651;520;-0.0199859619140625;100 mA
157.670961601919;-0.62469482421875;5.19999998687126;521;-0.0199859619140625;100 mA
157.680961601894;-0.62896728515625;5.20999998684601;522;-0.0199798583984375;100 mA
157.690961601869;-0.63323974609375;5.21999998682077;523;-0.0199859619140625;100 mA
157.700961601843;-0.63751220703125;5.22999998679552;524;-0.0199859619140625;100 mA
157.710961601818;-0.64178466796875;5.23999998677027;525;-0.01998291015625;100 mA
157.720961601793;-0.6463623046875;5.24999998674502;526;-0.019976806640625;100 mA
157.730961601768;-0.650634765625;5.25999998671978;527;-0.019989013671875;100 mA
157.740961601742;-0.65521240234375;5.26999998669453;528;-0.0199859619140625;100 mA
157.750961601717;-0.66009521484375;5.27999998666928;529;-0.0199859619140625;100 mA
157.760961601692;-0.6646728515625;5.28999998664403;530;-0.019989013671875;100 mA
157.770961601667;-0.6695556640625;5.29999998661879;531;-0.0199859619140625;100 mA
157.780961601641;-0.67413330078125;5.30999998659354;532;-0.0199859619140625;100 mA
157.790961601616;-0.67901611328125;5.31999998656829;533;-0.0199859619140625;100 mA
157.800961601591;-0.68389892578125;5.32999998654304;534;-0.01998291015625;100 mA
157.810961601566;-0.6890869140625;5.3399999865178;535;-0.0199859619140625;100 mA
157.82096160154;-0.6939697265625;5.34999998649255;536;-0.019989013671875;100 mA
157.830961601515;-0.6988525390625;5.3599999864673;537;-0.0199859619140625;100 mA
157.84096160149;-0.70404052734375;5.36999998644205;538;-0.0199859619140625;100 mA
157.850961601465;-0.709228515625;5.37999998641681;539;-0.01998291015625;100 mA
157.860961601439;-0.71441650390625;5.38999998639156;540;-0.019989013671875;100 mA
157.870961601414;-0.71929931640625;5.39999998636631;541;-0.0199859619140625;100 mA
157.880961601389;-0.7244873046875;5.40999998634106;542;-0.0199798583984375;100 mA
157.890961601364;-0.72967529296875;5.41999998631582;543;-0.01998291015625;100 mA
157.900961601338;-0.73486328125;5.42999998629057;544;-0.0199859619140625;100 mA
157.910961601313;-0.74005126953125;5.43999998626532;545;-0.01998291015625;100 mA
157.920961601288;-0.7452392578125;5.44999998624007;546;-0.01998291015625;100 mA
157.930961601263;-0.75042724609375;5.45999998621483;547;-0.0199859619140625;100 mA
157.940961601237;-0.755615234375;5.46999998618958;548;-0.019989013671875;100 mA
157.950961601212;-0.76080322265625;5.47999998616433;549;-0.01998291015625;100 mA
157.960961601187;-0.7659912109375;5.48999998613908;550;-0.0199859619140625;100 mA
157.970961601162;-0.77117919921875;5.49999998611383;551;-0.01998291015625;100 mA
157.980961601136;-0.7763671875;5.50999998608859;552;-0.0199859619140625;100 mA
157.990961601111;-0.78125;5.51999998606334;553;-0.01998291015625;100 mA
158.000961601086;-0.78643798828125;5.52999998603809;554;-0.0199859619140625;100 mA
158.010961601061;-0.7916259765625;5.53999998601284;555;-0.01998291015625;100 mA
158.020961601035;-0.79681396484375;5.5499999859876;556;-0.01998291015625;100 mA
158.03096160101;-0.80169677734375;5.55999998596235;557;-0.0199859619140625;100 mA
158.040961600985;-0.806884765625;5.5699999859371;558;-0.0199859619140625;100 mA
158.05096160096;-0.811767578125;5.57999998591185;559;-0.0199859619140625;100 mA
158.060961600934;-0.81695556640625;5.58999998588661;560;-0.0199798583984375;100 mA
158.070961600909;-0.82183837890625;5.59999998586136;561;-0.01998291015625;100 mA
158.080961600884;-0.8270263671875;5.60999998583611;562;-0.0199859619140625;100 mA
158.090961600859;-0.8319091796875;5.61999998581086;563;-0.01998291015625;100 mA
158.100961600833;-0.83709716796875;5.62999998578562;564;-0.01998291015625;100 mA
158.110961600808;-0.84197998046875;5.63999998576037;565;-0.01998291015625;100 mA
158.120961600783;-0.84686279296875;5.64999998573512;566;-0.0199859619140625;100 mA
158.130961600758;-0.85174560546875;5.65999998570987;567;-0.01998291015625;100 mA
158.140961600732;-0.85662841796875;5.66999998568463;568;-0.0199859619140625;100 mA
158.150961600707;-0.86181640625;5.67999998565938;569;-0.0199798583984375;100 mA
158.160961600682;-0.86669921875;5.68999998563413;570;-0.01998291015625;100 mA
158.170961600657;-0.87158203125;5.69999998560888;571;-0.019976806640625;100 mA
158.180961600631;-0.87646484375;5.70999998558364;572;-0.0199798583984375;100 mA
158.190961600606;-0.88134765625;5.71999998555839;573;-0.0199859619140625;100 mA
158.200961600581;-0.88653564453125;5.72999998553314;574;-0.01998291015625;100 mA
158.210961600556;-0.89141845703125;5.73999998550789;575;-0.0199859619140625;100 mA
158.22096160053;-0.89630126953125;5.74999998548265;576;-0.0199859619140625;100 mA
158.230961600505;-0.90118408203125;5.7599999854574;577;-0.0199859619140625;100 mA
158.24096160048;-0.90606689453125;5.76999998543215;578;-0.0199859619140625;100 mA
158.250961600455;-0.91094970703125;5.7799999854069;579;-0.01998291015625;100 mA
158.260961600429;-0.9161376953125;5.78999998538166;580;-0.0199859619140625;100 mA
158.270961600404;-0.9210205078125;5.79999998535641;581;-0.0199798583984375;100 mA
158.280961600379;-0.9259033203125;5.80999998533116;582;-0.01998291015625;100 mA
158.290961600354;-0.9307861328125;5.81999998530591;583;-0.0199859619140625;100 mA
158.300961600328;-0.9356689453125;5.82999998528066;584;-0.0199798583984375;100 mA
158.310961600303;-0.9405517578125;5.83999998525542;585;-0.01998291015625;100 mA
158.320961600278;-0.9454345703125;5.84999998523017;586;-0.01998291015625;100 mA
158.330961600253;-0.9503173828125;5.85999998520492;587;-0.01998291015625;100 mA
158.340961600228;-0.9552001953125;5.86999998517967;588;-0.0199798583984375;100 mA
158.350961600202;-0.96038818359375;5.87999998515443;589;-0.019976806640625;100 mA
158.360961600177;-0.96527099609375;5.88999998512918;590;-0.0199859619140625;100 mA
158.370961600152;-0.97015380859375;5.89999998510393;591;-0.0199859619140625;100 mA
158.380961600127;-0.975341796875;5.90999998507868;592;-0.01998291015625;100 mA
158.390961600101;-0.980224609375;5.91999998505344;593;-0.01998291015625;100 mA
158.400961600076;-0.985107421875;5.92999998502819;594;-0.019976806640625;100 mA
158.410961600051;-0.99029541015625;5.93999998500294;595;-0.0199798583984375;100 mA
158.420961600026;-0.99517822265625;5.94999998497769;596;-0.01998291015625;100 mA
158.4309616;-1.0003662109375;5.95999998495245;597;-0.01998291015625;100 mA
158.440961599975;-1.0052490234375;5.9699999849272;598;-0.0199798583984375;100 mA
158.45096159995;-1.01043701171875;5.97999998490195;599;-0.01998291015625;100 mA
158.460961599925;-1.01531982421875;5.9899999848767;600;-0.0199798583984375;100 mA
158.470961599899;-1.02020263671875;5.99999998485146;601;-0.0199798583984375;100 mA
158.480961599874;-1.025390625;6.00999998482621;602;-0.0199798583984375;100 mA
158.490961599849;-1.0302734375;6.01999998480096;603;-0.0199798583984375;100 mA
158.500961599824;-1.03546142578125;6.02999998477571;604;-0.0199859619140625;100 mA
158.510961599798;-1.0406494140625;6.03999998475047;605;-0.0199798583984375;100 mA
158.520961599773;-1.0455322265625;6.04999998472522;606;-0.0199798583984375;100 mA
158.530961599748;-1.05072021484375;6.05999998469997;607;-0.0199798583984375;100 mA
158.540961599723;-1.05560302734375;6.06999998467472;608;-0.01998291015625;100 mA
158.550961599697;-1.060791015625;6.07999998464948;609;-0.01998291015625;100 mA
158.560961599672;-1.065673828125;6.08999998462423;610;-0.0199798583984375;100 mA
158.570961599647;-1.07086181640625;6.09999998459898;611;-0.0199859619140625;100 mA
158.580961599622;-1.0760498046875;6.10999998457373;612;-0.0199798583984375;100 mA
158.590961599596;-1.0809326171875;6.11999998454849;613;-0.0199798583984375;100 mA
158.600961599571;-1.08612060546875;6.12999998452324;614;-0.0199737548828125;100 mA
158.610961599546;-1.09100341796875;6.13999998449799;615;-0.01998291015625;100 mA
158.620961599521;-1.09588623046875;6.14999998447274;616;-0.0199798583984375;100 mA
158.630961599495;-1.10107421875;6.1599999844475;617;-0.0199859619140625;100 mA
158.64096159947;-1.10595703125;6.16999998442225;618;-0.0199859619140625;100 mA
158.650961599445;-1.11083984375;6.179999984397;619;-0.01998291015625;100 mA
158.66096159942;-1.11602783203125;6.18999998437175;620;-0.01998291015625;100 mA
158.670961599394;-1.12091064453125;6.1999999843465;621;-0.0199798583984375;100 mA
158.680961599369;-1.12579345703125;6.20999998432126;622;-0.0199798583984375;100 mA
158.690961599344;-1.1309814453125;6.21999998429601;623;-0.0199798583984375;100 mA
158.700961599319;-1.1358642578125;6.22999998427076;624;-0.01998291015625;100 mA
158.710961599293;-1.1407470703125;6.23999998424551;625;-0.01998291015625;100 mA
158.720961599268;-1.1456298828125;6.24999998422027;626;-0.019970703125;100 mA
158.730961599243;-1.1505126953125;6.25999998419502;627;-0.01998291015625;100 mA
158.740961599218;-1.1553955078125;6.26999998416977;628;-0.0199798583984375;100 mA
158.750961599192;-1.1602783203125;6.27999998414452;629;-0.01998291015625;100 mA
158.760961599167;-1.1651611328125;6.28999998411928;630;-0.019989013671875;100 mA
158.770961599142;-1.1700439453125;6.29999998409403;631;-0.01998291015625;100 mA
158.780961599117;-1.1749267578125;6.30999998406878;632;-0.0199798583984375;100 mA
158.790961599091;-1.1798095703125;6.31999998404353;633;-0.01998291015625;100 mA
158.800961599066;-1.18438720703125;6.32999998401829;634;-0.01998291015625;100 mA
158.810961599041;-1.18927001953125;6.33999998399304;635;-0.0199798583984375;100 mA
158.820961599016;-1.19415283203125;6.34999998396779;636;-0.0199798583984375;100 mA
158.83096159899;-1.19873046875;6.35999998394254;637;-0.0199859619140625;100 mA
158.840961598965;-1.20330810546875;6.3699999839173;638;-0.019976806640625;100 mA
158.85096159894;-1.20819091796875;6.37999998389205;639;-0.01998291015625;100 mA
158.860961598915;-1.2127685546875;6.3899999838668;640;-0.019976806640625;100 mA
158.870961598889;-1.21734619140625;6.39999998384155;641;-0.01998291015625;100 mA
158.880961598864;-1.22222900390625;6.40999998381631;642;-0.019976806640625;100 mA
158.890961598839;-1.226806640625;6.41999998379106;643;-0.01998291015625;100 mA
158.900961598814;-1.23138427734375;6.42999998376581;644;-0.01998291015625;100 mA
158.910961598788;-1.2359619140625;6.43999998374056;645;-0.01998291015625;100 mA
158.920961598763;-1.24053955078125;6.44999998371532;646;-0.0199798583984375;100 mA
158.930961598738;-1.24481201171875;6.45999998369007;647;-0.0199798583984375;100 mA
158.940961598713;-1.2493896484375;6.46999998366482;648;-0.0199798583984375;100 mA
158.950961598687;-1.253662109375;6.47999998363957;649;-0.019976806640625;100 mA
158.960961598662;-1.25823974609375;6.48999998361433;650;-0.0199798583984375;100 mA
158.970961598637;-1.26251220703125;6.49999998358908;651;-0.0199798583984375;100 mA
158.980961598612;-1.26678466796875;6.50999998356383;652;-0.019976806640625;100 mA
158.990961598586;-1.2713623046875;6.51999998353858;653;-0.0199798583984375;100 mA
159.000961598561;-1.275634765625;6.52999998351333;654;-0.0199737548828125;100 mA
159.010961598536;-1.2799072265625;6.53999998348809;655;-0.019976806640625;100 mA
159.020961598511;-1.2841796875;6.54999998346284;656;-0.0199798583984375;100 mA
159.030961598485;-1.2884521484375;6.55999998343759;657;-0.0199859619140625;100 mA
159.04096159846;-1.292724609375;6.56999998341234;658;-0.0199798583984375;100 mA
159.050961598435;-1.29669189453125;6.5799999833871;659;-0.01998291015625;100 mA
159.06096159841;-1.30096435546875;6.58999998336185;660;-0.0199859619140625;100 mA
159.070961598384;-1.304931640625;6.5999999833366;661;-0.01998291015625;100 mA
159.080961598359;-1.3092041015625;6.60999998331135;662;-0.0199798583984375;100 mA
159.090961598334;-1.31317138671875;6.61999998328611;663;-0.019976806640625;100 mA
159.100961598309;-1.317138671875;6.62999998326086;664;-0.01998291015625;100 mA
159.110961598283;-1.32110595703125;6.63999998323561;665;-0.01998291015625;100 mA
159.120961598258;-1.3250732421875;6.64999998321036;666;-0.01998291015625;100 mA
159.130961598233;-1.32904052734375;6.65999998318512;667;-0.0199798583984375;100 mA
159.140961598208;-1.3330078125;6.66999998315987;668;-0.0199798583984375;100 mA
159.150961598182;-1.33697509765625;6.67999998313462;669;-0.0199798583984375;100 mA
159.160961598157;-1.34063720703125;6.68999998310937;670;-0.019976806640625;100 mA
159.170961598132;-1.3446044921875;6.69999998308413;671;-0.0199798583984375;100 mA
159.180961598107;-1.3482666015625;6.70999998305888;672;-0.01998291015625;100 mA
159.190961598081;-1.3519287109375;6.71999998303363;673;-0.0199798583984375;100 mA
159.200961598056;-1.3555908203125;6.72999998300838;674;-0.019976806640625;100 mA
159.210961598031;-1.3592529296875;6.73999998298314;675;-0.01998291015625;100 mA
159.220961598006;-1.3629150390625;6.74999998295789;676;-0.019976806640625;100 mA
159.23096159798;-1.3665771484375;6.75999998293264;677;-0.0199798583984375;100 mA
159.240961597955;-1.3702392578125;6.76999998290739;678;-0.019976806640625;100 mA
159.25096159793;-1.37359619140625;6.77999998288215;679;-0.019976806640625;100 mA
159.260961597905;-1.37725830078125;6.7899999828569;680;-0.019976806640625;100 mA
159.270961597879;-1.380615234375;6.79999998283165;681;-0.0199798583984375;100 mA
159.280961597854;-1.38397216796875;6.8099999828064;682;-0.0199737548828125;100 mA
159.290961597829;-1.3873291015625;6.81999998278116;683;-0.019976806640625;100 mA
159.300961597804;-1.39068603515625;6.82999998275591;684;-0.0199798583984375;100 mA
159.310961597778;-1.39404296875;6.83999998273066;685;-0.019976806640625;100 mA
159.320961597753;-1.39739990234375;6.84999998270541;686;-0.0199798583984375;100 mA
159.330961597728;-1.4007568359375;6.85999998268016;687;-0.0199737548828125;100 mA
159.340961597703;-1.40380859375;6.86999998265492;688;-0.0199798583984375;100 mA
159.350961597677;-1.4068603515625;6.87999998262967;689;-0.019976806640625;100 mA
159.360961597652;-1.41021728515625;6.88999998260442;690;-0.0199798583984375;100 mA
159.370961597627;-1.41326904296875;6.89999998257917;691;-0.019976806640625;100 mA
159.380961597602;-1.41632080078125;6.90999998255393;692;-0.0199859619140625;100 mA
159.390961597577;-1.41937255859375;6.91999998252868;693;-0.019976806640625;100 mA
159.400961597551;-1.42242431640625;6.92999998250343;694;-0.0199859619140625;100 mA
159.410961597526;-1.42547607421875;6.93999998247818;695;-0.019976806640625;100 mA
159.420961597501;-1.42822265625;6.94999998245294;696;-0.0199737548828125;100 mA
159.430961597476;-1.4312744140625;6.95999998242769;697;-0.019976806640625;100 mA
159.44096159745;-1.43402099609375;6.96999998240244;698;-0.019976806640625;100 mA
159.450961597425;-1.43707275390625;6.97999998237719;699;-0.0199798583984375;100 mA
159.4609615974;-1.4398193359375;6.98999998235195;700;-0.019976806640625;100 mA
159.470961597375;-1.44256591796875;6.9999999823267;701;-0.0199737548828125;100 mA
159.480961597349;-1.4453125;7.00999998230145;702;-0.019976806640625;100 mA
159.490961597324;-1.44805908203125;7.0199999822762;703;-0.0199798583984375;100 mA
159.500961597299;-1.4508056640625;7.02999998225096;704;-0.019976806640625;100 mA
159.510961597274;-1.4532470703125;7.03999998222571;705;-0.0199737548828125;100 mA
159.520961597248;-1.45599365234375;7.04999998220046;706;-0.0199737548828125;100 mA
159.530961597223;-1.45843505859375;7.05999998217521;707;-0.019976806640625;100 mA
159.540961597198;-1.461181640625;7.06999998214997;708;-0.019976806640625;100 mA
159.550961597173;-1.463623046875;7.07999998212472;709;-0.0199798583984375;100 mA
159.560961597147;-1.466064453125;7.08999998209947;710;-0.019970703125;100 mA
159.570961597122;-1.468505859375;7.09999998207422;711;-0.0199798583984375;100 mA
159.580961597097;-1.470947265625;7.10999998204898;712;-0.019976806640625;100 mA
159.590961597072;-1.473388671875;7.11999998202373;713;-0.0199798583984375;100 mA
159.600961597046;-1.475830078125;7.12999998199848;714;-0.0199798583984375;100 mA
159.610961597021;-1.47796630859375;7.13999998197323;715;-0.019970703125;100 mA
159.620961596996;-1.48040771484375;7.14999998194799;716;-0.019976806640625;100 mA
159.630961596971;-1.4825439453125;7.15999998192274;717;-0.0199737548828125;100 mA
159.640961596945;-1.4849853515625;7.16999998189749;718;-0.019976806640625;100 mA
159.65096159692;-1.48712158203125;7.17999998187224;719;-0.019970703125;100 mA
159.660961596895;-1.4892578125;7.189999981847;720;-0.019970703125;100 mA
159.67096159687;-1.49169921875;7.19999998182175;721;-0.019976806640625;100 mA
159.680961596844;-1.49383544921875;7.2099999817965;722;-0.019976806640625;100 mA
159.690961596819;-1.4959716796875;7.21999998177125;723;-0.019976806640625;100 mA
159.700961596794;-1.49810791015625;7.229999981746;724;-0.0199798583984375;100 mA
159.710961596769;-1.49993896484375;7.23999998172076;725;-0.01998291015625;100 mA
159.720961596743;-1.5020751953125;7.24999998169551;726;-0.0199737548828125;100 mA
159.730961596718;-1.50421142578125;7.25999998167026;727;-0.019976806640625;100 mA
159.740961596693;-1.50604248046875;7.26999998164501;728;-0.0199737548828125;100 mA
159.750961596668;-1.5081787109375;7.27999998161977;729;-0.019976806640625;100 mA
159.760961596642;-1.510009765625;7.28999998159452;730;-0.0199737548828125;100 mA
159.770961596617;-1.51214599609375;7.29999998156927;731;-0.0199737548828125;100 mA
159.780961596592;-1.51397705078125;7.30999998154402;732;-0.019976806640625;100 mA
159.790961596567;-1.51611328125;7.31999998151878;733;-0.0199798583984375;100 mA
159.800961596541;-1.5179443359375;7.32999998149353;734;-0.0199798583984375;100 mA
159.810961596516;-1.519775390625;7.33999998146828;735;-0.019976806640625;100 mA
159.820961596491;-1.5216064453125;7.34999998144303;736;-0.0199798583984375;100 mA
159.830961596466;-1.5234375;7.35999998141779;737;-0.0199737548828125;100 mA
159.84096159644;-1.5252685546875;7.36999998139254;738;-0.0199737548828125;100 mA
159.850961596415;-1.527099609375;7.37999998136729;739;-0.019976806640625;100 mA
159.86096159639;-1.5289306640625;7.38999998134204;740;-0.019976806640625;100 mA
159.870961596365;-1.53076171875;7.3999999813168;741;-0.0199798583984375;100 mA
159.880961596339;-1.53228759765625;7.40999998129155;742;-0.0199798583984375;100 mA
159.890961596314;-1.53411865234375;7.4199999812663;743;-0.019976806640625;100 mA
159.900961596289;-1.53594970703125;7.42999998124105;744;-0.019976806640625;100 mA
159.910961596264;-1.5374755859375;7.43999998121581;745;-0.0199737548828125;100 mA
159.920961596238;-1.539306640625;7.44999998119056;746;-0.019976806640625;100 mA
159.930961596213;-1.54083251953125;7.45999998116531;747;-0.0199737548828125;100 mA
159.940961596188;-1.54266357421875;7.46999998114006;748;-0.0199798583984375;100 mA
159.950961596163;-1.544189453125;7.47999998111482;749;-0.019970703125;100 mA
159.960961596137;-1.5460205078125;7.48999998108957;750;-0.0199798583984375;100 mA
159.970961596112;-1.54754638671875;7.49999998106432;751;-0.019976806640625;100 mA
159.980961596087;-1.54937744140625;7.50999998103907;752;-0.0199737548828125;100 mA
159.990961596062;-1.5509033203125;7.51999998101383;753;-0.019976806640625;100 mA
160.000961596036;-1.55242919921875;7.52999998098858;754;-0.019976806640625;100 mA
160.010961596011;-1.55426025390625;7.53999998096333;755;-0.019976806640625;100 mA
160.020961595986;-1.5557861328125;7.54999998093808;756;-0.0199798583984375;100 mA
160.030961595961;-1.55731201171875;7.55999998091283;757;-0.019970703125;100 mA
160.040961595935;-1.558837890625;7.56999998088759;758;-0.0199737548828125;100 mA
160.05096159591;-1.5606689453125;7.57999998086234;759;-0.019976806640625;100 mA
160.060961595885;-1.56219482421875;7.58999998083709;760;-0.019976806640625;100 mA
160.07096159586;-1.563720703125;7.59999998081184;761;-0.019976806640625;100 mA
160.080961595834;-1.56524658203125;7.6099999807866;762;-0.019976806640625;100 mA
160.090961595809;-1.5667724609375;7.61999998076135;763;-0.019970703125;100 mA
160.100961595784;-1.568603515625;7.6299999807361;764;-0.019976806640625;100 mA
160.110961595759;-1.57012939453125;7.63999998071085;765;-0.0199798583984375;100 mA
160.120961595733;-1.5716552734375;7.64999998068561;766;-0.019970703125;100 mA
160.130961595708;-1.573486328125;7.65999998066036;767;-0.019970703125;100 mA
160.140961595683;-1.57501220703125;7.66999998063511;768;-0.019970703125;100 mA
160.150961595658;-1.57684326171875;7.67999998060986;769;-0.0199737548828125;100 mA
160.160961595632;-1.578369140625;7.68999998058462;770;-0.019970703125;100 mA
160.170961595607;-1.57989501953125;7.69999998055937;771;-0.0199737548828125;100 mA
160.180961595582;-1.58172607421875;7.70999998053412;772;-0.019976806640625;100 mA
160.190961595557;-1.583251953125;7.71999998050887;773;-0.019976806640625;100 mA
160.200961595531;-1.58477783203125;7.72999998048363;774;-0.0199798583984375;100 mA
160.210961595506;-1.58660888671875;7.73999998045838;775;-0.019976806640625;100 mA
160.220961595481;-1.588134765625;7.74999998043313;776;-0.0199737548828125;100 mA
160.230961595456;-1.58966064453125;7.75999998040788;777;-0.0199737548828125;100 mA
160.24096159543;-1.5911865234375;7.76999998038264;778;-0.019976806640625;100 mA
160.250961595405;-1.593017578125;7.77999998035739;779;-0.019976806640625;100 mA
160.26096159538;-1.59454345703125;7.78999998033214;780;-0.0199676513671875;100 mA
160.270961595355;-1.5960693359375;7.79999998030689;781;-0.0199737548828125;100 mA
160.280961595329;-1.59759521484375;7.80999998028165;782;-0.0199737548828125;100 mA
160.290961595304;-1.59912109375;7.8199999802564;783;-0.0199737548828125;100 mA
160.300961595279;-1.60064697265625;7.82999998023115;784;-0.019976806640625;100 mA
160.310961595254;-1.6021728515625;7.8399999802059;785;-0.01998291015625;100 mA
160.320961595228;-1.60369873046875;7.84999998018066;786;-0.019976806640625;100 mA
160.330961595203;-1.605224609375;7.85999998015541;787;-0.019976806640625;100 mA
160.340961595178;-1.60675048828125;7.86999998013016;788;-0.0199737548828125;100 mA
160.350961595153;-1.6082763671875;7.87999998010491;789;-0.0199737548828125;100 mA
160.360961595127;-1.60980224609375;7.88999998007966;790;-0.019976806640625;100 mA
160.370961595102;-1.61102294921875;7.89999998005442;791;-0.0199737548828125;100 mA
160.380961595077;-1.612548828125;7.90999998002917;792;-0.019976806640625;100 mA
160.390961595052;-1.61407470703125;7.91999998000392;793;-0.0199798583984375;100 mA
160.400961595027;-1.6156005859375;7.92999997997867;794;-0.019976806640625;100 mA
160.410961595001;-1.6168212890625;7.93999997995343;795;-0.0199737548828125;100 mA
160.420961594976;-1.61834716796875;7.94999997992818;796;-0.019976806640625;100 mA
160.430961594951;-1.61956787109375;7.95999997990293;797;-0.019976806640625;100 mA
160.440961594926;-1.62109375;7.96999997987768;798;-0.019976806640625;100 mA
160.4509615949;-1.62261962890625;7.97999997985244;799;-0.019976806640625;100 mA
160.460961594875;-1.62384033203125;7.98999997982719;800;-0.019976806640625;100 mA
160.47096159485;-1.62506103515625;7.99999997980194;801;-0.0199737548828125;100 mA
160.480961594825;-1.6265869140625;8.00999997977669;802;-0.0199737548828125;100 mA
160.490961594799;-1.6278076171875;8.01999997975145;803;-0.0199737548828125;100 mA
160.500961594774;-1.62933349609375;8.0299999797262;804;-0.0199798583984375;100 mA
160.510961594749;-1.63055419921875;8.03999997970095;805;-0.0199737548828125;100 mA
160.520961594724;-1.63177490234375;8.0499999796757;806;-0.0199798583984375;100 mA
160.530961594698;-1.63330078125;8.05999997965046;807;-0.0199737548828125;100 mA
160.540961594673;-1.634521484375;8.06999997962521;808;-0.0199737548828125;100 mA
160.550961594648;-1.6357421875;8.07999997959996;809;-0.0199798583984375;100 mA
160.560961594623;-1.636962890625;8.08999997957471;810;-0.0199737548828125;100 mA
160.570961594597;-1.63848876953125;8.09999997954947;811;-0.0199798583984375;100 mA
160.580961594572;-1.63970947265625;8.10999997952422;812;-0.0199737548828125;100 mA
160.590961594547;-1.64093017578125;8.11999997949897;813;-0.0199737548828125;100 mA
160.600961594522;-1.64215087890625;8.12999997947372;814;-0.019976806640625;100 mA
160.610961594496;-1.64337158203125;8.13999997944848;815;-0.0199737548828125;100 mA
160.620961594471;-1.64459228515625;8.14999997942323;816;-0.0199798583984375;100 mA
160.630961594446;-1.64581298828125;8.15999997939798;817;-0.019970703125;100 mA
160.640961594421;-1.64703369140625;8.16999997937273;818;-0.019976806640625;100 mA
160.650961594395;-1.64825439453125;8.17999997934749;819;-0.019976806640625;100 mA
160.66096159437;-1.64947509765625;8.18999997932224;820;-0.019970703125;100 mA
160.670961594345;-1.65069580078125;8.19999997929699;821;-0.0199737548828125;100 mA
160.68096159432;-1.65191650390625;8.20999997927174;822;-0.0199737548828125;100 mA
160.690961594294;-1.65313720703125;8.2199999792465;823;-0.0199737548828125;100 mA
160.700961594269;-1.65435791015625;8.22999997922125;824;-0.0199737548828125;100 mA
160.710961594244;-1.65557861328125;8.239999979196;825;-0.019976806640625;100 mA
160.720961594219;-1.65679931640625;8.24999997917075;826;-0.019970703125;100 mA
160.730961594193;-1.65802001953125;8.2599999791455;827;-0.019976806640625;100 mA
160.740961594168;-1.658935546875;8.26999997912026;828;-0.0199737548828125;100 mA
160.750961594143;-1.66015625;8.27999997909501;829;-0.0199737548828125;100 mA
160.760961594118;-1.661376953125;8.28999997906976;830;-0.0199737548828125;100 mA
160.770961594092;-1.66259765625;8.29999997904451;831;-0.0199737548828125;100 mA
160.780961594067;-1.66351318359375;8.30999997901927;832;-0.019976806640625;100 mA
160.790961594042;-1.66473388671875;8.31999997899402;833;-0.019970703125;100 mA
160.800961594017;-1.66595458984375;8.32999997896877;834;-0.019970703125;100 mA
160.810961593991;-1.66717529296875;8.33999997894352;835;-0.019976806640625;100 mA
160.820961593966;-1.6680908203125;8.34999997891828;836;-0.0199737548828125;100 mA
160.830961593941;-1.6693115234375;8.35999997889303;837;-0.0199737548828125;100 mA
160.840961593916;-1.67022705078125;8.36999997886778;838;-0.0199737548828125;100 mA
160.85096159389;-1.67144775390625;8.37999997884253;839;-0.0199676513671875;100 mA
160.860961593865;-1.67266845703125;8.38999997881729;840;-0.019976806640625;100 mA
160.87096159384;-1.673583984375;8.39999997879204;841;-0.0199737548828125;100 mA
160.880961593815;-1.6748046875;8.40999997876679;842;-0.0199737548828125;100 mA
160.890961593789;-1.67572021484375;8.41999997874154;843;-0.0199737548828125;100 mA
160.900961593764;-1.67694091796875;8.4299999787163;844;-0.019976806640625;100 mA
160.910961593739;-1.6778564453125;8.43999997869105;845;-0.019976806640625;100 mA
160.920961593714;-1.67877197265625;8.4499999786658;846;-0.019970703125;100 mA
160.930961593688;-1.67999267578125;8.45999997864055;847;-0.0199737548828125;100 mA
160.940961593663;-1.680908203125;8.46999997861531;848;-0.0199676513671875;100 mA
160.950961593638;-1.68212890625;8.47999997859006;849;-0.019976806640625;100 mA
160.960961593613;-1.68304443359375;8.48999997856481;850;-0.019976806640625;100 mA
160.970961593587;-1.6839599609375;8.49999997853956;851;-0.0199737548828125;100 mA
160.980961593562;-1.68487548828125;8.50999997851432;852;-0.0199798583984375;100 mA
160.990961593537;-1.68609619140625;8.51999997848907;853;-0.019976806640625;100 mA
161.000961593512;-1.68701171875;8.52999997846382;854;-0.019976806640625;100 mA
161.010961593486;-1.68792724609375;8.53999997843857;855;-0.0199676513671875;100 mA
161.020961593461;-1.6888427734375;8.54999997841333;856;-0.019970703125;100 mA
161.030961593436;-1.68975830078125;8.55999997838808;857;-0.019976806640625;100 mA
161.040961593411;-1.69097900390625;8.56999997836283;858;-0.0199676513671875;100 mA
161.050961593385;-1.69189453125;8.57999997833758;859;-0.019976806640625;100 mA
161.06096159336;-1.69281005859375;8.58999997831233;860;-0.0199737548828125;100 mA
161.070961593335;-1.6937255859375;8.59999997828709;861;-0.019976806640625;100 mA
161.08096159331;-1.69464111328125;8.60999997826184;862;-0.019976806640625;100 mA
161.090961593284;-1.695556640625;8.61999997823659;863;-0.0199676513671875;100 mA
161.100961593259;-1.69647216796875;8.62999997821134;864;-0.0199737548828125;100 mA
161.110961593234;-1.6973876953125;8.6399999781861;865;-0.019976806640625;100 mA
161.120961593209;-1.697998046875;8.64999997816085;866;-0.0199737548828125;100 mA
161.130961593183;-1.69891357421875;8.6599999781356;867;-0.019976806640625;100 mA
161.140961593158;-1.6998291015625;8.66999997811035;868;-0.019970703125;100 mA
161.150961593133;-1.70074462890625;8.67999997808511;869;-0.019976806640625;100 mA
161.160961593108;-1.70166015625;8.68999997805986;870;-0.0199737548828125;100 mA
161.170961593082;-1.70257568359375;8.69999997803461;871;-0.0199737548828125;100 mA
161.180961593057;-1.70318603515625;8.70999997800936;872;-0.0199676513671875;100 mA
161.190961593032;-1.7041015625;8.71999997798412;873;-0.0199737548828125;100 mA
161.200961593007;-1.70501708984375;8.72999997795887;874;-0.0199737548828125;100 mA
161.210961592981;-1.7059326171875;8.73999997793362;875;-0.019970703125;100 mA
161.220961592956;-1.70684814453125;8.74999997790837;876;-0.019970703125;100 mA
161.230961592931;-1.70745849609375;8.75999997788313;877;-0.019976806640625;100 mA
161.240961592906;-1.7083740234375;8.76999997785788;878;-0.019970703125;100 mA
161.25096159288;-1.70928955078125;8.77999997783263;879;-0.0199737548828125;100 mA
161.260961592855;-1.710205078125;8.78999997780738;880;-0.0199737548828125;100 mA
161.27096159283;-1.7108154296875;8.79999997778214;881;-0.0199737548828125;100 mA
161.280961592805;-1.71173095703125;8.80999997775689;882;-0.019976806640625;100 mA
161.290961592779;-1.71234130859375;8.81999997773164;883;-0.019970703125;100 mA
161.300961592754;-1.7132568359375;8.82999997770639;884;-0.019976806640625;100 mA
161.310961592729;-1.71417236328125;8.83999997768115;885;-0.0199737548828125;100 mA
161.320961592704;-1.71478271484375;8.8499999776559;886;-0.0199737548828125;100 mA
161.330961592678;-1.7156982421875;8.85999997763065;887;-0.0199737548828125;100 mA
161.340961592653;-1.71630859375;8.8699999776054;888;-0.0199737548828125;100 mA
161.350961592628;-1.71722412109375;8.87999997758016;889;-0.0199737548828125;100 mA
161.360961592603;-1.71783447265625;8.88999997755491;890;-0.0199737548828125;100 mA
161.370961592577;-1.71844482421875;8.89999997752966;891;-0.0199737548828125;100 mA
161.380961592552;-1.7193603515625;8.90999997750441;892;-0.0199737548828125;100 mA
161.390961592527;-1.719970703125;8.91999997747916;893;-0.019976806640625;100 mA
161.400961592502;-1.72088623046875;8.92999997745392;894;-0.0199737548828125;100 mA
161.410961592476;-1.72149658203125;8.93999997742867;895;-0.019970703125;100 mA
161.420961592451;-1.722412109375;8.94999997740342;896;-0.0199737548828125;100 mA
161.430961592426;-1.7230224609375;8.95999997737817;897;-0.0199737548828125;100 mA
161.440961592401;-1.7236328125;8.96999997735293;898;-0.0199737548828125;100 mA
161.450961592376;-1.72454833984375;8.97999997732768;899;-0.0199737548828125;100 mA
161.46096159235;-1.72515869140625;8.98999997730243;900;-0.0199737548828125;100 mA
161.470961592325;-1.72576904296875;8.99999997727718;901;-0.0199737548828125;100 mA
161.4809615923;-1.7266845703125;9.00999997725194;902;-0.0199737548828125;100 mA
161.490961592275;-1.727294921875;9.01999997722669;903;-0.019970703125;100 mA
161.500961592249;-1.7279052734375;9.02999997720144;904;-0.0199676513671875;100 mA
161.510961592224;-1.72882080078125;9.03999997717619;905;-0.0199737548828125;100 mA
161.520961592199;-1.72943115234375;9.04999997715095;906;-0.019970703125;100 mA
161.530961592174;-1.73004150390625;9.0599999771257;907;-0.0199737548828125;100 mA
161.540961592148;-1.73065185546875;9.06999997710045;908;-0.0199737548828125;100 mA
161.550961592123;-1.7315673828125;9.0799999770752;909;-0.019970703125;100 mA
161.560961592098;-1.732177734375;9.08999997704996;910;-0.019976806640625;100 mA
161.570961592073;-1.7327880859375;9.09999997702471;911;-0.019970703125;100 mA
161.580961592047;-1.7333984375;9.10999997699946;912;-0.0199798583984375;100 mA
161.590961592022;-1.7340087890625;9.11999997697421;913;-0.0199676513671875;100 mA
161.600961591997;-1.73492431640625;9.12999997694897;914;-0.0199737548828125;100 mA
161.610961591972;-1.7352294921875;9.13999997692372;915;-0.019970703125;100 mA
161.620961591946;-1.73614501953125;9.14999997689847;916;-0.0199737548828125;100 mA
161.630961591921;-1.73675537109375;9.15999997687322;917;-0.019970703125;100 mA
161.640961591896;-1.73736572265625;9.16999997684798;918;-0.0199737548828125;100 mA
161.650961591871;-1.73797607421875;9.17999997682273;919;-0.01998291015625;100 mA
161.660961591845;-1.73858642578125;9.18999997679748;920;-0.019970703125;100 mA
161.67096159182;-1.73919677734375;9.19999997677223;921;-0.0199737548828125;100 mA
161.680961591795;-1.73980712890625;9.20999997674699;922;-0.019970703125;100 mA
161.69096159177;-1.74041748046875;9.21999997672174;923;-0.019970703125;100 mA
161.700961591744;-1.74102783203125;9.22999997669649;924;-0.019964599609375;100 mA
161.710961591719;-1.74163818359375;9.23999997667124;925;-0.0199737548828125;100 mA
161.720961591694;-1.74224853515625;9.249999976646;926;-0.019970703125;100 mA
161.730961591669;-1.74285888671875;9.25999997662075;927;-0.0199737548828125;100 mA
161.740961591643;-1.74346923828125;9.2699999765955;928;-0.019976806640625;100 mA
161.750961591618;-1.74407958984375;9.27999997657025;929;-0.019970703125;100 mA
161.760961591593;-1.744384765625;9.289999976545;930;-0.019976806640625;100 mA
161.770961591568;-1.7449951171875;9.29999997651976;931;-0.019970703125;100 mA
161.780961591542;-1.74560546875;9.30999997649451;932;-0.0199737548828125;100 mA
161.790961591517;-1.7462158203125;9.31999997646926;933;-0.019970703125;100 mA
161.800961591492;-1.746826171875;9.32999997644401;934;-0.019970703125;100 mA
161.810961591467;-1.7474365234375;9.33999997641877;935;-0.0199737548828125;100 mA
161.820961591441;-1.74774169921875;9.34999997639352;936;-0.0199798583984375;100 mA
161.830961591416;-1.74835205078125;9.35999997636827;937;-0.0199676513671875;100 mA
161.840961591391;-1.74896240234375;9.36999997634302;938;-0.019976806640625;100 mA
161.850961591366;-1.74957275390625;9.37999997631778;939;-0.019964599609375;100 mA
161.86096159134;-1.75018310546875;9.38999997629253;940;-0.0199737548828125;100 mA
161.870961591315;-1.75048828125;9.39999997626728;941;-0.0199737548828125;100 mA
161.88096159129;-1.7510986328125;9.40999997624203;942;-0.0199737548828125;100 mA
161.890961591265;-1.751708984375;9.41999997621679;943;-0.019976806640625;100 mA
161.900961591239;-1.75201416015625;9.42999997619154;944;-0.019976806640625;100 mA
161.910961591214;-1.75262451171875;9.43999997616629;945;-0.019976806640625;100 mA
161.920961591189;-1.75323486328125;9.44999997614104;946;-0.0199676513671875;100 mA
161.930961591164;-1.75384521484375;9.4599999761158;947;-0.0199737548828125;100 mA
161.940961591138;-1.754150390625;9.46999997609055;948;-0.0199737548828125;100 mA
161.950961591113;-1.7547607421875;9.4799999760653;949;-0.019964599609375;100 mA
161.960961591088;-1.75537109375;9.48999997604005;950;-0.019970703125;100 mA
161.970961591063;-1.75567626953125;9.49999997601481;951;-0.0199737548828125;100 mA
161.980961591037;-1.75628662109375;9.50999997598956;952;-0.0199737548828125;100 mA
161.990961591012;-1.75689697265625;9.51999997596431;953;-0.019970703125;100 mA
162.000961590987;-1.7572021484375;9.52999997593906;954;-0.019976806640625;100 mA
162.010961590962;-1.7578125;9.53999997591382;955;-0.0199737548828125;100 mA
162.020961590936;-1.7584228515625;9.54999997588857;956;-0.0199737548828125;100 mA
162.030961590911;-1.75872802734375;9.55999997586332;957;-0.0199737548828125;100 mA
162.040961590886;-1.75933837890625;9.56999997583807;958;-0.019970703125;100 mA
162.050961590861;-1.75994873046875;9.57999997581283;959;-0.019970703125;100 mA
162.060961590835;-1.76025390625;9.58999997578758;960;-0.019970703125;100 mA
162.07096159081;-1.7608642578125;9.59999997576233;961;-0.0199676513671875;100 mA
162.080961590785;-1.76116943359375;9.60999997573708;962;-0.0199737548828125;100 mA
162.09096159076;-1.76177978515625;9.61999997571183;963;-0.0199737548828125;100 mA
162.100961590734;-1.7620849609375;9.62999997568659;964;-0.0199676513671875;100 mA
162.110961590709;-1.7626953125;9.63999997566134;965;-0.0199737548828125;100 mA
162.120961590684;-1.76300048828125;9.64999997563609;966;-0.0199737548828125;100 mA
162.130961590659;-1.76361083984375;9.65999997561084;967;-0.0199737548828125;100 mA
162.140961590633;-1.763916015625;9.6699999755856;968;-0.0199737548828125;100 mA
162.150961590608;-1.7645263671875;9.67999997556035;969;-0.019976806640625;100 mA
162.160961590583;-1.76483154296875;9.6899999755351;970;-0.0199676513671875;100 mA
162.170961590558;-1.76544189453125;9.69999997550985;971;-0.0199676513671875;100 mA
162.180961590532;-1.7657470703125;9.70999997548461;972;-0.019976806640625;100 mA
162.190961590507;-1.766357421875;9.71999997545936;973;-0.019970703125;100 mA
162.200961590482;-1.76666259765625;9.72999997543411;974;-0.019970703125;100 mA
162.210961590457;-1.76727294921875;9.73999997540886;975;-0.0199737548828125;100 mA
162.220961590431;-1.767578125;9.74999997538362;976;-0.019964599609375;100 mA
162.230961590406;-1.7681884765625;9.75999997535837;977;-0.019976806640625;100 mA
162.240961590381;-1.76849365234375;9.76999997533312;978;-0.019976806640625;100 mA
162.250961590356;-1.768798828125;9.77999997530787;979;-0.019970703125;100 mA
162.26096159033;-1.7694091796875;9.78999997528263;980;-0.019970703125;100 mA
162.270961590305;-1.76971435546875;9.79999997525738;981;-0.0199737548828125;100 mA
162.28096159028;-1.77032470703125;9.80999997523213;982;-0.019970703125;100 mA
162.290961590255;-1.7706298828125;9.81999997520688;983;-0.0199737548828125;100 mA
162.300961590229;-1.77093505859375;9.82999997518164;984;-0.0199676513671875;100 mA
162.310961590204;-1.77154541015625;9.83999997515639;985;-0.0199737548828125;100 mA
162.320961590179;-1.7718505859375;9.84999997513114;986;-0.019976806640625;100 mA
162.330961590154;-1.7724609375;9.85999997510589;987;-0.019964599609375;100 mA
162.340961590128;-1.77276611328125;9.86999997508065;988;-0.019976806640625;100 mA
162.350961590103;-1.7730712890625;9.8799999750554;989;-0.019970703125;100 mA
162.360961590078;-1.773681640625;9.88999997503015;990;-0.019970703125;100 mA
162.370961590053;-1.77398681640625;9.8999999750049;991;-0.0199737548828125;100 mA
162.380961590027;-1.7742919921875;9.90999997497966;992;-0.019976806640625;100 mA
162.390961590002;-1.77490234375;9.91999997495441;993;-0.0199737548828125;100 mA
162.400961589977;-1.77520751953125;9.92999997492916;994;-0.0199737548828125;100 mA
162.410961589952;-1.7755126953125;9.93999997490391;995;-0.019970703125;100 mA
162.420961589926;-1.776123046875;9.94999997487866;996;-0.0199737548828125;100 mA
162.430961589901;-1.77642822265625;9.95999997485342;997;-0.0199676513671875;100 mA
162.440961589876;-1.7767333984375;9.96999997482817;998;-0.0199737548828125;100 mA
162.450961589851;-1.77734375;9.97999997480292;999;-0.0199737548828125;100 mA
162.460961589826;-1.77764892578125;9.98999997477767;1000;-0.0199737548828125;100 mA
