Time (s);WE(1).Potential (V);Corrected time (s);Index;WE(1).Current (A);Current range
222.471013438315;-0.197113037109375;0;1;-0.02198486328125;100 mA
222.481013438289;-0.206787109375;0.00999999997475243;2;-0.02198486328125;100 mA
222.491013438264;-0.21380615234375;0.0199999999495049;3;-0.02198486328125;100 mA
222.501013438239;-0.219390869140625;0.0299999999242573;4;-0.021990966796875;100 mA
222.511013438214;-0.22406005859375;0.0399999998990097;5;-0.021990966796875;100 mA
222.521013438188;-0.228118896484375;0.0499999998737621;6;-0.02198486328125;100 mA
222.531013438163;-0.231689453125;0.0599999998485146;7;-0.021990966796875;100 mA
222.541013438138;-0.23492431640625;0.069999999823267;8;-0.021990966796875;100 mA
222.551013438113;-0.23785400390625;0.0799999997980194;9;-0.0219818115234375;100 mA
222.561013438087;-0.24053955078125;0.0899999997727718;10;-0.02198486328125;100 mA
222.571013438062;-0.243072509765625;0.0999999997475243;11;-0.0219879150390625;100 mA
222.581013438037;-0.245391845703125;0.109999999722277;12;-0.0219879150390625;100 mA
222.591013438012;-0.247589111328125;0.119999999697029;13;-0.02198486328125;100 mA
222.601013437986;-0.249664306640625;0.129999999671782;14;-0.02198486328125;100 mA
222.611013437961;-0.2515869140625;0.139999999646534;15;-0.0219940185546875;100 mA
222.621013437936;-0.25347900390625;0.149999999621286;16;-0.0219879150390625;100 mA
222.631013437911;-0.2552490234375;0.159999999596039;17;-0.02198486328125;100 mA
222.641013437885;-0.2569580078125;0.169999999570791;18;-0.0219879150390625;100 mA
222.65101343786;-0.25860595703125;0.179999999545544;19;-0.02198486328125;100 mA
222.661013437835;-0.260162353515625;0.189999999520296;20;-0.0219879150390625;100 mA
222.67101343781;-0.261688232421875;0.199999999495049;21;-0.0219879150390625;100 mA
222.681013437784;-0.26312255859375;0.209999999469801;22;-0.02198486328125;100 mA
222.691013437759;-0.264556884765625;0.219999999444553;23;-0.0219879150390625;100 mA
222.701013437734;-0.265899658203125;0.229999999419306;24;-0.021990966796875;100 mA
222.711013437709;-0.2672119140625;0.239999999394058;25;-0.021990966796875;100 mA
222.721013437683;-0.26849365234375;0.249999999368811;26;-0.021990966796875;100 mA
222.731013437658;-0.269744873046875;0.259999999343563;27;-0.02198486328125;100 mA
222.741013437633;-0.270965576171875;0.269999999318316;28;-0.0219879150390625;100 mA
222.751013437608;-0.27215576171875;0.279999999293068;29;-0.021990966796875;100 mA
222.761013437583;-0.2733154296875;0.28999999926782;30;-0.02198486328125;100 mA
222.771013437557;-0.274444580078125;0.299999999242573;31;-0.02198486328125;100 mA
222.781013437532;-0.275543212890625;0.309999999217325;32;-0.02198486328125;100 mA
222.791013437507;-0.276641845703125;0.319999999192078;33;-0.02198486328125;100 mA
222.801013437482;-0.277679443359375;0.32999999916683;34;-0.0219818115234375;100 mA
222.811013437456;-0.278717041015625;0.339999999141583;35;-0.0219879150390625;100 mA
222.821013437431;-0.279754638671875;0.349999999116335;36;-0.021990966796875;100 mA
222.831013437406;-0.280731201171875;0.359999999091087;37;-0.0219879150390625;100 mA
222.841013437381;-0.28167724609375;0.36999999906584;38;-0.0219879150390625;100 mA
222.851013437355;-0.28265380859375;0.379999999040592;39;-0.02198486328125;100 mA
222.86101343733;-0.2835693359375;0.389999999015345;40;-0.021990966796875;100 mA
222.871013437305;-0.284515380859375;0.399999998990097;41;-0.021990966796875;100 mA
222.88101343728;-0.285400390625;0.40999999896485;42;-0.0219879150390625;100 mA
222.891013437254;-0.28631591796875;0.419999998939602;43;-0.02198486328125;100 mA
222.901013437229;-0.287200927734375;0.429999998914354;44;-0.0219940185546875;100 mA
222.911013437204;-0.288055419921875;0.439999998889107;45;-0.0219879150390625;100 mA
222.921013437179;-0.2889404296875;0.449999998863859;46;-0.021990966796875;100 mA
222.931013437153;-0.289764404296875;0.459999998838612;47;-0.0219879150390625;100 mA
222.941013437128;-0.29058837890625;0.469999998813364;48;-0.02198486328125;100 mA
222.951013437103;-0.291412353515625;0.479999998788116;49;-0.021990966796875;100 mA
222.961013437078;-0.292205810546875;0.489999998762869;50;-0.0219879150390625;100 mA
222.971013437052;-0.29302978515625;0.499999998737621;51;-0.0219879150390625;100 mA
222.981013437027;-0.293792724609375;0.509999998712374;52;-0.021990966796875;100 mA
222.991013437002;-0.294586181640625;0.519999998687126;53;-0.021990966796875;100 mA
223.001013436977;-0.29534912109375;0.529999998661879;54;-0.02198486328125;100 mA
223.011013436951;-0.296112060546875;0.539999998636631;55;-0.0219879150390625;100 mA
223.021013436926;-0.296875;0.549999998611383;56;-0.0219879150390625;100 mA
223.031013436901;-0.297576904296875;0.559999998586136;57;-0.02198486328125;100 mA
223.041013436876;-0.29833984375;0.569999998560888;58;-0.021990966796875;100 mA
223.05101343685;-0.299041748046875;0.579999998535641;59;-0.021990966796875;100 mA
223.061013436825;-0.29974365234375;0.589999998510393;60;-0.0219879150390625;100 mA
223.0710134368;-0.30047607421875;0.599999998485146;61;-0.021990966796875;100 mA
223.081013436775;-0.301177978515625;0.609999998459898;62;-0.021990966796875;100 mA
223.091013436749;-0.3018798828125;0.61999999843465;63;-0.02198486328125;100 mA
223.101013436724;-0.302581787109375;0.629999998409403;64;-0.0219879150390625;100 mA
223.111013436699;-0.303253173828125;0.639999998384155;65;-0.02198486328125;100 mA
223.121013436674;-0.303955078125;0.649999998358908;66;-0.0219940185546875;100 mA
223.131013436648;-0.304595947265625;0.65999999833366;67;-0.0219879150390625;100 mA
223.141013436623;-0.305267333984375;0.669999998308413;68;-0.0219818115234375;100 mA
223.151013436598;-0.305938720703125;0.679999998283165;69;-0.0219818115234375;100 mA
223.161013436573;-0.30657958984375;0.689999998257917;70;-0.0219879150390625;100 mA
223.171013436547;-0.3072509765625;0.69999999823267;71;-0.021990966796875;100 mA
223.181013436522;-0.307891845703125;0.709999998207422;72;-0.021990966796875;100 mA
223.191013436497;-0.30853271484375;0.719999998182175;73;-0.021990966796875;100 mA
223.201013436472;-0.309173583984375;0.729999998156927;74;-0.021990966796875;100 mA
223.211013436446;-0.309783935546875;0.73999999813168;75;-0.02198486328125;100 mA
223.221013436421;-0.3104248046875;0.749999998106432;76;-0.02198486328125;100 mA
223.231013436396;-0.31103515625;0.759999998081184;77;-0.0219879150390625;100 mA
223.241013436371;-0.311676025390625;0.769999998055937;78;-0.021990966796875;100 mA
223.251013436345;-0.312286376953125;0.779999998030689;79;-0.021990966796875;100 mA
223.26101343632;-0.3128662109375;0.789999998005442;80;-0.02198486328125;100 mA
223.271013436295;-0.313507080078125;0.799999997980194;81;-0.021990966796875;100 mA
223.28101343627;-0.3140869140625;0.809999997954947;82;-0.0219879150390625;100 mA
223.291013436244;-0.314697265625;0.819999997929699;83;-0.021990966796875;100 mA
223.301013436219;-0.315277099609375;0.829999997904451;84;-0.021990966796875;100 mA
223.311013436194;-0.31585693359375;0.839999997879204;85;-0.021990966796875;100 mA
223.321013436169;-0.31646728515625;0.849999997853956;86;-0.0219879150390625;100 mA
223.331013436143;-0.3170166015625;0.859999997828709;87;-0.0219879150390625;100 mA
223.341013436118;-0.317626953125;0.869999997803461;88;-0.0219879150390625;100 mA
223.351013436093;-0.31817626953125;0.879999997778214;89;-0.02198486328125;100 mA
223.361013436068;-0.318756103515625;0.889999997752966;90;-0.02198486328125;100 mA
223.371013436042;-0.3193359375;0.899999997727718;91;-0.0219879150390625;100 mA
223.381013436017;-0.31988525390625;0.909999997702471;92;-0.0219879150390625;100 mA
223.391013435992;-0.320465087890625;0.919999997677223;93;-0.021990966796875;100 mA
223.401013435967;-0.321014404296875;0.929999997651976;94;-0.0219940185546875;100 mA
223.411013435941;-0.321563720703125;0.939999997626728;95;-0.0219879150390625;100 mA
223.421013435916;-0.3221435546875;0.949999997601481;96;-0.0219879150390625;100 mA
223.431013435891;-0.322662353515625;0.959999997576233;97;-0.0219879150390625;100 mA
223.441013435866;-0.3232421875;0.969999997550985;98;-0.02198486328125;100 mA
223.45101343584;-0.32379150390625;0.979999997525738;99;-0.02198486328125;100 mA
223.461013435815;-0.324310302734375;0.98999999750049;100;-0.02198486328125;100 mA
223.47101343579;-0.324859619140625;0.999999997475243;101;-0.0219879150390625;100 mA
223.481013435765;-0.325408935546875;1.00999999745;102;-0.0219879150390625;100 mA
223.491013435739;-0.325927734375;1.01999999742475;103;-0.0219818115234375;100 mA
223.501013435714;-0.32647705078125;1.0299999973995;104;-0.02198486328125;100 mA
223.511013435689;-0.326995849609375;1.03999999737425;105;-0.021990966796875;100 mA
223.521013435664;-0.327545166015625;1.049999997349;106;-0.021990966796875;100 mA
223.531013435638;-0.32806396484375;1.05999999732376;107;-0.0219879150390625;100 mA
223.541013435613;-0.328582763671875;1.06999999729851;108;-0.0219879150390625;100 mA
223.551013435588;-0.3291015625;1.07999999727326;109;-0.02198486328125;100 mA
223.561013435563;-0.329620361328125;1.08999999724801;110;-0.0219879150390625;100 mA
223.571013435537;-0.33013916015625;1.09999999722277;111;-0.021990966796875;100 mA
223.581013435512;-0.330657958984375;1.10999999719752;112;-0.021990966796875;100 mA
223.591013435487;-0.3311767578125;1.11999999717227;113;-0.02198486328125;100 mA
223.601013435462;-0.331695556640625;1.12999999714702;114;-0.0219818115234375;100 mA
223.611013435436;-0.33221435546875;1.13999999712178;115;-0.021990966796875;100 mA
223.621013435411;-0.332733154296875;1.14999999709653;116;-0.02198486328125;100 mA
223.631013435386;-0.333221435546875;1.15999999707128;117;-0.021990966796875;100 mA
223.641013435361;-0.333740234375;1.16999999704603;118;-0.0219879150390625;100 mA
223.651013435335;-0.334259033203125;1.17999999702079;119;-0.02198486328125;100 mA
223.66101343531;-0.334747314453125;1.18999999699554;120;-0.0219879150390625;100 mA
223.671013435285;-0.33526611328125;1.19999999697029;121;-0.0219818115234375;100 mA
223.68101343526;-0.33575439453125;1.20999999694504;122;-0.0219818115234375;100 mA
223.691013435234;-0.336273193359375;1.2199999969198;123;-0.0219879150390625;100 mA
223.701013435209;-0.336761474609375;1.22999999689455;124;-0.02198486328125;100 mA
223.711013435184;-0.337249755859375;1.2399999968693;125;-0.0219879150390625;100 mA
223.721013435159;-0.3377685546875;1.24999999684405;126;-0.02198486328125;100 mA
223.731013435133;-0.3382568359375;1.25999999681881;127;-0.02198486328125;100 mA
223.741013435108;-0.3387451171875;1.26999999679356;128;-0.0219818115234375;100 mA
223.751013435083;-0.339263916015625;1.27999999676831;129;-0.02198486328125;100 mA
223.761013435058;-0.3397216796875;1.28999999674306;130;-0.0219879150390625;100 mA
223.771013435033;-0.340240478515625;1.29999999671782;131;-0.0219879150390625;100 mA
223.781013435007;-0.340728759765625;1.30999999669257;132;-0.0219879150390625;100 mA
223.791013434982;-0.341217041015625;1.31999999666732;133;-0.0219879150390625;100 mA
223.801013434957;-0.341705322265625;1.32999999664207;134;-0.0219879150390625;100 mA
223.811013434932;-0.342193603515625;1.33999999661683;135;-0.02198486328125;100 mA
223.821013434906;-0.342681884765625;1.34999999659158;136;-0.0219879150390625;100 mA
223.831013434881;-0.3431396484375;1.35999999656633;137;-0.02198486328125;100 mA
223.841013434856;-0.3436279296875;1.36999999654108;138;-0.0219879150390625;100 mA
223.851013434831;-0.3441162109375;1.37999999651583;139;-0.021990966796875;100 mA
223.861013434805;-0.344573974609375;1.38999999649059;140;-0.021990966796875;100 mA
223.87101343478;-0.345062255859375;1.39999999646534;141;-0.0219879150390625;100 mA
223.881013434755;-0.345550537109375;1.40999999644009;142;-0.0219879150390625;100 mA
223.89101343473;-0.346038818359375;1.41999999641484;143;-0.0219818115234375;100 mA
223.901013434704;-0.346527099609375;1.4299999963896;144;-0.02198486328125;100 mA
223.911013434679;-0.34698486328125;1.43999999636435;145;-0.021990966796875;100 mA
223.921013434654;-0.34747314453125;1.4499999963391;146;-0.0219879150390625;100 mA
223.931013434629;-0.347930908203125;1.45999999631385;147;-0.02198486328125;100 mA
223.941013434603;-0.348419189453125;1.46999999628861;148;-0.02198486328125;100 mA
223.951013434578;-0.348907470703125;1.47999999626336;149;-0.0219879150390625;100 mA
223.961013434553;-0.349365234375;1.48999999623811;150;-0.0219818115234375;100 mA
223.971013434528;-0.349853515625;1.49999999621286;151;-0.0219879150390625;100 mA
223.981013434502;-0.350311279296875;1.50999999618762;152;-0.0219879150390625;100 mA
223.991013434477;-0.350799560546875;1.51999999616237;153;-0.0219818115234375;100 mA
224.001013434452;-0.351287841796875;1.52999999613712;154;-0.02198486328125;100 mA
224.011013434427;-0.35174560546875;1.53999999611187;155;-0.0219879150390625;100 mA
224.021013434401;-0.35223388671875;1.54999999608663;156;-0.021990966796875;100 mA
224.031013434376;-0.352691650390625;1.55999999606138;157;-0.02198486328125;100 mA
224.041013434351;-0.353179931640625;1.56999999603613;158;-0.0219879150390625;100 mA
224.051013434326;-0.3536376953125;1.57999999601088;159;-0.0219879150390625;100 mA
224.0610134343;-0.354095458984375;1.58999999598564;160;-0.0219879150390625;100 mA
224.071013434275;-0.354583740234375;1.59999999596039;161;-0.021990966796875;100 mA
224.08101343425;-0.35504150390625;1.60999999593514;162;-0.0219879150390625;100 mA
224.091013434225;-0.35552978515625;1.61999999590989;163;-0.02198486328125;100 mA
224.101013434199;-0.355987548828125;1.62999999588465;164;-0.0219879150390625;100 mA
224.111013434174;-0.3564453125;1.6399999958594;165;-0.0219879150390625;100 mA
224.121013434149;-0.35693359375;1.64999999583415;166;-0.02198486328125;100 mA
224.131013434124;-0.357391357421875;1.6599999958089;167;-0.0219940185546875;100 mA
224.141013434098;-0.357879638671875;1.66999999578366;168;-0.021990966796875;100 mA
224.151013434073;-0.35833740234375;1.67999999575841;169;-0.02198486328125;100 mA
224.161013434048;-0.358795166015625;1.68999999573316;170;-0.0219818115234375;100 mA
224.171013434023;-0.359283447265625;1.69999999570791;171;-0.021978759765625;100 mA
224.181013433997;-0.3597412109375;1.70999999568267;172;-0.0219818115234375;100 mA
224.191013433972;-0.360198974609375;1.71999999565742;173;-0.0219818115234375;100 mA
224.201013433947;-0.360687255859375;1.72999999563217;174;-0.0219879150390625;100 mA
224.211013433922;-0.361114501953125;1.73999999560692;175;-0.0219818115234375;100 mA
224.221013433896;-0.361602783203125;1.74999999558167;176;-0.0219818115234375;100 mA
224.231013433871;-0.362060546875;1.75999999555643;177;-0.0219879150390625;100 mA
224.241013433846;-0.362548828125;1.76999999553118;178;-0.0219879150390625;100 mA
224.251013433821;-0.363006591796875;1.77999999550593;179;-0.0219818115234375;100 mA
224.261013433795;-0.36346435546875;1.78999999548068;180;-0.0219879150390625;100 mA
224.27101343377;-0.36395263671875;1.79999999545544;181;-0.0219818115234375;100 mA
224.281013433745;-0.364410400390625;1.80999999543019;182;-0.02198486328125;100 mA
224.29101343372;-0.3648681640625;1.81999999540494;183;-0.021990966796875;100 mA
224.301013433694;-0.3653564453125;1.82999999537969;184;-0.0219879150390625;100 mA
224.311013433669;-0.365814208984375;1.83999999535445;185;-0.0219879150390625;100 mA
224.321013433644;-0.366302490234375;1.8499999953292;186;-0.0219879150390625;100 mA
224.331013433619;-0.36676025390625;1.85999999530395;187;-0.0219879150390625;100 mA
224.341013433593;-0.367218017578125;1.8699999952787;188;-0.021990966796875;100 mA
224.351013433568;-0.367706298828125;1.87999999525346;189;-0.021990966796875;100 mA
224.361013433543;-0.3681640625;1.88999999522821;190;-0.021990966796875;100 mA
224.371013433518;-0.36865234375;1.89999999520296;191;-0.021990966796875;100 mA
224.381013433492;-0.369110107421875;1.90999999517771;192;-0.0219879150390625;100 mA
224.391013433467;-0.369598388671875;1.91999999515247;193;-0.02198486328125;100 mA
224.401013433442;-0.37005615234375;1.92999999512722;194;-0.021990966796875;100 mA
224.411013433417;-0.370513916015625;1.93999999510197;195;-0.021978759765625;100 mA
224.421013433391;-0.371002197265625;1.94999999507672;196;-0.02198486328125;100 mA
224.431013433366;-0.3714599609375;1.95999999505148;197;-0.0219818115234375;100 mA
224.441013433341;-0.3719482421875;1.96999999502623;198;-0.02198486328125;100 mA
224.451013433316;-0.372406005859375;1.97999999500098;199;-0.0219879150390625;100 mA
224.46101343329;-0.372894287109375;1.98999999497573;200;-0.0219879150390625;100 mA
224.471013433265;-0.37335205078125;1.99999999495049;201;-0.0219879150390625;100 mA
224.48101343324;-0.37384033203125;2.00999999492524;202;-0.0219879150390625;100 mA
224.491013433215;-0.374298095703125;2.01999999489999;203;-0.0219879150390625;100 mA
224.501013433189;-0.374786376953125;2.02999999487474;204;-0.0219879150390625;100 mA
224.511013433164;-0.375244140625;2.0399999948495;205;-0.0219879150390625;100 mA
224.521013433139;-0.375732421875;2.04999999482425;206;-0.02198486328125;100 mA
224.531013433114;-0.376190185546875;2.059999994799;207;-0.021990966796875;100 mA
224.541013433088;-0.376678466796875;2.06999999477375;208;-0.0219818115234375;100 mA
224.551013433063;-0.377166748046875;2.0799999947485;209;-0.0219818115234375;100 mA
224.561013433038;-0.37762451171875;2.08999999472326;210;-0.0219879150390625;100 mA
224.571013433013;-0.37811279296875;2.09999999469801;211;-0.0219879150390625;100 mA
224.581013432987;-0.37860107421875;2.10999999467276;212;-0.0219818115234375;100 mA
224.591013432962;-0.37908935546875;2.11999999464751;213;-0.0219940185546875;100 mA
224.601013432937;-0.37957763671875;2.12999999462227;214;-0.021990966796875;100 mA
224.611013432912;-0.380035400390625;2.13999999459702;215;-0.02198486328125;100 mA
224.621013432886;-0.380523681640625;2.14999999457177;216;-0.02198486328125;100 mA
224.631013432861;-0.381011962890625;2.15999999454652;217;-0.021990966796875;100 mA
224.641013432836;-0.381500244140625;2.16999999452128;218;-0.02198486328125;100 mA
224.651013432811;-0.381988525390625;2.17999999449603;219;-0.02198486328125;100 mA
224.661013432785;-0.3824462890625;2.18999999447078;220;-0.02198486328125;100 mA
224.67101343276;-0.382965087890625;2.19999999444553;221;-0.0219879150390625;100 mA
224.681013432735;-0.3834228515625;2.20999999442029;222;-0.02198486328125;100 mA
224.69101343271;-0.383941650390625;2.21999999439504;223;-0.02198486328125;100 mA
224.701013432684;-0.384429931640625;2.22999999436979;224;-0.0219879150390625;100 mA
224.711013432659;-0.3848876953125;2.23999999434454;225;-0.0219879150390625;100 mA
224.721013432634;-0.385406494140625;2.2499999943193;226;-0.0219818115234375;100 mA
224.731013432609;-0.385894775390625;2.25999999429405;227;-0.0219879150390625;100 mA
224.741013432583;-0.386383056640625;2.2699999942688;228;-0.0219879150390625;100 mA
224.751013432558;-0.38690185546875;2.27999999424355;229;-0.0219879150390625;100 mA
224.761013432533;-0.38739013671875;2.28999999421831;230;-0.0219879150390625;100 mA
224.771013432508;-0.38787841796875;2.29999999419306;231;-0.02198486328125;100 mA
224.781013432482;-0.38836669921875;2.30999999416781;232;-0.0219879150390625;100 mA
224.791013432457;-0.388885498046875;2.31999999414256;233;-0.02198486328125;100 mA
224.801013432432;-0.389373779296875;2.32999999411732;234;-0.02198486328125;100 mA
224.811013432407;-0.389862060546875;2.33999999409207;235;-0.0219879150390625;100 mA
224.821013432382;-0.390380859375;2.34999999406682;236;-0.02198486328125;100 mA
224.831013432356;-0.390869140625;2.35999999404157;237;-0.02198486328125;100 mA
224.841013432331;-0.391387939453125;2.36999999401633;238;-0.0219879150390625;100 mA
224.851013432306;-0.39190673828125;2.37999999399108;239;-0.0219818115234375;100 mA
224.861013432281;-0.39239501953125;2.38999999396583;240;-0.021990966796875;100 mA
224.871013432255;-0.392913818359375;2.39999999394058;241;-0.0219879150390625;100 mA
224.88101343223;-0.393402099609375;2.40999999391533;242;-0.0219879150390625;100 mA
224.891013432205;-0.3939208984375;2.41999999389009;243;-0.021990966796875;100 mA
224.90101343218;-0.394439697265625;2.42999999386484;244;-0.0219818115234375;100 mA
224.911013432154;-0.39495849609375;2.43999999383959;245;-0.021990966796875;100 mA
224.921013432129;-0.395477294921875;2.44999999381434;246;-0.0219879150390625;100 mA
224.931013432104;-0.39599609375;2.4599999937891;247;-0.02198486328125;100 mA
224.941013432079;-0.396514892578125;2.46999999376385;248;-0.021990966796875;100 mA
224.951013432053;-0.39703369140625;2.4799999937386;249;-0.0219879150390625;100 mA
224.961013432028;-0.397552490234375;2.48999999371335;250;-0.0219879150390625;100 mA
224.971013432003;-0.3980712890625;2.49999999368811;251;-0.02198486328125;100 mA
224.981013431978;-0.39862060546875;2.50999999366286;252;-0.0219879150390625;100 mA
224.991013431952;-0.399139404296875;2.51999999363761;253;-0.0219879150390625;100 mA
225.001013431927;-0.399688720703125;2.52999999361236;254;-0.02198486328125;100 mA
225.011013431902;-0.400177001953125;2.53999999358712;255;-0.02198486328125;100 mA
225.021013431877;-0.400726318359375;2.54999999356187;256;-0.0219879150390625;100 mA
225.031013431851;-0.401275634765625;2.55999999353662;257;-0.021990966796875;100 mA
225.041013431826;-0.40179443359375;2.56999999351137;258;-0.02198486328125;100 mA
225.051013431801;-0.40234375;2.57999999348613;259;-0.0219879150390625;100 mA
225.061013431776;-0.40289306640625;2.58999999346088;260;-0.0219879150390625;100 mA
225.07101343175;-0.4034423828125;2.59999999343563;261;-0.021990966796875;100 mA
225.081013431725;-0.403961181640625;2.60999999341038;262;-0.02198486328125;100 mA
225.0910134317;-0.404510498046875;2.61999999338514;263;-0.02198486328125;100 mA
225.101013431675;-0.40509033203125;2.62999999335989;264;-0.0219879150390625;100 mA
225.111013431649;-0.405609130859375;2.63999999333464;265;-0.02198486328125;100 mA
225.121013431624;-0.406158447265625;2.64999999330939;266;-0.021990966796875;100 mA
225.131013431599;-0.406707763671875;2.65999999328415;267;-0.0219818115234375;100 mA
225.141013431574;-0.407257080078125;2.6699999932589;268;-0.02198486328125;100 mA
225.151013431548;-0.4078369140625;2.67999999323365;269;-0.02198486328125;100 mA
225.161013431523;-0.40838623046875;2.6899999932084;270;-0.0219879150390625;100 mA
225.171013431498;-0.408935546875;2.69999999318316;271;-0.0219879150390625;100 mA
225.181013431473;-0.409515380859375;2.70999999315791;272;-0.02198486328125;100 mA
225.191013431447;-0.41009521484375;2.71999999313266;273;-0.02198486328125;100 mA
225.201013431422;-0.410675048828125;2.72999999310741;274;-0.02198486328125;100 mA
225.211013431397;-0.411224365234375;2.73999999308217;275;-0.02198486328125;100 mA
225.221013431372;-0.41180419921875;2.74999999305692;276;-0.021978759765625;100 mA
225.231013431346;-0.412384033203125;2.75999999303167;277;-0.0219818115234375;100 mA
225.241013431321;-0.4129638671875;2.76999999300642;278;-0.021990966796875;100 mA
225.251013431296;-0.413543701171875;2.77999999298117;279;-0.02198486328125;100 mA
225.261013431271;-0.41412353515625;2.78999999295593;280;-0.02198486328125;100 mA
225.271013431245;-0.41473388671875;2.79999999293068;281;-0.0219818115234375;100 mA
225.28101343122;-0.415313720703125;2.80999999290543;282;-0.0219879150390625;100 mA
225.291013431195;-0.415924072265625;2.81999999288018;283;-0.021990966796875;100 mA
225.30101343117;-0.416534423828125;2.82999999285494;284;-0.0219818115234375;100 mA
225.311013431144;-0.4171142578125;2.83999999282969;285;-0.02198486328125;100 mA
225.321013431119;-0.417724609375;2.84999999280444;286;-0.0219879150390625;100 mA
225.331013431094;-0.4183349609375;2.85999999277919;287;-0.02198486328125;100 mA
225.341013431069;-0.4189453125;2.86999999275395;288;-0.021990966796875;100 mA
225.351013431043;-0.4195556640625;2.8799999927287;289;-0.02198486328125;100 mA
225.361013431018;-0.420166015625;2.88999999270345;290;-0.0219879150390625;100 mA
225.371013430993;-0.4207763671875;2.8999999926782;291;-0.0219879150390625;100 mA
225.381013430968;-0.421417236328125;2.90999999265296;292;-0.02198486328125;100 mA
225.391013430942;-0.422027587890625;2.91999999262771;293;-0.0219879150390625;100 mA
225.401013430917;-0.42266845703125;2.92999999260246;294;-0.0219818115234375;100 mA
225.411013430892;-0.42327880859375;2.93999999257721;295;-0.0219818115234375;100 mA
225.421013430867;-0.423919677734375;2.94999999255197;296;-0.021990966796875;100 mA
225.431013430841;-0.424560546875;2.95999999252672;297;-0.0219879150390625;100 mA
225.441013430816;-0.425201416015625;2.96999999250147;298;-0.0219879150390625;100 mA
225.451013430791;-0.425872802734375;2.97999999247622;299;-0.0219879150390625;100 mA
225.461013430766;-0.426513671875;2.98999999245098;300;-0.0219879150390625;100 mA
225.47101343074;-0.42718505859375;2.99999999242573;301;-0.021990966796875;100 mA
225.481013430715;-0.427825927734375;3.00999999240048;302;-0.02198486328125;100 mA
225.49101343069;-0.428497314453125;3.01999999237523;303;-0.0219879150390625;100 mA
225.501013430665;-0.429168701171875;3.02999999234999;304;-0.0219818115234375;100 mA
225.511013430639;-0.4298095703125;3.03999999232474;305;-0.02198486328125;100 mA
225.521013430614;-0.430511474609375;3.04999999229949;306;-0.0219879150390625;100 mA
225.531013430589;-0.431182861328125;3.05999999227424;307;-0.0219818115234375;100 mA
225.541013430564;-0.431884765625;3.069999992249;308;-0.02198486328125;100 mA
225.551013430538;-0.432586669921875;3.07999999222375;309;-0.0219818115234375;100 mA
225.561013430513;-0.433258056640625;3.0899999921985;310;-0.02198486328125;100 mA
225.571013430488;-0.4339599609375;3.09999999217325;311;-0.0219879150390625;100 mA
225.581013430463;-0.434661865234375;3.109999992148;312;-0.021990966796875;100 mA
225.591013430437;-0.435394287109375;3.11999999212276;313;-0.0219879150390625;100 mA
225.601013430412;-0.436126708984375;3.12999999209751;314;-0.02198486328125;100 mA
225.611013430387;-0.43682861328125;3.13999999207226;315;-0.02198486328125;100 mA
225.621013430362;-0.43756103515625;3.14999999204701;316;-0.021990966796875;100 mA
225.631013430336;-0.43829345703125;3.15999999202177;317;-0.021978759765625;100 mA
225.641013430311;-0.43902587890625;3.16999999199652;318;-0.0219879150390625;100 mA
225.651013430286;-0.439788818359375;3.17999999197127;319;-0.0219818115234375;100 mA
225.661013430261;-0.44049072265625;3.18999999194602;320;-0.02198486328125;100 mA
225.671013430235;-0.441253662109375;3.19999999192078;321;-0.0219879150390625;100 mA
225.68101343021;-0.4420166015625;3.20999999189553;322;-0.0219818115234375;100 mA
225.691013430185;-0.442779541015625;3.21999999187028;323;-0.0219879150390625;100 mA
225.70101343016;-0.443572998046875;3.22999999184503;324;-0.02198486328125;100 mA
225.711013430134;-0.4443359375;3.23999999181979;325;-0.02198486328125;100 mA
225.721013430109;-0.44512939453125;3.24999999179454;326;-0.0219818115234375;100 mA
225.731013430084;-0.4459228515625;3.25999999176929;327;-0.02198486328125;100 mA
225.741013430059;-0.44671630859375;3.26999999174404;328;-0.0219879150390625;100 mA
225.751013430033;-0.447540283203125;3.2799999917188;329;-0.02198486328125;100 mA
225.761013430008;-0.448333740234375;3.28999999169355;330;-0.02198486328125;100 mA
225.771013429983;-0.44915771484375;3.2999999916683;331;-0.0219818115234375;100 mA
225.781013429958;-0.449981689453125;3.30999999164305;332;-0.021990966796875;100 mA
225.791013429932;-0.450836181640625;3.31999999161781;333;-0.02198486328125;100 mA
225.801013429907;-0.45166015625;3.32999999159256;334;-0.0219879150390625;100 mA
225.811013429882;-0.4525146484375;3.33999999156731;335;-0.02198486328125;100 mA
225.821013429857;-0.453369140625;3.34999999154206;336;-0.0219818115234375;100 mA
225.831013429832;-0.4542236328125;3.35999999151682;337;-0.02198486328125;100 mA
225.841013429806;-0.455108642578125;3.36999999149157;338;-0.0219879150390625;100 mA
225.851013429781;-0.45599365234375;3.37999999146632;339;-0.0219879150390625;100 mA
225.861013429756;-0.456878662109375;3.38999999144107;340;-0.021978759765625;100 mA
225.871013429731;-0.457794189453125;3.39999999141583;341;-0.021990966796875;100 mA
225.881013429705;-0.458709716796875;3.40999999139058;342;-0.0219818115234375;100 mA
225.89101342968;-0.459625244140625;3.41999999136533;343;-0.02198486328125;100 mA
225.901013429655;-0.4605712890625;3.42999999134008;344;-0.02198486328125;100 mA
225.91101342963;-0.46148681640625;3.43999999131483;345;-0.02198486328125;100 mA
225.921013429604;-0.46246337890625;3.44999999128959;346;-0.0219818115234375;100 mA
225.931013429579;-0.463409423828125;3.45999999126434;347;-0.0219879150390625;100 mA
225.941013429554;-0.464385986328125;3.46999999123909;348;-0.02198486328125;100 mA
225.951013429529;-0.46539306640625;3.47999999121384;349;-0.02198486328125;100 mA
225.961013429503;-0.46636962890625;3.4899999911886;350;-0.02198486328125;100 mA
225.971013429478;-0.467376708984375;3.49999999116335;351;-0.02198486328125;100 mA
225.981013429453;-0.4683837890625;3.5099999911381;352;-0.02198486328125;100 mA
225.991013429428;-0.46942138671875;3.51999999111285;353;-0.0219879150390625;100 mA
226.001013429402;-0.470458984375;3.52999999108761;354;-0.0219879150390625;100 mA
226.011013429377;-0.47149658203125;3.53999999106236;355;-0.02198486328125;100 mA
226.021013429352;-0.47259521484375;3.54999999103711;356;-0.02198486328125;100 mA
226.031013429327;-0.473663330078125;3.55999999101186;357;-0.0219879150390625;100 mA
226.041013429301;-0.474761962890625;3.56999999098662;358;-0.0219879150390625;100 mA
226.051013429276;-0.47589111328125;3.57999999096137;359;-0.0219818115234375;100 mA
226.061013429251;-0.477020263671875;3.58999999093612;360;-0.0219879150390625;100 mA
226.071013429226;-0.478179931640625;3.59999999091087;361;-0.02198486328125;100 mA
226.0810134292;-0.479339599609375;3.60999999088563;362;-0.02198486328125;100 mA
226.091013429175;-0.480499267578125;3.61999999086038;363;-0.0219818115234375;100 mA
226.10101342915;-0.481719970703125;3.62999999083513;364;-0.0219818115234375;100 mA
226.111013429125;-0.48291015625;3.63999999080988;365;-0.021990966796875;100 mA
226.121013429099;-0.484161376953125;3.64999999078464;366;-0.0219818115234375;100 mA
226.131013429074;-0.485382080078125;3.65999999075939;367;-0.0219940185546875;100 mA
226.141013429049;-0.486663818359375;3.66999999073414;368;-0.021978759765625;100 mA
226.151013429024;-0.487945556640625;3.67999999070889;369;-0.0219818115234375;100 mA
226.161013428998;-0.4892578125;3.68999999068365;370;-0.0219879150390625;100 mA
226.171013428973;-0.4906005859375;3.6999999906584;371;-0.02198486328125;100 mA
226.181013428948;-0.491943359375;3.70999999063315;372;-0.021978759765625;100 mA
226.191013428923;-0.493316650390625;3.7199999906079;373;-0.02198486328125;100 mA
226.201013428897;-0.494720458984375;3.72999999058266;374;-0.02198486328125;100 mA
226.211013428872;-0.496124267578125;3.73999999055741;375;-0.0219818115234375;100 mA
226.221013428847;-0.497589111328125;3.74999999053216;376;-0.02198486328125;100 mA
226.231013428822;-0.499053955078125;3.75999999050691;377;-0.02198486328125;100 mA
226.241013428796;-0.50048828125;3.76999999048167;378;-0.0219818115234375;100 mA
226.251013428771;-0.50201416015625;3.77999999045642;379;-0.0219818115234375;100 mA
226.261013428746;-0.5035400390625;3.78999999043117;380;-0.02198486328125;100 mA
226.271013428721;-0.50506591796875;3.79999999040592;381;-0.0219818115234375;100 mA
226.281013428695;-0.50689697265625;3.80999999038067;382;-0.021978759765625;100 mA
226.29101342867;-0.5084228515625;3.81999999035543;383;-0.0219818115234375;100 mA
226.301013428645;-0.51025390625;3.82999999033018;384;-0.0219879150390625;100 mA
226.31101342862;-0.51177978515625;3.83999999030493;385;-0.02198486328125;100 mA
226.321013428594;-0.51361083984375;3.84999999027968;386;-0.02198486328125;100 mA
226.331013428569;-0.51544189453125;3.85999999025444;387;-0.0219818115234375;100 mA
226.341013428544;-0.51727294921875;3.86999999022919;388;-0.02198486328125;100 mA
226.351013428519;-0.51910400390625;3.87999999020394;389;-0.0219757080078125;100 mA
226.361013428493;-0.52093505859375;3.88999999017869;390;-0.02198486328125;100 mA
226.371013428468;-0.5230712890625;3.89999999015345;391;-0.02198486328125;100 mA
226.381013428443;-0.52490234375;3.9099999901282;392;-0.021978759765625;100 mA
226.391013428418;-0.52703857421875;3.91999999010295;393;-0.0219818115234375;100 mA
226.401013428392;-0.5291748046875;3.9299999900777;394;-0.0219818115234375;100 mA
226.411013428367;-0.53131103515625;3.93999999005246;395;-0.0219818115234375;100 mA
226.421013428342;-0.533447265625;3.94999999002721;396;-0.0219879150390625;100 mA
226.431013428317;-0.53558349609375;3.95999999000196;397;-0.0219818115234375;100 mA
226.441013428291;-0.53802490234375;3.96999998997671;398;-0.0219818115234375;100 mA
226.451013428266;-0.54046630859375;3.97999998995147;399;-0.02198486328125;100 mA
226.461013428241;-0.54290771484375;3.98999998992622;400;-0.021978759765625;100 mA
226.471013428216;-0.54534912109375;3.99999998990097;401;-0.02198486328125;100 mA
226.48101342819;-0.54779052734375;4.00999998987572;402;-0.02198486328125;100 mA
226.491013428165;-0.550537109375;4.01999998985048;403;-0.021978759765625;100 mA
226.50101342814;-0.55328369140625;4.02999998982523;404;-0.0219818115234375;100 mA
226.511013428115;-0.5560302734375;4.03999998979998;405;-0.02198486328125;100 mA
226.521013428089;-0.55908203125;4.04999998977473;406;-0.0219818115234375;100 mA
226.531013428064;-0.56182861328125;4.05999998974949;407;-0.02198486328125;100 mA
226.541013428039;-0.56488037109375;4.06999998972424;408;-0.0219818115234375;100 mA
226.551013428014;-0.56793212890625;4.07999998969899;409;-0.0219818115234375;100 mA
226.561013427988;-0.5712890625;4.08999998967374;410;-0.02198486328125;100 mA
226.571013427963;-0.57464599609375;4.0999999896485;411;-0.02198486328125;100 mA
226.581013427938;-0.5780029296875;4.10999998962325;412;-0.0219818115234375;100 mA
226.591013427913;-0.58135986328125;4.119999989598;413;-0.0219818115234375;100 mA
226.601013427887;-0.58502197265625;4.12999998957275;414;-0.0219818115234375;100 mA
226.611013427862;-0.58868408203125;4.1399999895475;415;-0.021978759765625;100 mA
226.621013427837;-0.5926513671875;4.14999998952226;416;-0.0219879150390625;100 mA
226.631013427812;-0.59661865234375;4.15999998949701;417;-0.021978759765625;100 mA
226.641013427786;-0.6005859375;4.16999998947176;418;-0.02198486328125;100 mA
226.651013427761;-0.60455322265625;4.17999998944651;419;-0.0219818115234375;100 mA
226.661013427736;-0.60882568359375;4.18999998942127;420;-0.0219818115234375;100 mA
226.671013427711;-0.6134033203125;4.19999998939602;421;-0.0219818115234375;100 mA
226.681013427685;-0.61767578125;4.20999998937077;422;-0.021978759765625;100 mA
226.69101342766;-0.62225341796875;4.21999998934552;423;-0.021978759765625;100 mA
226.701013427635;-0.62713623046875;4.22999998932028;424;-0.021978759765625;100 mA
226.71101342761;-0.63201904296875;4.23999998929503;425;-0.021978759765625;100 mA
226.721013427584;-0.63690185546875;4.24999998926978;426;-0.0219818115234375;100 mA
226.731013427559;-0.64178466796875;4.25999998924453;427;-0.0219818115234375;100 mA
226.741013427534;-0.64697265625;4.26999998921929;428;-0.021978759765625;100 mA
226.751013427509;-0.65216064453125;4.27999998919404;429;-0.021978759765625;100 mA
226.761013427483;-0.65765380859375;4.28999998916879;430;-0.02198486328125;100 mA
226.771013427458;-0.66314697265625;4.29999998914354;431;-0.0219818115234375;100 mA
226.781013427433;-0.66864013671875;4.3099999891183;432;-0.021978759765625;100 mA
226.791013427408;-0.67413330078125;4.31999998909305;433;-0.0219818115234375;100 mA
226.801013427382;-0.679931640625;4.3299999890678;434;-0.02198486328125;100 mA
226.811013427357;-0.6854248046875;4.33999998904255;435;-0.02198486328125;100 mA
226.821013427332;-0.6915283203125;4.34999998901731;436;-0.0219818115234375;100 mA
226.831013427307;-0.69732666015625;4.35999998899206;437;-0.021978759765625;100 mA
226.841013427281;-0.703125;4.36999998896681;438;-0.021978759765625;100 mA
226.851013427256;-0.709228515625;4.37999998894156;439;-0.021978759765625;100 mA
226.861013427231;-0.71502685546875;4.38999998891632;440;-0.021978759765625;100 mA
226.871013427206;-0.72113037109375;4.39999998889107;441;-0.0219818115234375;100 mA
226.881013427181;-0.72723388671875;4.40999998886582;442;-0.021978759765625;100 mA
226.891013427155;-0.73333740234375;4.41999998884057;443;-0.02198486328125;100 mA
226.90101342713;-0.7391357421875;4.42999998881533;444;-0.02198486328125;100 mA
226.911013427105;-0.7452392578125;4.43999998879008;445;-0.0219818115234375;100 mA
226.92101342708;-0.7513427734375;4.44999998876483;446;-0.02198486328125;100 mA
226.931013427054;-0.7574462890625;4.45999998873958;447;-0.021978759765625;100 mA
226.941013427029;-0.7635498046875;4.46999998871433;448;-0.021978759765625;100 mA
226.951013427004;-0.76934814453125;4.47999998868909;449;-0.021978759765625;100 mA
226.961013426979;-0.77545166015625;4.48999998866384;450;-0.0219757080078125;100 mA
226.971013426953;-0.78125;4.49999998863859;451;-0.021978759765625;100 mA
226.981013426928;-0.78704833984375;4.50999998861334;452;-0.0219818115234375;100 mA
226.991013426903;-0.79315185546875;4.5199999885881;453;-0.0219818115234375;100 mA
227.001013426878;-0.7989501953125;4.52999998856285;454;-0.0219757080078125;100 mA
227.011013426852;-0.80474853515625;4.5399999885376;455;-0.0219757080078125;100 mA
227.021013426827;-0.810546875;4.54999998851235;456;-0.021990966796875;100 mA
227.031013426802;-0.81634521484375;4.55999998848711;457;-0.0219818115234375;100 mA
227.041013426777;-0.82183837890625;4.56999998846186;458;-0.021978759765625;100 mA
227.051013426751;-0.82763671875;4.57999998843661;459;-0.0219757080078125;100 mA
227.061013426726;-0.8331298828125;4.58999998841136;460;-0.021978759765625;100 mA
227.071013426701;-0.83892822265625;4.59999998838612;461;-0.021978759765625;100 mA
227.081013426676;-0.84442138671875;4.60999998836087;462;-0.0219818115234375;100 mA
227.09101342665;-0.84991455078125;4.61999998833562;463;-0.021978759765625;100 mA
227.101013426625;-0.85540771484375;4.62999998831037;464;-0.0219757080078125;100 mA
227.1110134266;-0.86090087890625;4.63999998828513;465;-0.0219818115234375;100 mA
227.121013426575;-0.86639404296875;4.64999998825988;466;-0.0219818115234375;100 mA
227.131013426549;-0.87158203125;4.65999998823463;467;-0.0219818115234375;100 mA
227.141013426524;-0.8770751953125;4.66999998820938;468;-0.0219818115234375;100 mA
227.151013426499;-0.882568359375;4.67999998818414;469;-0.0219757080078125;100 mA
227.161013426474;-0.88775634765625;4.68999998815889;470;-0.021978759765625;100 mA
227.171013426448;-0.89324951171875;4.69999998813364;471;-0.021978759765625;100 mA
227.181013426423;-0.8984375;4.70999998810839;472;-0.0219757080078125;100 mA
227.191013426398;-0.9039306640625;4.71999998808315;473;-0.0219879150390625;100 mA
227.201013426373;-0.909423828125;4.7299999880579;474;-0.021978759765625;100 mA
227.211013426347;-0.91461181640625;4.73999998803265;475;-0.0219818115234375;100 mA
227.221013426322;-0.92010498046875;4.7499999880074;476;-0.02198486328125;100 mA
227.231013426297;-0.92529296875;4.75999998798216;477;-0.0219879150390625;100 mA
227.241013426272;-0.9307861328125;4.76999998795691;478;-0.0219818115234375;100 mA
227.251013426246;-0.93597412109375;4.77999998793166;479;-0.0219818115234375;100 mA
227.261013426221;-0.94146728515625;4.78999998790641;480;-0.02198486328125;100 mA
227.271013426196;-0.9466552734375;4.79999998788116;481;-0.021978759765625;100 mA
227.281013426171;-0.9521484375;4.80999998785592;482;-0.02197265625;100 mA
227.291013426145;-0.9576416015625;4.81999998783067;483;-0.0219757080078125;100 mA
227.30101342612;-0.963134765625;4.82999998780542;484;-0.021978759765625;100 mA
227.311013426095;-0.9686279296875;4.83999998778017;485;-0.02198486328125;100 mA
227.32101342607;-0.97412109375;4.84999998775493;486;-0.0219818115234375;100 mA
227.331013426044;-0.9796142578125;4.85999998772968;487;-0.0219818115234375;100 mA
227.341013426019;-0.985107421875;4.86999998770443;488;-0.021978759765625;100 mA
227.351013425994;-0.9906005859375;4.87999998767918;489;-0.02197265625;100 mA
227.361013425969;-0.99609375;4.88999998765394;490;-0.021978759765625;100 mA
227.371013425943;-1.00189208984375;4.89999998762869;491;-0.021978759765625;100 mA
227.381013425918;-1.00738525390625;4.90999998760344;492;-0.0219757080078125;100 mA
227.391013425893;-1.01318359375;4.91999998757819;493;-0.021978759765625;100 mA
227.401013425868;-1.0186767578125;4.92999998755295;494;-0.0219757080078125;100 mA
227.411013425842;-1.02447509765625;4.9399999875277;495;-0.021978759765625;100 mA
227.421013425817;-1.0302734375;4.94999998750245;496;-0.02197265625;100 mA
227.431013425792;-1.0357666015625;4.9599999874772;497;-0.021978759765625;100 mA
227.441013425767;-1.04156494140625;4.96999998745196;498;-0.0219757080078125;100 mA
227.451013425741;-1.04736328125;4.97999998742671;499;-0.0219757080078125;100 mA
227.461013425716;-1.05316162109375;4.98999998740146;500;-0.0219757080078125;100 mA
227.471013425691;-1.0589599609375;4.99999998737621;501;-0.0219818115234375;100 mA
227.481013425666;-1.064453125;5.00999998735097;502;-0.021978759765625;100 mA
227.49101342564;-1.07025146484375;5.01999998732572;503;-0.0219757080078125;100 mA
227.501013425615;-1.0760498046875;5.02999998730047;504;-0.0219757080078125;100 mA
227.51101342559;-1.08184814453125;5.03999998727522;505;-0.0219818115234375;100 mA
227.521013425565;-1.087646484375;5.04999998724998;506;-0.021978759765625;100 mA
227.531013425539;-1.0931396484375;5.05999998722473;507;-0.0219818115234375;100 mA
227.541013425514;-1.0986328125;5.06999998719948;508;-0.021978759765625;100 mA
227.551013425489;-1.10443115234375;5.07999998717423;509;-0.021978759765625;100 mA
227.561013425464;-1.1102294921875;5.08999998714899;510;-0.02197265625;100 mA
227.571013425438;-1.11572265625;5.09999998712374;511;-0.02197265625;100 mA
227.581013425413;-1.12152099609375;5.10999998709849;512;-0.0219757080078125;100 mA
227.591013425388;-1.1273193359375;5.11999998707324;513;-0.02197265625;100 mA
227.601013425363;-1.1328125;5.129999987048;514;-0.0219757080078125;100 mA
227.611013425337;-1.13861083984375;5.13999998702275;515;-0.0219696044921875;100 mA
227.621013425312;-1.14410400390625;5.1499999869975;516;-0.021978759765625;100 mA
227.631013425287;-1.14959716796875;5.15999998697225;517;-0.0219757080078125;100 mA
227.641013425262;-1.1553955078125;5.169999986947;518;-0.0219757080078125;100 mA
227.651013425236;-1.160888671875;5.17999998692176;519;-0.0219696044921875;100 mA
227.661013425211;-1.1663818359375;5.18999998689651;520;-0.021978759765625;100 mA
227.671013425186;-1.171875;5.19999998687126;521;-0.0219757080078125;100 mA
227.681013425161;-1.1773681640625;5.20999998684601;522;-0.0219757080078125;100 mA
227.691013425135;-1.182861328125;5.21999998682077;523;-0.021978759765625;100 mA
227.70101342511;-1.1883544921875;5.22999998679552;524;-0.021978759765625;100 mA
227.711013425085;-1.19384765625;5.23999998677027;525;-0.0219757080078125;100 mA
227.72101342506;-1.1993408203125;5.24999998674502;526;-0.021978759765625;100 mA
227.731013425034;-1.204833984375;5.25999998671978;527;-0.021978759765625;100 mA
227.741013425009;-1.2103271484375;5.26999998669453;528;-0.02197265625;100 mA
227.751013424984;-1.21551513671875;5.27999998666928;529;-0.02197265625;100 mA
227.761013424959;-1.22100830078125;5.28999998664403;530;-0.0219757080078125;100 mA
227.771013424933;-1.2261962890625;5.29999998661879;531;-0.0219757080078125;100 mA
227.781013424908;-1.231689453125;5.30999998659354;532;-0.02197265625;100 mA
227.791013424883;-1.23687744140625;5.31999998656829;533;-0.0219818115234375;100 mA
227.801013424858;-1.2420654296875;5.32999998654304;534;-0.0219757080078125;100 mA
227.811013424832;-1.24725341796875;5.3399999865178;535;-0.0219757080078125;100 mA
227.821013424807;-1.25213623046875;5.34999998649255;536;-0.0219818115234375;100 mA
227.831013424782;-1.25732421875;5.3599999864673;537;-0.0219757080078125;100 mA
227.841013424757;-1.26251220703125;5.36999998644205;538;-0.02197265625;100 mA
227.851013424731;-1.26739501953125;5.37999998641681;539;-0.021978759765625;100 mA
227.861013424706;-1.2725830078125;5.38999998639156;540;-0.021978759765625;100 mA
227.871013424681;-1.2774658203125;5.39999998636631;541;-0.0219757080078125;100 mA
227.881013424656;-1.2823486328125;5.40999998634106;542;-0.02197265625;100 mA
227.891013424631;-1.2872314453125;5.41999998631582;543;-0.0219757080078125;100 mA
227.901013424605;-1.2921142578125;5.42999998629057;544;-0.02197265625;100 mA
227.91101342458;-1.2969970703125;5.43999998626532;545;-0.02197265625;100 mA
227.921013424555;-1.3018798828125;5.44999998624007;546;-0.0219757080078125;100 mA
227.93101342453;-1.30645751953125;5.45999998621483;547;-0.021978759765625;100 mA
227.941013424504;-1.31103515625;5.46999998618958;548;-0.0219696044921875;100 mA
227.951013424479;-1.31561279296875;5.47999998616433;549;-0.0219757080078125;100 mA
227.961013424454;-1.3201904296875;5.48999998613908;550;-0.0219757080078125;100 mA
227.971013424429;-1.32476806640625;5.49999998611383;551;-0.0219757080078125;100 mA
227.981013424403;-1.329345703125;5.50999998608859;552;-0.0219757080078125;100 mA
227.991013424378;-1.3336181640625;5.51999998606334;553;-0.021978759765625;100 mA
228.001013424353;-1.33819580078125;5.52999998603809;554;-0.0219757080078125;100 mA
228.011013424328;-1.34246826171875;5.53999998601284;555;-0.02197265625;100 mA
228.021013424302;-1.34674072265625;5.5499999859876;556;-0.0219757080078125;100 mA
228.031013424277;-1.35101318359375;5.55999998596235;557;-0.0219757080078125;100 mA
228.041013424252;-1.35528564453125;5.5699999859371;558;-0.0219757080078125;100 mA
228.051013424227;-1.35955810546875;5.57999998591185;559;-0.0219696044921875;100 mA
228.061013424201;-1.363525390625;5.58999998588661;560;-0.0219757080078125;100 mA
228.071013424176;-1.3677978515625;5.59999998586136;561;-0.02197265625;100 mA
228.081013424151;-1.37176513671875;5.60999998583611;562;-0.02197265625;100 mA
228.091013424126;-1.375732421875;5.61999998581086;563;-0.0219757080078125;100 mA
228.1010134241;-1.37969970703125;5.62999998578562;564;-0.021978759765625;100 mA
228.111013424075;-1.3836669921875;5.63999998576037;565;-0.02197265625;100 mA
228.12101342405;-1.38763427734375;5.64999998573512;566;-0.0219757080078125;100 mA
228.131013424025;-1.39129638671875;5.65999998570987;567;-0.0219696044921875;100 mA
228.141013423999;-1.395263671875;5.66999998568463;568;-0.0219757080078125;100 mA
228.151013423974;-1.39892578125;5.67999998565938;569;-0.02197265625;100 mA
228.161013423949;-1.40289306640625;5.68999998563413;570;-0.0219757080078125;100 mA
228.171013423924;-1.40625;5.69999998560888;571;-0.021966552734375;100 mA
228.181013423898;-1.409912109375;5.70999998558364;572;-0.02197265625;100 mA
228.191013423873;-1.41357421875;5.71999998555839;573;-0.02197265625;100 mA
228.201013423848;-1.417236328125;5.72999998553314;574;-0.02197265625;100 mA
228.211013423823;-1.4208984375;5.73999998550789;575;-0.02197265625;100 mA
228.221013423797;-1.42425537109375;5.74999998548265;576;-0.0219757080078125;100 mA
228.231013423772;-1.4276123046875;5.7599999854574;577;-0.02197265625;100 mA
228.241013423747;-1.4312744140625;5.76999998543215;578;-0.0219757080078125;100 mA
228.251013423722;-1.43463134765625;5.7799999854069;579;-0.0219757080078125;100 mA
228.261013423696;-1.43798828125;5.78999998538166;580;-0.021978759765625;100 mA
228.271013423671;-1.4410400390625;5.79999998535641;581;-0.021978759765625;100 mA
228.281013423646;-1.44439697265625;5.80999998533116;582;-0.0219757080078125;100 mA
228.291013423621;-1.44775390625;5.81999998530591;583;-0.0219757080078125;100 mA
228.301013423595;-1.4508056640625;5.82999998528066;584;-0.0219757080078125;100 mA
228.31101342357;-1.453857421875;5.83999998525542;585;-0.02197265625;100 mA
228.321013423545;-1.4569091796875;5.84999998523017;586;-0.021966552734375;100 mA
228.33101342352;-1.4599609375;5.85999998520492;587;-0.0219757080078125;100 mA
228.341013423494;-1.4630126953125;5.86999998517967;588;-0.0219757080078125;100 mA
228.351013423469;-1.466064453125;5.87999998515443;589;-0.0219696044921875;100 mA
228.361013423444;-1.4691162109375;5.88999998512918;590;-0.02197265625;100 mA
228.371013423419;-1.47186279296875;5.89999998510393;591;-0.021978759765625;100 mA
228.381013423393;-1.474609375;5.90999998507868;592;-0.0219757080078125;100 mA
228.391013423368;-1.4776611328125;5.91999998505344;593;-0.0219696044921875;100 mA
228.401013423343;-1.48040771484375;5.92999998502819;594;-0.0219696044921875;100 mA
228.411013423318;-1.483154296875;5.93999998500294;595;-0.021966552734375;100 mA
228.421013423292;-1.48590087890625;5.94999998497769;596;-0.02197265625;100 mA
228.431013423267;-1.4886474609375;5.95999998495245;597;-0.021978759765625;100 mA
228.441013423242;-1.4910888671875;5.9699999849272;598;-0.02197265625;100 mA
228.451013423217;-1.49383544921875;5.97999998490195;599;-0.0219696044921875;100 mA
228.461013423191;-1.49658203125;5.9899999848767;600;-0.02197265625;100 mA
228.471013423166;-1.4990234375;5.99999998485146;601;-0.02197265625;100 mA
228.481013423141;-1.50146484375;6.00999998482621;602;-0.02197265625;100 mA
228.491013423116;-1.50390625;6.01999998480096;603;-0.0219696044921875;100 mA
228.50101342309;-1.50665283203125;6.02999998477571;604;-0.02197265625;100 mA
228.511013423065;-1.5087890625;6.03999998475047;605;-0.02197265625;100 mA
228.52101342304;-1.51123046875;6.04999998472522;606;-0.0219696044921875;100 mA
228.531013423015;-1.513671875;6.05999998469997;607;-0.0219757080078125;100 mA
228.541013422989;-1.51611328125;6.06999998467472;608;-0.02197265625;100 mA
228.551013422964;-1.5185546875;6.07999998464948;609;-0.021978759765625;100 mA
228.561013422939;-1.52069091796875;6.08999998462423;610;-0.02197265625;100 mA
228.571013422914;-1.52313232421875;6.09999998459898;611;-0.02197265625;100 mA
228.581013422888;-1.52557373046875;6.10999998457373;612;-0.02197265625;100 mA
228.591013422863;-1.5277099609375;6.11999998454849;613;-0.0219757080078125;100 mA
228.601013422838;-1.5301513671875;6.12999998452324;614;-0.021966552734375;100 mA
228.611013422813;-1.53228759765625;6.13999998449799;615;-0.0219757080078125;100 mA
228.621013422787;-1.53472900390625;6.14999998447274;616;-0.02197265625;100 mA
228.631013422762;-1.536865234375;6.1599999844475;617;-0.0219757080078125;100 mA
228.641013422737;-1.53900146484375;6.16999998442225;618;-0.021966552734375;100 mA
228.651013422712;-1.5411376953125;6.179999984397;619;-0.0219757080078125;100 mA
228.661013422686;-1.5435791015625;6.18999998437175;620;-0.0219757080078125;100 mA
228.671013422661;-1.54571533203125;6.1999999843465;621;-0.0219696044921875;100 mA
228.681013422636;-1.5478515625;6.20999998432126;622;-0.021966552734375;100 mA
228.691013422611;-1.54998779296875;6.21999998429601;623;-0.02197265625;100 mA
228.701013422585;-1.5521240234375;6.22999998427076;624;-0.02197265625;100 mA
228.71101342256;-1.5545654296875;6.23999998424551;625;-0.0219757080078125;100 mA
228.721013422535;-1.55670166015625;6.24999998422027;626;-0.02197265625;100 mA
228.73101342251;-1.558837890625;6.25999998419502;627;-0.0219696044921875;100 mA
228.741013422484;-1.56097412109375;6.26999998416977;628;-0.0219757080078125;100 mA
228.751013422459;-1.56280517578125;6.27999998414452;629;-0.0219757080078125;100 mA
228.761013422434;-1.56494140625;6.28999998411928;630;-0.0219696044921875;100 mA
228.771013422409;-1.56707763671875;6.29999998409403;631;-0.021966552734375;100 mA
228.781013422383;-1.5692138671875;6.30999998406878;632;-0.0219757080078125;100 mA
228.791013422358;-1.57135009765625;6.31999998404353;633;-0.02197265625;100 mA
228.801013422333;-1.57379150390625;6.32999998401829;634;-0.0219696044921875;100 mA
228.811013422308;-1.575927734375;6.33999998399304;635;-0.0219696044921875;100 mA
228.821013422282;-1.57806396484375;6.34999998396779;636;-0.021966552734375;100 mA
228.831013422257;-1.5802001953125;6.35999998394254;637;-0.02197265625;100 mA
228.841013422232;-1.58233642578125;6.3699999839173;638;-0.02197265625;100 mA
228.851013422207;-1.58447265625;6.37999998389205;639;-0.0219696044921875;100 mA
228.861013422181;-1.58660888671875;6.3899999838668;640;-0.0219696044921875;100 mA
228.871013422156;-1.5887451171875;6.39999998384155;641;-0.0219696044921875;100 mA
228.881013422131;-1.59088134765625;6.40999998381631;642;-0.02197265625;100 mA
228.891013422106;-1.593017578125;6.41999998379106;643;-0.0219696044921875;100 mA
228.90101342208;-1.59515380859375;6.42999998376581;644;-0.0219696044921875;100 mA
228.911013422055;-1.59698486328125;6.43999998374056;645;-0.0219696044921875;100 mA
228.92101342203;-1.59912109375;6.44999998371532;646;-0.0219757080078125;100 mA
228.931013422005;-1.60125732421875;6.45999998369007;647;-0.0219635009765625;100 mA
228.94101342198;-1.6033935546875;6.46999998366482;648;-0.0219696044921875;100 mA
228.951013421954;-1.605224609375;6.47999998363957;649;-0.02197265625;100 mA
228.961013421929;-1.60736083984375;6.48999998361433;650;-0.0219696044921875;100 mA
228.971013421904;-1.6094970703125;6.49999998358908;651;-0.021966552734375;100 mA
228.981013421879;-1.611328125;6.50999998356383;652;-0.0219696044921875;100 mA
228.991013421853;-1.61346435546875;6.51999998353858;653;-0.02197265625;100 mA
229.001013421828;-1.61529541015625;6.52999998351333;654;-0.02197265625;100 mA
229.011013421803;-1.61712646484375;6.53999998348809;655;-0.0219757080078125;100 mA
229.021013421778;-1.6192626953125;6.54999998346284;656;-0.0219696044921875;100 mA
229.031013421752;-1.62109375;6.55999998343759;657;-0.02197265625;100 mA
229.041013421727;-1.6229248046875;6.56999998341234;658;-0.0219696044921875;100 mA
229.051013421702;-1.62506103515625;6.5799999833871;659;-0.0219696044921875;100 mA
229.061013421677;-1.62689208984375;6.58999998336185;660;-0.0219696044921875;100 mA
229.071013421651;-1.62872314453125;6.5999999833366;661;-0.02197265625;100 mA
229.081013421626;-1.63055419921875;6.60999998331135;662;-0.021966552734375;100 mA
229.091013421601;-1.63238525390625;6.61999998328611;663;-0.021966552734375;100 mA
229.101013421576;-1.63421630859375;6.62999998326086;664;-0.0219696044921875;100 mA
229.11101342155;-1.63604736328125;6.63999998323561;665;-0.0219757080078125;100 mA
229.121013421525;-1.6375732421875;6.64999998321036;666;-0.02197265625;100 mA
229.1310134215;-1.639404296875;6.65999998318512;667;-0.0219696044921875;100 mA
229.141013421475;-1.6412353515625;6.66999998315987;668;-0.0219696044921875;100 mA
229.151013421449;-1.64306640625;6.67999998313462;669;-0.021966552734375;100 mA
229.161013421424;-1.64459228515625;6.68999998310937;670;-0.0219696044921875;100 mA
229.171013421399;-1.64642333984375;6.69999998308413;671;-0.0219696044921875;100 mA
229.181013421374;-1.64794921875;6.70999998305888;672;-0.021966552734375;100 mA
229.191013421348;-1.6497802734375;6.71999998303363;673;-0.0219696044921875;100 mA
229.201013421323;-1.65130615234375;6.72999998300838;674;-0.02196044921875;100 mA
229.211013421298;-1.65313720703125;6.73999998298314;675;-0.0219696044921875;100 mA
229.221013421273;-1.6546630859375;6.74999998295789;676;-0.021966552734375;100 mA
229.231013421247;-1.65618896484375;6.75999998293264;677;-0.02197265625;100 mA
229.241013421222;-1.65802001953125;6.76999998290739;678;-0.02197265625;100 mA
229.251013421197;-1.6595458984375;6.77999998288215;679;-0.0219696044921875;100 mA
229.261013421172;-1.66107177734375;6.7899999828569;680;-0.0219696044921875;100 mA
229.271013421146;-1.66259765625;6.79999998283165;681;-0.02197265625;100 mA
229.281013421121;-1.66412353515625;6.8099999828064;682;-0.0219696044921875;100 mA
229.291013421096;-1.6656494140625;6.81999998278116;683;-0.0219696044921875;100 mA
229.301013421071;-1.66717529296875;6.82999998275591;684;-0.0219696044921875;100 mA
229.311013421045;-1.668701171875;6.83999998273066;685;-0.0219696044921875;100 mA
229.32101342102;-1.67022705078125;6.84999998270541;686;-0.021966552734375;100 mA
229.331013420995;-1.6717529296875;6.85999998268016;687;-0.0219696044921875;100 mA
229.34101342097;-1.67327880859375;6.86999998265492;688;-0.021966552734375;100 mA
229.351013420944;-1.6748046875;6.87999998262967;689;-0.02197265625;100 mA
229.361013420919;-1.676025390625;6.88999998260442;690;-0.021966552734375;100 mA
229.371013420894;-1.67755126953125;6.89999998257917;691;-0.021966552734375;100 mA
229.381013420869;-1.6790771484375;6.90999998255393;692;-0.02197265625;100 mA
229.391013420843;-1.6802978515625;6.91999998252868;693;-0.021966552734375;100 mA
229.401013420818;-1.68182373046875;6.92999998250343;694;-0.0219696044921875;100 mA
229.411013420793;-1.683349609375;6.93999998247818;695;-0.02197265625;100 mA
229.421013420768;-1.6845703125;6.94999998245294;696;-0.021966552734375;100 mA
229.431013420742;-1.68609619140625;6.95999998242769;697;-0.0219696044921875;100 mA
229.441013420717;-1.68731689453125;6.96999998240244;698;-0.0219696044921875;100 mA
229.451013420692;-1.6888427734375;6.97999998237719;699;-0.0219696044921875;100 mA
229.461013420667;-1.6900634765625;6.98999998235195;700;-0.021966552734375;100 mA
229.471013420641;-1.69158935546875;6.9999999823267;701;-0.021966552734375;100 mA
229.481013420616;-1.69281005859375;7.00999998230145;702;-0.021966552734375;100 mA
229.491013420591;-1.69403076171875;7.0199999822762;703;-0.021966552734375;100 mA
229.501013420566;-1.695556640625;7.02999998225096;704;-0.0219696044921875;100 mA
229.51101342054;-1.69677734375;7.03999998222571;705;-0.021966552734375;100 mA
229.521013420515;-1.697998046875;7.04999998220046;706;-0.02197265625;100 mA
229.53101342049;-1.69921875;7.05999998217521;707;-0.02197265625;100 mA
229.541013420465;-1.700439453125;7.06999998214997;708;-0.02197265625;100 mA
229.551013420439;-1.70196533203125;7.07999998212472;709;-0.0219696044921875;100 mA
229.561013420414;-1.70318603515625;7.08999998209947;710;-0.021966552734375;100 mA
229.571013420389;-1.70440673828125;7.09999998207422;711;-0.0219635009765625;100 mA
229.581013420364;-1.70562744140625;7.10999998204898;712;-0.021966552734375;100 mA
229.591013420338;-1.70684814453125;7.11999998202373;713;-0.021966552734375;100 mA
229.601013420313;-1.707763671875;7.12999998199848;714;-0.0219696044921875;100 mA
229.611013420288;-1.708984375;7.13999998197323;715;-0.02197265625;100 mA
229.621013420263;-1.710205078125;7.14999998194799;716;-0.021966552734375;100 mA
229.631013420237;-1.71142578125;7.15999998192274;717;-0.021966552734375;100 mA
229.641013420212;-1.712646484375;7.16999998189749;718;-0.02197265625;100 mA
229.651013420187;-1.7138671875;7.17999998187224;719;-0.0219635009765625;100 mA
229.661013420162;-1.715087890625;7.189999981847;720;-0.0219635009765625;100 mA
229.671013420136;-1.71600341796875;7.19999998182175;721;-0.02197265625;100 mA
229.681013420111;-1.71722412109375;7.2099999817965;722;-0.021966552734375;100 mA
229.691013420086;-1.71844482421875;7.21999998177125;723;-0.0219696044921875;100 mA
229.701013420061;-1.7193603515625;7.229999981746;724;-0.0219696044921875;100 mA
229.711013420035;-1.7205810546875;7.23999998172076;725;-0.0219635009765625;100 mA
229.72101342001;-1.7218017578125;7.24999998169551;726;-0.0219696044921875;100 mA
229.731013419985;-1.72271728515625;7.25999998167026;727;-0.021966552734375;100 mA
229.74101341996;-1.72393798828125;7.26999998164501;728;-0.021966552734375;100 mA
229.751013419934;-1.724853515625;7.27999998161977;729;-0.0219696044921875;100 mA
229.761013419909;-1.72607421875;7.28999998159452;730;-0.021966552734375;100 mA
229.771013419884;-1.72698974609375;7.29999998156927;731;-0.021966552734375;100 mA
229.781013419859;-1.7279052734375;7.30999998154402;732;-0.0219635009765625;100 mA
229.791013419833;-1.7291259765625;7.31999998151878;733;-0.02197265625;100 mA
229.801013419808;-1.73004150390625;7.32999998149353;734;-0.021966552734375;100 mA
229.811013419783;-1.73095703125;7.33999998146828;735;-0.0219696044921875;100 mA
229.821013419758;-1.732177734375;7.34999998144303;736;-0.0219696044921875;100 mA
229.831013419732;-1.73309326171875;7.35999998141779;737;-0.0219696044921875;100 mA
229.841013419707;-1.7340087890625;7.36999998139254;738;-0.021966552734375;100 mA
229.851013419682;-1.73492431640625;7.37999998136729;739;-0.021966552734375;100 mA
229.861013419657;-1.73614501953125;7.38999998134204;740;-0.0219696044921875;100 mA
229.871013419631;-1.737060546875;7.3999999813168;741;-0.02197265625;100 mA
229.881013419606;-1.73797607421875;7.40999998129155;742;-0.021966552734375;100 mA
229.891013419581;-1.7388916015625;7.4199999812663;743;-0.0219696044921875;100 mA
229.901013419556;-1.73980712890625;7.42999998124105;744;-0.021966552734375;100 mA
229.91101341953;-1.74072265625;7.43999998121581;745;-0.0219696044921875;100 mA
229.921013419505;-1.74163818359375;7.44999998119056;746;-0.021966552734375;100 mA
229.93101341948;-1.7425537109375;7.45999998116531;747;-0.02197265625;100 mA
229.941013419455;-1.74346923828125;7.46999998114006;748;-0.0219696044921875;100 mA
229.95101341943;-1.744384765625;7.47999998111482;749;-0.0219635009765625;100 mA
229.961013419404;-1.74530029296875;7.48999998108957;750;-0.0219635009765625;100 mA
229.971013419379;-1.7462158203125;7.49999998106432;751;-0.021966552734375;100 mA
229.981013419354;-1.74713134765625;7.50999998103907;752;-0.0219696044921875;100 mA
229.991013419329;-1.74774169921875;7.51999998101383;753;-0.021966552734375;100 mA
230.001013419303;-1.7486572265625;7.52999998098858;754;-0.02197265625;100 mA
230.011013419278;-1.74957275390625;7.53999998096333;755;-0.021966552734375;100 mA
230.021013419253;-1.75048828125;7.54999998093808;756;-0.021966552734375;100 mA
230.031013419228;-1.75140380859375;7.55999998091283;757;-0.021966552734375;100 mA
230.041013419202;-1.75201416015625;7.56999998088759;758;-0.0219635009765625;100 mA
230.051013419177;-1.7529296875;7.57999998086234;759;-0.021966552734375;100 mA
230.061013419152;-1.75384521484375;7.58999998083709;760;-0.021966552734375;100 mA
230.071013419127;-1.7547607421875;7.59999998081184;761;-0.02197265625;100 mA
230.081013419101;-1.75537109375;7.6099999807866;762;-0.021966552734375;100 mA
230.091013419076;-1.75628662109375;7.61999998076135;763;-0.02197265625;100 mA
230.101013419051;-1.7572021484375;7.6299999807361;764;-0.0219696044921875;100 mA
230.111013419026;-1.75811767578125;7.63999998071085;765;-0.0219635009765625;100 mA
230.121013419;-1.75872802734375;7.64999998068561;766;-0.02197265625;100 mA
230.131013418975;-1.7596435546875;7.65999998066036;767;-0.0219696044921875;100 mA
230.14101341895;-1.76055908203125;7.66999998063511;768;-0.0219696044921875;100 mA
230.151013418925;-1.76116943359375;7.67999998060986;769;-0.02196044921875;100 mA
230.161013418899;-1.7620849609375;7.68999998058462;770;-0.0219696044921875;100 mA
230.171013418874;-1.7626953125;7.69999998055937;771;-0.021966552734375;100 mA
230.181013418849;-1.76361083984375;7.70999998053412;772;-0.0219696044921875;100 mA
230.191013418824;-1.76422119140625;7.71999998050887;773;-0.021966552734375;100 mA
230.201013418798;-1.76513671875;7.72999998048363;774;-0.02197265625;100 mA
230.211013418773;-1.7657470703125;7.73999998045838;775;-0.0219696044921875;100 mA
230.221013418748;-1.766357421875;7.74999998043313;776;-0.0219696044921875;100 mA
230.231013418723;-1.76727294921875;7.75999998040788;777;-0.0219635009765625;100 mA
230.241013418697;-1.76788330078125;7.76999998038264;778;-0.02197265625;100 mA
230.251013418672;-1.768798828125;7.77999998035739;779;-0.0219696044921875;100 mA
230.261013418647;-1.7694091796875;7.78999998033214;780;-0.021966552734375;100 mA
230.271013418622;-1.77001953125;7.79999998030689;781;-0.0219635009765625;100 mA
230.281013418596;-1.7706298828125;7.80999998028165;782;-0.0219696044921875;100 mA
230.291013418571;-1.77154541015625;7.8199999802564;783;-0.0219696044921875;100 mA
230.301013418546;-1.77215576171875;7.82999998023115;784;-0.021966552734375;100 mA
230.311013418521;-1.77276611328125;7.8399999802059;785;-0.0219696044921875;100 mA
230.321013418495;-1.77337646484375;7.84999998018066;786;-0.021966552734375;100 mA
230.33101341847;-1.77398681640625;7.85999998015541;787;-0.02197265625;100 mA
230.341013418445;-1.77459716796875;7.86999998013016;788;-0.02197265625;100 mA
230.35101341842;-1.7755126953125;7.87999998010491;789;-0.021966552734375;100 mA
230.361013418394;-1.776123046875;7.88999998007966;790;-0.0219635009765625;100 mA
230.371013418369;-1.7767333984375;7.89999998005442;791;-0.0219696044921875;100 mA
230.381013418344;-1.77734375;7.90999998002917;792;-0.0219696044921875;100 mA
230.391013418319;-1.7779541015625;7.91999998000392;793;-0.0219696044921875;100 mA
230.401013418293;-1.778564453125;7.92999997997867;794;-0.021966552734375;100 mA
230.411013418268;-1.7791748046875;7.93999997995343;795;-0.02196044921875;100 mA
230.421013418243;-1.77978515625;7.94999997992818;796;-0.0219696044921875;100 mA
230.431013418218;-1.7803955078125;7.95999997990293;797;-0.02197265625;100 mA
230.441013418192;-1.781005859375;7.96999997987768;798;-0.0219696044921875;100 mA
230.451013418167;-1.7816162109375;7.97999997985244;799;-0.021966552734375;100 mA
230.461013418142;-1.7822265625;7.98999997982719;800;-0.021966552734375;100 mA
230.471013418117;-1.7828369140625;7.99999997980194;801;-0.02197265625;100 mA
230.481013418091;-1.783447265625;8.00999997977669;802;-0.0219696044921875;100 mA
230.491013418066;-1.7840576171875;8.01999997975145;803;-0.0219696044921875;100 mA
230.501013418041;-1.78466796875;8.0299999797262;804;-0.021966552734375;100 mA
230.511013418016;-1.7852783203125;8.03999997970095;805;-0.021966552734375;100 mA
230.52101341799;-1.785888671875;8.0499999796757;806;-0.02196044921875;100 mA
230.531013417965;-1.7864990234375;8.05999997965046;807;-0.021966552734375;100 mA
230.54101341794;-1.787109375;8.06999997962521;808;-0.0219635009765625;100 mA
230.551013417915;-1.7877197265625;8.07999997959996;809;-0.0219696044921875;100 mA
230.561013417889;-1.788330078125;8.08999997957471;810;-0.021966552734375;100 mA
230.571013417864;-1.7889404296875;8.09999997954947;811;-0.02197265625;100 mA
230.581013417839;-1.78955078125;8.10999997952422;812;-0.021966552734375;100 mA
230.591013417814;-1.7901611328125;8.11999997949897;813;-0.0219696044921875;100 mA
230.601013417788;-1.790771484375;8.12999997947372;814;-0.0219696044921875;100 mA
230.611013417763;-1.79107666015625;8.13999997944848;815;-0.0219696044921875;100 mA
230.621013417738;-1.79168701171875;8.14999997942323;816;-0.0219635009765625;100 mA
230.631013417713;-1.79229736328125;8.15999997939798;817;-0.0219635009765625;100 mA
230.641013417687;-1.79290771484375;8.16999997937273;818;-0.02197265625;100 mA
230.651013417662;-1.79351806640625;8.17999997934749;819;-0.0219635009765625;100 mA
230.661013417637;-1.7938232421875;8.18999997932224;820;-0.0219696044921875;100 mA
230.671013417612;-1.79443359375;8.19999997929699;821;-0.0219696044921875;100 mA
230.681013417586;-1.7950439453125;8.20999997927174;822;-0.021966552734375;100 mA
230.691013417561;-1.795654296875;8.2199999792465;823;-0.0219696044921875;100 mA
230.701013417536;-1.7962646484375;8.22999997922125;824;-0.021966552734375;100 mA
230.711013417511;-1.79656982421875;8.239999979196;825;-0.0219635009765625;100 mA
230.721013417485;-1.79718017578125;8.24999997917075;826;-0.021966552734375;100 mA
230.73101341746;-1.79779052734375;8.2599999791455;827;-0.02196044921875;100 mA
230.741013417435;-1.79840087890625;8.26999997912026;828;-0.0219696044921875;100 mA
230.75101341741;-1.7987060546875;8.27999997909501;829;-0.021966552734375;100 mA
230.761013417384;-1.79931640625;8.28999997906976;830;-0.0219696044921875;100 mA
230.771013417359;-1.7999267578125;8.29999997904451;831;-0.021966552734375;100 mA
230.781013417334;-1.80023193359375;8.30999997901927;832;-0.0219696044921875;100 mA
230.791013417309;-1.80084228515625;8.31999997899402;833;-0.0219696044921875;100 mA
230.801013417283;-1.80145263671875;8.32999997896877;834;-0.0219635009765625;100 mA
230.811013417258;-1.8017578125;8.33999997894352;835;-0.0219635009765625;100 mA
230.821013417233;-1.8023681640625;8.34999997891828;836;-0.021966552734375;100 mA
230.831013417208;-1.802978515625;8.35999997889303;837;-0.0219696044921875;100 mA
230.841013417182;-1.80328369140625;8.36999997886778;838;-0.021966552734375;100 mA
230.851013417157;-1.80389404296875;8.37999997884253;839;-0.021966552734375;100 mA
230.861013417132;-1.80419921875;8.38999997881729;840;-0.021966552734375;100 mA
230.871013417107;-1.8048095703125;8.39999997879204;841;-0.021966552734375;100 mA
230.881013417081;-1.80511474609375;8.40999997876679;842;-0.02197265625;100 mA
230.891013417056;-1.80572509765625;8.41999997874154;843;-0.0219635009765625;100 mA
230.901013417031;-1.8060302734375;8.4299999787163;844;-0.0219635009765625;100 mA
230.911013417006;-1.806640625;8.43999997869105;845;-0.021966552734375;100 mA
230.92101341698;-1.80694580078125;8.4499999786658;846;-0.0219696044921875;100 mA
230.931013416955;-1.80755615234375;8.45999997864055;847;-0.021966552734375;100 mA
230.94101341693;-1.807861328125;8.46999997861531;848;-0.021966552734375;100 mA
230.951013416905;-1.8084716796875;8.47999997859006;849;-0.0219696044921875;100 mA
230.961013416879;-1.80877685546875;8.48999997856481;850;-0.021966552734375;100 mA
230.971013416854;-1.80908203125;8.49999997853956;851;-0.0219635009765625;100 mA
230.981013416829;-1.8096923828125;8.50999997851432;852;-0.021966552734375;100 mA
230.991013416804;-1.80999755859375;8.51999997848907;853;-0.021966552734375;100 mA
231.001013416779;-1.810302734375;8.52999997846382;854;-0.021966552734375;100 mA
231.011013416753;-1.81060791015625;8.53999997843857;855;-0.021966552734375;100 mA
231.021013416728;-1.81121826171875;8.54999997841333;856;-0.0219696044921875;100 mA
231.031013416703;-1.8115234375;8.55999997838808;857;-0.021966552734375;100 mA
231.041013416678;-1.8121337890625;8.56999997836283;858;-0.021966552734375;100 mA
231.051013416652;-1.81243896484375;8.57999997833758;859;-0.021966552734375;100 mA
231.061013416627;-1.812744140625;8.58999997831233;860;-0.021966552734375;100 mA
231.071013416602;-1.81304931640625;8.59999997828709;861;-0.021966552734375;100 mA
231.081013416577;-1.81365966796875;8.60999997826184;862;-0.02197265625;100 mA
231.091013416551;-1.81396484375;8.61999997823659;863;-0.02197265625;100 mA
231.101013416526;-1.81427001953125;8.62999997821134;864;-0.0219635009765625;100 mA
231.111013416501;-1.8145751953125;8.6399999781861;865;-0.0219635009765625;100 mA
231.121013416476;-1.815185546875;8.64999997816085;866;-0.0219757080078125;100 mA
231.13101341645;-1.81549072265625;8.6599999781356;867;-0.02196044921875;100 mA
231.141013416425;-1.81610107421875;8.66999997811035;868;-0.02197265625;100 mA
231.1510134164;-1.81640625;8.67999997808511;869;-0.021966552734375;100 mA
231.161013416375;-1.81671142578125;8.68999997805986;870;-0.021966552734375;100 mA
231.171013416349;-1.81732177734375;8.69999997803461;871;-0.0219757080078125;100 mA
231.181013416324;-1.817626953125;8.70999997800936;872;-0.021966552734375;100 mA
231.191013416299;-1.8182373046875;8.71999997798412;873;-0.0219635009765625;100 mA
231.201013416274;-1.81854248046875;8.72999997795887;874;-0.0219696044921875;100 mA
231.211013416248;-1.81884765625;8.73999997793362;875;-0.0219635009765625;100 mA
231.221013416223;-1.8194580078125;8.74999997790837;876;-0.0219635009765625;100 mA
231.231013416198;-1.81976318359375;8.75999997788313;877;-0.0219696044921875;100 mA
231.241013416173;-1.82037353515625;8.76999997785788;878;-0.02197265625;100 mA
231.251013416147;-1.82098388671875;8.77999997783263;879;-0.0219696044921875;100 mA
231.261013416122;-1.8212890625;8.78999997780738;880;-0.021966552734375;100 mA
231.271013416097;-1.8218994140625;8.79999997778214;881;-0.021966552734375;100 mA
231.281013416072;-1.82220458984375;8.80999997775689;882;-0.0219696044921875;100 mA
231.291013416046;-1.82281494140625;8.81999997773164;883;-0.0219696044921875;100 mA
231.301013416021;-1.82342529296875;8.82999997770639;884;-0.0219635009765625;100 mA
231.311013415996;-1.82403564453125;8.83999997768115;885;-0.0219696044921875;100 mA
231.321013415971;-1.8243408203125;8.8499999776559;886;-0.021966552734375;100 mA
231.331013415945;-1.824951171875;8.85999997763065;887;-0.0219635009765625;100 mA
231.34101341592;-1.8255615234375;8.8699999776054;888;-0.0219635009765625;100 mA
231.351013415895;-1.826171875;8.87999997758016;889;-0.021966552734375;100 mA
231.36101341587;-1.8267822265625;8.88999997755491;890;-0.021966552734375;100 mA
231.371013415844;-1.827392578125;8.89999997752966;891;-0.0219696044921875;100 mA
231.381013415819;-1.82769775390625;8.90999997750441;892;-0.02196044921875;100 mA
231.391013415794;-1.82830810546875;8.91999997747916;893;-0.021966552734375;100 mA
231.401013415769;-1.82891845703125;8.92999997745392;894;-0.0219696044921875;100 mA
231.411013415743;-1.82952880859375;8.93999997742867;895;-0.0219696044921875;100 mA
231.421013415718;-1.83013916015625;8.94999997740342;896;-0.0219635009765625;100 mA
231.431013415693;-1.83074951171875;8.95999997737817;897;-0.0219635009765625;100 mA
231.441013415668;-1.8310546875;8.96999997735293;898;-0.0219635009765625;100 mA
231.451013415642;-1.83197021484375;8.97999997732768;899;-0.0219696044921875;100 mA
231.461013415617;-1.832275390625;8.98999997730243;900;-0.0219635009765625;100 mA
231.471013415592;-1.8328857421875;8.99999997727718;901;-0.0219696044921875;100 mA
231.481013415567;-1.83349609375;9.00999997725194;902;-0.02196044921875;100 mA
231.491013415541;-1.8341064453125;9.01999997722669;903;-0.0219696044921875;100 mA
231.501013415516;-1.834716796875;9.02999997720144;904;-0.021966552734375;100 mA
231.511013415491;-1.8353271484375;9.03999997717619;905;-0.021966552734375;100 mA
231.521013415466;-1.83624267578125;9.04999997715095;906;-0.0219635009765625;100 mA
231.53101341544;-1.83685302734375;9.0599999771257;907;-0.021966552734375;100 mA
231.541013415415;-1.83746337890625;9.06999997710045;908;-0.0219635009765625;100 mA
231.55101341539;-1.83807373046875;9.0799999770752;909;-0.0219696044921875;100 mA
231.561013415365;-1.83868408203125;9.08999997704996;910;-0.021966552734375;100 mA
231.571013415339;-1.83929443359375;9.09999997702471;911;-0.021966552734375;100 mA
231.581013415314;-1.83990478515625;9.10999997699946;912;-0.0219635009765625;100 mA
231.591013415289;-1.84051513671875;9.11999997697421;913;-0.0219696044921875;100 mA
231.601013415264;-1.84112548828125;9.12999997694897;914;-0.0219696044921875;100 mA
231.611013415238;-1.84173583984375;9.13999997692372;915;-0.0219635009765625;100 mA
231.621013415213;-1.8426513671875;9.14999997689847;916;-0.0219635009765625;100 mA
231.631013415188;-1.84326171875;9.15999997687322;917;-0.021966552734375;100 mA
231.641013415163;-1.8438720703125;9.16999997684798;918;-0.021966552734375;100 mA
231.651013415137;-1.844482421875;9.17999997682273;919;-0.0219696044921875;100 mA
231.661013415112;-1.8450927734375;9.18999997679748;920;-0.0219635009765625;100 mA
231.671013415087;-1.845703125;9.19999997677223;921;-0.021966552734375;100 mA
231.681013415062;-1.8463134765625;9.20999997674699;922;-0.02197265625;100 mA
231.691013415036;-1.846923828125;9.21999997672174;923;-0.021966552734375;100 mA
231.701013415011;-1.84783935546875;9.22999997669649;924;-0.021966552734375;100 mA
231.711013414986;-1.84844970703125;9.23999997667124;925;-0.021966552734375;100 mA
231.721013414961;-1.84906005859375;9.249999976646;926;-0.0219635009765625;100 mA
231.731013414935;-1.84967041015625;9.25999997662075;927;-0.02197265625;100 mA
231.74101341491;-1.85028076171875;9.2699999765955;928;-0.0219635009765625;100 mA
231.751013414885;-1.85089111328125;9.27999997657025;929;-0.021966552734375;100 mA
231.76101341486;-1.85150146484375;9.289999976545;930;-0.021966552734375;100 mA
231.771013414834;-1.85211181640625;9.29999997651976;931;-0.0219696044921875;100 mA
231.781013414809;-1.85302734375;9.30999997649451;932;-0.021966552734375;100 mA
231.791013414784;-1.8536376953125;9.31999997646926;933;-0.021966552734375;100 mA
231.801013414759;-1.854248046875;9.32999997644401;934;-0.021966552734375;100 mA
231.811013414733;-1.8548583984375;9.33999997641877;935;-0.0219696044921875;100 mA
231.821013414708;-1.85546875;9.34999997639352;936;-0.0219696044921875;100 mA
231.831013414683;-1.8560791015625;9.35999997636827;937;-0.0219635009765625;100 mA
231.841013414658;-1.856689453125;9.36999997634302;938;-0.0219635009765625;100 mA
231.851013414632;-1.85760498046875;9.37999997631778;939;-0.0219635009765625;100 mA
231.861013414607;-1.85821533203125;9.38999997629253;940;-0.02196044921875;100 mA
231.871013414582;-1.85882568359375;9.39999997626728;941;-0.0219696044921875;100 mA
231.881013414557;-1.85943603515625;9.40999997624203;942;-0.0219696044921875;100 mA
231.891013414531;-1.86004638671875;9.41999997621679;943;-0.0219635009765625;100 mA
231.901013414506;-1.86065673828125;9.42999997619154;944;-0.021966552734375;100 mA
231.911013414481;-1.861572265625;9.43999997616629;945;-0.02197265625;100 mA
231.921013414456;-1.8621826171875;9.44999997614104;946;-0.021966552734375;100 mA
231.93101341443;-1.86279296875;9.4599999761158;947;-0.021966552734375;100 mA
231.941013414405;-1.8634033203125;9.46999997609055;948;-0.021966552734375;100 mA
231.95101341438;-1.86431884765625;9.4799999760653;949;-0.0219696044921875;100 mA
231.961013414355;-1.86492919921875;9.48999997604005;950;-0.021966552734375;100 mA
231.971013414329;-1.86553955078125;9.49999997601481;951;-0.021966552734375;100 mA
231.981013414304;-1.86614990234375;9.50999997598956;952;-0.02197265625;100 mA
231.991013414279;-1.86676025390625;9.51999997596431;953;-0.021966552734375;100 mA
232.001013414254;-1.86737060546875;9.52999997593906;954;-0.0219696044921875;100 mA
232.011013414229;-1.86798095703125;9.53999997591382;955;-0.0219635009765625;100 mA
232.021013414203;-1.86859130859375;9.54999997588857;956;-0.021966552734375;100 mA
232.031013414178;-1.86920166015625;9.55999997586332;957;-0.021966552734375;100 mA
232.041013414153;-1.86981201171875;9.56999997583807;958;-0.021966552734375;100 mA
232.051013414128;-1.87042236328125;9.57999997581283;959;-0.0219635009765625;100 mA
232.061013414102;-1.87103271484375;9.58999997578758;960;-0.021966552734375;100 mA
232.071013414077;-1.87164306640625;9.59999997576233;961;-0.0219696044921875;100 mA
232.081013414052;-1.87225341796875;9.60999997573708;962;-0.02196044921875;100 mA
232.091013414027;-1.87286376953125;9.61999997571183;963;-0.02196044921875;100 mA
232.101013414001;-1.87347412109375;9.62999997568659;964;-0.021966552734375;100 mA
232.111013413976;-1.87408447265625;9.63999997566134;965;-0.0219696044921875;100 mA
232.121013413951;-1.87469482421875;9.64999997563609;966;-0.021966552734375;100 mA
232.131013413926;-1.87530517578125;9.65999997561084;967;-0.0219696044921875;100 mA
232.1410134139;-1.87591552734375;9.6699999755856;968;-0.021966552734375;100 mA
232.151013413875;-1.87652587890625;9.67999997556035;969;-0.021966552734375;100 mA
232.16101341385;-1.87713623046875;9.6899999755351;970;-0.0219635009765625;100 mA
232.171013413825;-1.87774658203125;9.69999997550985;971;-0.021966552734375;100 mA
232.181013413799;-1.87835693359375;9.70999997548461;972;-0.021966552734375;100 mA
232.191013413774;-1.87896728515625;9.71999997545936;973;-0.0219635009765625;100 mA
232.201013413749;-1.87957763671875;9.72999997543411;974;-0.02196044921875;100 mA
232.211013413724;-1.88018798828125;9.73999997540886;975;-0.0219635009765625;100 mA
232.221013413698;-1.88079833984375;9.74999997538362;976;-0.02196044921875;100 mA
232.231013413673;-1.88140869140625;9.75999997535837;977;-0.0219696044921875;100 mA
232.241013413648;-1.88201904296875;9.76999997533312;978;-0.021966552734375;100 mA
232.251013413623;-1.88262939453125;9.77999997530787;979;-0.0219635009765625;100 mA
232.261013413597;-1.88323974609375;9.78999997528263;980;-0.02196044921875;100 mA
232.271013413572;-1.88385009765625;9.79999997525738;981;-0.0219635009765625;100 mA
232.281013413547;-1.88446044921875;9.80999997523213;982;-0.021966552734375;100 mA
232.291013413522;-1.88507080078125;9.81999997520688;983;-0.021966552734375;100 mA
232.301013413496;-1.8853759765625;9.82999997518164;984;-0.021966552734375;100 mA
232.311013413471;-1.885986328125;9.83999997515639;985;-0.021966552734375;100 mA
232.321013413446;-1.8865966796875;9.84999997513114;986;-0.0219635009765625;100 mA
232.331013413421;-1.88720703125;9.85999997510589;987;-0.021966552734375;100 mA
232.341013413395;-1.88751220703125;9.86999997508065;988;-0.02196044921875;100 mA
232.35101341337;-1.88812255859375;9.8799999750554;989;-0.0219696044921875;100 mA
232.361013413345;-1.88873291015625;9.88999997503015;990;-0.0219573974609375;100 mA
232.37101341332;-1.88934326171875;9.8999999750049;991;-0.021966552734375;100 mA
232.381013413294;-1.8896484375;9.90999997497966;992;-0.0219696044921875;100 mA
232.391013413269;-1.8902587890625;9.91999997495441;993;-0.021966552734375;100 mA
232.401013413244;-1.890869140625;9.92999997492916;994;-0.021966552734375;100 mA
232.411013413219;-1.89117431640625;9.93999997490391;995;-0.0219696044921875;100 mA
232.421013413193;-1.89178466796875;9.94999997487866;996;-0.021966552734375;100 mA
232.431013413168;-1.89208984375;9.95999997485342;997;-0.0219635009765625;100 mA
232.441013413143;-1.8927001953125;9.96999997482817;998;-0.0219696044921875;100 mA
232.451013413118;-1.893310546875;9.97999997480292;999;-0.02196044921875;100 mA
232.461013413092;-1.8939208984375;9.98999997477767;1000;-0.0219635009765625;100 mA
