Time (s);WE(1).Potential (V);Corrected time (s);Index;WE(1).Current (A);Current range
292.471069261582;-0.163238525390625;0;1;-0.02398681640625;100 mA
292.481069261556;-0.173065185546875;0.00999999997475243;2;-0.02398681640625;100 mA
292.491069261531;-0.180206298828125;0.0199999999495049;3;-0.02398681640625;100 mA
292.501069261506;-0.1859130859375;0.0299999999242573;4;-0.0239837646484375;100 mA
292.511069261481;-0.190673828125;0.0399999998990097;5;-0.02398681640625;100 mA
292.521069261455;-0.19482421875;0.0499999998737621;6;-0.02398681640625;100 mA
292.53106926143;-0.198486328125;0.0599999998485146;7;-0.02398681640625;100 mA
292.541069261405;-0.2017822265625;0.069999999823267;8;-0.0239898681640625;100 mA
292.55106926138;-0.20477294921875;0.0799999997980194;9;-0.02398681640625;100 mA
292.561069261354;-0.20751953125;0.0899999997727718;10;-0.0239837646484375;100 mA
292.571069261329;-0.210113525390625;0.0999999997475243;11;-0.023980712890625;100 mA
292.581069261304;-0.212493896484375;0.109999999722277;12;-0.02398681640625;100 mA
292.591069261279;-0.214752197265625;0.119999999697029;13;-0.0239837646484375;100 mA
292.601069261253;-0.216888427734375;0.129999999671782;14;-0.0239898681640625;100 mA
292.611069261228;-0.218902587890625;0.139999999646534;15;-0.0239898681640625;100 mA
292.621069261203;-0.2208251953125;0.149999999621286;16;-0.02398681640625;100 mA
292.631069261178;-0.222625732421875;0.159999999596039;17;-0.02398681640625;100 mA
292.641069261152;-0.224395751953125;0.169999999570791;18;-0.02398681640625;100 mA
292.651069261127;-0.22607421875;0.179999999545544;19;-0.0239898681640625;100 mA
292.661069261102;-0.227691650390625;0.189999999520296;20;-0.023992919921875;100 mA
292.671069261077;-0.229278564453125;0.199999999495049;21;-0.02398681640625;100 mA
292.681069261051;-0.23077392578125;0.209999999469801;22;-0.02398681640625;100 mA
292.691069261026;-0.23223876953125;0.219999999444553;23;-0.02398681640625;100 mA
292.701069261001;-0.233642578125;0.229999999419306;24;-0.02398681640625;100 mA
292.711069260976;-0.235015869140625;0.239999999394058;25;-0.0239837646484375;100 mA
292.72106926095;-0.236358642578125;0.249999999368811;26;-0.0239898681640625;100 mA
292.731069260925;-0.237640380859375;0.259999999343563;27;-0.023992919921875;100 mA
292.7410692609;-0.238922119140625;0.269999999318316;28;-0.0239898681640625;100 mA
292.751069260875;-0.240142822265625;0.279999999293068;29;-0.0239837646484375;100 mA
292.761069260849;-0.241363525390625;0.28999999926782;30;-0.0239837646484375;100 mA
292.771069260824;-0.2425537109375;0.299999999242573;31;-0.0239898681640625;100 mA
292.781069260799;-0.243682861328125;0.309999999217325;32;-0.0239837646484375;100 mA
292.791069260774;-0.244842529296875;0.319999999192078;33;-0.023980712890625;100 mA
292.801069260748;-0.24591064453125;0.32999999916683;34;-0.02398681640625;100 mA
292.811069260723;-0.24700927734375;0.339999999141583;35;-0.02398681640625;100 mA
292.821069260698;-0.248077392578125;0.349999999116335;36;-0.0239898681640625;100 mA
292.831069260673;-0.249114990234375;0.359999999091087;37;-0.02398681640625;100 mA
292.841069260647;-0.2501220703125;0.36999999906584;38;-0.0239898681640625;100 mA
292.851069260622;-0.251129150390625;0.379999999040592;39;-0.02398681640625;100 mA
292.861069260597;-0.25213623046875;0.389999999015345;40;-0.02398681640625;100 mA
292.871069260572;-0.25311279296875;0.399999998990097;41;-0.0239898681640625;100 mA
292.881069260546;-0.2540283203125;0.40999999896485;42;-0.0239837646484375;100 mA
292.891069260521;-0.2550048828125;0.419999998939602;43;-0.0239837646484375;100 mA
292.901069260496;-0.25592041015625;0.429999998914354;44;-0.02398681640625;100 mA
292.911069260471;-0.2568359375;0.439999998889107;45;-0.0239898681640625;100 mA
292.921069260445;-0.25775146484375;0.449999998863859;46;-0.0239837646484375;100 mA
292.93106926042;-0.258636474609375;0.459999998838612;47;-0.0239837646484375;100 mA
292.941069260395;-0.259521484375;0.469999998813364;48;-0.023980712890625;100 mA
292.95106926037;-0.2603759765625;0.479999998788116;49;-0.0239898681640625;100 mA
292.961069260344;-0.26123046875;0.489999998762869;50;-0.023992919921875;100 mA
292.971069260319;-0.2620849609375;0.499999998737621;51;-0.02398681640625;100 mA
292.981069260294;-0.262908935546875;0.509999998712374;52;-0.0239837646484375;100 mA
292.991069260269;-0.26373291015625;0.519999998687126;53;-0.02398681640625;100 mA
293.001069260243;-0.264556884765625;0.529999998661879;54;-0.02398681640625;100 mA
293.011069260218;-0.265350341796875;0.539999998636631;55;-0.0239837646484375;100 mA
293.021069260193;-0.266143798828125;0.549999998611383;56;-0.02398681640625;100 mA
293.031069260168;-0.266937255859375;0.559999998586136;57;-0.02398681640625;100 mA
293.041069260142;-0.267730712890625;0.569999998560888;58;-0.0239837646484375;100 mA
293.051069260117;-0.26849365234375;0.579999998535641;59;-0.0239898681640625;100 mA
293.061069260092;-0.269256591796875;0.589999998510393;60;-0.02398681640625;100 mA
293.071069260067;-0.27001953125;0.599999998485146;61;-0.0239837646484375;100 mA
293.081069260041;-0.270751953125;0.609999998459898;62;-0.0239898681640625;100 mA
293.091069260016;-0.271514892578125;0.61999999843465;63;-0.0239898681640625;100 mA
293.101069259991;-0.272247314453125;0.629999998409403;64;-0.0239898681640625;100 mA
293.111069259966;-0.272979736328125;0.639999998384155;65;-0.0239898681640625;100 mA
293.12106925994;-0.27374267578125;0.649999998358908;66;-0.0239898681640625;100 mA
293.131069259915;-0.274444580078125;0.65999999833366;67;-0.02398681640625;100 mA
293.14106925989;-0.275146484375;0.669999998308413;68;-0.023974609375;100 mA
293.151069259865;-0.275848388671875;0.679999998283165;69;-0.023992919921875;100 mA
293.161069259839;-0.27655029296875;0.689999998257917;70;-0.0239837646484375;100 mA
293.171069259814;-0.27728271484375;0.69999999823267;71;-0.0239837646484375;100 mA
293.181069259789;-0.2779541015625;0.709999998207422;72;-0.02398681640625;100 mA
293.191069259764;-0.278656005859375;0.719999998182175;73;-0.02398681640625;100 mA
293.201069259738;-0.279327392578125;0.729999998156927;74;-0.0239837646484375;100 mA
293.211069259713;-0.279998779296875;0.73999999813168;75;-0.0239837646484375;100 mA
293.221069259688;-0.28070068359375;0.749999998106432;76;-0.02398681640625;100 mA
293.231069259663;-0.281341552734375;0.759999998081184;77;-0.02398681640625;100 mA
293.241069259637;-0.282012939453125;0.769999998055937;78;-0.02398681640625;100 mA
293.251069259612;-0.28265380859375;0.779999998030689;79;-0.0239837646484375;100 mA
293.261069259587;-0.2833251953125;0.789999998005442;80;-0.02398681640625;100 mA
293.271069259562;-0.28399658203125;0.799999997980194;81;-0.0239898681640625;100 mA
293.281069259536;-0.28460693359375;0.809999997954947;82;-0.0239837646484375;100 mA
293.291069259511;-0.2852783203125;0.819999997929699;83;-0.02398681640625;100 mA
293.301069259486;-0.285919189453125;0.829999997904451;84;-0.0239837646484375;100 mA
293.311069259461;-0.28656005859375;0.839999997879204;85;-0.023980712890625;100 mA
293.321069259435;-0.287200927734375;0.849999997853956;86;-0.0239837646484375;100 mA
293.33106925941;-0.287811279296875;0.859999997828709;87;-0.02398681640625;100 mA
293.341069259385;-0.288482666015625;0.869999997803461;88;-0.0239837646484375;100 mA
293.35106925936;-0.289093017578125;0.879999997778214;89;-0.0239898681640625;100 mA
293.361069259334;-0.289703369140625;0.889999997752966;90;-0.02398681640625;100 mA
293.371069259309;-0.29034423828125;0.899999997727718;91;-0.023980712890625;100 mA
293.381069259284;-0.29095458984375;0.909999997702471;92;-0.0239837646484375;100 mA
293.391069259259;-0.291595458984375;0.919999997677223;93;-0.02398681640625;100 mA
293.401069259234;-0.29217529296875;0.929999997651976;94;-0.0239837646484375;100 mA
293.411069259208;-0.29278564453125;0.939999997626728;95;-0.023980712890625;100 mA
293.421069259183;-0.293426513671875;0.949999997601481;96;-0.02398681640625;100 mA
293.431069259158;-0.29400634765625;0.959999997576233;97;-0.02398681640625;100 mA
293.441069259133;-0.29461669921875;0.969999997550985;98;-0.02398681640625;100 mA
293.451069259107;-0.29522705078125;0.979999997525738;99;-0.023980712890625;100 mA
293.461069259082;-0.29583740234375;0.98999999750049;100;-0.02398681640625;100 mA
293.471069259057;-0.296417236328125;0.999999997475243;101;-0.0239898681640625;100 mA
293.481069259032;-0.2969970703125;1.00999999745;102;-0.02398681640625;100 mA
293.491069259006;-0.297607421875;1.01999999742475;103;-0.02398681640625;100 mA
293.501069258981;-0.298187255859375;1.0299999973995;104;-0.0239837646484375;100 mA
293.511069258956;-0.29876708984375;1.03999999737425;105;-0.0239898681640625;100 mA
293.521069258931;-0.29937744140625;1.049999997349;106;-0.0239837646484375;100 mA
293.531069258905;-0.2999267578125;1.05999999732376;107;-0.0239837646484375;100 mA
293.54106925888;-0.300537109375;1.06999999729851;108;-0.02398681640625;100 mA
293.551069258855;-0.301116943359375;1.07999999727326;109;-0.023980712890625;100 mA
293.56106925883;-0.30169677734375;1.08999999724801;110;-0.02398681640625;100 mA
293.571069258804;-0.302276611328125;1.09999999722277;111;-0.0239837646484375;100 mA
293.581069258779;-0.3028564453125;1.10999999719752;112;-0.023980712890625;100 mA
293.591069258754;-0.303436279296875;1.11999999717227;113;-0.023980712890625;100 mA
293.601069258729;-0.30401611328125;1.12999999714702;114;-0.0239898681640625;100 mA
293.611069258703;-0.3045654296875;1.13999999712178;115;-0.0239898681640625;100 mA
293.621069258678;-0.30517578125;1.14999999709653;116;-0.0239837646484375;100 mA
293.631069258653;-0.30572509765625;1.15999999707128;117;-0.02398681640625;100 mA
293.641069258628;-0.306304931640625;1.16999999704603;118;-0.0239898681640625;100 mA
293.651069258602;-0.306854248046875;1.17999999702079;119;-0.0239837646484375;100 mA
293.661069258577;-0.30743408203125;1.18999999699554;120;-0.0239898681640625;100 mA
293.671069258552;-0.308013916015625;1.19999999697029;121;-0.02398681640625;100 mA
293.681069258527;-0.308563232421875;1.20999999694504;122;-0.0239837646484375;100 mA
293.691069258501;-0.30914306640625;1.2199999969198;123;-0.02398681640625;100 mA
293.701069258476;-0.3096923828125;1.22999999689455;124;-0.02398681640625;100 mA
293.711069258451;-0.31024169921875;1.2399999968693;125;-0.0239837646484375;100 mA
293.721069258426;-0.310821533203125;1.24999999684405;126;-0.0239898681640625;100 mA
293.7310692584;-0.311370849609375;1.25999999681881;127;-0.02398681640625;100 mA
293.741069258375;-0.31195068359375;1.26999999679356;128;-0.02398681640625;100 mA
293.75106925835;-0.3125;1.27999999676831;129;-0.0239837646484375;100 mA
293.761069258325;-0.31304931640625;1.28999999674306;130;-0.0239898681640625;100 mA
293.771069258299;-0.313629150390625;1.29999999671782;131;-0.0239837646484375;100 mA
293.781069258274;-0.314178466796875;1.30999999669257;132;-0.02398681640625;100 mA
293.791069258249;-0.314727783203125;1.31999999666732;133;-0.02398681640625;100 mA
293.801069258224;-0.315277099609375;1.32999999664207;134;-0.0239837646484375;100 mA
293.811069258198;-0.315826416015625;1.33999999661683;135;-0.0239837646484375;100 mA
293.821069258173;-0.31640625;1.34999999659158;136;-0.0239898681640625;100 mA
293.831069258148;-0.31695556640625;1.35999999656633;137;-0.02398681640625;100 mA
293.841069258123;-0.3175048828125;1.36999999654108;138;-0.02398681640625;100 mA
293.851069258097;-0.31805419921875;1.37999999651583;139;-0.02398681640625;100 mA
293.861069258072;-0.318603515625;1.38999999649059;140;-0.02398681640625;100 mA
293.871069258047;-0.319183349609375;1.39999999646534;141;-0.02398681640625;100 mA
293.881069258022;-0.319732666015625;1.40999999644009;142;-0.0239837646484375;100 mA
293.891069257996;-0.320281982421875;1.41999999641484;143;-0.023980712890625;100 mA
293.901069257971;-0.320831298828125;1.4299999963896;144;-0.0239837646484375;100 mA
293.911069257946;-0.321380615234375;1.43999999636435;145;-0.0239837646484375;100 mA
293.921069257921;-0.32196044921875;1.4499999963391;146;-0.02398681640625;100 mA
293.931069257895;-0.322479248046875;1.45999999631385;147;-0.0239898681640625;100 mA
293.94106925787;-0.32305908203125;1.46999999628861;148;-0.0239837646484375;100 mA
293.951069257845;-0.3236083984375;1.47999999626336;149;-0.02398681640625;100 mA
293.96106925782;-0.324127197265625;1.48999999623811;150;-0.0239898681640625;100 mA
293.971069257794;-0.32470703125;1.49999999621286;151;-0.0239837646484375;100 mA
293.981069257769;-0.32525634765625;1.50999999618762;152;-0.0239898681640625;100 mA
293.991069257744;-0.3258056640625;1.51999999616237;153;-0.0239837646484375;100 mA
294.001069257719;-0.32635498046875;1.52999999613712;154;-0.0239837646484375;100 mA
294.011069257693;-0.326904296875;1.53999999611187;155;-0.02398681640625;100 mA
294.021069257668;-0.327484130859375;1.54999999608663;156;-0.0239837646484375;100 mA
294.031069257643;-0.3280029296875;1.55999999606138;157;-0.0239837646484375;100 mA
294.041069257618;-0.32855224609375;1.56999999603613;158;-0.02398681640625;100 mA
294.051069257592;-0.3291015625;1.57999999601088;159;-0.0239837646484375;100 mA
294.061069257567;-0.32965087890625;1.58999999598564;160;-0.0239837646484375;100 mA
294.071069257542;-0.330230712890625;1.59999999596039;161;-0.02398681640625;100 mA
294.081069257517;-0.33074951171875;1.60999999593514;162;-0.02398681640625;100 mA
294.091069257491;-0.331329345703125;1.61999999590989;163;-0.0239837646484375;100 mA
294.101069257466;-0.331878662109375;1.62999999588465;164;-0.0239898681640625;100 mA
294.111069257441;-0.332427978515625;1.6399999958594;165;-0.0239837646484375;100 mA
294.121069257416;-0.3330078125;1.64999999583415;166;-0.023980712890625;100 mA
294.13106925739;-0.33355712890625;1.6599999958089;167;-0.0239837646484375;100 mA
294.141069257365;-0.3341064453125;1.66999999578366;168;-0.02398681640625;100 mA
294.15106925734;-0.334686279296875;1.67999999575841;169;-0.02398681640625;100 mA
294.161069257315;-0.335235595703125;1.68999999573316;170;-0.02398681640625;100 mA
294.171069257289;-0.335784912109375;1.69999999570791;171;-0.02398681640625;100 mA
294.181069257264;-0.336334228515625;1.70999999568267;172;-0.023980712890625;100 mA
294.191069257239;-0.3369140625;1.71999999565742;173;-0.0239776611328125;100 mA
294.201069257214;-0.33746337890625;1.72999999563217;174;-0.0239837646484375;100 mA
294.211069257188;-0.338043212890625;1.73999999560692;175;-0.0239898681640625;100 mA
294.221069257163;-0.338623046875;1.74999999558167;176;-0.02398681640625;100 mA
294.231069257138;-0.33917236328125;1.75999999555643;177;-0.02398681640625;100 mA
294.241069257113;-0.3397216796875;1.76999999553118;178;-0.0239837646484375;100 mA
294.251069257087;-0.340301513671875;1.77999999550593;179;-0.023980712890625;100 mA
294.261069257062;-0.34088134765625;1.78999999548068;180;-0.0239837646484375;100 mA
294.271069257037;-0.341461181640625;1.79999999545544;181;-0.0239898681640625;100 mA
294.281069257012;-0.342010498046875;1.80999999543019;182;-0.023980712890625;100 mA
294.291069256986;-0.34259033203125;1.81999999540494;183;-0.02398681640625;100 mA
294.301069256961;-0.3431396484375;1.82999999537969;184;-0.0239898681640625;100 mA
294.311069256936;-0.34368896484375;1.83999999535445;185;-0.0239837646484375;100 mA
294.321069256911;-0.34429931640625;1.8499999953292;186;-0.0239837646484375;100 mA
294.331069256885;-0.3448486328125;1.85999999530395;187;-0.0239837646484375;100 mA
294.34106925686;-0.345428466796875;1.8699999952787;188;-0.02398681640625;100 mA
294.351069256835;-0.34600830078125;1.87999999525346;189;-0.023980712890625;100 mA
294.36106925681;-0.346588134765625;1.88999999522821;190;-0.02398681640625;100 mA
294.371069256784;-0.34716796875;1.89999999520296;191;-0.023980712890625;100 mA
294.381069256759;-0.347747802734375;1.90999999517771;192;-0.0239837646484375;100 mA
294.391069256734;-0.34832763671875;1.91999999515247;193;-0.023980712890625;100 mA
294.401069256709;-0.348907470703125;1.92999999512722;194;-0.02398681640625;100 mA
294.411069256684;-0.3494873046875;1.93999999510197;195;-0.02398681640625;100 mA
294.421069256658;-0.35009765625;1.94999999507672;196;-0.02398681640625;100 mA
294.431069256633;-0.350677490234375;1.95999999505148;197;-0.0239837646484375;100 mA
294.441069256608;-0.351287841796875;1.96999999502623;198;-0.02398681640625;100 mA
294.451069256583;-0.35186767578125;1.97999999500098;199;-0.0239837646484375;100 mA
294.461069256557;-0.352447509765625;1.98999999497573;200;-0.0239837646484375;100 mA
294.471069256532;-0.353057861328125;1.99999999495049;201;-0.0239837646484375;100 mA
294.481069256507;-0.3536376953125;2.00999999492524;202;-0.02398681640625;100 mA
294.491069256482;-0.354248046875;2.01999999489999;203;-0.02398681640625;100 mA
294.501069256456;-0.3548583984375;2.02999999487474;204;-0.02398681640625;100 mA
294.511069256431;-0.35546875;2.0399999948495;205;-0.0239898681640625;100 mA
294.521069256406;-0.3560791015625;2.04999999482425;206;-0.02398681640625;100 mA
294.531069256381;-0.356658935546875;2.059999994799;207;-0.0239837646484375;100 mA
294.541069256355;-0.3572998046875;2.06999999477375;208;-0.023980712890625;100 mA
294.55106925633;-0.35791015625;2.0799999947485;209;-0.0239837646484375;100 mA
294.561069256305;-0.358489990234375;2.08999999472326;210;-0.023980712890625;100 mA
294.57106925628;-0.359130859375;2.09999999469801;211;-0.02398681640625;100 mA
294.581069256254;-0.359710693359375;2.10999999467276;212;-0.0239898681640625;100 mA
294.591069256229;-0.3603515625;2.11999999464751;213;-0.02398681640625;100 mA
294.601069256204;-0.3609619140625;2.12999999462227;214;-0.0239898681640625;100 mA
294.611069256179;-0.361602783203125;2.13999999459702;215;-0.0239898681640625;100 mA
294.621069256153;-0.36224365234375;2.14999999457177;216;-0.0239837646484375;100 mA
294.631069256128;-0.36285400390625;2.15999999454652;217;-0.02398681640625;100 mA
294.641069256103;-0.363494873046875;2.16999999452128;218;-0.02398681640625;100 mA
294.651069256078;-0.3641357421875;2.17999999449603;219;-0.02398681640625;100 mA
294.661069256052;-0.364776611328125;2.18999999447078;220;-0.02398681640625;100 mA
294.671069256027;-0.36541748046875;2.19999999444553;221;-0.0239837646484375;100 mA
294.681069256002;-0.366058349609375;2.20999999442029;222;-0.02398681640625;100 mA
294.691069255977;-0.36669921875;2.21999999439504;223;-0.02398681640625;100 mA
294.701069255951;-0.367340087890625;2.22999999436979;224;-0.0239837646484375;100 mA
294.711069255926;-0.368011474609375;2.23999999434454;225;-0.0239837646484375;100 mA
294.721069255901;-0.368682861328125;2.2499999943193;226;-0.02398681640625;100 mA
294.731069255876;-0.36932373046875;2.25999999429405;227;-0.0239837646484375;100 mA
294.74106925585;-0.3699951171875;2.2699999942688;228;-0.023980712890625;100 mA
294.751069255825;-0.370635986328125;2.27999999424355;229;-0.0239837646484375;100 mA
294.7610692558;-0.371307373046875;2.28999999421831;230;-0.023980712890625;100 mA
294.771069255775;-0.37200927734375;2.29999999419306;231;-0.02398681640625;100 mA
294.781069255749;-0.372650146484375;2.30999999416781;232;-0.0239837646484375;100 mA
294.791069255724;-0.37335205078125;2.31999999414256;233;-0.0239837646484375;100 mA
294.801069255699;-0.3740234375;2.32999999411732;234;-0.0239837646484375;100 mA
294.811069255674;-0.37469482421875;2.33999999409207;235;-0.02398681640625;100 mA
294.821069255648;-0.375396728515625;2.34999999406682;236;-0.02398681640625;100 mA
294.831069255623;-0.376068115234375;2.35999999404157;237;-0.023980712890625;100 mA
294.841069255598;-0.37677001953125;2.36999999401633;238;-0.0239837646484375;100 mA
294.851069255573;-0.377471923828125;2.37999999399108;239;-0.023980712890625;100 mA
294.861069255547;-0.378173828125;2.38999999396583;240;-0.0239837646484375;100 mA
294.871069255522;-0.37890625;2.39999999394058;241;-0.023980712890625;100 mA
294.881069255497;-0.379608154296875;2.40999999391533;242;-0.0239776611328125;100 mA
294.891069255472;-0.380340576171875;2.41999999389009;243;-0.02398681640625;100 mA
294.901069255446;-0.38104248046875;2.42999999386484;244;-0.02398681640625;100 mA
294.911069255421;-0.38177490234375;2.43999999383959;245;-0.0239898681640625;100 mA
294.921069255396;-0.382537841796875;2.44999999381434;246;-0.023980712890625;100 mA
294.931069255371;-0.38323974609375;2.4599999937891;247;-0.0239898681640625;100 mA
294.941069255345;-0.384002685546875;2.46999999376385;248;-0.0239837646484375;100 mA
294.95106925532;-0.384735107421875;2.4799999937386;249;-0.02398681640625;100 mA
294.961069255295;-0.385498046875;2.48999999371335;250;-0.02398681640625;100 mA
294.97106925527;-0.386260986328125;2.49999999368811;251;-0.023980712890625;100 mA
294.981069255244;-0.386993408203125;2.50999999366286;252;-0.02398681640625;100 mA
294.991069255219;-0.387786865234375;2.51999999363761;253;-0.0239898681640625;100 mA
295.001069255194;-0.3885498046875;2.52999999361236;254;-0.0239837646484375;100 mA
295.011069255169;-0.38934326171875;2.53999999358712;255;-0.02398681640625;100 mA
295.021069255143;-0.39013671875;2.54999999356187;256;-0.02398681640625;100 mA
295.031069255118;-0.390899658203125;2.55999999353662;257;-0.0239837646484375;100 mA
295.041069255093;-0.391693115234375;2.56999999351137;258;-0.02398681640625;100 mA
295.051069255068;-0.392486572265625;2.57999999348613;259;-0.02398681640625;100 mA
295.061069255042;-0.393310546875;2.58999999346088;260;-0.02398681640625;100 mA
295.071069255017;-0.394134521484375;2.59999999343563;261;-0.0239898681640625;100 mA
295.081069254992;-0.394927978515625;2.60999999341038;262;-0.02398681640625;100 mA
295.091069254967;-0.395782470703125;2.61999999338514;263;-0.02398681640625;100 mA
295.101069254941;-0.3966064453125;2.62999999335989;264;-0.02398681640625;100 mA
295.111069254916;-0.3974609375;2.63999999333464;265;-0.0239837646484375;100 mA
295.121069254891;-0.3983154296875;2.64999999330939;266;-0.02398681640625;100 mA
295.131069254866;-0.399169921875;2.65999999328415;267;-0.023980712890625;100 mA
295.14106925484;-0.4000244140625;2.6699999932589;268;-0.023980712890625;100 mA
295.151069254815;-0.400909423828125;2.67999999323365;269;-0.0239837646484375;100 mA
295.16106925479;-0.401763916015625;2.6899999932084;270;-0.0239776611328125;100 mA
295.171069254765;-0.402679443359375;2.69999999318316;271;-0.0239837646484375;100 mA
295.181069254739;-0.403564453125;2.70999999315791;272;-0.02398681640625;100 mA
295.191069254714;-0.40447998046875;2.71999999313266;273;-0.0239837646484375;100 mA
295.201069254689;-0.4053955078125;2.72999999310741;274;-0.0239898681640625;100 mA
295.211069254664;-0.40631103515625;2.73999999308217;275;-0.0239837646484375;100 mA
295.221069254638;-0.4072265625;2.74999999305692;276;-0.023980712890625;100 mA
295.231069254613;-0.408172607421875;2.75999999303167;277;-0.023992919921875;100 mA
295.241069254588;-0.40911865234375;2.76999999300642;278;-0.023980712890625;100 mA
295.251069254563;-0.41009521484375;2.77999999298117;279;-0.02398681640625;100 mA
295.261069254537;-0.411041259765625;2.78999999295593;280;-0.0239837646484375;100 mA
295.271069254512;-0.41204833984375;2.79999999293068;281;-0.0239837646484375;100 mA
295.281069254487;-0.41302490234375;2.80999999290543;282;-0.0239837646484375;100 mA
295.291069254462;-0.4140625;2.81999999288018;283;-0.0239898681640625;100 mA
295.301069254436;-0.415069580078125;2.82999999285494;284;-0.023980712890625;100 mA
295.311069254411;-0.41607666015625;2.83999999282969;285;-0.02398681640625;100 mA
295.321069254386;-0.417144775390625;2.84999999280444;286;-0.0239837646484375;100 mA
295.331069254361;-0.418182373046875;2.85999999277919;287;-0.023980712890625;100 mA
295.341069254335;-0.41925048828125;2.86999999275395;288;-0.0239837646484375;100 mA
295.35106925431;-0.420318603515625;2.8799999927287;289;-0.0239837646484375;100 mA
295.361069254285;-0.421417236328125;2.88999999270345;290;-0.02398681640625;100 mA
295.37106925426;-0.422515869140625;2.8999999926782;291;-0.0239837646484375;100 mA
295.381069254234;-0.423614501953125;2.90999999265296;292;-0.0239837646484375;100 mA
295.391069254209;-0.424774169921875;2.91999999262771;293;-0.023980712890625;100 mA
295.401069254184;-0.425933837890625;2.92999999260246;294;-0.02398681640625;100 mA
295.411069254159;-0.427093505859375;2.93999999257721;295;-0.023980712890625;100 mA
295.421069254133;-0.42828369140625;2.94999999255197;296;-0.023980712890625;100 mA
295.431069254108;-0.429473876953125;2.95999999252672;297;-0.023980712890625;100 mA
295.441069254083;-0.430694580078125;2.96999999250147;298;-0.0239898681640625;100 mA
295.451069254058;-0.431915283203125;2.97999999247622;299;-0.0239837646484375;100 mA
295.461069254033;-0.43316650390625;2.98999999245098;300;-0.0239837646484375;100 mA
295.471069254007;-0.434478759765625;2.99999999242573;301;-0.023980712890625;100 mA
295.481069253982;-0.43572998046875;3.00999999240048;302;-0.02398681640625;100 mA
295.491069253957;-0.43707275390625;3.01999999237523;303;-0.023980712890625;100 mA
295.501069253932;-0.43841552734375;3.02999999234999;304;-0.0239837646484375;100 mA
295.511069253906;-0.43975830078125;3.03999999232474;305;-0.0239898681640625;100 mA
295.521069253881;-0.441162109375;3.04999999229949;306;-0.02398681640625;100 mA
295.531069253856;-0.442535400390625;3.05999999227424;307;-0.023980712890625;100 mA
295.541069253831;-0.4439697265625;3.069999992249;308;-0.02398681640625;100 mA
295.551069253805;-0.4454345703125;3.07999999222375;309;-0.0239837646484375;100 mA
295.56106925378;-0.4468994140625;3.0899999921985;310;-0.0239837646484375;100 mA
295.571069253755;-0.44842529296875;3.09999999217325;311;-0.02398681640625;100 mA
295.58106925373;-0.449951171875;3.109999992148;312;-0.0239837646484375;100 mA
295.591069253704;-0.451507568359375;3.11999999212276;313;-0.0239837646484375;100 mA
295.601069253679;-0.453094482421875;3.12999999209751;314;-0.0239898681640625;100 mA
295.611069253654;-0.4547119140625;3.13999999207226;315;-0.023980712890625;100 mA
295.621069253629;-0.456390380859375;3.14999999204701;316;-0.02398681640625;100 mA
295.631069253603;-0.45806884765625;3.15999999202177;317;-0.023980712890625;100 mA
295.641069253578;-0.459808349609375;3.16999999199652;318;-0.0239837646484375;100 mA
295.651069253553;-0.461578369140625;3.17999999197127;319;-0.023980712890625;100 mA
295.661069253528;-0.46337890625;3.18999999194602;320;-0.02398681640625;100 mA
295.671069253502;-0.465240478515625;3.19999999192078;321;-0.023980712890625;100 mA
295.681069253477;-0.467132568359375;3.20999999189553;322;-0.023980712890625;100 mA
295.691069253452;-0.46905517578125;3.21999999187028;323;-0.0239898681640625;100 mA
295.701069253427;-0.471038818359375;3.22999999184503;324;-0.0239776611328125;100 mA
295.711069253401;-0.473052978515625;3.23999999181979;325;-0.0239837646484375;100 mA
295.721069253376;-0.47515869140625;3.24999999179454;326;-0.023980712890625;100 mA
295.731069253351;-0.477264404296875;3.25999999176929;327;-0.0239776611328125;100 mA
295.741069253326;-0.479461669921875;3.26999999174404;328;-0.0239837646484375;100 mA
295.7510692533;-0.481719970703125;3.2799999917188;329;-0.02398681640625;100 mA
295.761069253275;-0.4840087890625;3.28999999169355;330;-0.02398681640625;100 mA
295.77106925325;-0.48638916015625;3.2999999916683;331;-0.02398681640625;100 mA
295.781069253225;-0.48883056640625;3.30999999164305;332;-0.023980712890625;100 mA
295.791069253199;-0.491363525390625;3.31999999161781;333;-0.0239837646484375;100 mA
295.801069253174;-0.49395751953125;3.32999999159256;334;-0.0239776611328125;100 mA
295.811069253149;-0.49658203125;3.33999999156731;335;-0.02398681640625;100 mA
295.821069253124;-0.499267578125;3.34999999154206;336;-0.023980712890625;100 mA
295.831069253098;-0.50201416015625;3.35999999151682;337;-0.0239837646484375;100 mA
295.841069253073;-0.50506591796875;3.36999999149157;338;-0.023980712890625;100 mA
295.851069253048;-0.50811767578125;3.37999999146632;339;-0.0239837646484375;100 mA
295.861069253023;-0.51116943359375;3.38999999144107;340;-0.0239837646484375;100 mA
295.871069252997;-0.5145263671875;3.39999999141583;341;-0.023980712890625;100 mA
295.881069252972;-0.517578125;3.40999999139058;342;-0.0239776611328125;100 mA
295.891069252947;-0.521240234375;3.41999999136533;343;-0.0239837646484375;100 mA
295.901069252922;-0.52459716796875;3.42999999134008;344;-0.023974609375;100 mA
295.911069252896;-0.52825927734375;3.43999999131483;345;-0.023980712890625;100 mA
295.921069252871;-0.5322265625;3.44999999128959;346;-0.023974609375;100 mA
295.931069252846;-0.53619384765625;3.45999999126434;347;-0.023980712890625;100 mA
295.941069252821;-0.5401611328125;3.46999999123909;348;-0.023980712890625;100 mA
295.951069252795;-0.54443359375;3.47999999121384;349;-0.023980712890625;100 mA
295.96106925277;-0.54901123046875;3.4899999911886;350;-0.0239776611328125;100 mA
295.971069252745;-0.5535888671875;3.49999999116335;351;-0.023974609375;100 mA
295.98106925272;-0.55816650390625;3.5099999911381;352;-0.0239776611328125;100 mA
295.991069252694;-0.56304931640625;3.51999999111285;353;-0.023980712890625;100 mA
296.001069252669;-0.5682373046875;3.52999999108761;354;-0.0239837646484375;100 mA
296.011069252644;-0.57342529296875;3.53999999106236;355;-0.0239776611328125;100 mA
296.021069252619;-0.57891845703125;3.54999999103711;356;-0.0239837646484375;100 mA
296.031069252593;-0.58441162109375;3.55999999101186;357;-0.0239837646484375;100 mA
296.041069252568;-0.5902099609375;3.56999999098662;358;-0.023974609375;100 mA
296.051069252543;-0.5963134765625;3.57999999096137;359;-0.0239837646484375;100 mA
296.061069252518;-0.60211181640625;3.58999999093612;360;-0.0239776611328125;100 mA
296.071069252492;-0.6085205078125;3.59999999091087;361;-0.023980712890625;100 mA
296.081069252467;-0.61492919921875;3.60999999088563;362;-0.023980712890625;100 mA
296.091069252442;-0.62164306640625;3.61999999086038;363;-0.0239776611328125;100 mA
296.101069252417;-0.628662109375;3.62999999083513;364;-0.023980712890625;100 mA
296.111069252391;-0.6353759765625;3.63999999080988;365;-0.023980712890625;100 mA
296.121069252366;-0.6427001953125;3.64999999078464;366;-0.023980712890625;100 mA
296.131069252341;-0.64971923828125;3.65999999075939;367;-0.023980712890625;100 mA
296.141069252316;-0.65704345703125;3.66999999073414;368;-0.0239776611328125;100 mA
296.15106925229;-0.6646728515625;3.67999999070889;369;-0.0239776611328125;100 mA
296.161069252265;-0.6719970703125;3.68999999068365;370;-0.023974609375;100 mA
296.17106925224;-0.679931640625;3.6999999906584;371;-0.023974609375;100 mA
296.181069252215;-0.68756103515625;3.70999999063315;372;-0.023980712890625;100 mA
296.191069252189;-0.6951904296875;3.7199999906079;373;-0.0239776611328125;100 mA
296.201069252164;-0.703125;3.72999999058266;374;-0.023980712890625;100 mA
296.211069252139;-0.7110595703125;3.73999999055741;375;-0.0239776611328125;100 mA
296.221069252114;-0.718994140625;3.74999999053216;376;-0.0239837646484375;100 mA
296.231069252088;-0.7269287109375;3.75999999050691;377;-0.0239776611328125;100 mA
296.241069252063;-0.73486328125;3.76999999048167;378;-0.023980712890625;100 mA
296.251069252038;-0.7427978515625;3.77999999045642;379;-0.023980712890625;100 mA
296.261069252013;-0.750732421875;3.78999999043117;380;-0.0239776611328125;100 mA
296.271069251987;-0.7586669921875;3.79999999040592;381;-0.0239776611328125;100 mA
296.281069251962;-0.7666015625;3.80999999038067;382;-0.023974609375;100 mA
296.291069251937;-0.7745361328125;3.81999999035543;383;-0.0239776611328125;100 mA
296.301069251912;-0.78216552734375;3.82999999033018;384;-0.023974609375;100 mA
296.311069251886;-0.789794921875;3.83999999030493;385;-0.023974609375;100 mA
296.321069251861;-0.7977294921875;3.84999999027968;386;-0.023980712890625;100 mA
296.331069251836;-0.8050537109375;3.85999999025444;387;-0.023974609375;100 mA
296.341069251811;-0.81268310546875;3.86999999022919;388;-0.0239776611328125;100 mA
296.351069251785;-0.82000732421875;3.87999999020394;389;-0.023974609375;100 mA
296.36106925176;-0.82763671875;3.88999999017869;390;-0.023974609375;100 mA
296.371069251735;-0.83465576171875;3.89999999015345;391;-0.023974609375;100 mA
296.38106925171;-0.84197998046875;3.9099999901282;392;-0.023974609375;100 mA
296.391069251684;-0.8489990234375;3.91999999010295;393;-0.023974609375;100 mA
296.401069251659;-0.85601806640625;3.9299999900777;394;-0.023980712890625;100 mA
296.411069251634;-0.863037109375;3.93999999005246;395;-0.023980712890625;100 mA
296.421069251609;-0.87005615234375;3.94999999002721;396;-0.0239776611328125;100 mA
296.431069251583;-0.87677001953125;3.95999999000196;397;-0.023980712890625;100 mA
296.441069251558;-0.8837890625;3.96999998997671;398;-0.023980712890625;100 mA
296.451069251533;-0.8905029296875;3.97999998995147;399;-0.023974609375;100 mA
296.461069251508;-0.897216796875;3.98999998992622;400;-0.0239776611328125;100 mA
296.471069251483;-0.9039306640625;3.99999998990097;401;-0.0239776611328125;100 mA
296.481069251457;-0.91033935546875;4.00999998987572;402;-0.0239776611328125;100 mA
296.491069251432;-0.91705322265625;4.01999998985048;403;-0.0239837646484375;100 mA
296.501069251407;-0.9234619140625;4.02999998982523;404;-0.0239776611328125;100 mA
296.511069251382;-0.92987060546875;4.03999998979998;405;-0.023974609375;100 mA
296.521069251356;-0.93658447265625;4.04999998977473;406;-0.0239776611328125;100 mA
296.531069251331;-0.9429931640625;4.05999998974949;407;-0.0239776611328125;100 mA
296.541069251306;-0.94940185546875;4.06999998972424;408;-0.0239776611328125;100 mA
296.551069251281;-0.955810546875;4.07999998969899;409;-0.0239776611328125;100 mA
296.561069251255;-0.9625244140625;4.08999998967374;410;-0.0239715576171875;100 mA
296.57106925123;-0.96893310546875;4.0999999896485;411;-0.023974609375;100 mA
296.581069251205;-0.975341796875;4.10999998962325;412;-0.0239776611328125;100 mA
296.59106925118;-0.9820556640625;4.119999989598;413;-0.023980712890625;100 mA
296.601069251154;-0.98846435546875;4.12999998957275;414;-0.0239776611328125;100 mA
296.611069251129;-0.994873046875;4.1399999895475;415;-0.0239776611328125;100 mA
296.621069251104;-1.0015869140625;4.14999998952226;416;-0.023974609375;100 mA
296.631069251079;-1.00799560546875;4.15999998949701;417;-0.0239776611328125;100 mA
296.641069251053;-1.014404296875;4.16999998947176;418;-0.023980712890625;100 mA
296.651069251028;-1.0211181640625;4.17999998944651;419;-0.023974609375;100 mA
296.661069251003;-1.02752685546875;4.18999998942127;420;-0.023974609375;100 mA
296.671069250978;-1.033935546875;4.19999998939602;421;-0.023980712890625;100 mA
296.681069250952;-1.0406494140625;4.20999998937077;422;-0.0239715576171875;100 mA
296.691069250927;-1.04705810546875;4.21999998934552;423;-0.023974609375;100 mA
296.701069250902;-1.05377197265625;4.22999998932028;424;-0.0239776611328125;100 mA
296.711069250877;-1.0601806640625;4.23999998929503;425;-0.0239776611328125;100 mA
296.721069250851;-1.06658935546875;4.24999998926978;426;-0.023974609375;100 mA
296.731069250826;-1.07330322265625;4.25999998924453;427;-0.023974609375;100 mA
296.741069250801;-1.0797119140625;4.26999998921929;428;-0.0239776611328125;100 mA
296.751069250776;-1.08612060546875;4.27999998919404;429;-0.0239715576171875;100 mA
296.76106925075;-1.092529296875;4.28999998916879;430;-0.0239776611328125;100 mA
296.771069250725;-1.0992431640625;4.29999998914354;431;-0.023974609375;100 mA
296.7810692507;-1.10565185546875;4.3099999891183;432;-0.0239776611328125;100 mA
296.791069250675;-1.112060546875;4.31999998909305;433;-0.0239776611328125;100 mA
296.801069250649;-1.1187744140625;4.3299999890678;434;-0.0239776611328125;100 mA
296.811069250624;-1.12518310546875;4.33999998904255;435;-0.0239715576171875;100 mA
296.821069250599;-1.131591796875;4.34999998901731;436;-0.0239715576171875;100 mA
296.831069250574;-1.13800048828125;4.35999998899206;437;-0.0239715576171875;100 mA
296.841069250548;-1.1444091796875;4.36999998896681;438;-0.023968505859375;100 mA
296.851069250523;-1.15081787109375;4.37999998894156;439;-0.023974609375;100 mA
296.861069250498;-1.1572265625;4.38999998891632;440;-0.023974609375;100 mA
296.871069250473;-1.16363525390625;4.39999998889107;441;-0.0239776611328125;100 mA
296.881069250447;-1.16973876953125;4.40999998886582;442;-0.023974609375;100 mA
296.891069250422;-1.1761474609375;4.41999998884057;443;-0.0239776611328125;100 mA
296.901069250397;-1.18255615234375;4.42999998881533;444;-0.023974609375;100 mA
296.911069250372;-1.18865966796875;4.43999998879008;445;-0.0239715576171875;100 mA
296.921069250346;-1.19476318359375;4.44999998876483;446;-0.0239715576171875;100 mA
296.931069250321;-1.20086669921875;4.45999998873958;447;-0.023974609375;100 mA
296.941069250296;-1.20697021484375;4.46999998871433;448;-0.023968505859375;100 mA
296.951069250271;-1.21307373046875;4.47999998868909;449;-0.0239715576171875;100 mA
296.961069250245;-1.21917724609375;4.48999998866384;450;-0.023974609375;100 mA
296.97106925022;-1.22528076171875;4.49999998863859;451;-0.023968505859375;100 mA
296.981069250195;-1.2310791015625;4.50999998861334;452;-0.023974609375;100 mA
296.99106925017;-1.23687744140625;4.5199999885881;453;-0.023974609375;100 mA
297.001069250144;-1.24267578125;4.52999998856285;454;-0.023974609375;100 mA
297.011069250119;-1.2481689453125;4.5399999885376;455;-0.0239715576171875;100 mA
297.021069250094;-1.253662109375;4.54999998851235;456;-0.023974609375;100 mA
297.031069250069;-1.2591552734375;4.55999998848711;457;-0.023974609375;100 mA
297.041069250043;-1.26495361328125;4.56999998846186;458;-0.0239776611328125;100 mA
297.051069250018;-1.2701416015625;4.57999998843661;459;-0.023974609375;100 mA
297.061069249993;-1.275634765625;4.58999998841136;460;-0.023968505859375;100 mA
297.071069249968;-1.28082275390625;4.59999998838612;461;-0.023974609375;100 mA
297.081069249942;-1.28631591796875;4.60999998836087;462;-0.023968505859375;100 mA
297.091069249917;-1.29150390625;4.61999998833562;463;-0.0239715576171875;100 mA
297.101069249892;-1.29638671875;4.62999998831037;464;-0.0239776611328125;100 mA
297.111069249867;-1.30157470703125;4.63999998828513;465;-0.0239715576171875;100 mA
297.121069249841;-1.30645751953125;4.64999998825988;466;-0.023968505859375;100 mA
297.131069249816;-1.3116455078125;4.65999998823463;467;-0.023968505859375;100 mA
297.141069249791;-1.3165283203125;4.66999998820938;468;-0.0239776611328125;100 mA
297.151069249766;-1.3214111328125;4.67999998818414;469;-0.0239715576171875;100 mA
297.16106924974;-1.32598876953125;4.68999998815889;470;-0.023974609375;100 mA
297.171069249715;-1.33087158203125;4.69999998813364;471;-0.0239715576171875;100 mA
297.18106924969;-1.33544921875;4.70999998810839;472;-0.0239715576171875;100 mA
297.191069249665;-1.34033203125;4.71999998808315;473;-0.0239715576171875;100 mA
297.201069249639;-1.34490966796875;4.7299999880579;474;-0.023968505859375;100 mA
297.211069249614;-1.3494873046875;4.73999998803265;475;-0.023968505859375;100 mA
297.221069249589;-1.35406494140625;4.7499999880074;476;-0.0239776611328125;100 mA
297.231069249564;-1.358642578125;4.75999998798216;477;-0.0239654541015625;100 mA
297.241069249538;-1.3629150390625;4.76999998795691;478;-0.0239715576171875;100 mA
297.251069249513;-1.36749267578125;4.77999998793166;479;-0.023974609375;100 mA
297.261069249488;-1.37176513671875;4.78999998790641;480;-0.023968505859375;100 mA
297.271069249463;-1.37603759765625;4.79999998788116;481;-0.0239715576171875;100 mA
297.281069249437;-1.38031005859375;4.80999998785592;482;-0.0239715576171875;100 mA
297.291069249412;-1.38458251953125;4.81999998783067;483;-0.0239715576171875;100 mA
297.301069249387;-1.38885498046875;4.82999998780542;484;-0.023974609375;100 mA
297.311069249362;-1.392822265625;4.83999998778017;485;-0.0239715576171875;100 mA
297.321069249336;-1.39678955078125;4.84999998775493;486;-0.0239715576171875;100 mA
297.331069249311;-1.4007568359375;4.85999998772968;487;-0.0239715576171875;100 mA
297.341069249286;-1.40472412109375;4.86999998770443;488;-0.0239715576171875;100 mA
297.351069249261;-1.40838623046875;4.87999998767918;489;-0.023968505859375;100 mA
297.361069249235;-1.412353515625;4.88999998765394;490;-0.023974609375;100 mA
297.37106924921;-1.416015625;4.89999998762869;491;-0.023968505859375;100 mA
297.381069249185;-1.419677734375;4.90999998760344;492;-0.0239715576171875;100 mA
297.39106924916;-1.42333984375;4.91999998757819;493;-0.023968505859375;100 mA
297.401069249134;-1.427001953125;4.92999998755295;494;-0.0239715576171875;100 mA
297.411069249109;-1.4306640625;4.9399999875277;495;-0.023968505859375;100 mA
297.421069249084;-1.43402099609375;4.94999998750245;496;-0.0239776611328125;100 mA
297.431069249059;-1.43768310546875;4.9599999874772;497;-0.023974609375;100 mA
297.441069249033;-1.4410400390625;4.96999998745196;498;-0.0239654541015625;100 mA
297.451069249008;-1.44439697265625;4.97999998742671;499;-0.023974609375;100 mA
297.461069248983;-1.44775390625;4.98999998740146;500;-0.023974609375;100 mA
297.471069248958;-1.45111083984375;4.99999998737621;501;-0.023968505859375;100 mA
297.481069248932;-1.45416259765625;5.00999998735097;502;-0.023974609375;100 mA
297.491069248907;-1.45751953125;5.01999998732572;503;-0.023974609375;100 mA
297.501069248882;-1.4605712890625;5.02999998730047;504;-0.023968505859375;100 mA
297.511069248857;-1.463623046875;5.03999998727522;505;-0.023974609375;100 mA
297.521069248832;-1.46697998046875;5.04999998724998;506;-0.0239715576171875;100 mA
297.531069248806;-1.47003173828125;5.05999998722473;507;-0.0239715576171875;100 mA
297.541069248781;-1.47308349609375;5.06999998719948;508;-0.023968505859375;100 mA
297.551069248756;-1.47613525390625;5.07999998717423;509;-0.023974609375;100 mA
297.561069248731;-1.47918701171875;5.08999998714899;510;-0.023968505859375;100 mA
297.571069248705;-1.48223876953125;5.09999998712374;511;-0.0239654541015625;100 mA
297.58106924868;-1.4849853515625;5.10999998709849;512;-0.023968505859375;100 mA
297.591069248655;-1.488037109375;5.11999998707324;513;-0.0239654541015625;100 mA
297.60106924863;-1.4910888671875;5.129999987048;514;-0.023968505859375;100 mA
297.611069248604;-1.494140625;5.13999998702275;515;-0.023974609375;100 mA
297.621069248579;-1.4971923828125;5.1499999869975;516;-0.0239715576171875;100 mA
297.631069248554;-1.49993896484375;5.15999998697225;517;-0.0239715576171875;100 mA
297.641069248529;-1.50299072265625;5.169999986947;518;-0.0239654541015625;100 mA
297.651069248503;-1.50604248046875;5.17999998692176;519;-0.023968505859375;100 mA
297.661069248478;-1.50909423828125;5.18999998689651;520;-0.023968505859375;100 mA
297.671069248453;-1.5118408203125;5.19999998687126;521;-0.0239715576171875;100 mA
297.681069248428;-1.514892578125;5.20999998684601;522;-0.0239715576171875;100 mA
297.691069248402;-1.51763916015625;5.21999998682077;523;-0.023968505859375;100 mA
297.701069248377;-1.52069091796875;5.22999998679552;524;-0.023968505859375;100 mA
297.711069248352;-1.52374267578125;5.23999998677027;525;-0.023968505859375;100 mA
297.721069248327;-1.5264892578125;5.24999998674502;526;-0.023974609375;100 mA
297.731069248301;-1.529541015625;5.25999998671978;527;-0.0239715576171875;100 mA
297.741069248276;-1.53228759765625;5.26999998669453;528;-0.023974609375;100 mA
297.751069248251;-1.53533935546875;5.27999998666928;529;-0.023968505859375;100 mA
297.761069248226;-1.5380859375;5.28999998664403;530;-0.0239654541015625;100 mA
297.7710692482;-1.54083251953125;5.29999998661879;531;-0.0239715576171875;100 mA
297.781069248175;-1.54388427734375;5.30999998659354;532;-0.0239715576171875;100 mA
297.79106924815;-1.546630859375;5.31999998656829;533;-0.023968505859375;100 mA
297.801069248125;-1.54937744140625;5.32999998654304;534;-0.0239654541015625;100 mA
297.811069248099;-1.55242919921875;5.3399999865178;535;-0.023968505859375;100 mA
297.821069248074;-1.55517578125;5.34999998649255;536;-0.023968505859375;100 mA
297.831069248049;-1.55792236328125;5.3599999864673;537;-0.0239654541015625;100 mA
297.841069248024;-1.5606689453125;5.36999998644205;538;-0.023968505859375;100 mA
297.851069247998;-1.5631103515625;5.37999998641681;539;-0.0239776611328125;100 mA
297.861069247973;-1.56585693359375;5.38999998639156;540;-0.0239654541015625;100 mA
297.871069247948;-1.568603515625;5.39999998636631;541;-0.023968505859375;100 mA
297.881069247923;-1.57135009765625;5.40999998634106;542;-0.0239654541015625;100 mA
297.891069247897;-1.57379150390625;5.41999998631582;543;-0.023974609375;100 mA
297.901069247872;-1.5765380859375;5.42999998629057;544;-0.023968505859375;100 mA
297.911069247847;-1.57928466796875;5.43999998626532;545;-0.0239715576171875;100 mA
297.921069247822;-1.58172607421875;5.44999998624007;546;-0.023968505859375;100 mA
297.931069247796;-1.58447265625;5.45999998621483;547;-0.023968505859375;100 mA
297.941069247771;-1.5869140625;5.46999998618958;548;-0.0239715576171875;100 mA
297.951069247746;-1.58935546875;5.47999998616433;549;-0.023968505859375;100 mA
297.961069247721;-1.591796875;5.48999998613908;550;-0.0239654541015625;100 mA
297.971069247695;-1.59454345703125;5.49999998611383;551;-0.023968505859375;100 mA
297.98106924767;-1.59698486328125;5.50999998608859;552;-0.0239654541015625;100 mA
297.991069247645;-1.59912109375;5.51999998606334;553;-0.0239715576171875;100 mA
298.00106924762;-1.60186767578125;5.52999998603809;554;-0.023968505859375;100 mA
298.011069247594;-1.60400390625;5.53999998601284;555;-0.0239715576171875;100 mA
298.021069247569;-1.6064453125;5.5499999859876;556;-0.023968505859375;100 mA
298.031069247544;-1.60888671875;5.55999998596235;557;-0.0239715576171875;100 mA
298.041069247519;-1.611328125;5.5699999859371;558;-0.023974609375;100 mA
298.051069247493;-1.61346435546875;5.57999998591185;559;-0.0239715576171875;100 mA
298.061069247468;-1.6156005859375;5.58999998588661;560;-0.023968505859375;100 mA
298.071069247443;-1.6180419921875;5.59999998586136;561;-0.023968505859375;100 mA
298.081069247418;-1.62017822265625;5.60999998583611;562;-0.023968505859375;100 mA
298.091069247392;-1.62261962890625;5.61999998581086;563;-0.023968505859375;100 mA
298.101069247367;-1.624755859375;5.62999998578562;564;-0.0239654541015625;100 mA
298.111069247342;-1.62689208984375;5.63999998576037;565;-0.023968505859375;100 mA
298.121069247317;-1.6290283203125;5.64999998573512;566;-0.02396240234375;100 mA
298.131069247291;-1.63116455078125;5.65999998570987;567;-0.023968505859375;100 mA
298.141069247266;-1.63330078125;5.66999998568463;568;-0.0239715576171875;100 mA
298.151069247241;-1.63543701171875;5.67999998565938;569;-0.0239715576171875;100 mA
298.161069247216;-1.63726806640625;5.68999998563413;570;-0.0239654541015625;100 mA
298.17106924719;-1.639404296875;5.69999998560888;571;-0.023968505859375;100 mA
298.181069247165;-1.64154052734375;5.70999998558364;572;-0.0239654541015625;100 mA
298.19106924714;-1.6436767578125;5.71999998555839;573;-0.0239715576171875;100 mA
298.201069247115;-1.6455078125;5.72999998553314;574;-0.023968505859375;100 mA
298.211069247089;-1.64764404296875;5.73999998550789;575;-0.023968505859375;100 mA
298.221069247064;-1.64947509765625;5.74999998548265;576;-0.0239715576171875;100 mA
298.231069247039;-1.65130615234375;5.7599999854574;577;-0.0239654541015625;100 mA
298.241069247014;-1.65313720703125;5.76999998543215;578;-0.0239654541015625;100 mA
298.251069246988;-1.6552734375;5.7799999854069;579;-0.02396240234375;100 mA
298.261069246963;-1.6571044921875;5.78999998538166;580;-0.0239654541015625;100 mA
298.271069246938;-1.65863037109375;5.79999998535641;581;-0.023968505859375;100 mA
298.281069246913;-1.6607666015625;5.80999998533116;582;-0.0239654541015625;100 mA
298.291069246887;-1.66229248046875;5.81999998530591;583;-0.023974609375;100 mA
298.301069246862;-1.66412353515625;5.82999998528066;584;-0.0239654541015625;100 mA
298.311069246837;-1.66595458984375;5.83999998525542;585;-0.0239715576171875;100 mA
298.321069246812;-1.66778564453125;5.84999998523017;586;-0.0239654541015625;100 mA
298.331069246786;-1.66961669921875;5.85999998520492;587;-0.0239593505859375;100 mA
298.341069246761;-1.67144775390625;5.86999998517967;588;-0.0239654541015625;100 mA
298.351069246736;-1.6729736328125;5.87999998515443;589;-0.0239654541015625;100 mA
298.361069246711;-1.6748046875;5.88999998512918;590;-0.0239715576171875;100 mA
298.371069246685;-1.67633056640625;5.89999998510393;591;-0.02396240234375;100 mA
298.38106924666;-1.67816162109375;5.90999998507868;592;-0.02396240234375;100 mA
298.391069246635;-1.6796875;5.91999998505344;593;-0.0239654541015625;100 mA
298.40106924661;-1.68121337890625;5.92999998502819;594;-0.023968505859375;100 mA
298.411069246584;-1.6827392578125;5.93999998500294;595;-0.0239654541015625;100 mA
298.421069246559;-1.6845703125;5.94999998497769;596;-0.0239654541015625;100 mA
298.431069246534;-1.68609619140625;5.95999998495245;597;-0.0239654541015625;100 mA
298.441069246509;-1.6876220703125;5.9699999849272;598;-0.023968505859375;100 mA
298.451069246483;-1.68914794921875;5.97999998490195;599;-0.0239654541015625;100 mA
298.461069246458;-1.690673828125;5.9899999848767;600;-0.0239715576171875;100 mA
298.471069246433;-1.69189453125;5.99999998485146;601;-0.0239654541015625;100 mA
298.481069246408;-1.69342041015625;6.00999998482621;602;-0.023968505859375;100 mA
298.491069246382;-1.6949462890625;6.01999998480096;603;-0.0239654541015625;100 mA
298.501069246357;-1.69647216796875;6.02999998477571;604;-0.023968505859375;100 mA
298.511069246332;-1.69769287109375;6.03999998475047;605;-0.023968505859375;100 mA
298.521069246307;-1.69921875;6.04999998472522;606;-0.0239654541015625;100 mA
298.531069246282;-1.70074462890625;6.05999998469997;607;-0.0239654541015625;100 mA
298.541069246256;-1.70196533203125;6.06999998467472;608;-0.0239654541015625;100 mA
298.551069246231;-1.7034912109375;6.07999998464948;609;-0.0239654541015625;100 mA
298.561069246206;-1.7047119140625;6.08999998462423;610;-0.023968505859375;100 mA
298.571069246181;-1.70623779296875;6.09999998459898;611;-0.023968505859375;100 mA
298.581069246155;-1.70745849609375;6.10999998457373;612;-0.02396240234375;100 mA
298.59106924613;-1.708984375;6.11999998454849;613;-0.0239654541015625;100 mA
298.601069246105;-1.710205078125;6.12999998452324;614;-0.023968505859375;100 mA
298.61106924608;-1.71173095703125;6.13999998449799;615;-0.0239715576171875;100 mA
298.621069246054;-1.71295166015625;6.14999998447274;616;-0.0239593505859375;100 mA
298.631069246029;-1.71417236328125;6.1599999844475;617;-0.0239593505859375;100 mA
298.641069246004;-1.71539306640625;6.16999998442225;618;-0.0239654541015625;100 mA
298.651069245979;-1.7169189453125;6.179999984397;619;-0.02396240234375;100 mA
298.661069245953;-1.7181396484375;6.18999998437175;620;-0.0239654541015625;100 mA
298.671069245928;-1.7193603515625;6.1999999843465;621;-0.0239654541015625;100 mA
298.681069245903;-1.7205810546875;6.20999998432126;622;-0.0239654541015625;100 mA
298.691069245878;-1.7218017578125;6.21999998429601;623;-0.02396240234375;100 mA
298.701069245852;-1.7230224609375;6.22999998427076;624;-0.02396240234375;100 mA
298.711069245827;-1.7242431640625;6.23999998424551;625;-0.023968505859375;100 mA
298.721069245802;-1.72576904296875;6.24999998422027;626;-0.02396240234375;100 mA
298.731069245777;-1.7266845703125;6.25999998419502;627;-0.023968505859375;100 mA
298.741069245751;-1.72821044921875;6.26999998416977;628;-0.023968505859375;100 mA
298.751069245726;-1.72943115234375;6.27999998414452;629;-0.023968505859375;100 mA
298.761069245701;-1.73065185546875;6.28999998411928;630;-0.0239715576171875;100 mA
298.771069245676;-1.73187255859375;6.29999998409403;631;-0.0239593505859375;100 mA
298.78106924565;-1.73309326171875;6.30999998406878;632;-0.0239654541015625;100 mA
298.791069245625;-1.73431396484375;6.31999998404353;633;-0.02396240234375;100 mA
298.8010692456;-1.7352294921875;6.32999998401829;634;-0.02396240234375;100 mA
298.811069245575;-1.7364501953125;6.33999998399304;635;-0.0239654541015625;100 mA
298.821069245549;-1.7376708984375;6.34999998396779;636;-0.023968505859375;100 mA
298.831069245524;-1.7388916015625;6.35999998394254;637;-0.023968505859375;100 mA
298.841069245499;-1.7401123046875;6.3699999839173;638;-0.0239654541015625;100 mA
298.851069245474;-1.7413330078125;6.37999998389205;639;-0.023968505859375;100 mA
298.861069245448;-1.74224853515625;6.3899999838668;640;-0.0239654541015625;100 mA
298.871069245423;-1.74346923828125;6.39999998384155;641;-0.0239715576171875;100 mA
298.881069245398;-1.74468994140625;6.40999998381631;642;-0.02396240234375;100 mA
298.891069245373;-1.74591064453125;6.41999998379106;643;-0.0239654541015625;100 mA
298.901069245347;-1.746826171875;6.42999998376581;644;-0.02396240234375;100 mA
298.911069245322;-1.748046875;6.43999998374056;645;-0.0239593505859375;100 mA
298.921069245297;-1.749267578125;6.44999998371532;646;-0.0239654541015625;100 mA
298.931069245272;-1.75048828125;6.45999998369007;647;-0.0239715576171875;100 mA
298.941069245246;-1.751708984375;6.46999998366482;648;-0.02396240234375;100 mA
298.951069245221;-1.75262451171875;6.47999998363957;649;-0.02396240234375;100 mA
298.961069245196;-1.75384521484375;6.48999998361433;650;-0.02396240234375;100 mA
298.971069245171;-1.75506591796875;6.49999998358908;651;-0.023968505859375;100 mA
298.981069245145;-1.7559814453125;6.50999998356383;652;-0.023968505859375;100 mA
298.99106924512;-1.7572021484375;6.51999998353858;653;-0.0239654541015625;100 mA
299.001069245095;-1.7584228515625;6.52999998351333;654;-0.0239654541015625;100 mA
299.01106924507;-1.75933837890625;6.53999998348809;655;-0.02396240234375;100 mA
299.021069245044;-1.76055908203125;6.54999998346284;656;-0.0239654541015625;100 mA
299.031069245019;-1.76177978515625;6.55999998343759;657;-0.02396240234375;100 mA
299.041069244994;-1.7626953125;6.56999998341234;658;-0.023968505859375;100 mA
299.051069244969;-1.763916015625;6.5799999833871;659;-0.02396240234375;100 mA
299.061069244943;-1.76483154296875;6.58999998336185;660;-0.0239654541015625;100 mA
299.071069244918;-1.76605224609375;6.5999999833366;661;-0.0239654541015625;100 mA
299.081069244893;-1.7669677734375;6.60999998331135;662;-0.0239654541015625;100 mA
299.091069244868;-1.7681884765625;6.61999998328611;663;-0.0239654541015625;100 mA
299.101069244842;-1.76910400390625;6.62999998326086;664;-0.02396240234375;100 mA
299.111069244817;-1.77001953125;6.63999998323561;665;-0.023968505859375;100 mA
299.121069244792;-1.771240234375;6.64999998321036;666;-0.0239654541015625;100 mA
299.131069244767;-1.77215576171875;6.65999998318512;667;-0.02396240234375;100 mA
299.141069244741;-1.7730712890625;6.66999998315987;668;-0.0239715576171875;100 mA
299.151069244716;-1.7742919921875;6.67999998313462;669;-0.02396240234375;100 mA
299.161069244691;-1.77520751953125;6.68999998310937;670;-0.02396240234375;100 mA
299.171069244666;-1.776123046875;6.69999998308413;671;-0.0239654541015625;100 mA
299.18106924464;-1.77734375;6.70999998305888;672;-0.023968505859375;100 mA
299.191069244615;-1.77825927734375;6.71999998303363;673;-0.023968505859375;100 mA
299.20106924459;-1.7791748046875;6.72999998300838;674;-0.0239654541015625;100 mA
299.211069244565;-1.7803955078125;6.73999998298314;675;-0.0239654541015625;100 mA
299.221069244539;-1.78131103515625;6.74999998295789;676;-0.0239654541015625;100 mA
299.231069244514;-1.7822265625;6.75999998293264;677;-0.0239654541015625;100 mA
299.241069244489;-1.783447265625;6.76999998290739;678;-0.0239654541015625;100 mA
299.251069244464;-1.78436279296875;6.77999998288215;679;-0.023968505859375;100 mA
299.261069244438;-1.7852783203125;6.7899999828569;680;-0.0239654541015625;100 mA
299.271069244413;-1.7864990234375;6.79999998283165;681;-0.02396240234375;100 mA
299.281069244388;-1.78741455078125;6.8099999828064;682;-0.0239654541015625;100 mA
299.291069244363;-1.788330078125;6.81999998278116;683;-0.02396240234375;100 mA
299.301069244337;-1.78924560546875;6.82999998275591;684;-0.023968505859375;100 mA
299.311069244312;-1.79046630859375;6.83999998273066;685;-0.02396240234375;100 mA
299.321069244287;-1.7913818359375;6.84999998270541;686;-0.0239593505859375;100 mA
299.331069244262;-1.79229736328125;6.85999998268016;687;-0.0239654541015625;100 mA
299.341069244236;-1.79351806640625;6.86999998265492;688;-0.0239654541015625;100 mA
299.351069244211;-1.79443359375;6.87999998262967;689;-0.0239593505859375;100 mA
299.361069244186;-1.79534912109375;6.88999998260442;690;-0.023968505859375;100 mA
299.371069244161;-1.79656982421875;6.89999998257917;691;-0.02396240234375;100 mA
299.381069244135;-1.7974853515625;6.90999998255393;692;-0.023956298828125;100 mA
299.39106924411;-1.79840087890625;6.91999998252868;693;-0.023968505859375;100 mA
299.401069244085;-1.79931640625;6.92999998250343;694;-0.02396240234375;100 mA
299.41106924406;-1.800537109375;6.93999998247818;695;-0.0239654541015625;100 mA
299.421069244034;-1.80145263671875;6.94999998245294;696;-0.0239654541015625;100 mA
299.431069244009;-1.8023681640625;6.95999998242769;697;-0.023968505859375;100 mA
299.441069243984;-1.80328369140625;6.96999998240244;698;-0.0239654541015625;100 mA
299.451069243959;-1.80419921875;6.97999998237719;699;-0.0239654541015625;100 mA
299.461069243933;-1.80511474609375;6.98999998235195;700;-0.0239654541015625;100 mA
299.471069243908;-1.80633544921875;6.9999999823267;701;-0.0239593505859375;100 mA
299.481069243883;-1.8072509765625;7.00999998230145;702;-0.0239654541015625;100 mA
299.491069243858;-1.80816650390625;7.0199999822762;703;-0.0239593505859375;100 mA
299.501069243832;-1.80908203125;7.02999998225096;704;-0.0239715576171875;100 mA
299.511069243807;-1.80999755859375;7.03999998222571;705;-0.02396240234375;100 mA
299.521069243782;-1.8109130859375;7.04999998220046;706;-0.0239654541015625;100 mA
299.531069243757;-1.81182861328125;7.05999998217521;707;-0.02396240234375;100 mA
299.541069243731;-1.812744140625;7.06999998214997;708;-0.02396240234375;100 mA
299.551069243706;-1.81365966796875;7.07999998212472;709;-0.0239593505859375;100 mA
299.561069243681;-1.8145751953125;7.08999998209947;710;-0.0239654541015625;100 mA
299.571069243656;-1.81549072265625;7.09999998207422;711;-0.02396240234375;100 mA
299.581069243631;-1.81671142578125;7.10999998204898;712;-0.0239654541015625;100 mA
299.591069243605;-1.817626953125;7.11999998202373;713;-0.02396240234375;100 mA
299.60106924358;-1.81854248046875;7.12999998199848;714;-0.023968505859375;100 mA
299.611069243555;-1.81915283203125;7.13999998197323;715;-0.0239715576171875;100 mA
299.62106924353;-1.820068359375;7.14999998194799;716;-0.02396240234375;100 mA
299.631069243504;-1.82098388671875;7.15999998192274;717;-0.02396240234375;100 mA
299.641069243479;-1.8218994140625;7.16999998189749;718;-0.02396240234375;100 mA
299.651069243454;-1.82281494140625;7.17999998187224;719;-0.023968505859375;100 mA
299.661069243429;-1.82342529296875;7.189999981847;720;-0.023968505859375;100 mA
299.671069243403;-1.8243408203125;7.19999998182175;721;-0.0239715576171875;100 mA
299.681069243378;-1.824951171875;7.2099999817965;722;-0.02396240234375;100 mA
299.691069243353;-1.82586669921875;7.21999998177125;723;-0.0239593505859375;100 mA
299.701069243328;-1.8267822265625;7.229999981746;724;-0.0239654541015625;100 mA
299.711069243302;-1.82769775390625;7.23999998172076;725;-0.0239593505859375;100 mA
299.721069243277;-1.82830810546875;7.24999998169551;726;-0.02396240234375;100 mA
299.731069243252;-1.8292236328125;7.25999998167026;727;-0.02396240234375;100 mA
299.741069243227;-1.829833984375;7.26999998164501;728;-0.02396240234375;100 mA
299.751069243201;-1.83074951171875;7.27999998161977;729;-0.02396240234375;100 mA
299.761069243176;-1.83135986328125;7.28999998159452;730;-0.0239654541015625;100 mA
299.771069243151;-1.832275390625;7.29999998156927;731;-0.02396240234375;100 mA
299.781069243126;-1.8328857421875;7.30999998154402;732;-0.023968505859375;100 mA
299.7910692431;-1.83380126953125;7.31999998151878;733;-0.02396240234375;100 mA
299.801069243075;-1.83441162109375;7.32999998149353;734;-0.02396240234375;100 mA
299.81106924305;-1.83502197265625;7.33999998146828;735;-0.02396240234375;100 mA
299.821069243025;-1.8359375;7.34999998144303;736;-0.0239593505859375;100 mA
299.831069242999;-1.8365478515625;7.35999998141779;737;-0.023956298828125;100 mA
299.841069242974;-1.837158203125;7.36999998139254;738;-0.0239654541015625;100 mA
299.851069242949;-1.83807373046875;7.37999998136729;739;-0.02396240234375;100 mA
299.861069242924;-1.83868408203125;7.38999998134204;740;-0.0239654541015625;100 mA
299.871069242898;-1.83929443359375;7.3999999813168;741;-0.0239654541015625;100 mA
299.881069242873;-1.83990478515625;7.40999998129155;742;-0.0239593505859375;100 mA
299.891069242848;-1.8408203125;7.4199999812663;743;-0.023968505859375;100 mA
299.901069242823;-1.8414306640625;7.42999998124105;744;-0.0239654541015625;100 mA
299.911069242797;-1.842041015625;7.43999998121581;745;-0.0239654541015625;100 mA
299.921069242772;-1.8426513671875;7.44999998119056;746;-0.0239654541015625;100 mA
299.931069242747;-1.84326171875;7.45999998116531;747;-0.0239593505859375;100 mA
299.941069242722;-1.8438720703125;7.46999998114006;748;-0.023968505859375;100 mA
299.951069242696;-1.844482421875;7.47999998111482;749;-0.023968505859375;100 mA
299.961069242671;-1.8450927734375;7.48999998108957;750;-0.023956298828125;100 mA
299.971069242646;-1.845703125;7.49999998106432;751;-0.0239593505859375;100 mA
299.981069242621;-1.8463134765625;7.50999998103907;752;-0.02396240234375;100 mA
299.991069242595;-1.846923828125;7.51999998101383;753;-0.0239654541015625;100 mA
300.00106924257;-1.8475341796875;7.52999998098858;754;-0.0239654541015625;100 mA
300.011069242545;-1.84783935546875;7.53999998096333;755;-0.0239654541015625;100 mA
300.02106924252;-1.84844970703125;7.54999998093808;756;-0.02396240234375;100 mA
300.031069242494;-1.84906005859375;7.55999998091283;757;-0.0239593505859375;100 mA
300.041069242469;-1.84967041015625;7.56999998088759;758;-0.023968505859375;100 mA
300.051069242444;-1.85028076171875;7.57999998086234;759;-0.02396240234375;100 mA
300.061069242419;-1.8505859375;7.58999998083709;760;-0.0239654541015625;100 mA
300.071069242393;-1.8511962890625;7.59999998081184;761;-0.02396240234375;100 mA
300.081069242368;-1.851806640625;7.6099999807866;762;-0.02396240234375;100 mA
300.091069242343;-1.8524169921875;7.61999998076135;763;-0.0239654541015625;100 mA
300.101069242318;-1.85272216796875;7.6299999807361;764;-0.02396240234375;100 mA
300.111069242292;-1.85302734375;7.63999998071085;765;-0.023968505859375;100 mA
300.121069242267;-1.8536376953125;7.64999998068561;766;-0.0239593505859375;100 mA
300.131069242242;-1.854248046875;7.65999998066036;767;-0.02396240234375;100 mA
300.141069242217;-1.85455322265625;7.66999998063511;768;-0.02396240234375;100 mA
300.151069242191;-1.85516357421875;7.67999998060986;769;-0.02396240234375;100 mA
300.161069242166;-1.85546875;7.68999998058462;770;-0.02396240234375;100 mA
300.171069242141;-1.8560791015625;7.69999998055937;771;-0.0239593505859375;100 mA
300.181069242116;-1.856689453125;7.70999998053412;772;-0.0239654541015625;100 mA
300.19106924209;-1.85699462890625;7.71999998050887;773;-0.0239654541015625;100 mA
300.201069242065;-1.85760498046875;7.72999998048363;774;-0.0239654541015625;100 mA
300.21106924204;-1.85791015625;7.73999998045838;775;-0.0239593505859375;100 mA
300.221069242015;-1.8585205078125;7.74999998043313;776;-0.0239654541015625;100 mA
300.231069241989;-1.85882568359375;7.75999998040788;777;-0.023968505859375;100 mA
300.241069241964;-1.859130859375;7.76999998038264;778;-0.0239654541015625;100 mA
300.251069241939;-1.8597412109375;7.77999998035739;779;-0.02396240234375;100 mA
300.261069241914;-1.86004638671875;7.78999998033214;780;-0.0239593505859375;100 mA
300.271069241888;-1.86065673828125;7.79999998030689;781;-0.02396240234375;100 mA
300.281069241863;-1.8609619140625;7.80999998028165;782;-0.0239654541015625;100 mA
300.291069241838;-1.86126708984375;7.8199999802564;783;-0.02396240234375;100 mA
300.301069241813;-1.861572265625;7.82999998023115;784;-0.0239654541015625;100 mA
300.311069241787;-1.8621826171875;7.8399999802059;785;-0.023968505859375;100 mA
300.321069241762;-1.86248779296875;7.84999998018066;786;-0.02396240234375;100 mA
300.331069241737;-1.86279296875;7.85999998015541;787;-0.0239654541015625;100 mA
300.341069241712;-1.8634033203125;7.86999998013016;788;-0.02396240234375;100 mA
300.351069241686;-1.86370849609375;7.87999998010491;789;-0.02396240234375;100 mA
300.361069241661;-1.86431884765625;7.88999998007966;790;-0.0239593505859375;100 mA
300.371069241636;-1.8646240234375;7.89999998005442;791;-0.0239654541015625;100 mA
300.381069241611;-1.865234375;7.90999998002917;792;-0.0239593505859375;100 mA
300.391069241585;-1.86553955078125;7.91999998000392;793;-0.0239654541015625;100 mA
300.40106924156;-1.8658447265625;7.92999997997867;794;-0.0239593505859375;100 mA
300.411069241535;-1.86614990234375;7.93999997995343;795;-0.0239593505859375;100 mA
300.42106924151;-1.86676025390625;7.94999997992818;796;-0.0239593505859375;100 mA
300.431069241484;-1.8670654296875;7.95999997990293;797;-0.0239715576171875;100 mA
300.441069241459;-1.86737060546875;7.96999997987768;798;-0.0239593505859375;100 mA
300.451069241434;-1.86767578125;7.97999997985244;799;-0.0239593505859375;100 mA
300.461069241409;-1.86798095703125;7.98999997982719;800;-0.02396240234375;100 mA
300.471069241383;-1.8682861328125;7.99999997980194;801;-0.02396240234375;100 mA
300.481069241358;-1.86859130859375;8.00999997977669;802;-0.0239654541015625;100 mA
300.491069241333;-1.868896484375;8.01999997975145;803;-0.023968505859375;100 mA
300.501069241308;-1.86920166015625;8.0299999797262;804;-0.02396240234375;100 mA
300.511069241282;-1.8695068359375;8.03999997970095;805;-0.02396240234375;100 mA
300.521069241257;-1.86981201171875;8.0499999796757;806;-0.0239593505859375;100 mA
300.531069241232;-1.8701171875;8.05999997965046;807;-0.023956298828125;100 mA
300.541069241207;-1.8707275390625;8.06999997962521;808;-0.02396240234375;100 mA
300.551069241181;-1.8707275390625;8.07999997959996;809;-0.02396240234375;100 mA
300.561069241156;-1.87103271484375;8.08999997957471;810;-0.0239593505859375;100 mA
300.571069241131;-1.871337890625;8.09999997954947;811;-0.0239654541015625;100 mA
300.581069241106;-1.87164306640625;8.10999997952422;812;-0.0239593505859375;100 mA
300.591069241081;-1.8719482421875;8.11999997949897;813;-0.02396240234375;100 mA
300.601069241055;-1.87225341796875;8.12999997947372;814;-0.0239654541015625;100 mA
300.61106924103;-1.87255859375;8.13999997944848;815;-0.0239654541015625;100 mA
300.621069241005;-1.8731689453125;8.14999997942323;816;-0.02396240234375;100 mA
300.63106924098;-1.87347412109375;8.15999997939798;817;-0.0239593505859375;100 mA
300.641069240954;-1.873779296875;8.16999997937273;818;-0.0239654541015625;100 mA
300.651069240929;-1.87408447265625;8.17999997934749;819;-0.0239654541015625;100 mA
300.661069240904;-1.8743896484375;8.18999997932224;820;-0.0239654541015625;100 mA
300.671069240879;-1.87469482421875;8.19999997929699;821;-0.02396240234375;100 mA
300.681069240853;-1.87469482421875;8.20999997927174;822;-0.0239593505859375;100 mA
300.691069240828;-1.875;8.2199999792465;823;-0.0239654541015625;100 mA
300.701069240803;-1.87530517578125;8.22999997922125;824;-0.02396240234375;100 mA
300.711069240778;-1.8756103515625;8.239999979196;825;-0.02396240234375;100 mA
300.721069240752;-1.87591552734375;8.24999997917075;826;-0.0239654541015625;100 mA
300.731069240727;-1.876220703125;8.2599999791455;827;-0.0239593505859375;100 mA
300.741069240702;-1.87652587890625;8.26999997912026;828;-0.0239654541015625;100 mA
300.751069240677;-1.8768310546875;8.27999997909501;829;-0.0239654541015625;100 mA
300.761069240651;-1.8768310546875;8.28999997906976;830;-0.0239593505859375;100 mA
300.771069240626;-1.87713623046875;8.29999997904451;831;-0.02396240234375;100 mA
300.781069240601;-1.87744140625;8.30999997901927;832;-0.023956298828125;100 mA
300.791069240576;-1.87774658203125;8.31999997899402;833;-0.0239654541015625;100 mA
300.80106924055;-1.87774658203125;8.32999997896877;834;-0.0239593505859375;100 mA
300.811069240525;-1.8780517578125;8.33999997894352;835;-0.02396240234375;100 mA
300.8210692405;-1.87835693359375;8.34999997891828;836;-0.023968505859375;100 mA
300.831069240475;-1.878662109375;8.35999997889303;837;-0.02396240234375;100 mA
300.841069240449;-1.87896728515625;8.36999997886778;838;-0.02396240234375;100 mA
300.851069240424;-1.8792724609375;8.37999997884253;839;-0.02396240234375;100 mA
300.861069240399;-1.8792724609375;8.38999997881729;840;-0.02396240234375;100 mA
300.871069240374;-1.87957763671875;8.39999997879204;841;-0.0239593505859375;100 mA
300.881069240348;-1.8798828125;8.40999997876679;842;-0.0239593505859375;100 mA
300.891069240323;-1.88018798828125;8.41999997874154;843;-0.0239593505859375;100 mA
300.901069240298;-1.88018798828125;8.4299999787163;844;-0.02396240234375;100 mA
300.911069240273;-1.8804931640625;8.43999997869105;845;-0.0239654541015625;100 mA
300.921069240247;-1.88079833984375;8.4499999786658;846;-0.02396240234375;100 mA
300.931069240222;-1.88079833984375;8.45999997864055;847;-0.0239654541015625;100 mA
300.941069240197;-1.881103515625;8.46999997861531;848;-0.02396240234375;100 mA
300.951069240172;-1.88140869140625;8.47999997859006;849;-0.02396240234375;100 mA
300.961069240146;-1.8817138671875;8.48999997856481;850;-0.0239593505859375;100 mA
300.971069240121;-1.8817138671875;8.49999997853956;851;-0.02396240234375;100 mA
300.981069240096;-1.88201904296875;8.50999997851432;852;-0.0239654541015625;100 mA
300.991069240071;-1.88232421875;8.51999997848907;853;-0.0239593505859375;100 mA
301.001069240045;-1.88262939453125;8.52999997846382;854;-0.02396240234375;100 mA
301.01106924002;-1.88262939453125;8.53999997843857;855;-0.02396240234375;100 mA
301.021069239995;-1.8829345703125;8.54999997841333;856;-0.0239654541015625;100 mA
301.03106923997;-1.88323974609375;8.55999997838808;857;-0.02396240234375;100 mA
301.041069239944;-1.883544921875;8.56999997836283;858;-0.02396240234375;100 mA
301.051069239919;-1.88385009765625;8.57999997833758;859;-0.0239593505859375;100 mA
301.061069239894;-1.88385009765625;8.58999997831233;860;-0.02396240234375;100 mA
301.071069239869;-1.8841552734375;8.59999997828709;861;-0.02396240234375;100 mA
301.081069239843;-1.88446044921875;8.60999997826184;862;-0.02396240234375;100 mA
301.091069239818;-1.884765625;8.61999997823659;863;-0.0239593505859375;100 mA
301.101069239793;-1.88507080078125;8.62999997821134;864;-0.02396240234375;100 mA
301.111069239768;-1.88507080078125;8.6399999781861;865;-0.02396240234375;100 mA
301.121069239742;-1.8853759765625;8.64999997816085;866;-0.023956298828125;100 mA
301.131069239717;-1.88568115234375;8.6599999781356;867;-0.023956298828125;100 mA
301.141069239692;-1.88568115234375;8.66999997811035;868;-0.02396240234375;100 mA
301.151069239667;-1.885986328125;8.67999997808511;869;-0.0239654541015625;100 mA
301.161069239641;-1.88629150390625;8.68999997805986;870;-0.02396240234375;100 mA
301.171069239616;-1.88629150390625;8.69999997803461;871;-0.0239593505859375;100 mA
301.181069239591;-1.8865966796875;8.70999997800936;872;-0.0239654541015625;100 mA
301.191069239566;-1.88690185546875;8.71999997798412;873;-0.0239654541015625;100 mA
301.20106923954;-1.88720703125;8.72999997795887;874;-0.0239593505859375;100 mA
301.211069239515;-1.88720703125;8.73999997793362;875;-0.02396240234375;100 mA
301.22106923949;-1.88751220703125;8.74999997790837;876;-0.02396240234375;100 mA
301.231069239465;-1.88751220703125;8.75999997788313;877;-0.0239654541015625;100 mA
301.241069239439;-1.8878173828125;8.76999997785788;878;-0.0239654541015625;100 mA
301.251069239414;-1.88812255859375;8.77999997783263;879;-0.02396240234375;100 mA
301.261069239389;-1.88812255859375;8.78999997780738;880;-0.02396240234375;100 mA
301.271069239364;-1.888427734375;8.79999997778214;881;-0.0239654541015625;100 mA
301.281069239338;-1.88873291015625;8.80999997775689;882;-0.0239593505859375;100 mA
301.291069239313;-1.88873291015625;8.81999997773164;883;-0.02396240234375;100 mA
301.301069239288;-1.8890380859375;8.82999997770639;884;-0.0239654541015625;100 mA
301.311069239263;-1.88934326171875;8.83999997768115;885;-0.023956298828125;100 mA
301.321069239237;-1.88934326171875;8.8499999776559;886;-0.02396240234375;100 mA
301.331069239212;-1.8896484375;8.85999997763065;887;-0.02396240234375;100 mA
301.341069239187;-1.8896484375;8.8699999776054;888;-0.023968505859375;100 mA
301.351069239162;-1.88995361328125;8.87999997758016;889;-0.0239654541015625;100 mA
301.361069239136;-1.88995361328125;8.88999997755491;890;-0.02396240234375;100 mA
301.371069239111;-1.8902587890625;8.89999997752966;891;-0.0239593505859375;100 mA
301.381069239086;-1.89056396484375;8.90999997750441;892;-0.02396240234375;100 mA
301.391069239061;-1.89056396484375;8.91999997747916;893;-0.0239654541015625;100 mA
301.401069239035;-1.890869140625;8.92999997745392;894;-0.02396240234375;100 mA
301.41106923901;-1.890869140625;8.93999997742867;895;-0.0239654541015625;100 mA
301.421069238985;-1.89117431640625;8.94999997740342;896;-0.0239654541015625;100 mA
301.43106923896;-1.8914794921875;8.95999997737817;897;-0.0239593505859375;100 mA
301.441069238934;-1.8914794921875;8.96999997735293;898;-0.0239593505859375;100 mA
301.451069238909;-1.89178466796875;8.97999997732768;899;-0.0239654541015625;100 mA
301.461069238884;-1.89178466796875;8.98999997730243;900;-0.02396240234375;100 mA
301.471069238859;-1.89208984375;8.99999997727718;901;-0.0239593505859375;100 mA
301.481069238833;-1.89208984375;9.00999997725194;902;-0.0239593505859375;100 mA
301.491069238808;-1.89239501953125;9.01999997722669;903;-0.023956298828125;100 mA
301.501069238783;-1.8927001953125;9.02999997720144;904;-0.02396240234375;100 mA
301.511069238758;-1.8927001953125;9.03999997717619;905;-0.0239654541015625;100 mA
301.521069238732;-1.89300537109375;9.04999997715095;906;-0.0239593505859375;100 mA
301.531069238707;-1.89300537109375;9.0599999771257;907;-0.0239593505859375;100 mA
301.541069238682;-1.893310546875;9.06999997710045;908;-0.02396240234375;100 mA
301.551069238657;-1.893310546875;9.0799999770752;909;-0.0239654541015625;100 mA
301.561069238631;-1.89361572265625;9.08999997704996;910;-0.02396240234375;100 mA
301.571069238606;-1.89361572265625;9.09999997702471;911;-0.0239593505859375;100 mA
301.581069238581;-1.8939208984375;9.10999997699946;912;-0.02396240234375;100 mA
301.591069238556;-1.8939208984375;9.11999997697421;913;-0.0239593505859375;100 mA
301.60106923853;-1.89422607421875;9.12999997694897;914;-0.02396240234375;100 mA
301.611069238505;-1.89453125;9.13999997692372;915;-0.0239654541015625;100 mA
301.62106923848;-1.89453125;9.14999997689847;916;-0.023956298828125;100 mA
301.631069238455;-1.89483642578125;9.15999997687322;917;-0.023968505859375;100 mA
301.64106923843;-1.89483642578125;9.16999997684798;918;-0.0239654541015625;100 mA
301.651069238404;-1.8951416015625;9.17999997682273;919;-0.0239593505859375;100 mA
301.661069238379;-1.8951416015625;9.18999997679748;920;-0.02396240234375;100 mA
301.671069238354;-1.89544677734375;9.19999997677223;921;-0.02396240234375;100 mA
301.681069238329;-1.89544677734375;9.20999997674699;922;-0.0239654541015625;100 mA
301.691069238303;-1.895751953125;9.21999997672174;923;-0.0239593505859375;100 mA
301.701069238278;-1.895751953125;9.22999997669649;924;-0.02396240234375;100 mA
301.711069238253;-1.89605712890625;9.23999997667124;925;-0.0239593505859375;100 mA
301.721069238228;-1.8963623046875;9.249999976646;926;-0.02396240234375;100 mA
301.731069238202;-1.8963623046875;9.25999997662075;927;-0.0239593505859375;100 mA
301.741069238177;-1.89666748046875;9.2699999765955;928;-0.0239593505859375;100 mA
301.751069238152;-1.89666748046875;9.27999997657025;929;-0.02396240234375;100 mA
301.761069238127;-1.89697265625;9.289999976545;930;-0.0239593505859375;100 mA
301.771069238101;-1.89697265625;9.29999997651976;931;-0.0239654541015625;100 mA
301.781069238076;-1.89727783203125;9.30999997649451;932;-0.0239654541015625;100 mA
301.791069238051;-1.89727783203125;9.31999997646926;933;-0.02396240234375;100 mA
301.801069238026;-1.8975830078125;9.32999997644401;934;-0.0239593505859375;100 mA
301.811069238;-1.8975830078125;9.33999997641877;935;-0.02396240234375;100 mA
301.821069237975;-1.89788818359375;9.34999997639352;936;-0.02396240234375;100 mA
301.83106923795;-1.89788818359375;9.35999997636827;937;-0.02396240234375;100 mA
301.841069237925;-1.898193359375;9.36999997634302;938;-0.0239654541015625;100 mA
301.851069237899;-1.898193359375;9.37999997631778;939;-0.0239654541015625;100 mA
301.861069237874;-1.89849853515625;9.38999997629253;940;-0.02396240234375;100 mA
301.871069237849;-1.89849853515625;9.39999997626728;941;-0.02396240234375;100 mA
301.881069237824;-1.8988037109375;9.40999997624203;942;-0.0239593505859375;100 mA
301.891069237798;-1.8988037109375;9.41999997621679;943;-0.0239593505859375;100 mA
301.901069237773;-1.89910888671875;9.42999997619154;944;-0.0239593505859375;100 mA
301.911069237748;-1.89910888671875;9.43999997616629;945;-0.02396240234375;100 mA
301.921069237723;-1.8994140625;9.44999997614104;946;-0.02396240234375;100 mA
301.931069237697;-1.8994140625;9.4599999761158;947;-0.02396240234375;100 mA
301.941069237672;-1.8994140625;9.46999997609055;948;-0.02396240234375;100 mA
301.951069237647;-1.89971923828125;9.4799999760653;949;-0.0239654541015625;100 mA
301.961069237622;-1.89971923828125;9.48999997604005;950;-0.0239654541015625;100 mA
301.971069237596;-1.9000244140625;9.49999997601481;951;-0.0239593505859375;100 mA
301.981069237571;-1.9000244140625;9.50999997598956;952;-0.0239654541015625;100 mA
301.991069237546;-1.90032958984375;9.51999997596431;953;-0.0239654541015625;100 mA
302.001069237521;-1.90032958984375;9.52999997593906;954;-0.02396240234375;100 mA
302.011069237495;-1.90032958984375;9.53999997591382;955;-0.023968505859375;100 mA
302.02106923747;-1.900634765625;9.54999997588857;956;-0.02396240234375;100 mA
302.031069237445;-1.900634765625;9.55999997586332;957;-0.0239593505859375;100 mA
302.04106923742;-1.900634765625;9.56999997583807;958;-0.0239593505859375;100 mA
302.051069237394;-1.90093994140625;9.57999997581283;959;-0.0239593505859375;100 mA
302.061069237369;-1.90093994140625;9.58999997578758;960;-0.0239654541015625;100 mA
302.071069237344;-1.9012451171875;9.59999997576233;961;-0.0239654541015625;100 mA
302.081069237319;-1.9012451171875;9.60999997573708;962;-0.023968505859375;100 mA
302.091069237293;-1.9012451171875;9.61999997571183;963;-0.0239593505859375;100 mA
302.101069237268;-1.90155029296875;9.62999997568659;964;-0.02396240234375;100 mA
302.111069237243;-1.90155029296875;9.63999997566134;965;-0.02396240234375;100 mA
302.121069237218;-1.90155029296875;9.64999997563609;966;-0.0239654541015625;100 mA
302.131069237192;-1.90185546875;9.65999997561084;967;-0.023968505859375;100 mA
302.141069237167;-1.90185546875;9.6699999755856;968;-0.0239654541015625;100 mA
302.151069237142;-1.90185546875;9.67999997556035;969;-0.0239593505859375;100 mA
302.161069237117;-1.90216064453125;9.6899999755351;970;-0.02396240234375;100 mA
302.171069237091;-1.90216064453125;9.69999997550985;971;-0.02396240234375;100 mA
302.181069237066;-1.90216064453125;9.70999997548461;972;-0.0239654541015625;100 mA
302.191069237041;-1.9024658203125;9.71999997545936;973;-0.02396240234375;100 mA
302.201069237016;-1.9024658203125;9.72999997543411;974;-0.0239593505859375;100 mA
302.21106923699;-1.9024658203125;9.73999997540886;975;-0.0239593505859375;100 mA
302.221069236965;-1.90277099609375;9.74999997538362;976;-0.0239654541015625;100 mA
302.23106923694;-1.90277099609375;9.75999997535837;977;-0.0239654541015625;100 mA
302.241069236915;-1.90277099609375;9.76999997533312;978;-0.023968505859375;100 mA
302.251069236889;-1.90277099609375;9.77999997530787;979;-0.0239593505859375;100 mA
302.261069236864;-1.903076171875;9.78999997528263;980;-0.0239654541015625;100 mA
302.271069236839;-1.903076171875;9.79999997525738;981;-0.02396240234375;100 mA
302.281069236814;-1.903076171875;9.80999997523213;982;-0.0239654541015625;100 mA
302.291069236788;-1.90338134765625;9.81999997520688;983;-0.0239654541015625;100 mA
302.301069236763;-1.90338134765625;9.82999997518164;984;-0.0239593505859375;100 mA
302.311069236738;-1.90338134765625;9.83999997515639;985;-0.02396240234375;100 mA
302.321069236713;-1.90338134765625;9.84999997513114;986;-0.02396240234375;100 mA
302.331069236687;-1.9036865234375;9.85999997510589;987;-0.023956298828125;100 mA
302.341069236662;-1.9036865234375;9.86999997508065;988;-0.02396240234375;100 mA
302.351069236637;-1.9036865234375;9.8799999750554;989;-0.023968505859375;100 mA
302.361069236612;-1.9036865234375;9.88999997503015;990;-0.0239593505859375;100 mA
302.371069236586;-1.90399169921875;9.8999999750049;991;-0.0239654541015625;100 mA
302.381069236561;-1.90399169921875;9.90999997497966;992;-0.0239654541015625;100 mA
302.391069236536;-1.90399169921875;9.91999997495441;993;-0.02396240234375;100 mA
302.401069236511;-1.904296875;9.92999997492916;994;-0.023968505859375;100 mA
302.411069236485;-1.904296875;9.93999997490391;995;-0.0239654541015625;100 mA
302.42106923646;-1.904296875;9.94999997487866;996;-0.0239654541015625;100 mA
302.431069236435;-1.904296875;9.95999997485342;997;-0.0239593505859375;100 mA
302.44106923641;-1.90460205078125;9.96999997482817;998;-0.0239654541015625;100 mA
302.451069236384;-1.90460205078125;9.97999997480292;999;-0.02396240234375;100 mA
302.461069236359;-1.90460205078125;9.98999997477767;1000;-0.0239593505859375;100 mA
