Time (s);WE(1).Potential (V);WE(1).Current (A);Corrected time (s);Index;Current range
0.505162998724586;0.40069580078125;0.025677490234375;0;1;100 mA
0.515162998699338;0.400634765625;0.017315673828125;0.00999999997475243;2;100 mA
0.525162998674091;0.4005126953125;0.013031005859375;0.0199999999495049;3;100 mA
0.535162998648843;0.400543212890625;0.0106781005859375;0.0299999999242573;4;100 mA
0.545162998623596;0.400543212890625;0.008984375;0.0399999998990097;5;100 mA
0.555162998598348;0.40045166015625;0.007867431640625;0.0499999998737621;6;100 mA
0.565162998573101;0.400421142578125;0.007147216796875;0.0599999998485146;7;100 mA
0.575162998547853;0.40045166015625;0.0062652587890625;0.069999999823267;8;100 mA
0.585162998522605;0.40057373046875;0.0059051513671875;0.0799999997980194;9;100 mA
0.595162998497358;0.40057373046875;0.0053741455078125;0.0899999997727718;10;100 mA
0.60516299847211;0.4005126953125;0.0050872802734375;0.0999999997475243;11;100 mA
0.615162998446863;0.4005126953125;0.004852294921875;0.109999999722277;12;100 mA
0.625162998421615;0.40057373046875;0.0044647216796875;0.119999999697029;13;100 mA
0.635162998396368;0.400482177734375;0.0043853759765625;0.129999999671782;14;100 mA
0.64516299837112;0.400390625;0.00399078369140625;0.139999999646534;15;100 mA
0.655162998345872;0.400604248046875;0.00394775390625;0.149999999621286;16;100 mA
0.665162998320625;0.4005126953125;0.00377532958984375;0.159999999596039;17;100 mA
0.675162998295377;0.400482177734375;0.003609619140625;0.169999999570791;18;100 mA
0.68516299827013;0.4005126953125;0.00358642578125;0.179999999545544;19;100 mA
0.695162998244882;0.400726318359375;0.00336212158203125;0.189999999520296;20;100 mA
0.705162998219635;0.400665283203125;0.00337890625;0.199999999495049;21;100 mA
0.715162998194387;0.4005126953125;0.0032257080078125;0.209999999469801;22;100 mA
0.725162998169139;0.40069580078125;0.0031561279296875;0.219999999444553;23;100 mA
0.735162998143892;0.400604248046875;0.0030938720703125;0.229999999419306;24;100 mA
0.745162998118644;0.400482177734375;0.0029925537109375;0.239999999394058;25;100 mA
0.755162998093397;0.400390625;0.00303375244140625;0.249999999368811;26;100 mA
0.765162998068149;0.400482177734375;0.00286895751953125;0.259999999343563;27;100 mA
0.775162998042902;0.40057373046875;0.00287872314453125;0.269999999318316;28;100 mA
0.785162998017654;0.400482177734375;0.00279541015625;0.279999999293068;29;100 mA
0.795162997992406;0.40057373046875;0.00273468017578125;0.28999999926782;30;100 mA
0.805162997967159;0.400634765625;0.00274505615234375;0.299999999242573;31;100 mA
0.815162997941911;0.400634765625;0.00264617919921875;0.309999999217325;32;100 mA
0.825162997916664;0.400604248046875;0.00266204833984375;0.319999999192078;33;100 mA
0.835162997891416;0.4005126953125;0.00253509521484375;0.32999999916683;34;100 mA
0.845162997866169;0.400604248046875;0.00256378173828125;0.339999999141583;35;100 mA
0.855162997840921;0.400482177734375;0.00253936767578125;0.349999999116335;36;100 mA
0.865162997815673;0.400421142578125;0.00248443603515625;0.359999999091087;37;100 mA
0.875162997790426;0.40057373046875;0.00254302978515625;0.36999999906584;38;100 mA
0.885162997765178;0.400604248046875;0.00241668701171875;0.379999999040592;39;100 mA
0.895162997739931;0.400665283203125;0.00250885009765625;0.389999999015345;40;100 mA
0.905162997714683;0.40057373046875;0.00246978759765625;0.399999998990097;41;100 mA
0.915162997689436;0.40069580078125;0.002374267578125;0.40999999896485;42;100 mA
0.925162997664188;0.400634765625;0.002391357421875;0.419999998939602;43;100 mA
0.93516299763894;0.400482177734375;0.0023101806640625;0.429999998914354;44;100 mA
0.945162997613693;0.40057373046875;0.00237213134765625;0.439999998889107;45;100 mA
0.955162997588445;0.400482177734375;0.0022894287109375;0.449999998863859;46;100 mA
0.965162997563198;0.40057373046875;0.0022991943359375;0.459999998838612;47;100 mA
0.97516299753795;0.400390625;0.00231231689453125;0.469999998813364;48;100 mA
0.985162997512703;0.400482177734375;0.00221588134765625;0.479999998788116;49;100 mA
0.995162997487455;0.400665283203125;0.00230926513671875;0.489999998762869;50;100 mA
1.00516299746221;0.400604248046875;0.00217041015625;0.499999998737621;51;100 mA
1.01516299743696;0.400604248046875;0.0022576904296875;0.509999998712374;52;100 mA
1.02516299741171;0.400634765625;0.002176513671875;0.519999998687126;53;100 mA
1.03516299738646;0.400604248046875;0.002159423828125;0.529999998661879;54;100 mA
1.04516299736122;0.400543212890625;0.00218841552734375;0.539999998636631;55;100 mA
1.05516299733597;0.400421142578125;0.0020806884765625;0.549999998611383;56;100 mA
1.06516299731072;0.400543212890625;0.0022100830078125;0.559999998586136;57;100 mA
1.07516299728547;0.40057373046875;0.00207611083984375;0.569999998560888;58;100 mA
1.08516299726023;0.400543212890625;0.00213470458984375;0.579999998535641;59;100 mA
1.09516299723498;0.400604248046875;0.00219696044921875;0.589999998510393;60;100 mA
1.10516299720973;0.400634765625;0.002061767578125;0.599999998485146;61;100 mA
1.11516299718448;0.400604248046875;0.0022015380859375;0.609999998459898;62;100 mA
1.12516299715924;0.40045166015625;0.0020159912109375;0.61999999843465;63;100 mA
1.13516299713399;0.400604248046875;0.00209869384765625;0.629999998409403;64;100 mA
1.14516299710874;0.400604248046875;0.00203125;0.639999998384155;65;100 mA
1.15516299708349;0.4005126953125;0.00201690673828125;0.649999998358908;66;100 mA
1.16516299705825;0.4005126953125;0.002047119140625;0.65999999833366;67;100 mA
1.175162997033;0.400604248046875;0.0019366455078125;0.669999998308413;68;100 mA
1.18516299700775;0.400634765625;0.002073974609375;0.679999998283165;69;100 mA
1.1951629969825;0.40057373046875;0.00197052001953125;0.689999998257917;70;100 mA
1.20516299695726;0.40057373046875;0.00201934814453125;0.69999999823267;71;100 mA
1.21516299693201;0.400634765625;0.002005615234375;0.709999998207422;72;100 mA
1.22516299690676;0.400543212890625;0.001920166015625;0.719999998182175;73;100 mA
1.23516299688151;0.400390625;0.00202667236328125;0.729999998156927;74;100 mA
1.24516299685627;0.400482177734375;0.00191680908203125;0.73999999813168;75;100 mA
1.25516299683102;0.400634765625;0.00204254150390625;0.749999998106432;76;100 mA
1.26516299680577;0.4005126953125;0.001976318359375;0.759999998081184;77;100 mA
1.27516299678052;0.40057373046875;0.0020074462890625;0.769999998055937;78;100 mA
1.28516299675528;0.400604248046875;0.00211700439453125;0.779999998030689;79;100 mA
1.29516299673003;0.40069580078125;0.002010498046875;0.789999998005442;80;100 mA
1.30516299670478;0.400604248046875;0.00199737548828125;0.799999997980194;81;100 mA
1.31516299667953;0.4005126953125;0.001829833984375;0.809999997954947;82;100 mA
1.32516299665429;0.40069580078125;0.001915283203125;0.819999997929699;83;100 mA
1.33516299662904;0.40057373046875;0.001937255859375;0.829999997904451;84;100 mA
1.34516299660379;0.400482177734375;0.0018719482421875;0.839999997879204;85;100 mA
1.35516299657854;0.40045166015625;0.00199432373046875;0.849999997853956;86;100 mA
1.36516299655329;0.40057373046875;0.00183563232421875;0.859999997828709;87;100 mA
1.37516299652805;0.400634765625;0.0019244384765625;0.869999997803461;88;100 mA
1.3851629965028;0.40045166015625;0.0019061279296875;0.879999997778214;89;100 mA
1.39516299647755;0.40069580078125;0.001890869140625;0.889999997752966;90;100 mA
1.4051629964523;0.400726318359375;0.00194549560546875;0.899999997727718;91;100 mA
1.41516299642706;0.4005126953125;0.00183685302734375;0.909999997702471;92;100 mA
1.42516299640181;0.400604248046875;0.00190277099609375;0.919999997677223;93;100 mA
1.43516299637656;0.400482177734375;0.0018218994140625;0.929999997651976;94;100 mA
1.44516299635131;0.40057373046875;0.0018914794921875;0.939999997626728;95;100 mA
1.45516299632607;0.40045166015625;0.00187225341796875;0.949999997601481;96;100 mA
1.46516299630082;0.40045166015625;0.00183685302734375;0.959999997576233;97;100 mA
1.47516299627557;0.400604248046875;0.00194610595703125;0.969999997550985;98;100 mA
1.48516299625032;0.400604248046875;0.00179901123046875;0.979999997525738;99;100 mA
1.49516299622508;0.40057373046875;0.00187225341796875;0.98999999750049;100;100 mA
1.50516299619983;0.40057373046875;0.00181243896484375;0.999999997475243;101;100 mA
1.51516299617458;0.40069580078125;0.00182220458984375;1.00999999745;102;100 mA
1.52516299614933;0.400634765625;0.0018353271484375;1.01999999742475;103;100 mA
1.53516299612409;0.400482177734375;0.00178070068359375;1.0299999973995;104;100 mA
1.54516299609884;0.400604248046875;0.0018890380859375;1.03999999737425;105;100 mA
1.55516299607359;0.400543212890625;0.0017437744140625;1.049999997349;106;100 mA
1.56516299604834;0.4005126953125;0.00183074951171875;1.05999999732376;107;100 mA
1.5751629960231;0.4005126953125;0.00187042236328125;1.06999999729851;108;100 mA
1.58516299599785;0.400604248046875;0.00184234619140625;1.07999999727326;109;100 mA
1.5951629959726;0.400665283203125;0.00194793701171875;1.08999999724801;110;100 mA
1.60516299594735;0.400634765625;0.0016845703125;1.09999999722277;111;100 mA
1.61516299592211;0.40057373046875;0.00179168701171875;1.10999999719752;112;100 mA
1.62516299589686;0.400634765625;0.00171539306640625;1.11999999717227;113;100 mA
1.63516299587161;0.40057373046875;0.00175567626953125;1.12999999714702;114;100 mA
1.64516299584636;0.400482177734375;0.00181243896484375;1.13999999712178;115;100 mA
1.65516299582112;0.400482177734375;0.001690673828125;1.14999999709653;116;100 mA
1.66516299579587;0.400604248046875;0.0018212890625;1.15999999707128;117;100 mA
1.67516299577062;0.40057373046875;0.0017327880859375;1.16999999704603;118;100 mA
1.68516299574537;0.400543212890625;0.0017962646484375;1.17999999702079;119;100 mA
1.69516299572012;0.400543212890625;0.00178985595703125;1.18999999699554;120;100 mA
1.70516299569488;0.400634765625;0.0017315673828125;1.19999999697029;121;100 mA
1.71516299566963;0.400634765625;0.0018023681640625;1.20999999694504;122;100 mA
1.72516299564438;0.4005126953125;0.0016961669921875;1.2199999969198;123;100 mA
1.73516299561913;0.400604248046875;0.00180908203125;1.22999999689455;124;100 mA
1.74516299559389;0.400543212890625;0.00176055908203125;1.2399999968693;125;100 mA
1.75516299556864;0.400543212890625;0.001761474609375;1.24999999684405;126;100 mA
1.76516299554339;0.400543212890625;0.001815185546875;1.25999999681881;127;100 mA
1.77516299551814;0.400634765625;0.00171234130859375;1.26999999679356;128;100 mA
1.7851629954929;0.400604248046875;0.0018408203125;1.27999999676831;129;100 mA
1.79516299546765;0.40057373046875;0.00174530029296875;1.28999999674306;130;100 mA
1.8051629954424;0.40069580078125;0.0018011474609375;1.29999999671782;131;100 mA
1.81516299541715;0.400634765625;0.00181640625;1.30999999669257;132;100 mA
1.82516299539191;0.400421142578125;0.0017596435546875;1.31999999666732;133;100 mA
1.83516299536666;0.400421142578125;0.00184112548828125;1.32999999664207;134;100 mA
1.84516299534141;0.40045166015625;0.00175750732421875;1.33999999661683;135;100 mA
1.85516299531616;0.400634765625;0.0018316650390625;1.34999999659158;136;100 mA
1.86516299529092;0.400543212890625;0.00178619384765625;1.35999999656633;137;100 mA
1.87516299526567;0.400543212890625;0.0017852783203125;1.36999999654108;138;100 mA
1.88516299524042;0.400634765625;0.001878662109375;1.37999999651583;139;100 mA
1.89516299521517;0.40069580078125;0.00179412841796875;1.38999999649059;140;100 mA
1.90516299518993;0.40057373046875;0.00179107666015625;1.39999999646534;141;100 mA
1.91516299516468;0.40045166015625;0.0017266845703125;1.40999999644009;142;100 mA
1.92516299513943;0.400665283203125;0.00177398681640625;1.41999999641484;143;100 mA
1.93516299511418;0.40057373046875;0.0017742919921875;1.4299999963896;144;100 mA
1.94516299508894;0.400360107421875;0.001739501953125;1.43999999636435;145;100 mA
1.95516299506369;0.4005126953125;0.0017919921875;1.4499999963391;146;100 mA
1.96516299503844;0.40057373046875;0.00170013427734375;1.45999999631385;147;100 mA
1.97516299501319;0.400665283203125;0.00178192138671875;1.46999999628861;148;100 mA
1.98516299498795;0.400482177734375;0.00173553466796875;1.47999999626336;149;100 mA
1.9951629949627;0.400665283203125;0.001744384765625;1.48999999623811;150;100 mA
2.00516299493745;0.4007568359375;0.00181793212890625;1.49999999621286;151;100 mA
2.0151629949122;0.4005126953125;0.0016754150390625;1.50999999618762;152;100 mA
2.02516299488695;0.40057373046875;0.0017578125;1.51999999616237;153;100 mA
2.03516299486171;0.400482177734375;0.00168121337890625;1.52999999613712;154;100 mA
2.04516299483646;0.4005126953125;0.001751708984375;1.53999999611187;155;100 mA
2.05516299481121;0.400390625;0.00171173095703125;1.54999999608663;156;100 mA
2.06516299478596;0.40045166015625;0.00170318603515625;1.55999999606138;157;100 mA
2.07516299476072;0.400634765625;0.001800537109375;1.56999999603613;158;100 mA
2.08516299473547;0.400634765625;0.00172607421875;1.57999999601088;159;100 mA
2.09516299471022;0.40057373046875;0.0017340087890625;1.58999999598564;160;100 mA
2.10516299468497;0.400634765625;0.0017333984375;1.59999999596039;161;100 mA
2.11516299465973;0.400665283203125;0.00166259765625;1.60999999593514;162;100 mA
2.12516299463448;0.40057373046875;0.0016839599609375;1.61999999590989;163;100 mA
2.13516299460923;0.400390625;0.00163482666015625;1.62999999588465;164;100 mA
2.14516299458398;0.40057373046875;0.001728515625;1.6399999958594;165;100 mA
2.15516299455874;0.40057373046875;0.001629638671875;1.64999999583415;166;100 mA
2.16516299453349;0.4005126953125;0.0016925048828125;1.6599999958089;167;100 mA
2.17516299450824;0.400482177734375;0.0017071533203125;1.66999999578366;168;100 mA
2.18516299448299;0.400634765625;0.001666259765625;1.67999999575841;169;100 mA
2.19516299445775;0.40057373046875;0.001805419921875;1.68999999573316;170;100 mA
2.2051629944325;0.400604248046875;0.0015985107421875;1.69999999570791;171;100 mA
2.21516299440725;0.400665283203125;0.0016973876953125;1.70999999568267;172;100 mA
2.225162994382;0.400634765625;0.00161285400390625;1.71999999565742;173;100 mA
2.23516299435676;0.40057373046875;0.00165863037109375;1.72999999563217;174;100 mA
2.24516299433151;0.400421142578125;0.00169097900390625;1.73999999560692;175;100 mA
2.25516299430626;0.4005126953125;0.00159820556640625;1.74999999558167;176;100 mA
2.26516299428101;0.400604248046875;0.00170013427734375;1.75999999555643;177;100 mA
2.27516299425577;0.400543212890625;0.00161834716796875;1.76999999553118;178;100 mA
2.28516299423052;0.400543212890625;0.00168609619140625;1.77999999550593;179;100 mA
2.29516299420527;0.400543212890625;0.001715087890625;1.78999999548068;180;100 mA
2.30516299418002;0.400634765625;0.0016326904296875;1.79999999545544;181;100 mA
2.31516299415478;0.4005126953125;0.0017071533203125;1.80999999543019;182;100 mA
2.32516299412953;0.400421142578125;0.00158294677734375;1.81999999540494;183;100 mA
2.33516299410428;0.400634765625;0.00169342041015625;1.82999999537969;184;100 mA
2.34516299407903;0.40057373046875;0.00162567138671875;1.83999999535445;185;100 mA
2.35516299405379;0.400604248046875;0.001627197265625;1.8499999953292;186;100 mA
2.36516299402854;0.400543212890625;0.00167236328125;1.85999999530395;187;100 mA
2.37516299400329;0.400634765625;0.0015838623046875;1.8699999952787;188;100 mA
2.38516299397804;0.40057373046875;0.00170135498046875;1.87999999525346;189;100 mA
2.39516299395279;0.400543212890625;0.00158966064453125;1.88999999522821;190;100 mA
2.40516299392755;0.400634765625;0.00165008544921875;1.89999999520296;191;100 mA
2.4151629939023;0.400604248046875;0.00165496826171875;1.90999999517771;192;100 mA
2.42516299387705;0.400421142578125;0.0015924072265625;1.91999999515247;193;100 mA
2.4351629938518;0.400421142578125;0.0016656494140625;1.92999999512722;194;100 mA
2.44516299382656;0.40045166015625;0.00156463623046875;1.93999999510197;195;100 mA
2.45516299380131;0.400665283203125;0.00165313720703125;1.94999999507672;196;100 mA
2.46516299377606;0.400482177734375;0.0016015625;1.95999999505148;197;100 mA
2.47516299375081;0.4005126953125;0.0016070556640625;1.96999999502623;198;100 mA
2.48516299372557;0.40069580078125;0.0016650390625;1.97999999500098;199;100 mA
2.49516299370032;0.400634765625;0.001590576171875;1.98999999497573;200;100 mA
2.50516299367507;0.400604248046875;0.00171478271484375;1.99999999495049;201;100 mA
2.51516299364982;0.4005126953125;0.00165496826171875;2.00999999492524;202;100 mA
2.52516299362458;0.400604248046875;0.0016259765625;2.01999999489999;203;100 mA
2.53516299359933;0.40057373046875;0.0016204833984375;2.02999999487474;204;100 mA
2.54516299357408;0.40032958984375;0.00160919189453125;2.0399999948495;205;100 mA
2.55516299354883;0.4005126953125;0.00166595458984375;2.04999999482425;206;100 mA
2.56516299352359;0.4005126953125;0.0015997314453125;2.059999994799;207;100 mA
2.57516299349834;0.40057373046875;0.00165374755859375;2.06999999477375;208;100 mA
2.58516299347309;0.40057373046875;0.001619873046875;2.0799999947485;209;100 mA
2.59516299344784;0.400665283203125;0.0016461181640625;2.08999999472326;210;100 mA
2.6051629934226;0.40069580078125;0.00176513671875;2.09999999469801;211;100 mA
2.61516299339735;0.400543212890625;0.00163330078125;2.10999999467276;212;100 mA
2.6251629933721;0.400482177734375;0.0016986083984375;2.11999999464751;213;100 mA
2.63516299334685;0.40045166015625;0.001561279296875;2.12999999462227;214;100 mA
2.64516299332161;0.400482177734375;0.0016290283203125;2.13999999459702;215;100 mA
2.65516299329636;0.40045166015625;0.0016131591796875;2.14999999457177;216;100 mA
2.66516299327111;0.4005126953125;0.00162200927734375;2.15999999454652;217;100 mA
2.67516299324586;0.400543212890625;0.00167816162109375;2.16999999452128;218;100 mA
2.68516299322062;0.400604248046875;0.0015838623046875;2.17999999449603;219;100 mA
2.69516299319537;0.400604248046875;0.00167022705078125;2.18999999447078;220;100 mA
2.70516299317012;0.400665283203125;0.001650390625;2.19999999444553;221;100 mA
2.71516299314487;0.40069580078125;0.0016937255859375;2.20999999442029;222;100 mA
2.72516299311962;0.400543212890625;0.00173095703125;2.21999999439504;223;100 mA
2.73516299309438;0.40045166015625;0.00155670166015625;2.22999999436979;224;100 mA
2.74516299306913;0.4005126953125;0.00165863037109375;2.23999999434454;225;100 mA
2.75516299304388;0.40057373046875;0.00153656005859375;2.2499999943193;226;100 mA
2.76516299301863;0.400421142578125;0.00163421630859375;2.25999999429405;227;100 mA
2.77516299299339;0.4005126953125;0.00158782958984375;2.2699999942688;228;100 mA
2.78516299296814;0.400634765625;0.00158172607421875;2.27999999424355;229;100 mA
2.79516299294289;0.400665283203125;0.0016754150390625;2.28999999421831;230;100 mA
2.80516299291764;0.4005126953125;0.00153167724609375;2.29999999419306;231;100 mA
2.8151629928924;0.400604248046875;0.00164215087890625;2.30999999416781;232;100 mA
2.82516299286715;0.400604248046875;0.00160186767578125;2.31999999414256;233;100 mA
2.8351629928419;0.4005126953125;0.0016058349609375;2.32999999411732;234;100 mA
2.84516299281665;0.400482177734375;0.001650390625;2.33999999409207;235;100 mA
2.85516299279141;0.400543212890625;0.00151763916015625;2.34999999406682;236;100 mA
2.86516299276616;0.400604248046875;0.00163726806640625;2.35999999404157;237;100 mA
2.87516299274091;0.400543212890625;0.00153900146484375;2.36999999401633;238;100 mA
2.88516299271566;0.400634765625;0.00161773681640625;2.37999999399108;239;100 mA
2.89516299269042;0.400634765625;0.00160125732421875;2.38999999396583;240;100 mA
2.90516299266517;0.400604248046875;0.00157623291015625;2.39999999394058;241;100 mA
2.91516299263992;0.400482177734375;0.001678466796875;2.40999999391533;242;100 mA
2.92516299261467;0.400421142578125;0.00162109375;2.41999999389009;243;100 mA
2.93516299258943;0.40069580078125;0.0016656494140625;2.42999999386484;244;100 mA
2.94516299256418;0.400543212890625;0.00156646728515625;2.43999999383959;245;100 mA
2.95516299253893;0.40057373046875;0.00156829833984375;2.44999999381434;246;100 mA
2.96516299251368;0.400604248046875;0.00161834716796875;2.4599999937891;247;100 mA
2.97516299248844;0.40069580078125;0.001566162109375;2.46999999376385;248;100 mA
2.98516299246319;0.400543212890625;0.0016619873046875;2.4799999937386;249;100 mA
2.99516299243794;0.400482177734375;0.00155487060546875;2.48999999371335;250;100 mA
3.00516299241269;0.400604248046875;0.00162841796875;2.49999999368811;251;100 mA
3.01516299238745;0.400604248046875;0.00165435791015625;2.50999999366286;252;100 mA
3.0251629923622;0.400482177734375;0.0016009521484375;2.51999999363761;253;100 mA
3.03516299233695;0.400421142578125;0.0016741943359375;2.52999999361236;254;100 mA
3.0451629923117;0.4005126953125;0.0015411376953125;2.53999999358712;255;100 mA
3.05516299228645;0.400665283203125;0.001629638671875;2.54999999356187;256;100 mA
3.06516299226121;0.40057373046875;0.0015802001953125;2.55999999353662;257;100 mA
3.07516299223596;0.400604248046875;0.00161376953125;2.56999999351137;258;100 mA
3.08516299221071;0.40069580078125;0.00163116455078125;2.57999999348613;259;100 mA
3.09516299218546;0.400604248046875;0.00155975341796875;2.58999999346088;260;100 mA
3.10516299216022;0.40057373046875;0.00166259765625;2.59999999343563;261;100 mA
3.11516299213497;0.400482177734375;0.00156005859375;2.60999999341038;262;100 mA
3.12516299210972;0.400604248046875;0.00160491943359375;2.61999999338514;263;100 mA
3.13516299208447;0.400482177734375;0.0016046142578125;2.62999999335989;264;100 mA
3.14516299205923;0.400390625;0.001573486328125;2.63999999333464;265;100 mA
3.15516299203398;0.400543212890625;0.00162384033203125;2.64999999330939;266;100 mA
3.16516299200873;0.400634765625;0.0015472412109375;2.65999999328415;267;100 mA
3.17516299198348;0.400634765625;0.00161224365234375;2.6699999932589;268;100 mA
3.18516299195824;0.400543212890625;0.00156951904296875;2.67999999323365;269;100 mA
3.19516299193299;0.400665283203125;0.00156951904296875;2.6899999932084;270;100 mA
3.20516299190774;0.400634765625;0.0016668701171875;2.69999999318316;271;100 mA
3.21516299188249;0.4005126953125;0.0015484619140625;2.70999999315791;272;100 mA
3.22516299185725;0.400543212890625;0.00160675048828125;2.71999999313266;273;100 mA
3.235162991832;0.40045166015625;0.00149169921875;2.72999999310741;274;100 mA
3.24516299180675;0.400543212890625;0.0015655517578125;2.73999999308217;275;100 mA
3.2551629917815;0.400421142578125;0.00154571533203125;2.74999999305692;276;100 mA
3.26516299175626;0.40045166015625;0.0015374755859375;2.75999999303167;277;100 mA
3.27516299173101;0.400665283203125;0.0015826416015625;2.76999999300642;278;100 mA
3.28516299170576;0.400634765625;0.0015008544921875;2.77999999298117;279;100 mA
3.29516299168051;0.400634765625;0.0015869140625;2.78999999295593;280;100 mA
3.30516299165527;0.400665283203125;0.001533203125;2.79999999293068;281;100 mA
3.31516299163002;0.400665283203125;0.00155792236328125;2.80999999290543;282;100 mA
3.32516299160477;0.400543212890625;0.001611328125;2.81999999288018;283;100 mA
3.33516299157952;0.400482177734375;0.0014849853515625;2.82999999285494;284;100 mA
3.34516299155428;0.400604248046875;0.00160369873046875;2.83999999282969;285;100 mA
3.35516299152903;0.4005126953125;0.0014862060546875;2.84999999280444;286;100 mA
3.36516299150378;0.4005126953125;0.0015582275390625;2.85999999277919;287;100 mA
3.37516299147853;0.4005126953125;0.00152740478515625;2.86999999275395;288;100 mA
3.38516299145329;0.400726318359375;0.00152252197265625;2.8799999927287;289;100 mA
3.39516299142804;0.40069580078125;0.00160186767578125;2.88999999270345;290;100 mA
3.40516299140279;0.400604248046875;0.00147216796875;2.8999999926782;291;100 mA
3.41516299137754;0.400604248046875;0.0016070556640625;2.90999999265296;292;100 mA
3.42516299135229;0.400604248046875;0.0015374755859375;2.91999999262771;293;100 mA
3.43516299132705;0.40057373046875;0.00151336669921875;2.92999999260246;294;100 mA
3.4451629913018;0.4005126953125;0.001549072265625;2.93999999257721;295;100 mA
3.45516299127655;0.4005126953125;0.00149017333984375;2.94999999255197;296;100 mA
3.4651629912513;0.40057373046875;0.00160003662109375;2.95999999252672;297;100 mA
3.47516299122606;0.4005126953125;0.0014923095703125;2.96999999250147;298;100 mA
3.48516299120081;0.400634765625;0.00157928466796875;2.97999999247622;299;100 mA
3.49516299117556;0.400604248046875;0.00155670166015625;2.98999999245098;300;100 mA
3.50516299115031;0.40057373046875;0.00154205322265625;2.99999999242573;301;100 mA
3.51516299112507;0.400543212890625;0.0016107177734375;3.00999999240048;302;100 mA
3.52516299109982;0.400482177734375;0.0015362548828125;3.01999999237523;303;100 mA
3.53516299107457;0.40057373046875;0.0016424560546875;3.02999999234999;304;100 mA
3.54516299104932;0.400543212890625;0.0015380859375;3.03999999232474;305;100 mA
3.55516299102408;0.400543212890625;0.001531982421875;3.04999999229949;306;100 mA
3.56516299099883;0.400604248046875;0.00157958984375;3.05999999227424;307;100 mA
3.57516299097358;0.40069580078125;0.001497802734375;3.069999992249;308;100 mA
3.58516299094833;0.400634765625;0.00161041259765625;3.07999999222375;309;100 mA
3.59516299092309;0.400543212890625;0.00152435302734375;3.0899999921985;310;100 mA
3.60516299089784;0.40069580078125;0.001590576171875;3.09999999217325;311;100 mA
3.61516299087259;0.400604248046875;0.0015960693359375;3.109999992148;312;100 mA
3.62516299084734;0.400421142578125;0.00156219482421875;3.11999999212276;313;100 mA
3.6351629908221;0.400421142578125;0.00166290283203125;3.12999999209751;314;100 mA
3.64516299079685;0.400482177734375;0.00153533935546875;3.13999999207226;315;100 mA
3.6551629907716;0.400604248046875;0.00159942626953125;3.14999999204701;316;100 mA
3.66516299074635;0.400543212890625;0.001556396484375;3.15999999202177;317;100 mA
3.67516299072111;0.400604248046875;0.00155548095703125;3.16999999199652;318;100 mA
3.68516299069586;0.400665283203125;0.00159637451171875;3.17999999197127;319;100 mA
3.69516299067061;0.400604248046875;0.00153717041015625;3.18999999194602;320;100 mA
3.70516299064536;0.400543212890625;0.00164703369140625;3.19999999192078;321;100 mA
3.71516299062012;0.400421142578125;0.0015582275390625;3.20999999189553;322;100 mA
3.72516299059487;0.40057373046875;0.00161468505859375;3.21999999187028;323;100 mA
3.73516299056962;0.400543212890625;0.00164886474609375;3.22999999184503;324;100 mA
3.74516299054437;0.400390625;0.00162445068359375;3.23999999181979;325;100 mA
3.75516299051912;0.40057373046875;0.00165679931640625;3.24999999179454;326;100 mA
3.76516299049388;0.400604248046875;0.00157928466796875;3.25999999176929;327;100 mA
3.77516299046863;0.400665283203125;0.0016265869140625;3.26999999174404;328;100 mA
3.78516299044338;0.40057373046875;0.0015869140625;3.2799999917188;329;100 mA
3.79516299041813;0.400665283203125;0.0016033935546875;3.28999999169355;330;100 mA
3.80516299039289;0.400665283203125;0.001636962890625;3.2999999916683;331;100 mA
3.81516299036764;0.400543212890625;0.0015728759765625;3.30999999164305;332;100 mA
3.82516299034239;0.400482177734375;0.00166778564453125;3.31999999161781;333;100 mA
3.83516299031714;0.400543212890625;0.00158294677734375;3.32999999159256;334;100 mA
3.8451629902919;0.400482177734375;0.00163482666015625;3.33999999156731;335;100 mA
3.85516299026665;0.400421142578125;0.00162994384765625;3.34999999154206;336;100 mA
3.8651629902414;0.4005126953125;0.001602783203125;3.35999999151682;337;100 mA
3.87516299021615;0.400634765625;0.00164764404296875;3.36999999149157;338;100 mA
3.88516299019091;0.400634765625;0.00157470703125;3.37999999146632;339;100 mA
3.89516299016566;0.400634765625;0.00163818359375;3.38999999144107;340;100 mA
3.90516299014041;0.400604248046875;0.00158477783203125;3.39999999141583;341;100 mA
3.91516299011516;0.40069580078125;0.00162445068359375;3.40999999139058;342;100 mA
3.92516299008992;0.400482177734375;0.00164306640625;3.41999999136533;343;100 mA
3.93516299006467;0.400390625;0.0015850830078125;3.42999999134008;344;100 mA
3.94516299003942;0.40057373046875;0.00169158935546875;3.43999999131483;345;100 mA
3.95516299001417;0.400543212890625;0.0015606689453125;3.44999999128959;346;100 mA
3.96516298998893;0.400421142578125;0.00163665771484375;3.45999999126434;347;100 mA
3.97516298996368;0.400543212890625;0.00160797119140625;3.46999999123909;348;100 mA
3.98516298993843;0.400665283203125;0.0016021728515625;3.47999999121384;349;100 mA
3.99516298991318;0.400665283203125;0.00166717529296875;3.4899999911886;350;100 mA
4.00516298988794;0.40057373046875;0.00153564453125;3.49999999116335;351;100 mA
4.01516298986269;0.400634765625;0.00164154052734375;3.5099999911381;352;100 mA
4.02516298983744;0.40057373046875;0.0015655517578125;3.51999999111285;353;100 mA
4.03516298981219;0.400604248046875;0.00158172607421875;3.52999999108761;354;100 mA
4.04516298978695;0.4005126953125;0.00163848876953125;3.53999999106236;355;100 mA
4.0551629897617;0.40057373046875;0.001533203125;3.54999999103711;356;100 mA
4.06516298973645;0.400634765625;0.00163482666015625;3.55999999101186;357;100 mA
4.0751629897112;0.400543212890625;0.00152587890625;3.56999999098662;358;100 mA
4.08516298968595;0.400604248046875;0.00160247802734375;3.57999999096137;359;100 mA
4.09516298966071;0.400543212890625;0.00158782958984375;3.58999999093612;360;100 mA
4.10516298963546;0.400604248046875;0.0015631103515625;3.59999999091087;361;100 mA
4.11516298961021;0.400604248046875;0.001649169921875;3.60999999088563;362;100 mA
4.12516298958496;0.400482177734375;0.00150634765625;3.61999999086038;363;100 mA
4.13516298955972;0.40069580078125;0.00161163330078125;3.62999999083513;364;100 mA
4.14516298953447;0.400543212890625;0.00155426025390625;3.63999999080988;365;100 mA
4.15516298950922;0.40057373046875;0.0015576171875;3.64999999078464;366;100 mA
4.16516298948397;0.40057373046875;0.001624755859375;3.65999999075939;367;100 mA
4.17516298945873;0.40069580078125;0.001513671875;3.66999999073414;368;100 mA
4.18516298943348;0.400604248046875;0.00164276123046875;3.67999999070889;369;100 mA
4.19516298940823;0.400543212890625;0.0015435791015625;3.68999999068365;370;100 mA
4.20516298938298;0.400665283203125;0.00160552978515625;3.6999999906584;371;100 mA
4.21516298935774;0.40057373046875;0.0016046142578125;3.70999999063315;372;100 mA
4.22516298933249;0.400482177734375;0.0015484619140625;3.7199999906079;373;100 mA
4.23516298930724;0.400421142578125;0.001630859375;3.72999999058266;374;100 mA
4.24516298928199;0.400482177734375;0.00153350830078125;3.73999999055741;375;100 mA
4.25516298925675;0.40069580078125;0.00161346435546875;3.74999999053216;376;100 mA
4.2651629892315;0.4005126953125;0.00157623291015625;3.75999999050691;377;100 mA
4.27516298920625;0.40057373046875;0.00155731201171875;3.76999999048167;378;100 mA
4.285162989181;0.40069580078125;0.00158782958984375;3.77999999045642;379;100 mA
4.29516298915576;0.40069580078125;0.001522216796875;3.78999999043117;380;100 mA
4.30516298913051;0.400543212890625;0.00161376953125;3.79999999040592;381;100 mA
4.31516298910526;0.400482177734375;0.001527099609375;3.80999999038067;382;100 mA
4.32516298908001;0.400543212890625;0.0015777587890625;3.81999999035543;383;100 mA
4.33516298905477;0.4005126953125;0.0016021728515625;3.82999999033018;384;100 mA
4.34516298902952;0.400390625;0.001563720703125;3.83999999030493;385;100 mA
4.35516298900427;0.4005126953125;0.00168243408203125;3.84999999027968;386;100 mA
4.36516298897902;0.400634765625;0.00147369384765625;3.85999999025444;387;100 mA
4.37516298895378;0.400604248046875;0.00157012939453125;3.86999999022919;388;100 mA
4.38516298892853;0.400604248046875;0.0015234375;3.87999999020394;389;100 mA
4.39516298890328;0.40069580078125;0.0015478515625;3.88999999017869;390;100 mA
4.40516298887803;0.40069580078125;0.00156829833984375;3.89999999015345;391;100 mA
4.41516298885279;0.400543212890625;0.0015142822265625;3.9099999901282;392;100 mA
4.42516298882754;0.4005126953125;0.00160430908203125;3.91999999010295;393;100 mA
4.43516298880229;0.400390625;0.00156768798828125;3.9299999900777;394;100 mA
4.44516298877704;0.400482177734375;0.00164306640625;3.93999999005246;395;100 mA
4.45516298875179;0.400390625;0.001610107421875;3.94999999002721;396;100 mA
4.46516298872655;0.400482177734375;0.00155853271484375;3.95999999000196;397;100 mA
4.4751629887013;0.400665283203125;0.00156707763671875;3.96999998997671;398;100 mA
4.48516298867605;0.400665283203125;0.0014862060546875;3.97999998995147;399;100 mA
4.4951629886508;0.400665283203125;0.00156768798828125;3.98999998992622;400;100 mA
4.50516298862556;0.40057373046875;0.0015087890625;3.99999998990097;401;100 mA
4.51516298860031;0.400665283203125;0.00154205322265625;4.00999998987572;402;100 mA
4.52516298857506;0.400543212890625;0.00156219482421875;4.01999998985048;403;100 mA
4.53516298854981;0.400421142578125;0.0014697265625;4.02999998982523;404;100 mA
4.54516298852457;0.400543212890625;0.0016314697265625;4.03999998979998;405;100 mA
4.55516298849932;0.400482177734375;0.00146514892578125;4.04999998977473;406;100 mA
4.56516298847407;0.4005126953125;0.0015478515625;4.05999998974949;407;100 mA
4.57516298844882;0.400482177734375;0.0015106201171875;4.06999998972424;408;100 mA
4.58516298842358;0.400604248046875;0.0015081787109375;4.07999998969899;409;100 mA
4.59516298839833;0.400634765625;0.0015777587890625;4.08999998967374;410;100 mA
4.60516298837308;0.40057373046875;0.00148193359375;4.0999999896485;411;100 mA
4.61516298834783;0.400634765625;0.001573486328125;4.10999998962325;412;100 mA
4.62516298832259;0.40069580078125;0.00152862548828125;4.119999989598;413;100 mA
4.63516298829734;0.40057373046875;0.00153778076171875;4.12999998957275;414;100 mA
4.64516298827209;0.4005126953125;0.0016131591796875;4.1399999895475;415;100 mA
4.65516298824684;0.400543212890625;0.0014398193359375;4.14999998952226;416;100 mA
4.6651629882216;0.400543212890625;0.00156036376953125;4.15999998949701;417;100 mA
4.67516298819635;0.400543212890625;0.00146514892578125;4.16999998947176;418;100 mA
4.6851629881711;0.40057373046875;0.00155731201171875;4.17999998944651;419;100 mA
4.69516298814585;0.400634765625;0.00154693603515625;4.18999998942127;420;100 mA
4.70516298812061;0.400604248046875;0.0015155029296875;4.19999998939602;421;100 mA
4.71516298809536;0.40057373046875;0.00161651611328125;4.20999998937077;422;100 mA
4.72516298807011;0.400543212890625;0.00152984619140625;4.21999998934552;423;100 mA
4.73516298804486;0.400634765625;0.00161529541015625;4.22999998932028;424;100 mA
4.74516298801962;0.400543212890625;0.001534423828125;4.23999998929503;425;100 mA
4.75516298799437;0.400543212890625;0.00150238037109375;4.24999998926978;426;100 mA
4.76516298796912;0.4005126953125;0.00154144287109375;4.25999998924453;427;100 mA
4.77516298794387;0.40057373046875;0.0014837646484375;4.26999998921929;428;100 mA
4.78516298791862;0.400665283203125;0.0015875244140625;4.27999998919404;429;100 mA
4.79516298789338;0.4005126953125;0.0014971923828125;4.28999998916879;430;100 mA
4.80516298786813;0.400665283203125;0.001566162109375;4.29999998914354;431;100 mA
4.81516298784288;0.400634765625;0.0015716552734375;4.3099999891183;432;100 mA
4.82516298781763;0.4005126953125;0.00153106689453125;4.31999998909305;433;100 mA
4.83516298779239;0.40045166015625;0.001673583984375;4.3299999890678;434;100 mA
4.84516298776714;0.400482177734375;0.00150909423828125;4.33999998904255;435;100 mA
4.85516298774189;0.400665283203125;0.00155487060546875;4.34999998901731;436;100 mA
4.86516298771664;0.400543212890625;0.001512451171875;4.35999998899206;437;100 mA
4.8751629876914;0.400604248046875;0.0015185546875;4.36999998896681;438;100 mA
4.88516298766615;0.400634765625;0.001558837890625;4.37999998894156;439;100 mA
4.8951629876409;0.400665283203125;0.00151153564453125;4.38999998891632;440;100 mA
4.90516298761565;0.400634765625;0.00159576416015625;4.39999998889107;441;100 mA
4.91516298759041;0.40045166015625;0.0015216064453125;4.40999998886582;442;100 mA
4.92516298756516;0.400604248046875;0.00158599853515625;4.41999998884057;443;100 mA
4.93516298753991;0.400543212890625;0.0016571044921875;4.42999998881533;444;100 mA
4.94516298751466;0.400421142578125;0.00157257080078125;4.43999998879008;445;100 mA
4.95516298748942;0.40045166015625;0.001612548828125;4.44999998876483;446;100 mA
4.96516298746417;0.400543212890625;0.0014422607421875;4.45999998873958;447;100 mA
4.97516298743892;0.40069580078125;0.001544189453125;4.46999998871433;448;100 mA
4.98516298741367;0.400543212890625;0.001497802734375;4.47999998868909;449;100 mA
4.99516298738843;0.400665283203125;0.00152587890625;4.48999998866384;450;100 mA
5.00516298736318;0.400634765625;0.00154571533203125;4.49999998863859;451;100 mA
5.01516298733793;0.400543212890625;0.00148834228515625;4.50999998861334;452;100 mA
5.02516298731268;0.4005126953125;0.00159759521484375;4.5199999885881;453;100 mA
5.03516298728744;0.400421142578125;0.00154144287109375;4.52999998856285;454;100 mA
5.04516298726219;0.40045166015625;0.00157623291015625;4.5399999885376;455;100 mA
5.05516298723694;0.400482177734375;0.0015899658203125;4.54999998851235;456;100 mA
5.06516298721169;0.400390625;0.001495361328125;4.55999998848711;457;100 mA
5.07516298718645;0.400634765625;0.001553955078125;4.56999998846186;458;100 mA
5.0851629871612;0.400604248046875;0.00147918701171875;4.57999998843661;459;100 mA
5.09516298713595;0.400634765625;0.00156341552734375;4.58999998841136;460;100 mA
5.1051629871107;0.400604248046875;0.00152587890625;4.59999998838612;461;100 mA
5.11516298708545;0.400665283203125;0.0015277099609375;4.60999998836087;462;100 mA
5.12516298706021;0.400665283203125;0.001610107421875;4.61999998833562;463;100 mA
5.13516298703496;0.400390625;0.0015460205078125;4.62999998831037;464;100 mA
5.14516298700971;0.400543212890625;0.00165618896484375;4.63999998828513;465;100 mA
5.15516298698446;0.4005126953125;0.00147003173828125;4.64999998825988;466;100 mA
5.16516298695922;0.40045166015625;0.00154998779296875;4.65999998823463;467;100 mA
5.17516298693397;0.40045166015625;0.00152587890625;4.66999998820938;468;100 mA
5.18516298690872;0.400604248046875;0.00152801513671875;4.67999998818414;469;100 mA
5.19516298688347;0.40069580078125;0.00158599853515625;4.68999998815889;470;100 mA
5.20516298685823;0.400543212890625;0.0014984130859375;4.69999998813364;471;100 mA
5.21516298683298;0.400665283203125;0.00156707763671875;4.70999998810839;472;100 mA
5.22516298680773;0.40069580078125;0.00150726318359375;4.71999998808315;473;100 mA
5.23516298678248;0.40057373046875;0.00153717041015625;4.7299999880579;474;100 mA
5.24516298675724;0.4005126953125;0.0016064453125;4.73999998803265;475;100 mA
5.25516298673199;0.400421142578125;0.0014910888671875;4.7499999880074;476;100 mA
5.26516298670674;0.400604248046875;0.0016229248046875;4.75999998798216;477;100 mA
5.27516298668149;0.400543212890625;0.00149078369140625;4.76999998795691;478;100 mA
5.28516298665625;0.4005126953125;0.0015863037109375;4.77999998793166;479;100 mA
5.295162986631;0.400604248046875;0.00155364990234375;4.78999998790641;480;100 mA
5.30516298660575;0.400634765625;0.001534423828125;4.79999998788116;481;100 mA
5.3151629865805;0.400604248046875;0.001617431640625;4.80999998785592;482;100 mA
5.32516298655526;0.400482177734375;0.00148681640625;4.81999998783067;483;100 mA
5.33516298653001;0.400634765625;0.0015753173828125;4.82999998780542;484;100 mA
5.34516298650476;0.400604248046875;0.001492919921875;4.83999998778017;485;100 mA
5.35516298647951;0.40057373046875;0.00150634765625;4.84999998775493;486;100 mA
5.36516298645427;0.400482177734375;0.0015533447265625;4.85999998772968;487;100 mA
5.37516298642902;0.400665283203125;0.00148040771484375;4.86999998770443;488;100 mA
5.38516298640377;0.400604248046875;0.00161590576171875;4.87999998767918;489;100 mA
5.39516298637852;0.400543212890625;0.001524658203125;4.88999998765394;490;100 mA
5.40516298635328;0.400634765625;0.0015740966796875;4.89999998762869;491;100 mA
5.41516298632803;0.400634765625;0.0016021728515625;4.90999998760344;492;100 mA
5.42516298630278;0.400665283203125;0.00152679443359375;4.91999998757819;493;100 mA
5.43516298627753;0.400482177734375;0.0016064453125;4.92999998755295;494;100 mA
5.44516298625229;0.400482177734375;0.0015155029296875;4.9399999875277;495;100 mA
5.45516298622704;0.400634765625;0.0015924072265625;4.94999998750245;496;100 mA
5.46516298620179;0.400482177734375;0.00154632568359375;4.9599999874772;497;100 mA
5.47516298617654;0.400543212890625;0.0015460205078125;4.96999998745196;498;100 mA
5.48516298615129;0.40057373046875;0.0015814208984375;4.97999998742671;499;100 mA
5.49516298612605;0.400634765625;0.00153594970703125;4.98999998740146;500;100 mA
5.5051629861008;0.400604248046875;0.0016143798828125;4.99999998737621;501;100 mA
5.51516298607555;0.400421142578125;0.00155303955078125;5.00999998735097;502;100 mA
5.5251629860503;0.40057373046875;0.0015936279296875;5.01999998732572;503;100 mA
5.53516298602506;0.40057373046875;0.00160614013671875;5.02999998730047;504;100 mA
5.54516298599981;0.400482177734375;0.00155364990234375;5.03999998727522;505;100 mA
5.55516298597456;0.400482177734375;0.00158203125;5.04999998724998;506;100 mA
5.56516298594931;0.400543212890625;0.00150238037109375;5.05999998722473;507;100 mA
5.57516298592407;0.400726318359375;0.00159332275390625;5.06999998719948;508;100 mA
5.58516298589882;0.400543212890625;0.00154327392578125;5.07999998717423;509;100 mA
5.59516298587357;0.400634765625;0.00155670166015625;5.08999998714899;510;100 mA
5.60516298584832;0.400665283203125;0.00163482666015625;5.09999998712374;511;100 mA
5.61516298582308;0.40057373046875;0.00153656005859375;5.10999998709849;512;100 mA
5.62516298579783;0.400482177734375;0.00163726806640625;5.11999998707324;513;100 mA
5.63516298577258;0.400421142578125;0.0015167236328125;5.129999987048;514;100 mA
5.64516298574733;0.4005126953125;0.001610107421875;5.13999998702275;515;100 mA
5.65516298572209;0.400482177734375;0.00157012939453125;5.1499999869975;516;100 mA
5.66516298569684;0.400390625;0.00157257080078125;5.15999998697225;517;100 mA
5.67516298567159;0.400604248046875;0.00160736083984375;5.169999986947;518;100 mA
5.68516298564634;0.400634765625;0.0015155029296875;5.17999998692176;519;100 mA
5.6951629856211;0.400634765625;0.001593017578125;5.18999998689651;520;100 mA
5.70516298559585;0.400665283203125;0.0015313720703125;5.19999998687126;521;100 mA
5.7151629855706;0.4007568359375;0.00156585693359375;5.20999998684601;522;100 mA
5.72516298554535;0.400634765625;0.0016253662109375;5.21999998682077;523;100 mA
5.73516298552011;0.40045166015625;0.00150665283203125;5.22999998679552;524;100 mA
5.74516298549486;0.400482177734375;0.00158233642578125;5.23999998677027;525;100 mA
5.75516298546961;0.400482177734375;0.0014923095703125;5.24999998674502;526;100 mA
5.76516298544436;0.400482177734375;0.00157379150390625;5.25999998671978;527;100 mA
5.77516298541912;0.40045166015625;0.00154052734375;5.26999998669453;528;100 mA
5.78516298539387;0.400604248046875;0.001527099609375;5.27999998666928;529;100 mA
5.79516298536862;0.400726318359375;0.00162200927734375;5.28999998664403;530;100 mA
5.80516298534337;0.400634765625;0.00147308349609375;5.29999998661879;531;100 mA
5.81516298531812;0.400634765625;0.00160858154296875;5.30999998659354;532;100 mA
5.82516298529288;0.400634765625;0.00155242919921875;5.31999998656829;533;100 mA
5.83516298526763;0.40057373046875;0.001510009765625;5.32999998654304;534;100 mA
5.84516298524238;0.400482177734375;0.00154510498046875;5.3399999865178;535;100 mA
5.85516298521713;0.400482177734375;0.00148193359375;5.34999998649255;536;100 mA
5.86516298519189;0.400604248046875;0.00159088134765625;5.3599999864673;537;100 mA
5.87516298516664;0.4005126953125;0.001497802734375;5.36999998644205;538;100 mA
5.88516298514139;0.400482177734375;0.001573486328125;5.37999998641681;539;100 mA
5.89516298511614;0.40057373046875;0.00158111572265625;5.38999998639156;540;100 mA
5.9051629850909;0.400665283203125;0.0015472412109375;5.39999998636631;541;100 mA
5.91516298506565;0.400665283203125;0.00168212890625;5.40999998634106;542;100 mA
5.9251629850404;0.400543212890625;0.0014794921875;5.41999998631582;543;100 mA
5.93516298501515;0.400634765625;0.00158935546875;5.42999998629057;544;100 mA
5.94516298498991;0.40057373046875;0.00151702880859375;5.43999998626532;545;100 mA
5.95516298496466;0.400543212890625;0.00153472900390625;5.44999998624007;546;100 mA
5.96516298493941;0.400421142578125;0.00157318115234375;5.45999998621483;547;100 mA
5.97516298491416;0.400482177734375;0.00150604248046875;5.46999998618958;548;100 mA
5.98516298488892;0.400604248046875;0.00160675048828125;5.47999998616433;549;100 mA
5.99516298486367;0.400543212890625;0.00152069091796875;5.48999998613908;550;100 mA
6.00516298483842;0.40057373046875;0.0015838623046875;5.49999998611383;551;100 mA
6.01516298481317;0.40057373046875;0.00158721923828125;5.50999998608859;552;100 mA
6.02516298478793;0.400604248046875;0.00155426025390625;5.51999998606334;553;100 mA
6.03516298476268;0.400604248046875;0.00162872314453125;5.52999998603809;554;100 mA
6.04516298473743;0.4005126953125;0.0014752197265625;5.53999998601284;555;100 mA
6.05516298471218;0.400604248046875;0.001561279296875;5.5499999859876;556;100 mA
6.06516298468694;0.400543212890625;0.00151123046875;5.55999998596235;557;100 mA
6.07516298466169;0.4005126953125;0.00153350830078125;5.5699999859371;558;100 mA
6.08516298463644;0.400482177734375;0.00155548095703125;5.57999998591185;559;100 mA
6.09516298461119;0.40069580078125;0.0014990234375;5.58999998588661;560;100 mA
6.10516298458595;0.400634765625;0.0015753173828125;5.59999998586136;561;100 mA
6.1151629845607;0.4005126953125;0.0015093994140625;5.60999998583611;562;100 mA
6.12516298453545;0.400634765625;0.00155914306640625;5.61999998581086;563;100 mA
6.1351629845102;0.40057373046875;0.00157318115234375;5.62999998578562;564;100 mA
6.14516298448495;0.400482177734375;0.00148895263671875;5.63999998576037;565;100 mA
6.15516298445971;0.400482177734375;0.00153533935546875;5.64999998573512;566;100 mA
6.16516298443446;0.400543212890625;0.00147003173828125;5.65999998570987;567;100 mA
6.17516298440921;0.40069580078125;0.00153961181640625;5.66999998568463;568;100 mA
6.18516298438396;0.4005126953125;0.00148681640625;5.67999998565938;569;100 mA
6.19516298435872;0.400634765625;0.00149932861328125;5.68999998563413;570;100 mA
6.20516298433347;0.400634765625;0.00150848388671875;5.69999998560888;571;100 mA
6.21516298430822;0.400726318359375;0.00146820068359375;5.70999998558364;572;100 mA
6.22516298428297;0.400543212890625;0.00158233642578125;5.71999998555839;573;100 mA
6.23516298425773;0.400482177734375;0.00144439697265625;5.72999998553314;574;100 mA
6.24516298423248;0.40057373046875;0.00153106689453125;5.73999998550789;575;100 mA
6.25516298420723;0.4005126953125;0.00151519775390625;5.74999998548265;576;100 mA
6.26516298418198;0.400421142578125;0.001505126953125;5.7599999854574;577;100 mA
6.27516298415674;0.400543212890625;0.0015496826171875;5.76999998543215;578;100 mA
6.28516298413149;0.400634765625;0.00146240234375;5.7799999854069;579;100 mA
6.29516298410624;0.40069580078125;0.00154541015625;5.78999998538166;580;100 mA
6.30516298408099;0.40057373046875;0.0015789794921875;5.79999998535641;581;100 mA
6.31516298405575;0.4007568359375;0.0015521240234375;5.80999998533116;582;100 mA
6.3251629840305;0.40069580078125;0.00159271240234375;5.81999998530591;583;100 mA
6.33516298400525;0.4005126953125;0.0014581298828125;5.82999998528066;584;100 mA
6.34516298398;0.4005126953125;0.001544189453125;5.83999998525542;585;100 mA
6.35516298395476;0.40045166015625;0.0014337158203125;5.84999998523017;586;100 mA
6.36516298392951;0.400482177734375;0.00152557373046875;5.85999998520492;587;100 mA
6.37516298390426;0.400421142578125;0.001497802734375;5.86999998517967;588;100 mA
6.38516298387901;0.400482177734375;0.00148193359375;5.87999998515443;589;100 mA
6.39516298385377;0.400665283203125;0.0015631103515625;5.88999998512918;590;100 mA
6.40516298382852;0.400634765625;0.00144927978515625;5.89999998510393;591;100 mA
6.41516298380327;0.400634765625;0.00154327392578125;5.90999998507868;592;100 mA
6.42516298377802;0.400665283203125;0.00154022216796875;5.91999998505344;593;100 mA
6.43516298375278;0.400787353515625;0.0015606689453125;5.92999998502819;594;100 mA
6.44516298372753;0.400604248046875;0.00157684326171875;5.93999998500294;595;100 mA
6.45516298370228;0.40045166015625;0.00142913818359375;5.94999998497769;596;100 mA
6.46516298367703;0.400543212890625;0.00154327392578125;5.95999998495245;597;100 mA
6.47516298365178;0.4005126953125;0.00145538330078125;5.9699999849272;598;100 mA
6.48516298362654;0.40045166015625;0.0015289306640625;5.97999998490195;599;100 mA
6.49516298360129;0.400421142578125;0.0015167236328125;5.9899999848767;600;100 mA
6.50516298357604;0.40057373046875;0.00148773193359375;5.99999998485146;601;100 mA
6.51516298355079;0.40069580078125;0.00162017822265625;6.00999998482621;602;100 mA
6.52516298352555;0.400604248046875;0.00144378662109375;6.01999998480096;603;100 mA
6.5351629835003;0.400634765625;0.00154083251953125;6.02999998477571;604;100 mA
6.54516298347505;0.400634765625;0.00148773193359375;6.03999998475047;605;100 mA
6.5551629834498;0.400604248046875;0.00147918701171875;6.04999998472522;606;100 mA
6.56516298342456;0.400482177734375;0.0015179443359375;6.05999998469997;607;100 mA
6.57516298339931;0.400421142578125;0.00145751953125;6.06999998467472;608;100 mA
6.58516298337406;0.40057373046875;0.0015533447265625;6.07999998464948;609;100 mA
6.59516298334881;0.400543212890625;0.00147186279296875;6.08999998462423;610;100 mA
6.60516298332357;0.4005126953125;0.00152587890625;6.09999998459898;611;100 mA
6.61516298329832;0.40057373046875;0.0015289306640625;6.10999998457373;612;100 mA
6.62516298327307;0.400665283203125;0.001558837890625;6.11999998454849;613;100 mA
6.63516298324782;0.400665283203125;0.00162078857421875;6.12999998452324;614;100 mA
6.64516298322258;0.400543212890625;0.00145355224609375;6.13999998449799;615;100 mA
6.65516298319733;0.400634765625;0.0015008544921875;6.14999998447274;616;100 mA
6.66516298317208;0.400543212890625;0.00146026611328125;6.1599999844475;617;100 mA
6.67516298314683;0.4005126953125;0.00147247314453125;6.16999998442225;618;100 mA
6.68516298312159;0.40045166015625;0.00149139404296875;6.179999984397;619;100 mA
6.69516298309634;0.40057373046875;0.00144134521484375;6.18999998437175;620;100 mA
6.70516298307109;0.400634765625;0.0015472412109375;6.1999999843465;621;100 mA
6.71516298304584;0.400482177734375;0.001461181640625;6.20999998432126;622;100 mA
6.7251629830206;0.400543212890625;0.0015185546875;6.21999998429601;623;100 mA
6.73516298299535;0.400634765625;0.00156707763671875;6.22999998427076;624;100 mA
6.7451629829701;0.400604248046875;0.0014910888671875;6.23999998424551;625;100 mA
6.75516298294485;0.4005126953125;0.00151519775390625;6.24999998422027;626;100 mA
6.76516298291961;0.4005126953125;0.001414794921875;6.25999998419502;627;100 mA
6.77516298289436;0.40069580078125;0.00149200439453125;6.26999998416977;628;100 mA
6.78516298286911;0.4005126953125;0.00142303466796875;6.27999998414452;629;100 mA
6.79516298284386;0.400543212890625;0.0014544677734375;6.28999998411928;630;100 mA
6.80516298281862;0.40057373046875;0.00148284912109375;6.29999998409403;631;100 mA
6.81516298279337;0.400726318359375;0.00142181396484375;6.30999998406878;632;100 mA
6.82516298276812;0.400543212890625;0.00151824951171875;6.31999998404353;633;100 mA
6.83516298274287;0.40045166015625;0.00145660400390625;6.32999998401829;634;100 mA
6.84516298271762;0.400665283203125;0.00152801513671875;6.33999998399304;635;100 mA
6.85516298269238;0.40057373046875;0.0015020751953125;6.34999998396779;636;100 mA
6.86516298266713;0.400360107421875;0.00144805908203125;6.35999998394254;637;100 mA
6.87516298264188;0.4005126953125;0.00149871826171875;6.3699999839173;638;100 mA
6.88516298261663;0.400543212890625;0.00141326904296875;6.37999998389205;639;100 mA
6.89516298259139;0.400634765625;0.001513671875;6.3899999838668;640;100 mA
6.90516298256614;0.400482177734375;0.00143585205078125;6.39999998384155;641;100 mA
6.91516298254089;0.400634765625;0.0014739990234375;6.40999998381631;642;100 mA
6.92516298251564;0.400634765625;0.0015130615234375;6.41999998379106;643;100 mA
6.9351629824904;0.400604248046875;0.00141845703125;6.42999998376581;644;100 mA
6.94516298246515;0.4005126953125;0.001591796875;6.43999998374056;645;100 mA
6.9551629824399;0.400421142578125;0.001463623046875;6.44999998371532;646;100 mA
6.96516298241465;0.4005126953125;0.00150665283203125;6.45999998369007;647;100 mA
6.97516298238941;0.400543212890625;0.0014971923828125;6.46999998366482;648;100 mA
6.98516298236416;0.400421142578125;0.00146514892578125;6.47999998363957;649;100 mA
6.99516298233891;0.400543212890625;0.0015411376953125;6.48999998361433;650;100 mA
7.00516298231366;0.40069580078125;0.00143585205078125;6.49999998358908;651;100 mA
7.01516298228842;0.400604248046875;0.00153594970703125;6.50999998356383;652;100 mA
7.02516298226317;0.400604248046875;0.00147369384765625;6.51999998353858;653;100 mA
7.03516298223792;0.4007568359375;0.00149261474609375;6.52999998351333;654;100 mA
7.04516298221267;0.40069580078125;0.0016009521484375;6.53999998348809;655;100 mA
7.05516298218743;0.400482177734375;0.001441650390625;6.54999998346284;656;100 mA
7.06516298216218;0.40057373046875;0.0015460205078125;6.55999998343759;657;100 mA
7.07516298213693;0.400482177734375;0.00143951416015625;6.56999998341234;658;100 mA
7.08516298211168;0.400482177734375;0.00151123046875;6.5799999833871;659;100 mA
7.09516298208644;0.400421142578125;0.001495361328125;6.58999998336185;660;100 mA
7.10516298206119;0.400543212890625;0.00146453857421875;6.5999999833366;661;100 mA
7.11516298203594;0.40069580078125;0.00154327392578125;6.60999998331135;662;100 mA
7.12516298201069;0.400634765625;0.00144683837890625;6.61999998328611;663;100 mA
7.13516298198545;0.400604248046875;0.0015301513671875;6.62999998326086;664;100 mA
7.1451629819602;0.400634765625;0.0014727783203125;6.63999998323561;665;100 mA
7.15516298193495;0.400665283203125;0.00150177001953125;6.64999998321036;666;100 mA
7.1651629819097;0.40057373046875;0.0015594482421875;6.65999998318512;667;100 mA
7.17516298188445;0.400421142578125;0.0014337158203125;6.66999998315987;668;100 mA
7.18516298185921;0.40045166015625;0.00154449462890625;6.67999998313462;669;100 mA
7.19516298183396;0.4005126953125;0.001461181640625;6.68999998310937;670;100 mA
7.20516298180871;0.400482177734375;0.00152679443359375;6.69999998308413;671;100 mA
7.21516298178346;0.4005126953125;0.0015142822265625;6.70999998305888;672;100 mA
7.22516298175822;0.400634765625;0.00149566650390625;6.71999998303363;673;100 mA
7.23516298173297;0.40069580078125;0.00156707763671875;6.72999998300838;674;100 mA
7.24516298170772;0.400634765625;0.001470947265625;6.73999998298314;675;100 mA
7.25516298168247;0.400634765625;0.001544189453125;6.74999998295789;676;100 mA
7.26516298165723;0.400665283203125;0.0014776611328125;6.75999998293264;677;100 mA
7.27516298163198;0.40057373046875;0.001451416015625;6.76999998290739;678;100 mA
7.28516298160673;0.400482177734375;0.00148468017578125;6.77999998288215;679;100 mA
7.29516298158148;0.400421142578125;0.00144561767578125;6.7899999828569;680;100 mA
7.30516298155624;0.400543212890625;0.00153106689453125;6.79999998283165;681;100 mA
7.31516298153099;0.40057373046875;0.00146728515625;6.8099999828064;682;100 mA
7.32516298150574;0.400543212890625;0.0015155029296875;6.81999998278116;683;100 mA
7.33516298148049;0.400543212890625;0.001500244140625;6.82999998275591;684;100 mA
7.34516298145525;0.40069580078125;0.00151092529296875;6.83999998273066;685;100 mA
7.35516298143;0.40057373046875;0.0015582275390625;6.84999998270541;686;100 mA
7.36516298140475;0.400543212890625;0.00144561767578125;6.85999998268016;687;100 mA
7.3751629813795;0.400665283203125;0.0015179443359375;6.86999998265492;688;100 mA
7.38516298135426;0.40057373046875;0.00146820068359375;6.87999998262967;689;100 mA
7.39516298132901;0.400482177734375;0.00145904541015625;6.88999998260442;690;100 mA
7.40516298130376;0.4005126953125;0.0014813232421875;6.89999998257917;691;100 mA
7.41516298127851;0.400604248046875;0.001456298828125;6.90999998255393;692;100 mA
7.42516298125327;0.400543212890625;0.00154510498046875;6.91999998252868;693;100 mA
7.43516298122802;0.400421142578125;0.00146575927734375;6.92999998250343;694;100 mA
7.44516298120277;0.400634765625;0.00153045654296875;6.93999998247818;695;100 mA
7.45516298117752;0.40069580078125;0.0015875244140625;6.94999998245294;696;100 mA
7.46516298115228;0.400604248046875;0.00153594970703125;6.95999998242769;697;100 mA
7.47516298112703;0.400482177734375;0.0015472412109375;6.96999998240244;698;100 mA
7.48516298110178;0.400543212890625;0.001405029296875;6.97999998237719;699;100 mA
7.49516298107653;0.40069580078125;0.00150726318359375;6.98999998235195;700;100 mA
