Time (s);WE(1).Potential (V);WE(1).Current (A);Corrected time (s);Index;Current range
7.99329397981887;0.293365478515625;0.00018310546875;0;1;100 mA
8.00329397979363;0.300537109375;5.58471679687506E-05;0.00999999997475243;2;100 mA
8.01329397976838;0.30108642578125;0.000403442382812499;0.0199999999495049;3;100 mA
8.02329397974313;0.300506591796875;0.000527038574218749;0.0299999999242573;4;100 mA
8.03329397971788;0.3004150390625;0.000667724609375001;0.0399999998990097;5;100 mA
8.04329397969263;0.30059814453125;0.00078277587890625;0.0499999998737621;6;100 mA
8.05329397966739;0.300567626953125;0.000794677734375;0.0599999998485146;7;100 mA
8.06329397964214;0.300445556640625;0.000939025878906249;0.069999999823267;8;100 mA
8.07329397961689;0.300262451171875;0.00089141845703125;0.0799999997980194;9;100 mA
8.08329397959164;0.300567626953125;0.00099517822265625;0.0899999997727718;10;100 mA
8.0932939795664;0.300537109375;0.00108245849609375;0.0999999997475243;11;100 mA
8.10329397954115;0.300445556640625;0.00109161376953125;0.109999999722277;12;100 mA
8.1132939795159;0.300506591796875;0.001123046875;0.119999999697029;13;100 mA
8.12329397949065;0.300537109375;0.00097412109375;0.129999999671782;14;100 mA
8.13329397946541;0.300811767578125;0.0011224365234375;0.139999999646534;15;100 mA
8.14329397944016;0.300445556640625;0.001068115234375;0.149999999621286;16;100 mA
8.15329397941491;0.30059814453125;0.00112762451171875;0.159999999596039;17;100 mA
8.16329397938966;0.30059814453125;0.00117034912109375;0.169999999570791;18;100 mA
8.17329397936442;0.300506591796875;0.00112457275390625;0.179999999545544;19;100 mA
8.18329397933917;0.3004150390625;0.001241455078125;0.189999999520296;20;100 mA
8.19329397931392;0.30023193359375;0.0011517333984375;0.199999999495049;21;100 mA
8.20329397928867;0.30047607421875;0.001259765625;0.209999999469801;22;100 mA
8.21329397926343;0.300384521484375;0.001234130859375;0.219999999444553;23;100 mA
8.22329397923818;0.300445556640625;0.00118072509765625;0.229999999419306;24;100 mA
8.23329397921293;0.300506591796875;0.0012713623046875;0.239999999394058;25;100 mA
8.24329397918768;0.300537109375;0.0011810302734375;0.249999999368811;26;100 mA
8.25329397916244;0.3009033203125;0.001282958984375;0.259999999343563;27;100 mA
8.26329397913719;0.300567626953125;0.0011944580078125;0.269999999318316;28;100 mA
8.27329397911194;0.300750732421875;0.0012469482421875;0.279999999293068;29;100 mA
8.28329397908669;0.300506591796875;0.001285400390625;0.28999999926782;30;100 mA
8.29329397906145;0.300140380859375;0.001217041015625;0.299999999242573;31;100 mA
8.3032939790362;0.300445556640625;0.0013470458984375;0.309999999217325;32;100 mA
8.31329397901095;0.30047607421875;0.0012335205078125;0.319999999192078;33;100 mA
8.3232939789857;0.300384521484375;0.0013067626953125;0.32999999916683;34;100 mA
8.33329397896046;0.30010986328125;0.00125518798828125;0.339999999141583;35;100 mA
8.34329397893521;0.30059814453125;0.00124542236328125;0.349999999116335;36;100 mA
8.35329397890996;0.300567626953125;0.0013201904296875;0.359999999091087;37;100 mA
8.36329397888471;0.300628662109375;0.0012066650390625;0.36999999906584;38;100 mA
8.37329397885946;0.301055908203125;0.0013421630859375;0.379999999040592;39;100 mA
8.38329397883422;0.30059814453125;0.00126007080078125;0.389999999015345;40;100 mA
8.39329397880897;0.300506591796875;0.001268310546875;0.399999998990097;41;100 mA
8.40329397878372;0.300445556640625;0.00140899658203125;0.40999999896485;42;100 mA
8.41329397875847;0.30029296875;0.001251220703125;0.419999998939602;43;100 mA
8.42329397873323;0.3004150390625;0.0013311767578125;0.429999998914354;44;100 mA
8.43329397870798;0.300537109375;0.00122528076171875;0.439999998889107;45;100 mA
8.44329397868273;0.3004150390625;0.00131256103515625;0.449999998863859;46;100 mA
8.45329397865748;0.300506591796875;0.0012884521484375;0.459999998838612;47;100 mA
8.46329397863224;0.3006591796875;0.0012420654296875;0.469999998813364;48;100 mA
8.47329397860699;0.300628662109375;0.00133148193359375;0.479999998788116;49;100 mA
8.48329397858174;0.300537109375;0.00122650146484375;0.489999998762869;50;100 mA
8.49329397855649;0.300689697265625;0.00134735107421875;0.499999998737621;51;100 mA
8.50329397853125;0.300537109375;0.00128570556640625;0.509999998712374;52;100 mA
8.513293978506;0.3004150390625;0.0012774658203125;0.519999998687126;53;100 mA
8.52329397848075;0.30029296875;0.00139251708984375;0.529999998661879;54;100 mA
8.5332939784555;0.300262451171875;0.00123992919921875;0.539999998636631;55;100 mA
8.54329397843026;0.300506591796875;0.0013677978515625;0.549999998611383;56;100 mA
8.55329397840501;0.3004150390625;0.00127655029296875;0.559999998586136;57;100 mA
8.56329397837976;0.300537109375;0.0013482666015625;0.569999998560888;58;100 mA
8.57329397835451;0.30059814453125;0.00133056640625;0.579999998535641;59;100 mA
8.58329397832927;0.3006591796875;0.001300048828125;0.589999998510393;60;100 mA
8.59329397830402;0.300537109375;0.00140625;0.599999998485146;61;100 mA
8.60329397827877;0.300537109375;0.00128631591796875;0.609999998459898;62;100 mA
8.61329397825352;0.300689697265625;0.00136962890625;0.61999999843465;63;100 mA
8.62329397822828;0.300537109375;0.00134368896484375;0.629999998409403;64;100 mA
8.63329397820303;0.300323486328125;0.001329345703125;0.639999998384155;65;100 mA
8.64329397817778;0.300445556640625;0.00137176513671875;0.649999998358908;66;100 mA
8.65329397815253;0.300384521484375;0.00131988525390625;0.65999999833366;67;100 mA
8.66329397812729;0.300506591796875;0.001416015625;0.669999998308413;68;100 mA
8.67329397810204;0.3004150390625;0.001319580078125;0.679999998283165;69;100 mA
8.68329397807679;0.300628662109375;0.0013897705078125;0.689999998257917;70;100 mA
8.69329397805154;0.300628662109375;0.0013623046875;0.69999999823267;71;100 mA
8.7032939780263;0.300567626953125;0.0013568115234375;0.709999998207422;72;100 mA
8.71329397800105;0.300537109375;0.00147308349609375;0.719999998182175;73;100 mA
8.7232939779758;0.300445556640625;0.00136138916015625;0.729999998156927;74;100 mA
8.73329397795055;0.300811767578125;0.00139678955078125;0.73999999813168;75;100 mA
8.7432939779253;0.30047607421875;0.00132781982421875;0.749999998106432;76;100 mA
8.75329397790006;0.30047607421875;0.00132232666015625;0.759999998081184;77;100 mA
8.76329397787481;0.300537109375;0.0013665771484375;0.769999998055937;78;100 mA
8.77329397784956;0.30047607421875;0.00132080078125;0.779999998030689;79;100 mA
8.78329397782431;0.30047607421875;0.00141693115234375;0.789999998005442;80;100 mA
8.79329397779907;0.3004150390625;0.001304931640625;0.799999997980194;81;100 mA
8.80329397777382;0.300506591796875;0.00140472412109375;0.809999997954947;82;100 mA
8.81329397774857;0.299957275390625;0.001409912109375;0.819999997929699;83;100 mA
8.82329397772332;0.300506591796875;0.0013677978515625;0.829999997904451;84;100 mA
8.83329397769808;0.300567626953125;0.0014154052734375;0.839999997879204;85;100 mA
8.84329397767283;0.30059814453125;0.00131195068359375;0.849999997853956;86;100 mA
8.85329397764758;0.30078125;0.00139068603515625;0.859999997828709;87;100 mA
8.86329397762233;0.300567626953125;0.0013140869140625;0.869999997803461;88;100 mA
8.87329397759709;0.300567626953125;0.0013653564453125;0.879999997778214;89;100 mA
8.88329397757184;0.300567626953125;0.0014031982421875;0.889999997752966;90;100 mA
8.89329397754659;0.30035400390625;0.00133026123046875;0.899999997727718;91;100 mA
8.90329397752134;0.300384521484375;0.001441650390625;0.909999997702471;92;100 mA
8.9132939774961;0.300445556640625;0.00131378173828125;0.919999997677223;93;100 mA
8.92329397747085;0.300506591796875;0.0014288330078125;0.929999997651976;94;100 mA
8.9332939774456;0.30010986328125;0.00144561767578125;0.939999997626728;95;100 mA
8.94329397742035;0.30047607421875;0.00136199951171875;0.949999997601481;96;100 mA
8.95329397739511;0.30059814453125;0.0014215087890625;0.959999997576233;97;100 mA
8.96329397736986;0.30059814453125;0.00128570556640625;0.969999997550985;98;100 mA
8.97329397734461;0.300628662109375;0.00142120361328125;0.979999997525738;99;100 mA
8.98329397731936;0.300506591796875;0.00133392333984375;0.98999999750049;100;100 mA
8.99329397729412;0.300628662109375;0.001357421875;0.999999997475243;101;100 mA
9.00329397726887;0.30047607421875;0.00140411376953125;1.00999999745;102;100 mA
9.01329397724362;0.300201416015625;0.00131317138671875;1.01999999742475;103;100 mA
9.02329397721837;0.3004150390625;0.00142486572265625;1.0299999973995;104;100 mA
9.03329397719313;0.300445556640625;0.00130950927734375;1.03999999737425;105;100 mA
9.04329397716788;0.300384521484375;0.00139190673828125;1.049999997349;106;100 mA
9.05329397714263;0.2998046875;0.00138946533203125;1.05999999732376;107;100 mA
9.06329397711738;0.300537109375;0.0013177490234375;1.06999999729851;108;100 mA
9.07329397709213;0.30047607421875;0.00139404296875;1.07999999727326;109;100 mA
9.08329397706689;0.3006591796875;0.00129486083984375;1.08999999724801;110;100 mA
9.09329397704164;0.300537109375;0.001392822265625;1.09999999722277;111;100 mA
9.10329397701639;0.300567626953125;0.00132843017578125;1.10999999719752;112;100 mA
9.11329397699114;0.30059814453125;0.0013385009765625;1.11999999717227;113;100 mA
9.1232939769659;0.300445556640625;0.00140716552734375;1.12999999714702;114;100 mA
9.13329397694065;0.300079345703125;0.0013568115234375;1.13999999712178;115;100 mA
9.1432939769154;0.300445556640625;0.00144927978515625;1.14999999709653;116;100 mA
9.15329397689015;0.300506591796875;0.001361083984375;1.15999999707128;117;100 mA
9.16329397686491;0.300384521484375;0.00135833740234375;1.16999999704603;118;100 mA
9.17329397683966;0.30010986328125;0.001353759765625;1.17999999702079;119;100 mA
9.18329397681441;0.30072021484375;0.00134033203125;1.18999999699554;120;100 mA
9.19329397678916;0.30035400390625;0.00140350341796875;1.19999999697029;121;100 mA
9.20329397676392;0.300567626953125;0.0013189697265625;1.20999999694504;122;100 mA
9.21329397673867;0.300628662109375;0.00140289306640625;1.2199999969198;123;100 mA
9.22329397671342;0.300537109375;0.00137298583984375;1.22999999689455;124;100 mA
9.23329397668817;0.3004150390625;0.00136077880859375;1.2399999968693;125;100 mA
9.24329397666293;0.300384521484375;0.001400146484375;1.24999999684405;126;100 mA
9.25329397663768;0.300262451171875;0.001318359375;1.25999999681881;127;100 mA
9.26329397661243;0.30047607421875;0.00142059326171875;1.26999999679356;128;100 mA
9.27329397658718;0.300537109375;0.00132659912109375;1.27999999676831;129;100 mA
9.28329397656194;0.300506591796875;0.00140777587890625;1.28999999674306;130;100 mA
9.29329397653669;0.299957275390625;0.0013739013671875;1.29999999671782;131;100 mA
9.30329397651144;0.3006591796875;0.001368408203125;1.30999999669257;132;100 mA
9.31329397648619;0.300537109375;0.00143463134765625;1.31999999666732;133;100 mA
9.32329397646095;0.300506591796875;0.00131988525390625;1.32999999664207;134;100 mA
9.3332939764357;0.300567626953125;0.00145538330078125;1.33999999661683;135;100 mA
9.34329397641045;0.300537109375;0.00138702392578125;1.34999999659158;136;100 mA
9.3532939763852;0.300384521484375;0.0013983154296875;1.35999999656633;137;100 mA
9.36329397635996;0.3004150390625;0.00139556884765625;1.36999999654108;138;100 mA
9.37329397633471;0.30035400390625;0.00133575439453125;1.37999999651583;139;100 mA
9.38329397630946;0.300537109375;0.00143951416015625;1.38999999649059;140;100 mA
9.39329397628421;0.30047607421875;0.00132568359375;1.39999999646534;141;100 mA
9.40329397625896;0.300506591796875;0.00141754150390625;1.40999999644009;142;100 mA
9.41329397623372;0.300140380859375;0.00138946533203125;1.41999999641484;143;100 mA
9.42329397620847;0.300567626953125;0.00134735107421875;1.4299999963896;144;100 mA
9.43329397618322;0.30047607421875;0.00145416259765625;1.43999999636435;145;100 mA
9.44329397615797;0.30047607421875;0.00133880615234375;1.4499999963391;146;100 mA
9.45329397613273;0.30059814453125;0.00145721435546875;1.45999999631385;147;100 mA
9.46329397610748;0.300445556640625;0.001326904296875;1.46999999628861;148;100 mA
9.47329397608223;0.3004150390625;0.001363525390625;1.47999999626336;149;100 mA
9.48329397605698;0.30047607421875;0.00139984130859375;1.48999999623811;150;100 mA
9.49329397603174;0.30047607421875;0.0013372802734375;1.49999999621286;151;100 mA
9.50329397600649;0.300445556640625;0.001444091796875;1.50999999618762;152;100 mA
9.51329397598124;0.3004150390625;0.00131561279296875;1.51999999616237;153;100 mA
9.52329397595599;0.300537109375;0.00142303466796875;1.52999999613712;154;100 mA
9.53329397593075;0.30010986328125;0.0014300537109375;1.53999999611187;155;100 mA
9.5432939759055;0.30047607421875;0.00133514404296875;1.54999999608663;156;100 mA
9.55329397588025;0.30035400390625;0.0014215087890625;1.55999999606138;157;100 mA
9.563293975855;0.300628662109375;0.00132598876953125;1.56999999603613;158;100 mA
9.57329397582976;0.30059814453125;0.001427001953125;1.57999999601088;159;100 mA
9.58329397580451;0.30047607421875;0.0013446044921875;1.58999999598564;160;100 mA
9.59329397577926;0.300506591796875;0.00138458251953125;1.59999999596039;161;100 mA
9.60329397575401;0.300567626953125;0.00144378662109375;1.60999999593514;162;100 mA
9.61329397572877;0.300445556640625;0.0013592529296875;1.61999999590989;163;100 mA
9.62329397570352;0.300384521484375;0.00148773193359375;1.62999999588465;164;100 mA
9.63329397567827;0.30047607421875;0.00140472412109375;1.6399999958594;165;100 mA
9.64329397565302;0.300537109375;0.00141571044921875;1.64999999583415;166;100 mA
9.65329397562778;0.3001708984375;0.001414794921875;1.6599999958089;167;100 mA
9.66329397560253;0.3004150390625;0.00139129638671875;1.66999999578366;168;100 mA
9.67329397557728;0.300750732421875;0.00143798828125;1.67999999575841;169;100 mA
9.68329397555203;0.300537109375;0.00133056640625;1.68999999573316;170;100 mA
9.69329397552679;0.300537109375;0.00143341064453125;1.69999999570791;171;100 mA
9.70329397550154;0.300537109375;0.00136077880859375;1.70999999568267;172;100 mA
9.71329397547629;0.300537109375;0.00136993408203125;1.71999999565742;173;100 mA
9.72329397545104;0.300537109375;0.00141387939453125;1.72999999563217;174;100 mA
9.73329397542579;0.300262451171875;0.0013531494140625;1.73999999560692;175;100 mA
9.74329397540055;0.3004150390625;0.00143829345703125;1.74999999558167;176;100 mA
9.7532939753753;0.30047607421875;0.00133819580078125;1.75999999555643;177;100 mA
9.76329397535005;0.300445556640625;0.00139801025390625;1.76999999553118;178;100 mA
9.7732939753248;0.2999267578125;0.00137786865234375;1.77999999550593;179;100 mA
9.78329397529956;0.300567626953125;0.00136383056640625;1.78999999548068;180;100 mA
9.79329397527431;0.300750732421875;0.00141326904296875;1.79999999545544;181;100 mA
9.80329397524906;0.300567626953125;0.00133544921875;1.80999999543019;182;100 mA
9.81329397522381;0.300537109375;0.0014215087890625;1.81999999540494;183;100 mA
9.82329397519857;0.300537109375;0.001356201171875;1.82999999537969;184;100 mA
9.83329397517332;0.300567626953125;0.0013909912109375;1.83999999535445;185;100 mA
9.84329397514807;0.30047607421875;0.001427001953125;1.8499999953292;186;100 mA
9.85329397512282;0.300262451171875;0.0013568115234375;1.85999999530395;187;100 mA
9.86329397509758;0.3004150390625;0.00146087646484375;1.8699999952787;188;100 mA
9.87329397507233;0.30059814453125;0.0013543701171875;1.87999999525346;189;100 mA
9.88329397504708;0.300384521484375;0.0014404296875;1.88999999522821;190;100 mA
9.89329397502183;0.29998779296875;0.00143707275390625;1.89999999520296;191;100 mA
9.90329397499659;0.3006591796875;0.00141082763671875;1.90999999517771;192;100 mA
9.91329397497134;0.300750732421875;0.0014422607421875;1.91999999515247;193;100 mA
9.92329397494609;0.30059814453125;0.0013494873046875;1.92999999512722;194;100 mA
9.93329397492084;0.300537109375;0.0014617919921875;1.93999999510197;195;100 mA
9.9432939748956;0.30059814453125;0.00137847900390625;1.94999999507672;196;100 mA
9.95329397487035;0.30047607421875;0.00141998291015625;1.95999999505148;197;100 mA
9.9632939748451;0.30035400390625;0.0014434814453125;1.96999999502623;198;100 mA
9.97329397481985;0.300201416015625;0.00138397216796875;1.97999999500098;199;100 mA
9.98329397479461;0.300506591796875;0.0014990234375;1.98999999497573;200;100 mA
9.99329397476936;0.300537109375;0.00138458251953125;1.99999999495049;201;100 mA
10.0032939747441;0.3004150390625;0.00149810791015625;2.00999999492524;202;100 mA
10.0132939747189;0.300140380859375;0.00145904541015625;2.01999999489999;203;100 mA
10.0232939746936;0.300689697265625;0.001458740234375;2.02999999487474;204;100 mA
10.0332939746684;0.300689697265625;0.00149322509765625;2.0399999948495;205;100 mA
10.0432939746431;0.300506591796875;0.00140411376953125;2.04999999482425;206;100 mA
10.0532939746179;0.300506591796875;0.00150390625;2.059999994799;207;100 mA
10.0632939745926;0.300567626953125;0.00141998291015625;2.06999999477375;208;100 mA
10.0732939745674;0.30035400390625;0.00146240234375;2.0799999947485;209;100 mA
10.0832939745421;0.300384521484375;0.001483154296875;2.08999999472326;210;100 mA
10.0932939745169;0.3004150390625;0.00141143798828125;2.09999999469801;211;100 mA
10.1032939744916;0.300506591796875;0.00153656005859375;2.10999999467276;212;100 mA
10.1132939744664;0.300537109375;0.0014068603515625;2.11999999464751;213;100 mA
10.1232939744411;0.300537109375;0.00148345947265625;2.12999999462227;214;100 mA
10.1332939744159;0.300567626953125;0.0014642333984375;2.13999999459702;215;100 mA
10.1432939743906;0.3006591796875;0.00140350341796875;2.14999999457177;216;100 mA
10.1532939743654;0.300750732421875;0.0014788818359375;2.15999999454652;217;100 mA
10.1632939743401;0.300537109375;0.00136444091796875;2.16999999452128;218;100 mA
10.1732939743149;0.3006591796875;0.00148040771484375;2.17999999449603;219;100 mA
10.1832939742897;0.300506591796875;0.00140838623046875;2.18999999447078;220;100 mA
10.1932939742644;0.300384521484375;0.00143218994140625;2.19999999444553;221;100 mA
10.2032939742392;0.30047607421875;0.0015020751953125;2.20999999442029;222;100 mA
10.2132939742139;0.300537109375;0.0013616943359375;2.21999999439504;223;100 mA
10.2232939741887;0.30047607421875;0.00147613525390625;2.22999999436979;224;100 mA
10.2332939741634;0.300506591796875;0.0013714599609375;2.23999999434454;225;100 mA
10.2432939741382;0.300567626953125;0.00146087646484375;2.2499999943193;226;100 mA
10.2532939741129;0.300262451171875;0.00145751953125;2.25999999429405;227;100 mA
10.2632939740877;0.30047607421875;0.0013671875;2.2699999942688;228;100 mA
10.2732939740624;0.300689697265625;0.00144439697265625;2.27999999424355;229;100 mA
10.2832939740372;0.300506591796875;0.0013555908203125;2.28999999421831;230;100 mA
10.2932939740119;0.300628662109375;0.00146026611328125;2.29999999419306;231;100 mA
10.3032939739867;0.3004150390625;0.0013916015625;2.30999999416781;232;100 mA
10.3132939739614;0.300445556640625;0.0014019775390625;2.31999999414256;233;100 mA
10.3232939739362;0.300567626953125;0.00147491455078125;2.32999999411732;234;100 mA
10.3332939739109;0.300506591796875;0.00137908935546875;2.33999999409207;235;100 mA
10.3432939738857;0.300445556640625;0.0014727783203125;2.34999999406682;236;100 mA
10.3532939738604;0.300537109375;0.00134796142578125;2.35999999404157;237;100 mA
10.3632939738352;0.300537109375;0.00142486572265625;2.36999999401633;238;100 mA
10.37329397381;0.30023193359375;0.00140533447265625;2.37999999399108;239;100 mA
10.3832939737847;0.300384521484375;0.00136627197265625;2.38999999396583;240;100 mA
10.3932939737595;0.3006591796875;0.00142730712890625;2.39999999394058;241;100 mA
10.4032939737342;0.300567626953125;0.0013446044921875;2.40999999391533;242;100 mA
10.413293973709;0.300537109375;0.00143798828125;2.41999999389009;243;100 mA
10.4232939736837;0.30047607421875;0.00136016845703125;2.42999999386484;244;100 mA
10.4332939736585;0.30059814453125;0.00139617919921875;2.43999999383959;245;100 mA
10.4432939736332;0.30059814453125;0.00152130126953125;2.44999999381434;246;100 mA
10.453293973608;0.300445556640625;0.001375732421875;2.4599999937891;247;100 mA
10.4632939735827;0.3004150390625;0.00146636962890625;2.46999999376385;248;100 mA
10.4732939735575;0.3004150390625;0.00134002685546875;2.4799999937386;249;100 mA
10.4832939735322;0.30047607421875;0.001416015625;2.48999999371335;250;100 mA
10.493293973507;0.300506591796875;0.00137664794921875;2.49999999368811;251;100 mA
10.5032939734817;0.30047607421875;0.00136932373046875;2.50999999366286;252;100 mA
10.5132939734565;0.300750732421875;0.0014178466796875;2.51999999363761;253;100 mA
10.5232939734312;0.30059814453125;0.001331787109375;2.52999999361236;254;100 mA
10.533293973406;0.300537109375;0.00143524169921875;2.53999999358712;255;100 mA
10.5432939733807;0.300506591796875;0.00135467529296875;2.54999999356187;256;100 mA
10.5532939733555;0.300628662109375;0.0014361572265625;2.55999999353662;257;100 mA
10.5632939733302;0.30059814453125;0.0015020751953125;2.56999999351137;258;100 mA
10.573293973305;0.300323486328125;0.00132476806640625;2.57999999348613;259;100 mA
10.5832939732798;0.3004150390625;0.00143280029296875;2.58999999346088;260;100 mA
10.5932939732545;0.300537109375;0.00130950927734375;2.59999999343563;261;100 mA
10.6032939732293;0.3004150390625;0.0014239501953125;2.60999999341038;262;100 mA
10.613293973204;0.300384521484375;0.00137420654296875;2.61999999338514;263;100 mA
10.6232939731788;0.300506591796875;0.00135009765625;2.62999999335989;264;100 mA
10.6332939731535;0.300811767578125;0.0014398193359375;2.63999999333464;265;100 mA
10.6432939731283;0.30059814453125;0.00134246826171875;2.64999999330939;266;100 mA
10.653293973103;0.300506591796875;0.00147003173828125;2.65999999328415;267;100 mA
10.6632939730778;0.30059814453125;0.00143280029296875;2.6699999932589;268;100 mA
10.6732939730525;0.300567626953125;0.00139404296875;2.67999999323365;269;100 mA
10.6832939730273;0.3004150390625;0.00143829345703125;2.6899999932084;270;100 mA
10.693293973002;0.30023193359375;0.0013494873046875;2.69999999318316;271;100 mA
10.7032939729768;0.30047607421875;0.0014678955078125;2.70999999315791;272;100 mA
10.7132939729515;0.300506591796875;0.00135711669921875;2.71999999313266;273;100 mA
10.7232939729263;0.3004150390625;0.0014556884765625;2.72999999310741;274;100 mA
10.733293972901;0.300506591796875;0.0014361572265625;2.73999999308217;275;100 mA
10.7432939728758;0.300689697265625;0.0013946533203125;2.74999999305692;276;100 mA
10.7532939728505;0.300811767578125;0.00150146484375;2.75999999303167;277;100 mA
10.7632939728253;0.300567626953125;0.001363525390625;2.76999999300642;278;100 mA
10.7732939728;0.300537109375;0.0015020751953125;2.77999999298117;279;100 mA
10.7832939727748;0.30059814453125;0.001434326171875;2.78999999295593;280;100 mA
10.7932939727496;0.300445556640625;0.00141326904296875;2.79999999293068;281;100 mA
10.8032939727243;0.3004150390625;0.001455078125;2.80999999290543;282;100 mA
10.8132939726991;0.30035400390625;0.001375732421875;2.81999999288018;283;100 mA
10.8232939726738;0.300445556640625;0.001484375;2.82999999285494;284;100 mA
10.8332939726486;0.300567626953125;0.0013677978515625;2.83999999282969;285;100 mA
10.8432939726233;0.30047607421875;0.0014373779296875;2.84999999280444;286;100 mA
10.8532939725981;0.300567626953125;0.001441650390625;2.85999999277919;287;100 mA
10.8632939725728;0.30072021484375;0.00142242431640625;2.86999999275395;288;100 mA
10.8732939725476;0.30084228515625;0.00146575927734375;2.8799999927287;289;100 mA
10.8832939725223;0.300537109375;0.001329345703125;2.88999999270345;290;100 mA
10.8932939724971;0.30047607421875;0.001453857421875;2.8999999926782;291;100 mA
10.9032939724718;0.30047607421875;0.00137969970703125;2.90999999265296;292;100 mA
10.9132939724466;0.30035400390625;0.00140106201171875;2.91999999262771;293;100 mA
10.9232939724213;0.3004150390625;0.0014373779296875;2.92999999260246;294;100 mA
10.9332939723961;0.300506591796875;0.00138427734375;2.93999999257721;295;100 mA
10.9432939723708;0.300506591796875;0.001451416015625;2.94999999255197;296;100 mA
10.9532939723456;0.300537109375;0.00135284423828125;2.95999999252672;297;100 mA
10.9632939723203;0.300567626953125;0.00142364501953125;2.96999999250147;298;100 mA
10.9732939722951;0.3006591796875;0.00141693115234375;2.97999999247622;299;100 mA
10.9832939722698;0.30059814453125;0.00137359619140625;2.98999999245098;300;100 mA
10.9932939722446;0.30059814453125;0.00146575927734375;2.99999999242573;301;100 mA
11.0032939722194;0.300445556640625;0.001337890625;3.00999999240048;302;100 mA
11.0132939721941;0.300537109375;0.00143402099609375;3.01999999237523;303;100 mA
11.0232939721689;0.300506591796875;0.001358642578125;3.02999999234999;304;100 mA
11.0332939721436;0.30072021484375;0.00139556884765625;3.03999999232474;305;100 mA
11.0432939721184;0.300445556640625;0.00141510009765625;3.04999999229949;306;100 mA
11.0532939720931;0.300567626953125;0.00137603759765625;3.05999999227424;307;100 mA
11.0632939720679;0.30047607421875;0.00147308349609375;3.069999992249;308;100 mA
11.0732939720426;0.300537109375;0.00135528564453125;3.07999999222375;309;100 mA
11.0832939720174;0.300537109375;0.0014117431640625;3.0899999921985;310;100 mA
11.0932939719921;0.3006591796875;0.0013623046875;3.09999999217325;311;100 mA
11.1032939719669;0.30047607421875;0.00135406494140625;3.109999992148;312;100 mA
11.1132939719416;0.300628662109375;0.00141448974609375;3.11999999212276;313;100 mA
11.1232939719164;0.300506591796875;0.00130859375;3.12999999209751;314;100 mA
11.1332939718911;0.300567626953125;0.001422119140625;3.13999999207226;315;100 mA
11.1432939718659;0.300445556640625;0.0013427734375;3.14999999204701;316;100 mA
11.1532939718406;0.30072021484375;0.00139251708984375;3.15999999202177;317;100 mA
11.1632939718154;0.300628662109375;0.00141632080078125;3.16999999199652;318;100 mA
11.1732939717901;0.300506591796875;0.00134979248046875;3.17999999197127;319;100 mA
11.1832939717649;0.3004150390625;0.00146240234375;3.18999999194602;320;100 mA
11.1932939717396;0.300506591796875;0.0013336181640625;3.19999999192078;321;100 mA
11.2032939717144;0.300445556640625;0.00143341064453125;3.20999999189553;322;100 mA
11.2132939716892;0.3004150390625;0.00137908935546875;3.21999999187028;323;100 mA
11.2232939716639;0.300537109375;0.0013677978515625;3.22999999184503;324;100 mA
11.2332939716387;0.300750732421875;0.0014434814453125;3.23999999181979;325;100 mA
11.2432939716134;0.30059814453125;0.001329345703125;3.24999999179454;326;100 mA
11.2532939715882;0.300445556640625;0.0014306640625;3.25999999176929;327;100 mA
11.2632939715629;0.3006591796875;0.001361083984375;3.26999999174404;328;100 mA
11.2732939715377;0.30096435546875;0.0013665771484375;3.2799999917188;329;100 mA
11.2832939715124;0.3004150390625;0.0013946533203125;3.28999999169355;330;100 mA
11.2932939714872;0.300323486328125;0.0013299560546875;3.2999999916683;331;100 mA
11.3032939714619;0.300506591796875;0.00143707275390625;3.30999999164305;332;100 mA
11.3132939714367;0.300628662109375;0.0013134765625;3.31999999161781;333;100 mA
11.3232939714114;0.3004150390625;0.0014111328125;3.32999999159256;334;100 mA
11.3332939713862;0.30059814453125;0.0013934326171875;3.33999999156731;335;100 mA
11.3432939713609;0.300750732421875;0.00138092041015625;3.34999999154206;336;100 mA
11.3532939713357;0.30072021484375;0.0014501953125;3.35999999151682;337;100 mA
11.3632939713104;0.300506591796875;0.00134735107421875;3.36999999149157;338;100 mA
11.3732939712852;0.300567626953125;0.001463623046875;3.37999999146632;339;100 mA
11.3832939712599;0.300537109375;0.00139434814453125;3.38999999144107;340;100 mA
11.3932939712347;0.300750732421875;0.0014129638671875;3.39999999141583;341;100 mA
11.4032939712095;0.3004150390625;0.00144287109375;3.40999999139058;342;100 mA
11.4132939711842;0.300537109375;0.001361083984375;3.41999999136533;343;100 mA
11.423293971159;0.30047607421875;0.00146392822265625;3.42999999134008;344;100 mA
11.4332939711337;0.300506591796875;0.00133697509765625;3.43999999131483;345;100 mA
11.4432939711085;0.300628662109375;0.00141937255859375;3.44999999128959;346;100 mA
11.4532939710832;0.300689697265625;0.00141510009765625;3.45999999126434;347;100 mA
11.463293971058;0.300445556640625;0.0013568115234375;3.46999999123909;348;100 mA
11.4732939710327;0.300506591796875;0.00143646240234375;3.47999999121384;349;100 mA
11.4832939710075;0.300537109375;0.0013421630859375;3.4899999911886;350;100 mA
11.4932939709822;0.300537109375;0.0014385986328125;3.49999999116335;351;100 mA
11.503293970957;0.30047607421875;0.0013836669921875;3.5099999911381;352;100 mA
11.5132939709317;0.30072021484375;0.00138885498046875;3.51999999111285;353;100 mA
11.5232939709065;0.300567626953125;0.00143096923828125;3.52999999108761;354;100 mA
11.5332939708812;0.3004150390625;0.0013653564453125;3.53999999106236;355;100 mA
11.543293970856;0.300384521484375;0.0014776611328125;3.54999999103711;356;100 mA
11.5532939708307;0.300567626953125;0.00135223388671875;3.55999999101186;357;100 mA
11.5632939708055;0.300445556640625;0.00140289306640625;3.56999999098662;358;100 mA
11.5732939707802;0.3004150390625;0.001409912109375;3.57999999096137;359;100 mA
11.583293970755;0.300537109375;0.0013458251953125;3.58999999093612;360;100 mA
11.5932939707297;0.30084228515625;0.0014031982421875;3.59999999091087;361;100 mA
11.6032939707045;0.300628662109375;0.00130828857421875;3.60999999088563;362;100 mA
11.6132939706793;0.300506591796875;0.0014007568359375;3.61999999086038;363;100 mA
11.623293970654;0.30059814453125;0.00133392333984375;3.62999999083513;364;100 mA
11.6332939706288;0.300567626953125;0.00137542724609375;3.63999999080988;365;100 mA
11.6432939706035;0.3004150390625;0.001419677734375;3.64999999078464;366;100 mA
11.6532939705783;0.30029296875;0.0013275146484375;3.65999999075939;367;100 mA
11.663293970553;0.30047607421875;0.0014422607421875;3.66999999073414;368;100 mA
11.6732939705278;0.30059814453125;0.0013592529296875;3.67999999070889;369;100 mA
11.6832939705025;0.300445556640625;0.00137420654296875;3.68999999068365;370;100 mA
11.6932939704773;0.300537109375;0.00134735107421875;3.6999999906584;371;100 mA
11.703293970452;0.30072021484375;0.0013330078125;3.70999999063315;372;100 mA
11.7132939704268;0.300750732421875;0.0013873291015625;3.7199999906079;373;100 mA
11.7232939704015;0.300567626953125;0.0013092041015625;3.72999999058266;374;100 mA
11.7332939703763;0.300506591796875;0.001412353515625;3.73999999055741;375;100 mA
11.743293970351;0.300506591796875;0.00131927490234375;3.74999999053216;376;100 mA
11.7532939703258;0.3009033203125;0.0013690185546875;3.75999999050691;377;100 mA
11.7632939703005;0.300445556640625;0.001395263671875;3.76999999048167;378;100 mA
11.7732939702753;0.30047607421875;0.001339111328125;3.77999999045642;379;100 mA
11.78329397025;0.300537109375;0.0014361572265625;3.78999999043117;380;100 mA
11.7932939702248;0.300537109375;0.001314697265625;3.79999999040592;381;100 mA
11.8032939701995;0.300689697265625;0.00140228271484375;3.80999999038067;382;100 mA
11.8132939701743;0.300628662109375;0.00134033203125;3.81999999035543;383;100 mA
11.8232939701491;0.300506591796875;0.00133453369140625;3.82999999033018;384;100 mA
11.8332939701238;0.300537109375;0.00142669677734375;3.83999999030493;385;100 mA
11.8432939700986;0.300567626953125;0.00128448486328125;3.84999999027968;386;100 mA
11.8532939700733;0.300445556640625;0.0014349365234375;3.85999999025444;387;100 mA
11.8632939700481;0.30047607421875;0.0014276123046875;3.86999999022919;388;100 mA
11.8732939700228;0.300811767578125;0.00133148193359375;3.87999999020394;389;100 mA
11.8832939699976;0.300567626953125;0.00138214111328125;3.88999999017869;390;100 mA
11.8932939699723;0.3004150390625;0.00131805419921875;3.89999999015345;391;100 mA
11.9032939699471;0.3004150390625;0.00142852783203125;3.9099999901282;392;100 mA
11.9132939699218;0.300506591796875;0.001334228515625;3.91999999010295;393;100 mA
11.9232939698966;0.3004150390625;0.00142791748046875;3.9299999900777;394;100 mA
11.9332939698713;0.300537109375;0.0014630126953125;3.93999999005246;395;100 mA
11.9432939698461;0.300445556640625;0.0013421630859375;3.94999999002721;396;100 mA
11.9532939698208;0.300750732421875;0.00143585205078125;3.95999999000196;397;100 mA
11.9632939697956;0.300567626953125;0.00132659912109375;3.96999998997671;398;100 mA
11.9732939697703;0.30047607421875;0.0014715576171875;3.97999998995147;399;100 mA
11.9832939697451;0.30059814453125;0.0013909912109375;3.98999998992622;400;100 mA
11.9932939697198;0.30059814453125;0.00140777587890625;3.99999998990097;401;100 mA
12.0032939696946;0.300445556640625;0.00147369384765625;4.00999998987572;402;100 mA
12.0132939696693;0.300323486328125;0.00136932373046875;4.01999998985048;403;100 mA
12.0232939696441;0.30047607421875;0.0014794921875;4.02999998982523;404;100 mA
12.0332939696189;0.300537109375;0.00137542724609375;4.03999998979998;405;100 mA
12.0432939695936;0.300384521484375;0.0014520263671875;4.04999998977473;406;100 mA
12.0532939695684;0.300506591796875;0.00147674560546875;4.05999998974949;407;100 mA
12.0632939695431;0.30078125;0.00136627197265625;4.06999998972424;408;100 mA
12.0732939695179;0.300689697265625;0.0014556884765625;4.07999998969899;409;100 mA
12.0832939694926;0.300506591796875;0.00138458251953125;4.08999998967374;410;100 mA
12.0932939694674;0.300537109375;0.00146514892578125;4.0999999896485;411;100 mA
12.1032939694421;0.30047607421875;0.00140594482421875;4.10999998962325;412;100 mA
12.1132939694169;0.300323486328125;0.00143035888671875;4.119999989598;413;100 mA
12.1232939693916;0.3004150390625;0.00148406982421875;4.12999998957275;414;100 mA
12.1332939693664;0.300537109375;0.0013983154296875;4.1399999895475;415;100 mA
12.1432939693411;0.300506591796875;0.00147796630859375;4.14999998952226;416;100 mA
12.1532939693159;0.300537109375;0.00138214111328125;4.15999998949701;417;100 mA
12.1632939692906;0.300628662109375;0.001439208984375;4.16999998947176;418;100 mA
12.1732939692654;0.300628662109375;0.0014227294921875;4.17999998944651;419;100 mA
12.1832939692401;0.3004150390625;0.00139739990234375;4.18999998942127;420;100 mA
12.1932939692149;0.300445556640625;0.0014398193359375;4.19999998939602;421;100 mA
12.2032939691896;0.300537109375;0.00136199951171875;4.20999998937077;422;100 mA
12.2132939691644;0.300537109375;0.00145172119140625;4.21999998934552;423;100 mA
12.2232939691391;0.30047607421875;0.00139404296875;4.22999998932028;424;100 mA
12.2332939691139;0.30059814453125;0.00141693115234375;4.23999998929503;425;100 mA
12.2432939690887;0.300537109375;0.00144989013671875;4.24999998926978;426;100 mA
12.2532939690634;0.30047607421875;0.0014154052734375;4.25999998924453;427;100 mA
12.2632939690382;0.30047607421875;0.001478271484375;4.26999998921929;428;100 mA
12.2732939690129;0.30047607421875;0.00136138916015625;4.27999998919404;429;100 mA
12.2832939689877;0.30047607421875;0.0014337158203125;4.28999998916879;430;100 mA
12.2932939689624;0.30047607421875;0.0013922119140625;4.29999998914354;431;100 mA
12.3032939689372;0.30047607421875;0.0013836669921875;4.3099999891183;432;100 mA
12.3132939689119;0.300689697265625;0.00143096923828125;4.31999998909305;433;100 mA
12.3232939688867;0.300537109375;0.0013397216796875;4.3299999890678;434;100 mA
12.3332939688614;0.300506591796875;0.00145751953125;4.33999998904255;435;100 mA
12.3432939688362;0.300628662109375;0.0013690185546875;4.34999998901731;436;100 mA
12.3532939688109;0.30059814453125;0.00141998291015625;4.35999998899206;437;100 mA
12.3632939687857;0.3004150390625;0.0014593505859375;4.36999998896681;438;100 mA
12.3732939687604;0.30029296875;0.001351318359375;4.37999998894156;439;100 mA
12.3832939687352;0.300506591796875;0.0014581298828125;4.38999998891632;440;100 mA
12.3932939687099;0.300628662109375;0.00133544921875;4.39999998889107;441;100 mA
12.4032939686847;0.30035400390625;0.00143035888671875;4.40999998886582;442;100 mA
12.4132939686594;0.300537109375;0.0013690185546875;4.41999998884057;443;100 mA
12.4232939686342;0.3006591796875;0.00136444091796875;4.42999998881533;444;100 mA
12.433293968609;0.30078125;0.00142303466796875;4.43999998879008;445;100 mA
12.4432939685837;0.300506591796875;0.0013287353515625;4.44999998876483;446;100 mA
12.4532939685585;0.300506591796875;0.00144378662109375;4.45999998873958;447;100 mA
12.4632939685332;0.300537109375;0.00135986328125;4.46999998871433;448;100 mA
12.473293968508;0.300872802734375;0.0014385986328125;4.47999998868909;449;100 mA
12.4832939684827;0.300384521484375;0.0014593505859375;4.48999998866384;450;100 mA
12.4932939684575;0.30047607421875;0.00132232666015625;4.49999998863859;451;100 mA
12.5032939684322;0.300445556640625;0.00144744873046875;4.50999998861334;452;100 mA
12.513293968407;0.300567626953125;0.00133087158203125;4.5199999885881;453;100 mA
12.5232939683817;0.300567626953125;0.001419677734375;4.52999998856285;454;100 mA
12.5332939683565;0.300689697265625;0.00139495849609375;4.5399999885376;455;100 mA
12.5432939683312;0.300537109375;0.0013525390625;4.54999998851235;456;100 mA
12.553293968306;0.300537109375;0.00145538330078125;4.55999998848711;457;100 mA
12.5632939682807;0.300537109375;0.00132232666015625;4.56999998846186;458;100 mA
12.5732939682555;0.300537109375;0.001448974609375;4.57999998843661;459;100 mA
12.5832939682302;0.300506591796875;0.00138671875;4.58999998841136;460;100 mA
12.593293968205;0.30072021484375;0.0014044189453125;4.59999998838612;461;100 mA
12.6032939681797;0.30059814453125;0.00146148681640625;4.60999998836087;462;100 mA
12.6132939681545;0.30047607421875;0.001365966796875;4.61999998833562;463;100 mA
12.6232939681292;0.300445556640625;0.00146820068359375;4.62999998831037;464;100 mA
12.633293968104;0.300506591796875;0.00135223388671875;4.63999998828513;465;100 mA
12.6432939680788;0.300445556640625;0.0014337158203125;4.64999998825988;466;100 mA
12.6532939680535;0.3004150390625;0.001429443359375;4.65999998823463;467;100 mA
12.6632939680283;0.30035400390625;0.00139556884765625;4.66999998820938;468;100 mA
12.673293968003;0.30078125;0.0014739990234375;4.67999998818414;469;100 mA
12.6832939679778;0.300567626953125;0.00136749267578125;4.68999998815889;470;100 mA
12.6932939679525;0.30047607421875;0.00145538330078125;4.69999998813364;471;100 mA
12.7032939679273;0.300537109375;0.00145965576171875;4.70999998810839;472;100 mA
12.713293967902;0.3006591796875;0.001392822265625;4.71999998808315;473;100 mA
12.7232939678768;0.300445556640625;0.00143798828125;4.7299999880579;474;100 mA
12.7332939678515;0.30029296875;0.0013739013671875;4.73999998803265;475;100 mA
12.7432939678263;0.300445556640625;0.00145721435546875;4.7499999880074;476;100 mA
12.753293967801;0.300628662109375;0.00136199951171875;4.75999998798216;477;100 mA
12.7632939677758;0.300384521484375;0.001446533203125;4.76999998795691;478;100 mA
12.7732939677505;0.300506591796875;0.001412353515625;4.77999998793166;479;100 mA
12.7832939677253;0.300689697265625;0.0013873291015625;4.78999998790641;480;100 mA
12.7932939677;0.30078125;0.00145660400390625;4.79999998788116;481;100 mA
12.8032939676748;0.300537109375;0.00134307861328125;4.80999998785592;482;100 mA
12.8132939676495;0.300537109375;0.001448974609375;4.81999998783067;483;100 mA
12.8232939676243;0.300537109375;0.00137542724609375;4.82999998780542;484;100 mA
12.833293967599;0.300445556640625;0.00142303466796875;4.83999998778017;485;100 mA
12.8432939675738;0.300384521484375;0.0014349365234375;4.84999998775493;486;100 mA
12.8532939675486;0.300506591796875;0.00138397216796875;4.85999998772968;487;100 mA
12.8632939675233;0.300506591796875;0.00147979736328125;4.86999998770443;488;100 mA
12.8732939674981;0.300537109375;0.0013763427734375;4.87999998767918;489;100 mA
12.8832939674728;0.300537109375;0.0014581298828125;4.88999998765394;490;100 mA
12.8932939674476;0.3006591796875;0.00145477294921875;4.89999998762869;491;100 mA
12.9032939674223;0.300537109375;0.0014080810546875;4.90999998760344;492;100 mA
12.9132939673971;0.300567626953125;0.001490478515625;4.91999998757819;493;100 mA
12.9232939673718;0.300506591796875;0.00134368896484375;4.92999998755295;494;100 mA
12.9332939673466;0.300537109375;0.00147125244140625;4.9399999875277;495;100 mA
12.9432939673213;0.300445556640625;0.00138031005859375;4.94999998750245;496;100 mA
12.9532939672961;0.30078125;0.00141021728515625;4.9599999874772;497;100 mA
12.9632939672708;0.300537109375;0.001446533203125;4.96999998745196;498;100 mA
12.9732939672456;0.300567626953125;0.00136199951171875;4.97999998742671;499;100 mA
12.9832939672203;0.300445556640625;0.00147003173828125;4.98999998740146;500;100 mA
12.9932939671951;0.30059814453125;0.00135528564453125;4.99999998737621;501;100 mA
13.0032939671698;0.300506591796875;0.00143310546875;5.00999998735097;502;100 mA
13.0132939671446;0.30047607421875;0.0013922119140625;5.01999998732572;503;100 mA
13.0232939671193;0.3004150390625;0.0013555908203125;5.02999998730047;504;100 mA
13.0332939670941;0.300689697265625;0.0014385986328125;5.03999998727522;505;100 mA
13.0432939670688;0.300567626953125;0.00133331298828125;5.04999998724998;506;100 mA
13.0532939670436;0.300506591796875;0.00144744873046875;5.05999998722473;507;100 mA
13.0632939670184;0.300537109375;0.00135223388671875;5.06999998719948;508;100 mA
13.0732939669931;0.30059814453125;0.0013812255859375;5.07999998717423;509;100 mA
13.0832939669679;0.300445556640625;0.00146820068359375;5.08999998714899;510;100 mA
13.0932939669426;0.30035400390625;0.00131866455078125;5.09999998712374;511;100 mA
13.1032939669174;0.30047607421875;0.001446533203125;5.10999998709849;512;100 mA
13.1132939668921;0.300537109375;0.00132537841796875;5.11999998707324;513;100 mA
13.1232939668669;0.3004150390625;0.00138519287109375;5.129999987048;514;100 mA
13.1332939668416;0.300506591796875;0.00136322021484375;5.13999998702275;515;100 mA
13.1432939668164;0.300689697265625;0.00132659912109375;5.1499999869975;516;100 mA
13.1532939667911;0.30078125;0.00140838623046875;5.15999998697225;517;100 mA
13.1632939667659;0.300537109375;0.00131988525390625;5.169999986947;518;100 mA
13.1732939667406;0.300537109375;0.00141387939453125;5.17999998692176;519;100 mA
13.1832939667154;0.300537109375;0.0013458251953125;5.18999998689651;520;100 mA
13.1932939666901;0.300384521484375;0.00141754150390625;5.19999998687126;521;100 mA
13.2032939666649;0.30029296875;0.00150421142578125;5.20999998684601;522;100 mA
13.2132939666396;0.3004150390625;0.001328125;5.21999998682077;523;100 mA
13.2232939666144;0.300445556640625;0.00140228271484375;5.22999998679552;524;100 mA
13.2332939665891;0.300506591796875;0.0013323974609375;5.23999998677027;525;100 mA
13.2432939665639;0.30059814453125;0.00139678955078125;5.24999998674502;526;100 mA
13.2532939665386;0.300628662109375;0.0013763427734375;5.25999998671978;527;100 mA
13.2632939665134;0.300567626953125;0.0013470458984375;5.26999998669453;528;100 mA
13.2732939664882;0.30059814453125;0.001412353515625;5.27999998666928;529;100 mA
13.2832939664629;0.300445556640625;0.0013348388671875;5.28999998664403;530;100 mA
13.2932939664377;0.300537109375;0.00143829345703125;5.29999998661879;531;100 mA
13.3032939664124;0.300445556640625;0.00148529052734375;5.30999998659354;532;100 mA
13.3132939663872;0.30072021484375;0.00142669677734375;5.31999998656829;533;100 mA
13.3232939663619;0.300506591796875;0.00138946533203125;5.32999998654304;534;100 mA
13.3332939663367;0.300537109375;0.001319580078125;5.3399999865178;535;100 mA
13.3432939663114;0.300445556640625;0.00141693115234375;5.34999998649255;536;100 mA
13.3532939662862;0.300506591796875;0.00131744384765625;5.3599999864673;537;100 mA
13.3632939662609;0.300567626953125;0.00139556884765625;5.36999998644205;538;100 mA
13.3732939662357;0.300506591796875;0.001392822265625;5.37999998641681;539;100 mA
13.3832939662104;0.3004150390625;0.00132293701171875;5.38999998639156;540;100 mA
13.3932939661852;0.300750732421875;0.0014215087890625;5.39999998636631;541;100 mA
13.4032939661599;0.3006591796875;0.001409912109375;5.40999998634106;542;100 mA
13.4132939661347;0.300567626953125;0.00142669677734375;5.41999998631582;543;100 mA
13.4232939661094;0.300628662109375;0.00133636474609375;5.42999998629057;544;100 mA
13.4332939660842;0.30059814453125;0.0013702392578125;5.43999998626532;545;100 mA
13.4432939660589;0.30047607421875;0.0013983154296875;5.44999998624007;546;100 mA
13.4532939660337;0.300323486328125;0.001348876953125;5.45999998621483;547;100 mA
13.4632939660085;0.3004150390625;0.00145477294921875;5.46999998618958;548;100 mA
13.4732939659832;0.300537109375;0.0013446044921875;5.47999998616433;549;100 mA
13.483293965958;0.3004150390625;0.0014447021484375;5.48999998613908;550;100 mA
13.4932939659327;0.30047607421875;0.001400146484375;5.49999998611383;551;100 mA
13.5032939659075;0.3006591796875;0.00143585205078125;5.50999998608859;552;100 mA
13.5132939658822;0.300811767578125;0.00148284912109375;5.51999998606334;553;100 mA
13.523293965857;0.300537109375;0.0013836669921875;5.52999998603809;554;100 mA
13.5332939658317;0.300445556640625;0.0014471435546875;5.53999998601284;555;100 mA
13.5432939658065;0.300537109375;0.00135528564453125;5.5499999859876;556;100 mA
13.5532939657812;0.300994873046875;0.00140869140625;5.55999998596235;557;100 mA
13.563293965756;0.300323486328125;0.0014312744140625;5.5699999859371;558;100 mA
13.5732939657307;0.3004150390625;0.00135986328125;5.57999998591185;559;100 mA
13.5832939657055;0.300537109375;0.0014892578125;5.58999998588661;560;100 mA
13.5932939656802;0.3006591796875;0.0013446044921875;5.59999998586136;561;100 mA
13.603293965655;0.300506591796875;0.00145416259765625;5.60999998583611;562;100 mA
13.6132939656297;0.300537109375;0.0014422607421875;5.61999998581086;563;100 mA
13.6232939656045;0.300628662109375;0.00138153076171875;5.62999998578562;564;100 mA
13.6332939655792;0.300628662109375;0.0014630126953125;5.63999998576037;565;100 mA
13.643293965554;0.300537109375;0.00133819580078125;5.64999998573512;566;100 mA
13.6532939655287;0.300537109375;0.0014532470703125;5.65999998570987;567;100 mA
13.6632939655035;0.30047607421875;0.001370849609375;5.66999998568463;568;100 mA
13.6732939654783;0.300628662109375;0.00140533447265625;5.67999998565938;569;100 mA
13.683293965453;0.300537109375;0.00144500732421875;5.68999998563413;570;100 mA
13.6932939654278;0.300567626953125;0.0013665771484375;5.69999998560888;571;100 mA
13.7032939654025;0.300445556640625;0.00149627685546875;5.70999998558364;572;100 mA
13.7132939653773;0.30047607421875;0.0013519287109375;5.71999998555839;573;100 mA
13.723293965352;0.300567626953125;0.00144073486328125;5.72999998553314;574;100 mA
13.7332939653268;0.300567626953125;0.00139617919921875;5.73999998550789;575;100 mA
13.7432939653015;0.30047607421875;0.00134368896484375;5.74999998548265;576;100 mA
13.7532939652763;0.3006591796875;0.001427001953125;5.7599999854574;577;100 mA
13.763293965251;0.30059814453125;0.00133697509765625;5.76999998543215;578;100 mA
13.7732939652258;0.300506591796875;0.00145355224609375;5.7799999854069;579;100 mA
13.7832939652005;0.300445556640625;0.00138336181640625;5.78999998538166;580;100 mA
13.7932939651753;0.300628662109375;0.00138397216796875;5.79999998535641;581;100 mA
13.80329396515;0.300506591796875;0.00145721435546875;5.80999998533116;582;100 mA
13.8132939651248;0.300323486328125;0.001368408203125;5.81999998530591;583;100 mA
13.8232939650995;0.300445556640625;0.0014794921875;5.82999998528066;584;100 mA
13.8332939650743;0.300506591796875;0.00138092041015625;5.83999998525542;585;100 mA
13.843293965049;0.300384521484375;0.0014349365234375;5.84999998523017;586;100 mA
13.8532939650238;0.30035400390625;0.00141357421875;5.85999998520492;587;100 mA
13.8632939649985;0.30059814453125;0.001387939453125;5.86999998517967;588;100 mA
13.8732939649733;0.300750732421875;0.00144683837890625;5.87999998515443;589;100 mA
13.8832939649481;0.3006591796875;0.00136810302734375;5.88999998512918;590;100 mA
13.8932939649228;0.30047607421875;0.0014666748046875;5.89999998510393;591;100 mA
13.9032939648976;0.300628662109375;0.00140533447265625;5.90999998507868;592;100 mA
13.9132939648723;0.3006591796875;0.00143157958984375;5.91999998505344;593;100 mA
13.9232939648471;0.3004150390625;0.001468505859375;5.92999998502819;594;100 mA
13.9332939648218;0.30029296875;0.00140411376953125;5.93999998500294;595;100 mA
13.9432939647966;0.300445556640625;0.00148162841796875;5.94999998497769;596;100 mA
13.9532939647713;0.300567626953125;0.00137725830078125;5.95999998495245;597;100 mA
13.9632939647461;0.300537109375;0.00145538330078125;5.9699999849272;598;100 mA
13.9732939647208;0.300567626953125;0.00142181396484375;5.97999998490195;599;100 mA
13.9832939646956;0.300689697265625;0.0013983154296875;5.9899999848767;600;100 mA
13.9932939646703;0.3006591796875;0.001463623046875;5.99999998485146;601;100 mA
14.0032939646451;0.300445556640625;0.001368408203125;6.00999998482621;602;100 mA
14.0132939646198;0.300537109375;0.0014666748046875;6.01999998480096;603;100 mA
14.0232939645946;0.300445556640625;0.0013916015625;6.02999998477571;604;100 mA
14.0332939645693;0.300628662109375;0.0014141845703125;6.03999998475047;605;100 mA
14.0432939645441;0.30047607421875;0.00147003173828125;6.04999998472522;606;100 mA
14.0532939645188;0.300567626953125;0.0013671875;6.05999998469997;607;100 mA
14.0632939644936;0.3004150390625;0.00146759033203125;6.06999998467472;608;100 mA
14.0732939644683;0.30047607421875;0.00134765625;6.07999998464948;609;100 mA
14.0832939644431;0.30059814453125;0.00143402099609375;6.08999998462423;610;100 mA
14.0932939644179;0.30047607421875;0.00140228271484375;6.09999998459898;611;100 mA
14.1032939643926;0.3004150390625;0.0013812255859375;6.10999998457373;612;100 mA
14.1132939643674;0.300567626953125;0.00145538330078125;6.11999998454849;613;100 mA
14.1232939643421;0.300567626953125;0.00134674072265625;6.12999998452324;614;100 mA
14.1332939643169;0.30047607421875;0.001470947265625;6.13999998449799;615;100 mA
14.1432939642916;0.300445556640625;0.001387939453125;6.14999998447274;616;100 mA
14.1532939642664;0.30059814453125;0.00142730712890625;6.1599999844475;617;100 mA
14.1632939642411;0.300567626953125;0.001470947265625;6.16999998442225;618;100 mA
14.1732939642159;0.300323486328125;0.001375732421875;6.179999984397;619;100 mA
14.1832939641906;0.30047607421875;0.00148956298828125;6.18999998437175;620;100 mA
14.1932939641654;0.300537109375;0.00134368896484375;6.1999999843465;621;100 mA
14.2032939641401;0.3004150390625;0.0014434814453125;6.20999998432126;622;100 mA
14.2132939641149;0.300445556640625;0.00140716552734375;6.21999998429601;623;100 mA
14.2232939640896;0.300628662109375;0.00137603759765625;6.22999998427076;624;100 mA
14.2332939640644;0.30078125;0.00145233154296875;6.23999998424551;625;100 mA
14.2432939640391;0.300567626953125;0.00132781982421875;6.24999998422027;626;100 mA
14.2532939640139;0.30047607421875;0.00144744873046875;6.25999998419502;627;100 mA
14.2632939639886;0.30059814453125;0.0013751220703125;6.26999998416977;628;100 mA
14.2732939639634;0.300537109375;0.001402587890625;6.27999998414452;629;100 mA
14.2832939639381;0.300384521484375;0.0014495849609375;6.28999998411928;630;100 mA
14.2932939639129;0.30035400390625;0.001368408203125;6.29999998409403;631;100 mA
14.3032939638877;0.300537109375;0.0014703369140625;6.30999998406878;632;100 mA
14.3132939638624;0.300567626953125;0.0013482666015625;6.31999998404353;633;100 mA
14.3232939638372;0.300445556640625;0.0014300537109375;6.32999998401829;634;100 mA
14.3332939638119;0.300537109375;0.00139984130859375;6.33999998399304;635;100 mA
14.3432939637867;0.3006591796875;0.00137237548828125;6.34999998396779;636;100 mA
14.3532939637614;0.3006591796875;0.0014373779296875;6.35999998394254;637;100 mA
14.3632939637362;0.300506591796875;0.00134674072265625;6.3699999839173;638;100 mA
14.3732939637109;0.30059814453125;0.001435546875;6.37999998389205;639;100 mA
14.3832939636857;0.30047607421875;0.00135284423828125;6.3899999838668;640;100 mA
14.3932939636604;0.30035400390625;0.001380615234375;6.39999998384155;641;100 mA
14.4032939636352;0.300445556640625;0.001439208984375;6.40999998381631;642;100 mA
14.4132939636099;0.3004150390625;0.001358642578125;6.41999998379106;643;100 mA
14.4232939635847;0.300506591796875;0.0014532470703125;6.42999998376581;644;100 mA
14.4332939635594;0.30047607421875;0.00134674072265625;6.43999998374056;645;100 mA
14.4432939635342;0.300567626953125;0.0014129638671875;6.44999998371532;646;100 mA
14.4532939635089;0.300567626953125;0.00139434814453125;6.45999998369007;647;100 mA
14.4632939634837;0.30047607421875;0.001356201171875;6.46999998366482;648;100 mA
14.4732939634584;0.30059814453125;0.001422119140625;6.47999998363957;649;100 mA
14.4832939634332;0.30059814453125;0.0013323974609375;6.48999998361433;650;100 mA
14.493293963408;0.300506591796875;0.00142974853515625;6.49999998358908;651;100 mA
14.5032939633827;0.30047607421875;0.00136627197265625;6.50999998356383;652;100 mA
14.5132939633575;0.3006591796875;0.00140350341796875;6.51999998353858;653;100 mA
14.5232939633322;0.300567626953125;0.001424560546875;6.52999998351333;654;100 mA
14.533293963307;0.3004150390625;0.0013836669921875;6.53999998348809;655;100 mA
14.5432939632817;0.300506591796875;0.00145233154296875;6.54999998346284;656;100 mA
14.5532939632565;0.300506591796875;0.0013775634765625;6.55999998343759;657;100 mA
14.5632939632312;0.3004150390625;0.001453857421875;6.56999998341234;658;100 mA
14.573293963206;0.3004150390625;0.001439208984375;6.5799999833871;659;100 mA
14.5832939631807;0.300445556640625;0.0013629150390625;6.58999998336185;660;100 mA
14.5932939631555;0.300811767578125;0.0014337158203125;6.5999999833366;661;100 mA
14.6032939631302;0.300567626953125;0.0013616943359375;6.60999998331135;662;100 mA
14.613293963105;0.300445556640625;0.001463623046875;6.61999998328611;663;100 mA
14.6232939630797;0.300567626953125;0.00141387939453125;6.62999998326086;664;100 mA
14.6332939630545;0.3006591796875;0.001419677734375;6.63999998323561;665;100 mA
14.6432939630292;0.30047607421875;0.00146026611328125;6.64999998321036;666;100 mA
14.653293963004;0.300323486328125;0.00140350341796875;6.65999998318512;667;100 mA
14.6632939629787;0.30047607421875;0.00149322509765625;6.66999998315987;668;100 mA
14.6732939629535;0.300628662109375;0.00135955810546875;6.67999998313462;669;100 mA
14.6832939629282;0.300445556640625;0.0014483642578125;6.68999998310937;670;100 mA
14.693293962903;0.300537109375;0.00140533447265625;6.69999998308413;671;100 mA
14.7032939628778;0.30072021484375;0.00139678955078125;6.70999998305888;672;100 mA
14.7132939628525;0.30072021484375;0.00145233154296875;6.71999998303363;673;100 mA
14.7232939628273;0.300537109375;0.00136138916015625;6.72999998300838;674;100 mA
14.733293962802;0.300506591796875;0.001466064453125;6.73999998298314;675;100 mA
14.7432939627768;0.300506591796875;0.00142669677734375;6.74999998295789;676;100 mA
14.7532939627515;0.30078125;0.001395263671875;6.75999998293264;677;100 mA
14.7632939627263;0.300323486328125;0.0014263916015625;6.76999998290739;678;100 mA
14.773293962701;0.30047607421875;0.0013592529296875;6.77999998288215;679;100 mA
14.7832939626758;0.300537109375;0.00145721435546875;6.7899999828569;680;100 mA
14.7932939626505;0.300537109375;0.00134490966796875;6.79999998283165;681;100 mA
14.8032939626253;0.300567626953125;0.0014404296875;6.8099999828064;682;100 mA
14.8132939626;0.300537109375;0.00139892578125;6.81999998278116;683;100 mA
14.8232939625748;0.300628662109375;0.00137451171875;6.82999998275591;684;100 mA
14.8332939625495;0.300537109375;0.001456298828125;6.83999998273066;685;100 mA
14.8432939625243;0.300506591796875;0.00135986328125;6.84999998270541;686;100 mA
14.853293962499;0.300506591796875;0.0014691162109375;6.85999998268016;687;100 mA
14.8632939624738;0.3004150390625;0.00146514892578125;6.86999998265492;688;100 mA
14.8732939624485;0.30078125;0.00143280029296875;6.87999998262967;689;100 mA
14.8832939624233;0.300567626953125;0.00144256591796875;6.88999998260442;690;100 mA
14.893293962398;0.300537109375;0.0013714599609375;6.89999998257917;691;100 mA
14.9032939623728;0.300506591796875;0.0015020751953125;6.90999998255393;692;100 mA
14.9132939623476;0.300506591796875;0.00137725830078125;6.91999998252868;693;100 mA
14.9232939623223;0.30047607421875;0.0014483642578125;6.92999998250343;694;100 mA
14.9332939622971;0.300506591796875;0.00142974853515625;6.93999998247818;695;100 mA
14.9432939622718;0.30047607421875;0.00138946533203125;6.94999998245294;696;100 mA
14.9532939622466;0.30059814453125;0.0014544677734375;6.95999998242769;697;100 mA
14.9632939622213;0.30059814453125;0.00136383056640625;6.96999998240244;698;100 mA
14.9732939621961;0.30047607421875;0.00145660400390625;6.97999998237719;699;100 mA
14.9832939621708;0.300567626953125;0.00138519287109375;6.98999998235195;700;100 mA
