Time (s);WE(1).Potential (V);WE(1).Current (A);Corrected time (s);Index;Current range
15.4905119608902;0.196746826171875;0.0004547119140625;0;1;100 mA
15.500511960865;0.200592041015625;-0.000330810546875;0.00999999997475243;2;100 mA
15.5105119608397;0.200347900390625;5.645751953125E-05;0.0199999999495049;3;100 mA
15.5205119608145;0.2005615234375;0.000360717773437499;0.0299999999242573;4;100 mA
15.5305119607892;0.200592041015625;0.000345764160156251;0.0399999998990097;5;100 mA
15.540511960764;0.200408935546875;0.0006024169921875;0.0499999998737621;6;100 mA
15.5505119607387;0.2005615234375;0.00057037353515625;0.0599999998485146;7;100 mA
15.5605119607135;0.20050048828125;0.000718994140625;0.069999999823267;8;100 mA
15.5705119606882;0.20050048828125;0.000804443359375;0.0799999997980194;9;100 mA
15.580511960663;0.200439453125;0.000715026855468751;0.0899999997727718;10;100 mA
15.5905119606377;0.20050048828125;0.0008770751953125;0.0999999997475243;11;100 mA
15.6005119606125;0.20062255859375;0.00076629638671875;0.109999999722277;12;100 mA
15.6105119605872;0.200408935546875;0.00091522216796875;0.119999999697029;13;100 mA
15.620511960562;0.200531005859375;0.00088531494140625;0.129999999671782;14;100 mA
15.6305119605368;0.200714111328125;0.00092987060546875;0.139999999646534;15;100 mA
15.6405119605115;0.20062255859375;0.0010003662109375;0.149999999621286;16;100 mA
15.6505119604863;0.200531005859375;0.00087860107421875;0.159999999596039;17;100 mA
15.660511960461;0.200439453125;0.00102691650390625;0.169999999570791;18;100 mA
15.6705119604358;0.200592041015625;0.0009368896484375;0.179999999545544;19;100 mA
15.6805119604105;0.200439453125;0.00099517822265625;0.189999999520296;20;100 mA
15.6905119603853;0.200347900390625;0.00108306884765625;0.199999999495049;21;100 mA
15.70051196036;0.200592041015625;0.000980224609374999;0.209999999469801;22;100 mA
15.7105119603348;0.200439453125;0.00111053466796875;0.219999999444553;23;100 mA
15.7205119603095;0.20062255859375;0.00100189208984375;0.229999999419306;24;100 mA
15.7305119602843;0.2005615234375;0.00105743408203125;0.239999999394058;25;100 mA
15.740511960259;0.20068359375;0.00104705810546875;0.249999999368811;26;100 mA
15.7505119602338;0.2005615234375;0.0010223388671875;0.259999999343563;27;100 mA
15.7605119602085;0.20050048828125;0.00113067626953125;0.269999999318316;28;100 mA
15.7705119601833;0.20050048828125;0.001043701171875;0.279999999293068;29;100 mA
15.780511960158;0.20050048828125;0.00116058349609375;0.28999999926782;30;100 mA
15.7905119601328;0.200469970703125;0.0010986328125;0.299999999242573;31;100 mA
15.8005119601075;0.200469970703125;0.00113800048828125;0.309999999217325;32;100 mA
15.8105119600823;0.200531005859375;0.0011785888671875;0.319999999192078;33;100 mA
15.820511960057;0.200592041015625;0.00111083984375;0.32999999916683;34;100 mA
15.8305119600318;0.20050048828125;0.00121368408203125;0.339999999141583;35;100 mA
15.8405119600066;0.200592041015625;0.00107208251953125;0.349999999116335;36;100 mA
15.8505119599813;0.2005615234375;0.00115325927734375;0.359999999091087;37;100 mA
15.8605119599561;0.2005615234375;0.00112762451171875;0.36999999906584;38;100 mA
15.8705119599308;0.20037841796875;0.00111175537109375;0.379999999040592;39;100 mA
15.8805119599056;0.2005615234375;0.001181640625;0.389999999015345;40;100 mA
15.8905119598803;0.200531005859375;0.0011102294921875;0.399999998990097;41;100 mA
15.9005119598551;0.20037841796875;0.0012066650390625;0.40999999896485;42;100 mA
15.9105119598298;0.200531005859375;0.001158447265625;0.419999998939602;43;100 mA
15.9205119598046;0.2005615234375;0.001202392578125;0.429999998914354;44;100 mA
15.9305119597793;0.2005615234375;0.001256103515625;0.439999998889107;45;100 mA
15.9405119597541;0.200531005859375;0.00110443115234375;0.449999998863859;46;100 mA
15.9505119597288;0.20050048828125;0.0012164306640625;0.459999998838612;47;100 mA
15.9605119597036;0.200531005859375;0.00112152099609375;0.469999998813364;48;100 mA
15.9705119596783;0.20050048828125;0.00121246337890625;0.479999998788116;49;100 mA
15.9805119596531;0.200531005859375;0.00117950439453125;0.489999998762869;50;100 mA
15.9905119596278;0.2005615234375;0.00116119384765625;0.499999998737621;51;100 mA
16.0005119596026;0.200653076171875;0.0012335205078125;0.509999998712374;52;100 mA
16.0105119595773;0.2005615234375;0.00113861083984375;0.519999998687126;53;100 mA
16.0205119595521;0.200439453125;0.00125396728515625;0.529999998661879;54;100 mA
16.0305119595268;0.20062255859375;0.00115753173828125;0.539999998636631;55;100 mA
16.0405119595016;0.200469970703125;0.00121185302734375;0.549999998611383;56;100 mA
16.0505119594764;0.20037841796875;0.001234130859375;0.559999998586136;57;100 mA
16.0605119594511;0.20037841796875;0.0011822509765625;0.569999998560888;58;100 mA
16.0705119594259;0.200469970703125;0.001287841796875;0.579999998535641;59;100 mA
16.0805119594006;0.20062255859375;0.00115478515625;0.589999998510393;60;100 mA
16.0905119593754;0.20050048828125;0.0012713623046875;0.599999998485146;61;100 mA
16.1005119593501;0.20062255859375;0.001239013671875;0.609999998459898;62;100 mA
16.1105119593249;0.20068359375;0.0012060546875;0.61999999843465;63;100 mA
16.1205119592996;0.200531005859375;0.00127197265625;0.629999998409403;64;100 mA
16.1305119592744;0.20050048828125;0.00116851806640625;0.639999998384155;65;100 mA
16.1405119592491;0.200439453125;0.00130889892578125;0.649999998358908;66;100 mA
16.1505119592239;0.20050048828125;0.00120635986328125;0.65999999833366;67;100 mA
16.1605119591986;0.200439453125;0.001275634765625;0.669999998308413;68;100 mA
16.1705119591734;0.200469970703125;0.0012890625;0.679999998283165;69;100 mA
16.1805119591481;0.200653076171875;0.0012176513671875;0.689999998257917;70;100 mA
16.1905119591229;0.200531005859375;0.0013201904296875;0.69999999823267;71;100 mA
16.2005119590976;0.200592041015625;0.0011895751953125;0.709999998207422;72;100 mA
16.2105119590724;0.200592041015625;0.0012939453125;0.719999998182175;73;100 mA
16.2205119590471;0.20062255859375;0.00123779296875;0.729999998156927;74;100 mA
16.2305119590219;0.20050048828125;0.0012078857421875;0.73999999813168;75;100 mA
16.2405119589966;0.200408935546875;0.00130462646484375;0.749999998106432;76;100 mA
16.2505119589714;0.2005615234375;0.0012371826171875;0.759999998081184;77;100 mA
16.2605119589462;0.20050048828125;0.0013067626953125;0.769999998055937;78;100 mA
16.2705119589209;0.200469970703125;0.0012298583984375;0.779999998030689;79;100 mA
16.2805119588957;0.20050048828125;0.00124481201171875;0.789999998005442;80;100 mA
16.2905119588704;0.2005615234375;0.0012939453125;0.799999997980194;81;100 mA
16.3005119588452;0.200531005859375;0.0011944580078125;0.809999997954947;82;100 mA
16.3105119588199;0.20050048828125;0.0013153076171875;0.819999997929699;83;100 mA
16.3205119587947;0.20050048828125;0.0011785888671875;0.829999997904451;84;100 mA
16.3305119587694;0.20050048828125;0.00127105712890625;0.839999997879204;85;100 mA
16.3405119587442;0.200439453125;0.001246337890625;0.849999997853956;86;100 mA
16.3505119587189;0.200439453125;0.00121551513671875;0.859999997828709;87;100 mA
16.3605119586937;0.2005615234375;0.00130645751953125;0.869999997803461;88;100 mA
16.3705119586684;0.2005615234375;0.00120361328125;0.879999997778214;89;100 mA
16.3805119586432;0.200408935546875;0.00131439208984375;0.889999997752966;90;100 mA
16.3905119586179;0.20050048828125;0.0012213134765625;0.899999997727718;91;100 mA
16.4005119585927;0.200592041015625;0.00126312255859375;0.909999997702471;92;100 mA
16.4105119585674;0.200439453125;0.0013232421875;0.919999997677223;93;100 mA
16.4205119585422;0.20037841796875;0.001224365234375;0.929999997651976;94;100 mA
16.4305119585169;0.200531005859375;0.00132476806640625;0.939999997626728;95;100 mA
16.4405119584917;0.200592041015625;0.00121612548828125;0.949999997601481;96;100 mA
16.4505119584664;0.200439453125;0.0013092041015625;0.959999997576233;97;100 mA
16.4605119584412;0.2005615234375;0.0012939453125;0.969999997550985;98;100 mA
16.470511958416;0.20068359375;0.00125274658203125;0.979999997525738;99;100 mA
16.4805119583907;0.200592041015625;0.0013348388671875;0.98999999750049;100;100 mA
16.4905119583655;0.200469970703125;0.00124969482421875;0.999999997475243;101;100 mA
16.5005119583402;0.200531005859375;0.001358642578125;1.00999999745;102;100 mA
16.510511958315;0.200531005859375;0.00129791259765625;1.01999999742475;103;100 mA
16.5205119582897;0.200439453125;0.0013104248046875;1.0299999973995;104;100 mA
16.5305119582645;0.20037841796875;0.001351318359375;1.03999999737425;105;100 mA
16.5405119582392;0.200592041015625;0.0012786865234375;1.049999997349;106;100 mA
16.550511958214;0.2005615234375;0.00134857177734375;1.05999999732376;107;100 mA
16.5605119581887;0.200592041015625;0.001239013671875;1.06999999729851;108;100 mA
16.5705119581635;0.2005615234375;0.00134002685546875;1.07999999727326;109;100 mA
16.5805119581382;0.20074462890625;0.00130218505859375;1.08999999724801;110;100 mA
16.590511958113;0.2005615234375;0.0012628173828125;1.09999999722277;111;100 mA
16.6005119580877;0.20037841796875;0.001361083984375;1.10999999719752;112;100 mA
16.6105119580625;0.200469970703125;0.00121490478515625;1.11999999717227;113;100 mA
16.6205119580372;0.200439453125;0.0013385009765625;1.12999999714702;114;100 mA
16.630511958012;0.200469970703125;0.0012506103515625;1.13999999712178;115;100 mA
16.6405119579867;0.20037841796875;0.00130889892578125;1.14999999709653;116;100 mA
16.6505119579615;0.200592041015625;0.00132293701171875;1.15999999707128;117;100 mA
16.6605119579363;0.200592041015625;0.00126129150390625;1.16999999704603;118;100 mA
16.670511957911;0.200469970703125;0.001337890625;1.17999999702079;119;100 mA
16.6805119578858;0.200531005859375;0.001217041015625;1.18999999699554;120;100 mA
16.6905119578605;0.2005615234375;0.001312255859375;1.19999999697029;121;100 mA
16.7005119578353;0.200439453125;0.00125701904296875;1.20999999694504;122;100 mA
16.71051195781;0.200439453125;0.00124298095703125;1.2199999969198;123;100 mA
16.7205119577848;0.200531005859375;0.00130462646484375;1.22999999689455;124;100 mA
16.7305119577595;0.200592041015625;0.00123443603515625;1.2399999968693;125;100 mA
16.7405119577343;0.200439453125;0.0013201904296875;1.24999999684405;126;100 mA
16.750511957709;0.200531005859375;0.00123626708984375;1.25999999681881;127;100 mA
16.7605119576838;0.200531005859375;0.0012786865234375;1.26999999679356;128;100 mA
16.7705119576585;0.200592041015625;0.00129241943359375;1.27999999676831;129;100 mA
16.7805119576333;0.200408935546875;0.0012347412109375;1.28999999674306;130;100 mA
16.790511957608;0.200469970703125;0.00132415771484375;1.29999999671782;131;100 mA
16.8005119575828;0.2005615234375;0.00119781494140625;1.30999999669257;132;100 mA
16.8105119575575;0.200408935546875;0.0013116455078125;1.31999999666732;133;100 mA
16.8205119575323;0.200469970703125;0.00126220703125;1.32999999664207;134;100 mA
16.830511957507;0.200592041015625;0.0012689208984375;1.33999999661683;135;100 mA
16.8405119574818;0.2005615234375;0.00134521484375;1.34999999659158;136;100 mA
16.8505119574565;0.200592041015625;0.00124298095703125;1.35999999656633;137;100 mA
16.8605119574313;0.200439453125;0.00137786865234375;1.36999999654108;138;100 mA
16.8705119574061;0.2005615234375;0.0012994384765625;1.37999999651583;139;100 mA
16.8805119573808;0.200408935546875;0.0013385009765625;1.38999999649059;140;100 mA
16.8905119573556;0.200408935546875;0.00134552001953125;1.39999999646534;141;100 mA
16.9005119573303;0.200439453125;0.00125762939453125;1.40999999644009;142;100 mA
16.9105119573051;0.2005615234375;0.001368408203125;1.41999999641484;143;100 mA
16.9205119572798;0.200653076171875;0.0012298583984375;1.4299999963896;144;100 mA
16.9305119572546;0.200469970703125;0.001318359375;1.43999999636435;145;100 mA
16.9405119572293;0.200714111328125;0.00128143310546875;1.4499999963391;146;100 mA
16.9505119572041;0.2005615234375;0.0012408447265625;1.45999999631385;147;100 mA
16.9605119571788;0.20050048828125;0.0013433837890625;1.46999999628861;148;100 mA
16.9705119571536;0.200531005859375;0.001212158203125;1.47999999626336;149;100 mA
16.9805119571283;0.200439453125;0.00133697509765625;1.48999999623811;150;100 mA
16.9905119571031;0.200469970703125;0.0012542724609375;1.49999999621286;151;100 mA
17.0005119570778;0.20037841796875;0.00127838134765625;1.50999999618762;152;100 mA
17.0105119570526;0.200531005859375;0.00132415771484375;1.51999999616237;153;100 mA
17.0205119570273;0.200592041015625;0.00124114990234375;1.52999999613712;154;100 mA
17.0305119570021;0.200469970703125;0.00134796142578125;1.53999999611187;155;100 mA
17.0405119569768;0.2005615234375;0.00123565673828125;1.54999999608663;156;100 mA
17.0505119569516;0.200592041015625;0.00131317138671875;1.55999999606138;157;100 mA
17.0605119569263;0.200592041015625;0.00129547119140625;1.56999999603613;158;100 mA
17.0705119569011;0.200469970703125;0.00126800537109375;1.57999999601088;159;100 mA
17.0805119568759;0.200439453125;0.00135589599609375;1.58999999598564;160;100 mA
17.0905119568506;0.2005615234375;0.00124725341796875;1.59999999596039;161;100 mA
17.1005119568254;0.200439453125;0.00135955810546875;1.60999999593514;162;100 mA
17.1105119568001;0.200469970703125;0.00128387451171875;1.61999999590989;163;100 mA
17.1205119567749;0.200531005859375;0.00131683349609375;1.62999999588465;164;100 mA
17.1305119567496;0.200592041015625;0.00134124755859375;1.6399999958594;165;100 mA
17.1405119567244;0.200531005859375;0.00128692626953125;1.64999999583415;166;100 mA
17.1505119566991;0.200469970703125;0.0013568115234375;1.6599999958089;167;100 mA
17.1605119566739;0.2005615234375;0.001273193359375;1.66999999578366;168;100 mA
17.1705119566486;0.200408935546875;0.00135467529296875;1.67999999575841;169;100 mA
17.1805119566234;0.200439453125;0.001326904296875;1.68999999573316;170;100 mA
17.1905119565981;0.200531005859375;0.0012896728515625;1.69999999570791;171;100 mA
17.2005119565729;0.200592041015625;0.00135833740234375;1.70999999568267;172;100 mA
17.2105119565476;0.200531005859375;0.00126007080078125;1.71999999565742;173;100 mA
17.2205119565224;0.200469970703125;0.0013800048828125;1.72999999563217;174;100 mA
17.2305119564971;0.200592041015625;0.001275634765625;1.73999999560692;175;100 mA
17.2405119564719;0.200439453125;0.001322021484375;1.74999999558167;176;100 mA
17.2505119564466;0.200408935546875;0.00135833740234375;1.75999999555643;177;100 mA
17.2605119564214;0.200408935546875;0.00125885009765625;1.76999999553118;178;100 mA
17.2705119563961;0.200469970703125;0.00135467529296875;1.77999999550593;179;100 mA
17.2805119563709;0.20062255859375;0.001234130859375;1.78999999548068;180;100 mA
17.2905119563457;0.20037841796875;0.00133453369140625;1.79999999545544;181;100 mA
17.3005119563204;0.2005615234375;0.00127716064453125;1.80999999543019;182;100 mA
17.3105119562952;0.200714111328125;0.0012725830078125;1.81999999540494;183;100 mA
17.3205119562699;0.2005615234375;0.001334228515625;1.82999999537969;184;100 mA
17.3305119562447;0.20050048828125;0.001251220703125;1.83999999535445;185;100 mA
17.3405119562194;0.20050048828125;0.0013800048828125;1.8499999953292;186;100 mA
17.3505119561942;0.20050048828125;0.00128082275390625;1.85999999530395;187;100 mA
17.3605119561689;0.200408935546875;0.00133575439453125;1.8699999952787;188;100 mA
17.3705119561437;0.200469970703125;0.00135955810546875;1.87999999525346;189;100 mA
17.3805119561184;0.2005615234375;0.00125579833984375;1.88999999522821;190;100 mA
17.3905119560932;0.200531005859375;0.00137054443359375;1.89999999520296;191;100 mA
17.4005119560679;0.200531005859375;0.00122955322265625;1.90999999517771;192;100 mA
17.4105119560427;0.2005615234375;0.00134765625;1.91999999515247;193;100 mA
17.4205119560174;0.200653076171875;0.00129180908203125;1.92999999512722;194;100 mA
17.4305119559922;0.2005615234375;0.00127410888671875;1.93999999510197;195;100 mA
17.4405119559669;0.200408935546875;0.00135650634765625;1.94999999507672;196;100 mA
17.4505119559417;0.200469970703125;0.0012310791015625;1.95999999505148;197;100 mA
17.4605119559164;0.200469970703125;0.001373291015625;1.96999999502623;198;100 mA
17.4705119558912;0.200469970703125;0.00126678466796875;1.97999999500098;199;100 mA
17.4805119558659;0.20050048828125;0.00131256103515625;1.98999999497573;200;100 mA
17.4905119558407;0.2005615234375;0.00134063720703125;1.99999999495049;201;100 mA
17.5005119558155;0.20062255859375;0.001258544921875;2.00999999492524;202;100 mA
17.5105119557902;0.200469970703125;0.0013720703125;2.01999999489999;203;100 mA
17.520511955765;0.200531005859375;0.00124725341796875;2.02999999487474;204;100 mA
17.5305119557397;0.200439453125;0.00134674072265625;2.0399999948495;205;100 mA
17.5405119557145;0.20050048828125;0.00130462646484375;2.04999999482425;206;100 mA
17.5505119556892;0.20037841796875;0.00129638671875;2.059999994799;207;100 mA
17.560511955664;0.2005615234375;0.00137115478515625;2.06999999477375;208;100 mA
17.5705119556387;0.20062255859375;0.00126190185546875;2.0799999947485;209;100 mA
17.5805119556135;0.200469970703125;0.00138885498046875;2.08999999472326;210;100 mA
17.5905119555882;0.2005615234375;0.0013031005859375;2.09999999469801;211;100 mA
17.600511955563;0.2005615234375;0.001326904296875;2.10999999467276;212;100 mA
17.6105119555377;0.2005615234375;0.00137359619140625;2.11999999464751;213;100 mA
17.6205119555125;0.200439453125;0.00128143310546875;2.12999999462227;214;100 mA
17.6305119554872;0.200439453125;0.001387939453125;2.13999999459702;215;100 mA
17.640511955462;0.20062255859375;0.0012640380859375;2.14999999457177;216;100 mA
17.6505119554367;0.200408935546875;0.00135894775390625;2.15999999454652;217;100 mA
17.6605119554115;0.200439453125;0.001326904296875;2.16999999452128;218;100 mA
17.6705119553862;0.20062255859375;0.00129974365234375;2.17999999449603;219;100 mA
17.680511955361;0.20062255859375;0.00138153076171875;2.18999999447078;220;100 mA
17.6905119553358;0.2005615234375;0.0012890625;2.19999999444553;221;100 mA
17.7005119553105;0.200439453125;0.00138702392578125;2.20999999442029;222;100 mA
17.7105119552853;0.20062255859375;0.00130584716796875;2.21999999439504;223;100 mA
17.72051195526;0.20050048828125;0.00133087158203125;2.22999999436979;224;100 mA
17.7305119552348;0.2003173828125;0.00138916015625;2.23999999434454;225;100 mA
17.7405119552095;0.200439453125;0.00127899169921875;2.2499999943193;226;100 mA
17.7505119551843;0.20050048828125;0.001385498046875;2.25999999429405;227;100 mA
17.760511955159;0.20062255859375;0.00127197265625;2.2699999942688;228;100 mA
17.7705119551338;0.20050048828125;0.00134552001953125;2.27999999424355;229;100 mA
17.7805119551085;0.200653076171875;0.00130096435546875;2.28999999421831;230;100 mA
17.7905119550833;0.200653076171875;0.001292724609375;2.29999999419306;231;100 mA
17.800511955058;0.20050048828125;0.001363525390625;2.30999999416781;232;100 mA
17.8105119550328;0.200408935546875;0.0012615966796875;2.31999999414256;233;100 mA
17.8205119550075;0.200469970703125;0.00138763427734375;2.32999999411732;234;100 mA
17.8305119549823;0.200469970703125;0.00129638671875;2.33999999409207;235;100 mA
17.840511954957;0.2003173828125;0.001339111328125;2.34999999406682;236;100 mA
17.8505119549318;0.200531005859375;0.0013446044921875;2.35999999404157;237;100 mA
17.8605119549065;0.200653076171875;0.00128692626953125;2.36999999401633;238;100 mA
17.8705119548813;0.200531005859375;0.001400146484375;2.37999999399108;239;100 mA
17.880511954856;0.2005615234375;0.00128326416015625;2.38999999396583;240;100 mA
17.8905119548308;0.200592041015625;0.0013629150390625;2.39999999394058;241;100 mA
17.9005119548056;0.20062255859375;0.001300048828125;2.40999999391533;242;100 mA
17.9105119547803;0.200439453125;0.00125518798828125;2.41999999389009;243;100 mA
17.9205119547551;0.200439453125;0.0013348388671875;2.42999999386484;244;100 mA
17.9305119547298;0.2005615234375;0.0012353515625;2.43999999383959;245;100 mA
17.9405119547046;0.20050048828125;0.00136260986328125;2.44999999381434;246;100 mA
17.9505119546793;0.200439453125;0.00126922607421875;2.4599999937891;247;100 mA
17.9605119546541;0.20050048828125;0.00131378173828125;2.46999999376385;248;100 mA
17.9705119546288;0.200592041015625;0.00135040283203125;2.4799999937386;249;100 mA
17.9805119546036;0.20050048828125;0.0012567138671875;2.48999999371335;250;100 mA
17.9905119545783;0.200531005859375;0.0013885498046875;2.49999999368811;251;100 mA
18.0005119545531;0.2005615234375;0.001204833984375;2.50999999366286;252;100 mA
18.0105119545278;0.200439453125;0.00131561279296875;2.51999999363761;253;100 mA
18.0205119545026;0.200439453125;0.00127777099609375;2.52999999361236;254;100 mA
18.0305119544773;0.200531005859375;0.00126617431640625;2.53999999358712;255;100 mA
18.0405119544521;0.200653076171875;0.00132568359375;2.54999999356187;256;100 mA
18.0505119544268;0.20062255859375;0.00122100830078125;2.55999999353662;257;100 mA
18.0605119544016;0.200439453125;0.00137054443359375;2.56999999351137;258;100 mA
18.0705119543763;0.200592041015625;0.00125885009765625;2.57999999348613;259;100 mA
18.0805119543511;0.200531005859375;0.00130767822265625;2.58999999346088;260;100 mA
18.0905119543258;0.20037841796875;0.00138580322265625;2.59999999343563;261;100 mA
18.1005119543006;0.200408935546875;0.00123199462890625;2.60999999341038;262;100 mA
18.1105119542754;0.2005615234375;0.00136993408203125;2.61999999338514;263;100 mA
18.1205119542501;0.200653076171875;0.00123199462890625;2.62999999335989;264;100 mA
18.1305119542249;0.20037841796875;0.0013311767578125;2.63999999333464;265;100 mA
18.1405119541996;0.20062255859375;0.00129669189453125;2.64999999330939;266;100 mA
18.1505119541744;0.20074462890625;0.00126983642578125;2.65999999328415;267;100 mA
18.1605119541491;0.200592041015625;0.00135528564453125;2.6699999932589;268;100 mA
18.1705119541239;0.20050048828125;0.00125579833984375;2.67999999323365;269;100 mA
18.1805119540986;0.20050048828125;0.00137481689453125;2.6899999932084;270;100 mA
18.1905119540734;0.200592041015625;0.0013037109375;2.69999999318316;271;100 mA
18.2005119540481;0.20037841796875;0.00135009765625;2.70999999315791;272;100 mA
18.2105119540229;0.200439453125;0.00139617919921875;2.71999999313266;273;100 mA
18.2205119539976;0.20062255859375;0.00128692626953125;2.72999999310741;274;100 mA
18.2305119539724;0.2005615234375;0.0013482666015625;2.73999999308217;275;100 mA
18.2405119539471;0.200653076171875;0.0012274169921875;2.74999999305692;276;100 mA
18.2505119539219;0.200592041015625;0.0013250732421875;2.75999999303167;277;100 mA
18.2605119538966;0.20062255859375;0.00130523681640625;2.76999999300642;278;100 mA
18.2705119538714;0.200531005859375;0.00126312255859375;2.77999999298117;279;100 mA
18.2805119538461;0.20037841796875;0.00135986328125;2.78999999295593;280;100 mA
18.2905119538209;0.20050048828125;0.00126068115234375;2.79999999293068;281;100 mA
18.3005119537956;0.200469970703125;0.00135589599609375;2.80999999290543;282;100 mA
18.3105119537704;0.200469970703125;0.0013018798828125;2.81999999288018;283;100 mA
18.3205119537452;0.200469970703125;0.00130096435546875;2.82999999285494;284;100 mA
18.3305119537199;0.2005615234375;0.001328125;2.83999999282969;285;100 mA
18.3405119536947;0.20062255859375;0.00125457763671875;2.84999999280444;286;100 mA
18.3505119536694;0.20050048828125;0.00133758544921875;2.85999999277919;287;100 mA
18.3605119536442;0.200592041015625;0.00125640869140625;2.86999999275395;288;100 mA
18.3705119536189;0.2005615234375;0.001309814453125;2.8799999927287;289;100 mA
18.3805119535937;0.20050048828125;0.00128814697265625;2.88999999270345;290;100 mA
18.3905119535684;0.200408935546875;0.0012841796875;2.8999999926782;291;100 mA
18.4005119535432;0.200469970703125;0.00137847900390625;2.90999999265296;292;100 mA
18.4105119535179;0.2005615234375;0.0012469482421875;2.91999999262771;293;100 mA
18.4205119534927;0.20037841796875;0.00137054443359375;2.92999999260246;294;100 mA
18.4305119534674;0.200531005859375;0.0013006591796875;2.93999999257721;295;100 mA
18.4405119534422;0.200592041015625;0.00135894775390625;2.94999999255197;296;100 mA
18.4505119534169;0.200531005859375;0.0013665771484375;2.95999999252672;297;100 mA
18.4605119533917;0.200531005859375;0.001326904296875;2.96999999250147;298;100 mA
18.4705119533664;0.200439453125;0.0014117431640625;2.97999999247622;299;100 mA
18.4805119533412;0.2005615234375;0.00130859375;2.98999999245098;300;100 mA
18.4905119533159;0.200439453125;0.00141754150390625;2.99999999242573;301;100 mA
18.5005119532907;0.200531005859375;0.00148590087890625;3.00999999240048;302;100 mA
18.5105119532654;0.200592041015625;0.00132537841796875;3.01999999237523;303;100 mA
18.5205119532402;0.20068359375;0.001405029296875;3.02999999234999;304;100 mA
18.530511953215;0.200592041015625;0.00126434326171875;3.03999999232474;305;100 mA
18.5405119531897;0.200469970703125;0.00139862060546875;3.04999999229949;306;100 mA
18.5505119531645;0.200531005859375;0.0012933349609375;3.05999999227424;307;100 mA
18.5605119531392;0.200408935546875;0.00136474609375;3.069999992249;308;100 mA
18.570511953114;0.200439453125;0.00138092041015625;3.07999999222375;309;100 mA
18.5805119530887;0.200439453125;0.0012890625;3.0899999921985;310;100 mA
18.5905119530635;0.200531005859375;0.00141082763671875;3.09999999217325;311;100 mA
18.6005119530382;0.20068359375;0.00128204345703125;3.109999992148;312;100 mA
18.610511953013;0.200469970703125;0.00139801025390625;3.11999999212276;313;100 mA
18.6205119529877;0.2005615234375;0.00133575439453125;3.12999999209751;314;100 mA
18.6305119529625;0.200653076171875;0.00127716064453125;3.13999999207226;315;100 mA
18.6405119529372;0.20050048828125;0.00136627197265625;3.14999999204701;316;100 mA
18.650511952912;0.20050048828125;0.0012542724609375;3.15999999202177;317;100 mA
18.6605119528867;0.200408935546875;0.00139617919921875;3.16999999199652;318;100 mA
18.6705119528615;0.200469970703125;0.00130035400390625;3.17999999197127;319;100 mA
18.6805119528362;0.2003173828125;0.00134796142578125;3.18999999194602;320;100 mA
18.690511952811;0.20050048828125;0.00139923095703125;3.19999999192078;321;100 mA
18.7005119527857;0.20062255859375;0.00128204345703125;3.20999999189553;322;100 mA
18.7105119527605;0.20050048828125;0.001405029296875;3.21999999187028;323;100 mA
18.7205119527353;0.2005615234375;0.0012652587890625;3.22999999184503;324;100 mA
18.73051195271;0.20068359375;0.0013531494140625;3.23999999181979;325;100 mA
18.7405119526848;0.20068359375;0.00131744384765625;3.24999999179454;326;100 mA
18.7505119526595;0.200469970703125;0.00129119873046875;3.25999999176929;327;100 mA
18.7605119526343;0.200439453125;0.00138427734375;3.26999999174404;328;100 mA
18.770511952609;0.20050048828125;0.0012750244140625;3.2799999917188;329;100 mA
18.7805119525838;0.200408935546875;0.00137542724609375;3.28999999169355;330;100 mA
18.7905119525585;0.200469970703125;0.00132476806640625;3.2999999916683;331;100 mA
18.8005119525333;0.200531005859375;0.00133209228515625;3.30999999164305;332;100 mA
18.810511952508;0.20062255859375;0.00141143798828125;3.31999999161781;333;100 mA
18.8205119524828;0.2005615234375;0.0012640380859375;3.32999999159256;334;100 mA
18.8305119524575;0.200439453125;0.0013580322265625;3.33999999156731;335;100 mA
18.8405119524323;0.20050048828125;0.001258544921875;3.34999999154206;336;100 mA
18.850511952407;0.20050048828125;0.00133209228515625;3.35999999151682;337;100 mA
18.8605119523818;0.200439453125;0.001298828125;3.36999999149157;338;100 mA
18.8705119523565;0.200439453125;0.00128326416015625;3.37999999146632;339;100 mA
18.8805119523313;0.200592041015625;0.00137420654296875;3.38999999144107;340;100 mA
18.890511952306;0.200592041015625;0.00127105712890625;3.39999999141583;341;100 mA
18.9005119522808;0.200439453125;0.00142181396484375;3.40999999139058;342;100 mA
18.9105119522555;0.200531005859375;0.0013543701171875;3.41999999136533;343;100 mA
18.9205119522303;0.2005615234375;0.0013323974609375;3.42999999134008;344;100 mA
18.9305119522051;0.200531005859375;0.00135711669921875;3.43999999131483;345;100 mA
18.9405119521798;0.200439453125;0.00128631591796875;3.44999999128959;346;100 mA
18.9505119521546;0.200469970703125;0.00138031005859375;3.45999999126434;347;100 mA
18.9605119521293;0.200592041015625;0.00130462646484375;3.46999999123909;348;100 mA
18.9705119521041;0.200439453125;0.0013543701171875;3.47999999121384;349;100 mA
18.9805119520788;0.200531005859375;0.0013250732421875;3.4899999911886;350;100 mA
18.9905119520536;0.20068359375;0.0013427734375;3.49999999116335;351;100 mA
19.0005119520283;0.20068359375;0.0014105224609375;3.5099999911381;352;100 mA
19.0105119520031;0.2005615234375;0.00133331298828125;3.51999999111285;353;100 mA
19.0205119519778;0.200439453125;0.00136383056640625;3.52999999108761;354;100 mA
19.0305119519526;0.20062255859375;0.001285400390625;3.53999999106236;355;100 mA
19.0405119519273;0.200408935546875;0.00131500244140625;3.54999999103711;356;100 mA
19.0505119519021;0.200408935546875;0.00132232666015625;3.55999999101186;357;100 mA
19.0605119518768;0.20050048828125;0.00127105712890625;3.56999999098662;358;100 mA
19.0705119518516;0.2005615234375;0.00137451171875;3.57999999096137;359;100 mA
19.0805119518263;0.200592041015625;0.001240234375;3.58999999093612;360;100 mA
19.0905119518011;0.200531005859375;0.0013494873046875;3.59999999091087;361;100 mA
19.1005119517758;0.200714111328125;0.00137542724609375;3.60999999088563;362;100 mA
19.1105119517506;0.2005615234375;0.00136138916015625;3.61999999086038;363;100 mA
19.1205119517253;0.200439453125;0.00140716552734375;3.62999999083513;364;100 mA
19.1305119517001;0.200469970703125;0.00121826171875;3.63999999080988;365;100 mA
19.1405119516749;0.200439453125;0.001358642578125;3.64999999078464;366;100 mA
19.1505119516496;0.200469970703125;0.00125701904296875;3.65999999075939;367;100 mA
19.1605119516244;0.200347900390625;0.0013165283203125;3.66999999073414;368;100 mA
19.1705119515991;0.20050048828125;0.0013531494140625;3.67999999070889;369;100 mA
19.1805119515739;0.20062255859375;0.00125579833984375;3.68999999068365;370;100 mA
19.1905119515486;0.200531005859375;0.00138427734375;3.6999999906584;371;100 mA
19.2005119515234;0.200531005859375;0.001282958984375;3.70999999063315;372;100 mA
19.2105119514981;0.200592041015625;0.00136810302734375;3.7199999906079;373;100 mA
19.2205119514729;0.20050048828125;0.0013421630859375;3.72999999058266;374;100 mA
19.2305119514476;0.200469970703125;0.00124237060546875;3.73999999055741;375;100 mA
19.2405119514224;0.20050048828125;0.00132568359375;3.74999999053216;376;100 mA
19.2505119513971;0.2005615234375;0.00124359130859375;3.75999999050691;377;100 mA
19.2605119513719;0.200469970703125;0.001375732421875;3.76999999048167;378;100 mA
19.2705119513466;0.20050048828125;0.0012994384765625;3.77999999045642;379;100 mA
19.2805119513214;0.200592041015625;0.00132720947265625;3.78999999043117;380;100 mA
19.2905119512961;0.200531005859375;0.00136474609375;3.79999999040592;381;100 mA
19.3005119512709;0.20050048828125;0.00131683349609375;3.80999999038067;382;100 mA
19.3105119512456;0.20050048828125;0.001405029296875;3.81999999035543;383;100 mA
19.3205119512204;0.200531005859375;0.0013177490234375;3.82999999033018;384;100 mA
19.3305119511951;0.200439453125;0.00135162353515625;3.83999999030493;385;100 mA
19.3405119511699;0.200439453125;0.00128082275390625;3.84999999027968;386;100 mA
19.3505119511447;0.20050048828125;0.0012567138671875;3.85999999025444;387;100 mA
19.3605119511194;0.200592041015625;0.00135528564453125;3.86999999022919;388;100 mA
19.3705119510942;0.200531005859375;0.001273193359375;3.87999999020394;389;100 mA
19.3805119510689;0.200439453125;0.00138397216796875;3.88999999017869;390;100 mA
19.3905119510437;0.200592041015625;0.00132598876953125;3.89999999015345;391;100 mA
19.4005119510184;0.200469970703125;0.0013629150390625;3.9099999901282;392;100 mA
19.4105119509932;0.200408935546875;0.00142333984375;3.91999999010295;393;100 mA
19.4205119509679;0.200408935546875;0.00138946533203125;3.9299999900777;394;100 mA
19.4305119509427;0.200439453125;0.00143402099609375;3.93999999005246;395;100 mA
19.4405119509174;0.20062255859375;0.00127410888671875;3.94999999002721;396;100 mA
19.4505119508922;0.200439453125;0.00135772705078125;3.95999999000196;397;100 mA
19.4605119508669;0.2005615234375;0.001334228515625;3.96999998997671;398;100 mA
19.4705119508417;0.20068359375;0.001326904296875;3.97999998995147;399;100 mA
19.4805119508164;0.200531005859375;0.00139007568359375;3.98999998992622;400;100 mA
19.4905119507912;0.200439453125;0.0013238525390625;3.99999998990097;401;100 mA
19.5005119507659;0.200469970703125;0.0014080810546875;4.00999998987572;402;100 mA
19.5105119507407;0.200469970703125;0.001378173828125;4.01999998985048;403;100 mA
19.5205119507154;0.20037841796875;0.00142791748046875;4.02999998982523;404;100 mA
19.5305119506902;0.200408935546875;0.0014276123046875;4.03999998979998;405;100 mA
19.5405119506649;0.200592041015625;0.00134185791015625;4.04999998977473;406;100 mA
19.5505119506397;0.2005615234375;0.00138153076171875;4.05999998974949;407;100 mA
19.5605119506145;0.20062255859375;0.00128448486328125;4.06999998972424;408;100 mA
19.5705119505892;0.200531005859375;0.001392822265625;4.07999998969899;409;100 mA
19.580511950564;0.20068359375;0.00133270263671875;4.08999998967374;410;100 mA
19.5905119505387;0.2005615234375;0.00134857177734375;4.0999999896485;411;100 mA
19.6005119505135;0.200439453125;0.00140594482421875;4.10999998962325;412;100 mA
19.6105119504882;0.200531005859375;0.00133636474609375;4.119999989598;413;100 mA
19.620511950463;0.200439453125;0.0014715576171875;4.12999998957275;414;100 mA
19.6305119504377;0.200439453125;0.00142486572265625;4.1399999895475;415;100 mA
19.6405119504125;0.200469970703125;0.00146148681640625;4.14999998952226;416;100 mA
19.6505119503872;0.200653076171875;0.00138702392578125;4.15999998949701;417;100 mA
19.660511950362;0.20068359375;0.00130889892578125;4.16999998947176;418;100 mA
19.6705119503367;0.20050048828125;0.00141204833984375;4.17999998944651;419;100 mA
19.6805119503115;0.2005615234375;0.00128570556640625;4.18999998942127;420;100 mA
19.6905119502862;0.200531005859375;0.00139251708984375;4.19999998939602;421;100 mA
19.700511950261;0.2005615234375;0.0013348388671875;4.20999998937077;422;100 mA
19.7105119502357;0.200408935546875;0.00131256103515625;4.21999998934552;423;100 mA
19.7205119502105;0.20050048828125;0.0013916015625;4.22999998932028;424;100 mA
19.7305119501852;0.2005615234375;0.0012860107421875;4.23999998929503;425;100 mA
19.74051195016;0.200469970703125;0.0013934326171875;4.24999998926978;426;100 mA
19.7505119501348;0.200531005859375;0.0012908935546875;4.25999998924453;427;100 mA
19.7605119501095;0.200531005859375;0.001322021484375;4.26999998921929;428;100 mA
19.7705119500843;0.2005615234375;0.00134490966796875;4.27999998919404;429;100 mA
19.780511950059;0.200408935546875;0.001263427734375;4.28999998916879;430;100 mA
19.7905119500338;0.200439453125;0.001368408203125;4.29999998914354;431;100 mA
19.8005119500085;0.200592041015625;0.00124969482421875;4.3099999891183;432;100 mA
19.8105119499833;0.200439453125;0.00132049560546875;4.31999998909305;433;100 mA
19.820511949958;0.200469970703125;0.00130035400390625;4.3299999890678;434;100 mA
19.8305119499328;0.200653076171875;0.00128692626953125;4.33999998904255;435;100 mA
19.8405119499075;0.20062255859375;0.001390380859375;4.34999998901731;436;100 mA
19.8505119498823;0.2005615234375;0.00124969482421875;4.35999998899206;437;100 mA
19.860511949857;0.200439453125;0.0013427734375;4.36999998896681;438;100 mA
19.8705119498318;0.2005615234375;0.00126190185546875;4.37999998894156;439;100 mA
19.8805119498065;0.20050048828125;0.0013031005859375;4.38999998891632;440;100 mA
19.8905119497813;0.200347900390625;0.0013330078125;4.39999998889107;441;100 mA
19.900511949756;0.200439453125;0.001253662109375;4.40999998886582;442;100 mA
19.9105119497308;0.20050048828125;0.00135162353515625;4.41999998884057;443;100 mA
19.9205119497055;0.200653076171875;0.00123809814453125;4.42999998881533;444;100 mA
19.9305119496803;0.20050048828125;0.001331787109375;4.43999998879008;445;100 mA
19.940511949655;0.20062255859375;0.00135467529296875;4.44999998876483;446;100 mA
19.9505119496298;0.200653076171875;0.001248779296875;4.45999998873958;447;100 mA
19.9605119496046;0.2005615234375;0.00133148193359375;4.46999998871433;448;100 mA
19.9705119495793;0.200469970703125;0.001236572265625;4.47999998868909;449;100 mA
19.9805119495541;0.200439453125;0.001363525390625;4.48999998866384;450;100 mA
19.9905119495288;0.2005615234375;0.001279296875;4.49999998863859;451;100 mA
20.0005119495036;0.200347900390625;0.00132171630859375;4.50999998861334;452;100 mA
20.0105119494783;0.200531005859375;0.00135955810546875;4.5199999885881;453;100 mA
20.0205119494531;0.20062255859375;0.0012713623046875;4.52999998856285;454;100 mA
20.0305119494278;0.200531005859375;0.0013751220703125;4.5399999885376;455;100 mA
20.0405119494026;0.200592041015625;0.0012896728515625;4.54999998851235;456;100 mA
20.0505119493773;0.200592041015625;0.0013397216796875;4.55999998848711;457;100 mA
20.0605119493521;0.20062255859375;0.00130340576171875;4.56999998846186;458;100 mA
20.0705119493268;0.200439453125;0.001273193359375;4.57999998843661;459;100 mA
20.0805119493016;0.200408935546875;0.0013336181640625;4.58999998841136;460;100 mA
20.0905119492763;0.20050048828125;0.0012506103515625;4.59999998838612;461;100 mA
20.1005119492511;0.20037841796875;0.0013433837890625;4.60999998836087;462;100 mA
20.1105119492258;0.200469970703125;0.00127899169921875;4.61999998833562;463;100 mA
20.1205119492006;0.20050048828125;0.0013067626953125;4.62999998831037;464;100 mA
20.1305119491753;0.200653076171875;0.0013543701171875;4.63999998828513;465;100 mA
20.1405119491501;0.2005615234375;0.0013177490234375;4.64999998825988;466;100 mA
20.1505119491248;0.200439453125;0.00134918212890625;4.65999998823463;467;100 mA
20.1605119490996;0.200531005859375;0.00122467041015625;4.66999998820938;468;100 mA
20.1705119490744;0.20050048828125;0.00130462646484375;4.67999998818414;469;100 mA
20.1805119490491;0.200469970703125;0.0012548828125;4.68999998815889;470;100 mA
20.1905119490239;0.200408935546875;0.00126800537109375;4.69999998813364;471;100 mA
20.2005119489986;0.200531005859375;0.0013311767578125;4.70999998810839;472;100 mA
20.2105119489734;0.200592041015625;0.00125335693359375;4.71999998808315;473;100 mA
20.2205119489481;0.200408935546875;0.00138702392578125;4.7299999880579;474;100 mA
20.2305119489229;0.2005615234375;0.00129608154296875;4.73999998803265;475;100 mA
20.2405119488976;0.200592041015625;0.001356201171875;4.7499999880074;476;100 mA
20.2505119488724;0.20050048828125;0.00138946533203125;4.75999998798216;477;100 mA
20.2605119488471;0.200408935546875;0.001319580078125;4.76999998795691;478;100 mA
20.2705119488219;0.200439453125;0.001417236328125;4.77999998793166;479;100 mA
20.2805119487966;0.20062255859375;0.00128692626953125;4.78999998790641;480;100 mA
20.2905119487714;0.200439453125;0.0013909912109375;4.79999998788116;481;100 mA
20.3005119487461;0.200531005859375;0.00133544921875;4.80999998785592;482;100 mA
20.3105119487209;0.200653076171875;0.0013330078125;4.81999998783067;483;100 mA
20.3205119486956;0.2005615234375;0.001427001953125;4.82999998780542;484;100 mA
20.3305119486704;0.200592041015625;0.001297607421875;4.83999998778017;485;100 mA
20.3405119486451;0.20037841796875;0.00143402099609375;4.84999998775493;486;100 mA
20.3505119486199;0.200531005859375;0.0013311767578125;4.85999998772968;487;100 mA
20.3605119485946;0.20037841796875;0.001373291015625;4.86999998770443;488;100 mA
20.3705119485694;0.20037841796875;0.00139556884765625;4.87999998767918;489;100 mA
20.3805119485442;0.200408935546875;0.00130157470703125;4.88999998765394;490;100 mA
20.3905119485189;0.2005615234375;0.00139801025390625;4.89999998762869;491;100 mA
20.4005119484937;0.20068359375;0.00126373291015625;4.90999998760344;492;100 mA
20.4105119484684;0.200531005859375;0.001356201171875;4.91999998757819;493;100 mA
20.4205119484432;0.200653076171875;0.00131927490234375;4.92999998755295;494;100 mA
20.4305119484179;0.200592041015625;0.0012921142578125;4.9399999875277;495;100 mA
20.4405119483927;0.200469970703125;0.001380615234375;4.94999998750245;496;100 mA
20.4505119483674;0.200469970703125;0.00127716064453125;4.9599999874772;497;100 mA
20.4605119483422;0.200408935546875;0.00140899658203125;4.96999998745196;498;100 mA
20.4705119483169;0.200531005859375;0.001329345703125;4.97999998742671;499;100 mA
20.4805119482917;0.20037841796875;0.00135955810546875;4.98999998740146;500;100 mA
20.4905119482664;0.20050048828125;0.001396484375;4.99999998737621;501;100 mA
20.5005119482412;0.20062255859375;0.00130462646484375;5.00999998735097;502;100 mA
20.5105119482159;0.2005615234375;0.00141510009765625;5.01999998732572;503;100 mA
20.5205119481907;0.2005615234375;0.00129913330078125;5.02999998730047;504;100 mA
20.5305119481654;0.200592041015625;0.001370849609375;5.03999998727522;505;100 mA
20.5405119481402;0.200653076171875;0.00135223388671875;5.04999998724998;506;100 mA
20.5505119481149;0.200439453125;0.00130828857421875;5.05999998722473;507;100 mA
20.5605119480897;0.200408935546875;0.0013958740234375;5.06999998719948;508;100 mA
20.5705119480644;0.2005615234375;0.001298828125;5.07999998717423;509;100 mA
20.5805119480392;0.200408935546875;0.00141571044921875;5.08999998714899;510;100 mA
20.590511948014;0.200469970703125;0.00134521484375;5.09999998712374;511;100 mA
20.6005119479887;0.20050048828125;0.00135162353515625;5.10999998709849;512;100 mA
20.6105119479635;0.200592041015625;0.00138427734375;5.11999998707324;513;100 mA
20.6205119479382;0.200592041015625;0.00130950927734375;5.129999987048;514;100 mA
20.630511947913;0.200469970703125;0.0014007568359375;5.13999998702275;515;100 mA
20.6405119478877;0.200531005859375;0.00129974365234375;5.1499999869975;516;100 mA
20.6505119478625;0.200469970703125;0.00137481689453125;5.15999998697225;517;100 mA
20.6605119478372;0.200439453125;0.00138763427734375;5.169999986947;518;100 mA
20.670511947812;0.200439453125;0.0013165283203125;5.17999998692176;519;100 mA
20.6805119477867;0.200531005859375;0.001385498046875;5.18999998689651;520;100 mA
20.6905119477615;0.200592041015625;0.00130584716796875;5.19999998687126;521;100 mA
20.7005119477362;0.200347900390625;0.00141204833984375;5.20999998684601;522;100 mA
20.710511947711;0.200653076171875;0.00134307861328125;5.21999998682077;523;100 mA
20.7205119476857;0.200531005859375;0.0013873291015625;5.22999998679552;524;100 mA
20.7305119476605;0.200531005859375;0.00140289306640625;5.23999998677027;525;100 mA
20.7405119476352;0.200408935546875;0.00131072998046875;5.24999998674502;526;100 mA
20.75051194761;0.20050048828125;0.00139617919921875;5.25999998671978;527;100 mA
20.7605119475847;0.200653076171875;0.001282958984375;5.26999998669453;528;100 mA
20.7705119475595;0.200439453125;0.001378173828125;5.27999998666928;529;100 mA
20.7805119475343;0.200531005859375;0.0013226318359375;5.28999998664403;530;100 mA
20.790511947509;0.20068359375;0.00131591796875;5.29999998661879;531;100 mA
20.8005119474838;0.200531005859375;0.00137847900390625;5.30999998659354;532;100 mA
20.8105119474585;0.200531005859375;0.00130584716796875;5.31999998656829;533;100 mA
20.8205119474333;0.200469970703125;0.001407470703125;5.32999998654304;534;100 mA
20.830511947408;0.2005615234375;0.0013128662109375;5.3399999865178;535;100 mA
20.8405119473828;0.200347900390625;0.001348876953125;5.34999998649255;536;100 mA
20.8505119473575;0.20037841796875;0.0013739013671875;5.3599999864673;537;100 mA
20.8605119473323;0.200592041015625;0.00128662109375;5.36999998644205;538;100 mA
20.870511947307;0.20050048828125;0.00138427734375;5.37999998641681;539;100 mA
20.8805119472818;0.20062255859375;0.00126220703125;5.38999998639156;540;100 mA
20.8905119472565;0.2005615234375;0.0013641357421875;5.39999998636631;541;100 mA
20.9005119472313;0.200653076171875;0.00130706787109375;5.40999998634106;542;100 mA
20.910511947206;0.20062255859375;0.0012957763671875;5.41999998631582;543;100 mA
20.9205119471808;0.200439453125;0.00138519287109375;5.42999998629057;544;100 mA
20.9305119471555;0.200469970703125;0.00125244140625;5.43999998626532;545;100 mA
20.9405119471303;0.200408935546875;0.00139312744140625;5.44999998624007;546;100 mA
20.950511947105;0.200439453125;0.001304931640625;5.45999998621483;547;100 mA
20.9605119470798;0.200408935546875;0.00133331298828125;5.46999998618958;548;100 mA
20.9705119470545;0.200531005859375;0.00135650634765625;5.47999998616433;549;100 mA
20.9805119470293;0.20062255859375;0.0012774658203125;5.48999998613908;550;100 mA
20.9905119470041;0.20050048828125;0.001395263671875;5.49999998611383;551;100 mA
21.0005119469788;0.200592041015625;0.00126068115234375;5.50999998608859;552;100 mA
21.0105119469536;0.200653076171875;0.00136444091796875;5.51999998606334;553;100 mA
21.0205119469283;0.20050048828125;0.0013641357421875;5.52999998603809;554;100 mA
21.0305119469031;0.200439453125;0.00133544921875;5.53999998601284;555;100 mA
21.0405119468778;0.200347900390625;0.00136871337890625;5.5499999859876;556;100 mA
21.0505119468526;0.200469970703125;0.00123626708984375;5.55999998596235;557;100 mA
21.0605119468273;0.200408935546875;0.00138031005859375;5.5699999859371;558;100 mA
21.0705119468021;0.20050048828125;0.00129302978515625;5.57999998591185;559;100 mA
21.0805119467768;0.200531005859375;0.001331787109375;5.58999998588661;560;100 mA
21.0905119467516;0.200653076171875;0.0013726806640625;5.59999998586136;561;100 mA
21.1005119467263;0.200469970703125;0.0012762451171875;5.60999998583611;562;100 mA
21.1105119467011;0.200469970703125;0.00139556884765625;5.61999998581086;563;100 mA
21.1205119466758;0.200592041015625;0.00126983642578125;5.62999998578562;564;100 mA
21.1305119466506;0.20050048828125;0.00135650634765625;5.63999998576037;565;100 mA
21.1405119466253;0.200439453125;0.00137115478515625;5.64999998573512;566;100 mA
21.1505119466001;0.200531005859375;0.0013140869140625;5.65999998570987;567;100 mA
21.1605119465748;0.200592041015625;0.00137481689453125;5.66999998568463;568;100 mA
21.1705119465496;0.200531005859375;0.00126861572265625;5.67999998565938;569;100 mA
21.1805119465243;0.200469970703125;0.001395263671875;5.68999998563413;570;100 mA
21.1905119464991;0.2005615234375;0.00132049560546875;5.69999998560888;571;100 mA
21.2005119464739;0.200469970703125;0.00135528564453125;5.70999998558364;572;100 mA
21.2105119464486;0.200439453125;0.00138397216796875;5.71999998555839;573;100 mA
21.2205119464234;0.200408935546875;0.0013043212890625;5.72999998553314;574;100 mA
21.2305119463981;0.20050048828125;0.00142120361328125;5.73999998550789;575;100 mA
21.2405119463729;0.20068359375;0.00133941650390625;5.74999998548265;576;100 mA
21.2505119463476;0.20037841796875;0.00133819580078125;5.7599999854574;577;100 mA
21.2605119463224;0.2005615234375;0.00130828857421875;5.76999998543215;578;100 mA
21.2705119462971;0.20068359375;0.00129150390625;5.7799999854069;579;100 mA
21.2805119462719;0.200592041015625;0.00136383056640625;5.78999998538166;580;100 mA
21.2905119462466;0.200531005859375;0.001275634765625;5.79999998535641;581;100 mA
21.3005119462214;0.200469970703125;0.001387939453125;5.80999998533116;582;100 mA
21.3105119461961;0.200592041015625;0.0013116455078125;5.81999998530591;583;100 mA
21.3205119461709;0.200347900390625;0.00136627197265625;5.82999998528066;584;100 mA
21.3305119461456;0.200408935546875;0.001378173828125;5.83999998525542;585;100 mA
21.3405119461204;0.2005615234375;0.001356201171875;5.84999998523017;586;100 mA
21.3505119460951;0.20050048828125;0.001414794921875;5.85999998520492;587;100 mA
21.3605119460699;0.200592041015625;0.0012799072265625;5.86999998517967;588;100 mA
21.3705119460446;0.20062255859375;0.00134490966796875;5.87999998515443;589;100 mA
21.3805119460194;0.20068359375;0.00130706787109375;5.88999998512918;590;100 mA
21.3905119459941;0.200531005859375;0.00130645751953125;5.89999998510393;591;100 mA
21.4005119459689;0.20037841796875;0.00137115478515625;5.90999998507868;592;100 mA
21.4105119459437;0.200469970703125;0.0012811279296875;5.91999998505344;593;100 mA
21.4205119459184;0.200469970703125;0.00142578125;5.92999998502819;594;100 mA
21.4305119458932;0.200469970703125;0.00138519287109375;5.93999998500294;595;100 mA
21.4405119458679;0.200408935546875;0.00140655517578125;5.94999998497769;596;100 mA
21.4505119458427;0.20050048828125;0.0014337158203125;5.95999998495245;597;100 mA
21.4605119458174;0.200653076171875;0.00126434326171875;5.9699999849272;598;100 mA
21.4705119457922;0.200469970703125;0.00137847900390625;5.97999998490195;599;100 mA
21.4805119457669;0.200592041015625;0.00127410888671875;5.9899999848767;600;100 mA
21.4905119457417;0.200592041015625;0.00136810302734375;5.99999998485146;601;100 mA
21.5005119457164;0.2005615234375;0.001302490234375;6.00999998482621;602;100 mA
21.5105119456912;0.200408935546875;0.0012982177734375;6.01999998480096;603;100 mA
21.5205119456659;0.200469970703125;0.00137115478515625;6.02999998477571;604;100 mA
21.5305119456407;0.20050048828125;0.0012725830078125;6.03999998475047;605;100 mA
21.5405119456154;0.200408935546875;0.00139923095703125;6.04999998472522;606;100 mA
21.5505119455902;0.200469970703125;0.00129241943359375;6.05999998469997;607;100 mA
21.5605119455649;0.200531005859375;0.0013427734375;6.06999998467472;608;100 mA
21.5705119455397;0.20062255859375;0.00136199951171875;6.07999998464948;609;100 mA
21.5805119455144;0.20050048828125;0.0012713623046875;6.08999998462423;610;100 mA
21.5905119454892;0.20050048828125;0.00136932373046875;6.09999998459898;611;100 mA
21.6005119454639;0.2005615234375;0.001234130859375;6.10999998457373;612;100 mA
21.6105119454387;0.200439453125;0.0013299560546875;6.11999998454849;613;100 mA
21.6205119454135;0.20050048828125;0.0012811279296875;6.12999998452324;614;100 mA
21.6305119453882;0.2005615234375;0.00125946044921875;6.13999998449799;615;100 mA
21.640511945363;0.200592041015625;0.00135284423828125;6.14999998447274;616;100 mA
21.6505119453377;0.200531005859375;0.00124298095703125;6.1599999844475;617;100 mA
21.6605119453125;0.20037841796875;0.00136138916015625;6.16999998442225;618;100 mA
21.6705119452872;0.200592041015625;0.00126251220703125;6.179999984397;619;100 mA
21.680511945262;0.200469970703125;0.001307373046875;6.18999998437175;620;100 mA
21.6905119452367;0.200439453125;0.00134796142578125;6.1999999843465;621;100 mA
21.7005119452115;0.200408935546875;0.001258544921875;6.20999998432126;622;100 mA
21.7105119451862;0.200531005859375;0.00136810302734375;6.21999998429601;623;100 mA
21.720511945161;0.200653076171875;0.00126068115234375;6.22999998427076;624;100 mA
21.7305119451357;0.20050048828125;0.0013592529296875;6.23999998424551;625;100 mA
21.7405119451105;0.200592041015625;0.0013525390625;6.24999998422027;626;100 mA
21.7505119450852;0.200653076171875;0.0012847900390625;6.25999998419502;627;100 mA
21.76051194506;0.200592041015625;0.0013592529296875;6.26999998416977;628;100 mA
21.7705119450347;0.20050048828125;0.00125213623046875;6.27999998414452;629;100 mA
21.7805119450095;0.200439453125;0.001357421875;6.28999998411928;630;100 mA
21.7905119449842;0.200592041015625;0.0012908935546875;6.29999998409403;631;100 mA
21.800511944959;0.20037841796875;0.00131744384765625;6.30999998406878;632;100 mA
21.8105119449338;0.200347900390625;0.00135040283203125;6.31999998404353;633;100 mA
21.8205119449085;0.200531005859375;0.001279296875;6.32999998401829;634;100 mA
21.8305119448833;0.200531005859375;0.00135009765625;6.33999998399304;635;100 mA
21.840511944858;0.20062255859375;0.00126617431640625;6.34999998396779;636;100 mA
21.8505119448328;0.200592041015625;0.00132965087890625;6.35999998394254;637;100 mA
21.8605119448075;0.20068359375;0.00131622314453125;6.3699999839173;638;100 mA
21.8705119447823;0.2005615234375;0.00128509521484375;6.37999998389205;639;100 mA
21.880511944757;0.200408935546875;0.0013677978515625;6.3899999838668;640;100 mA
21.8905119447318;0.200469970703125;0.0012884521484375;6.39999998384155;641;100 mA
21.9005119447065;0.20050048828125;0.00140167236328125;6.40999998381631;642;100 mA
21.9105119446813;0.200469970703125;0.0013250732421875;6.41999998379106;643;100 mA
21.920511944656;0.20037841796875;0.00135986328125;6.42999998376581;644;100 mA
21.9305119446308;0.20050048828125;0.00136810302734375;6.43999998374056;645;100 mA
21.9405119446055;0.20062255859375;0.0013128662109375;6.44999998371532;646;100 mA
21.9505119445803;0.200469970703125;0.001390380859375;6.45999998369007;647;100 mA
21.960511944555;0.2005615234375;0.001278076171875;6.46999998366482;648;100 mA
21.9705119445298;0.2005615234375;0.0013580322265625;6.47999998363957;649;100 mA
21.9805119445045;0.2005615234375;0.0013104248046875;6.48999998361433;650;100 mA
21.9905119444793;0.200439453125;0.001309814453125;6.49999998358908;651;100 mA
22.000511944454;0.200469970703125;0.00136627197265625;6.50999998356383;652;100 mA
22.0105119444288;0.200531005859375;0.001290283203125;6.51999998353858;653;100 mA
22.0205119444036;0.200439453125;0.0013934326171875;6.52999998351333;654;100 mA
22.0305119443783;0.20050048828125;0.00130035400390625;6.53999998348809;655;100 mA
22.0405119443531;0.2005615234375;0.00135467529296875;6.54999998346284;656;100 mA
22.0505119443278;0.200592041015625;0.00136749267578125;6.55999998343759;657;100 mA
22.0605119443026;0.200469970703125;0.0012835693359375;6.56999998341234;658;100 mA
22.0705119442773;0.20050048828125;0.0013763427734375;6.5799999833871;659;100 mA
22.0805119442521;0.2005615234375;0.00125457763671875;6.58999998336185;660;100 mA
22.0905119442268;0.200439453125;0.001351318359375;6.5999999833366;661;100 mA
22.1005119442016;0.200439453125;0.0012823486328125;6.60999998331135;662;100 mA
22.1105119441763;0.200469970703125;0.00128814697265625;6.61999998328611;663;100 mA
22.1205119441511;0.20062255859375;0.00136566162109375;6.62999998326086;664;100 mA
22.1305119441258;0.20050048828125;0.00126251220703125;6.63999998323561;665;100 mA
22.1405119441006;0.200439453125;0.00138092041015625;6.64999998321036;666;100 mA
22.1505119440753;0.200592041015625;0.00129638671875;6.65999998318512;667;100 mA
22.1605119440501;0.200469970703125;0.0013104248046875;6.66999998315987;668;100 mA
22.1705119440248;0.20037841796875;0.001339111328125;6.67999998313462;669;100 mA
22.1805119439996;0.200408935546875;0.001243896484375;6.68999998310937;670;100 mA
22.1905119439743;0.2005615234375;0.00135498046875;6.69999998308413;671;100 mA
22.2005119439491;0.20068359375;0.00122314453125;6.70999998305888;672;100 mA
22.2105119439238;0.200469970703125;0.0013299560546875;6.71999998303363;673;100 mA
22.2205119438986;0.20062255859375;0.00129547119140625;6.72999998300838;674;100 mA
22.2305119438734;0.200653076171875;0.0012701416015625;6.73999998298314;675;100 mA
22.2405119438481;0.20062255859375;0.00137359619140625;6.74999998295789;676;100 mA
22.2505119438229;0.20050048828125;0.00125762939453125;6.75999998293264;677;100 mA
22.2605119437976;0.200469970703125;0.00138336181640625;6.76999998290739;678;100 mA
22.2705119437724;0.20050048828125;0.0013006591796875;6.77999998288215;679;100 mA
22.2805119437471;0.20037841796875;0.0013421630859375;6.7899999828569;680;100 mA
22.2905119437219;0.200408935546875;0.00137603759765625;6.79999998283165;681;100 mA
22.3005119436966;0.20062255859375;0.0012835693359375;6.8099999828064;682;100 mA
22.3105119436714;0.200592041015625;0.00138519287109375;6.81999998278116;683;100 mA
22.3205119436461;0.20062255859375;0.00126068115234375;6.82999998275591;684;100 mA
22.3305119436209;0.20062255859375;0.0013555908203125;6.83999998273066;685;100 mA
22.3405119435956;0.20068359375;0.00131072998046875;6.84999998270541;686;100 mA
22.3505119435704;0.200469970703125;0.0013238525390625;6.85999998268016;687;100 mA
22.3605119435451;0.200439453125;0.00135528564453125;6.86999998265492;688;100 mA
22.3705119435199;0.200469970703125;0.00123748779296875;6.87999998262967;689;100 mA
22.3805119434946;0.200408935546875;0.0013580322265625;6.88999998260442;690;100 mA
22.3905119434694;0.200439453125;0.0012982177734375;6.89999998257917;691;100 mA
22.4005119434441;0.200439453125;0.00133331298828125;6.90999998255393;692;100 mA
22.4105119434189;0.200592041015625;0.0013623046875;6.91999998252868;693;100 mA
22.4205119433936;0.20062255859375;0.00129669189453125;6.92999998250343;694;100 mA
22.4305119433684;0.20050048828125;0.001385498046875;6.93999998247818;695;100 mA
22.4405119433432;0.20050048828125;0.001282958984375;6.94999998245294;696;100 mA
22.4505119433179;0.200592041015625;0.00136016845703125;6.95999998242769;697;100 mA
22.4605119432927;0.20050048828125;0.00133148193359375;6.96999998240244;698;100 mA
22.4705119432674;0.200439453125;0.00131927490234375;6.97999998237719;699;100 mA
22.4805119432422;0.200469970703125;0.0013848876953125;6.98999998235195;700;100 mA
