Time (s);WE(1).Potential (V);WE(1).Current (A);Corrected time (s);Index;Current range;Overload
22.9797249419818;-0.80047607421875;-0.394378662109375;0;1;100 mA;Current overload
22.9897249419565;-0.799560546875;-0.272552490234375;0.00999999997475243;2;100 mA;
22.9997249419313;-0.79986572265625;-0.2191162109375;0.0199999999495049;3;100 mA;
23.009724941906;-0.79864501953125;-0.1883544921875;0.0299999999242573;4;100 mA;
23.0197249418808;-0.79925537109375;-0.16650390625;0.0399999998990097;5;100 mA;
23.0297249418555;-0.799560546875;-0.15277099609375;0.0499999998737621;6;100 mA;
23.0397249418303;-0.7989501953125;-0.14031982421875;0.0599999998485146;7;100 mA;
23.049724941805;-0.7989501953125;-0.131866455078125;0.069999999823267;8;100 mA;
23.0597249417798;-0.7989501953125;-0.124237060546875;0.0799999997980194;9;100 mA;
23.0697249417545;-0.79925537109375;-0.118072509765625;0.0899999997727718;10;100 mA;
23.0797249417293;-0.79925537109375;-0.113800048828125;0.0999999997475243;11;100 mA;
23.089724941704;-0.799560546875;-0.109161376953125;0.109999999722277;12;100 mA;
23.0997249416788;-0.799560546875;-0.10650634765625;0.119999999697029;13;100 mA;
23.1097249416536;-0.79925537109375;-0.10296630859375;0.129999999671782;14;100 mA;
23.1197249416283;-0.799560546875;-0.100372314453125;0.139999999646534;15;100 mA;
23.1297249416031;-0.79864501953125;-0.098175048828125;0.149999999621286;16;100 mA;
23.1397249415778;-0.79925537109375;-0.095855712890625;0.159999999596039;17;100 mA;
23.1497249415526;-0.7989501953125;-0.094970703125;0.169999999570791;18;100 mA;
23.1597249415273;-0.7989501953125;-0.092620849609375;0.179999999545544;19;100 mA;
23.1697249415021;-0.799560546875;-0.091644287109375;0.189999999520296;20;100 mA;
23.1797249414768;-0.79925537109375;-0.090240478515625;0.199999999495049;21;100 mA;
23.1897249414516;-0.79925537109375;-0.089141845703125;0.209999999469801;22;100 mA;
23.1997249414263;-0.79925537109375;-0.088714599609375;0.219999999444553;23;100 mA;
23.2097249414011;-0.799560546875;-0.086944580078125;0.229999999419306;24;100 mA;
23.2197249413758;-0.799560546875;-0.087158203125;0.239999999394058;25;100 mA;
23.2297249413506;-0.79864501953125;-0.08551025390625;0.249999999368811;26;100 mA;
23.2397249413253;-0.79925537109375;-0.08538818359375;0.259999999343563;27;100 mA;
23.2497249413001;-0.7989501953125;-0.0848388671875;0.269999999318316;28;100 mA;
23.2597249412748;-0.79925537109375;-0.084014892578125;0.279999999293068;29;100 mA;
23.2697249412496;-0.79925537109375;-0.0845947265625;0.28999999926782;30;100 mA;
23.2797249412243;-0.79925537109375;-0.08319091796875;0.299999999242573;31;100 mA;
23.2897249411991;-0.79925537109375;-0.083251953125;0.309999999217325;32;100 mA;
23.2997249411738;-0.7989501953125;-0.08282470703125;0.319999999192078;33;100 mA;
23.3097249411486;-0.7989501953125;-0.082489013671875;0.32999999916683;34;100 mA;
23.3197249411234;-0.79925537109375;-0.08294677734375;0.339999999141583;35;100 mA;
23.3297249410981;-0.7989501953125;-0.082183837890625;0.349999999116335;36;100 mA;
23.3397249410729;-0.79864501953125;-0.083038330078125;0.359999999091087;37;100 mA;
23.3497249410476;-0.79925537109375;-0.082122802734375;0.36999999906584;38;100 mA;
23.3597249410224;-0.79925537109375;-0.082183837890625;0.379999999040592;39;100 mA;
23.3697249409971;-0.79925537109375;-0.082000732421875;0.389999999015345;40;100 mA;
23.3797249409719;-0.79925537109375;-0.081298828125;0.399999998990097;41;100 mA;
23.3897249409466;-0.7989501953125;-0.081817626953125;0.40999999896485;42;100 mA;
23.3997249409214;-0.79925537109375;-0.080841064453125;0.419999998939602;43;100 mA;
23.4097249408961;-0.7989501953125;-0.081451416015625;0.429999998914354;44;100 mA;
23.4197249408709;-0.79925537109375;-0.08099365234375;0.439999998889107;45;100 mA;
23.4297249408456;-0.79925537109375;-0.080718994140625;0.449999998863859;46;100 mA;
23.4397249408204;-0.79925537109375;-0.08099365234375;0.459999998838612;47;100 mA;
23.4497249407951;-0.8001708984375;-0.0797119140625;0.469999998813364;48;100 mA;
23.4597249407699;-0.79925537109375;-0.080474853515625;0.479999998788116;49;100 mA;
23.4697249407446;-0.79925537109375;-0.079559326171875;0.489999998762869;50;100 mA;
23.4797249407194;-0.79925537109375;-0.079620361328125;0.499999998737621;51;100 mA;
23.4897249406941;-0.79925537109375;-0.0791015625;0.509999998712374;52;100 mA;
23.4997249406689;-0.79986572265625;-0.0782470703125;0.519999998687126;53;100 mA;
23.5097249406437;-0.79925537109375;-0.079071044921875;0.529999998661879;54;100 mA;
23.5197249406184;-0.799560546875;-0.078216552734375;0.539999998636631;55;100 mA;
23.5297249405932;-0.7989501953125;-0.078826904296875;0.549999998611383;56;100 mA;
23.5397249405679;-0.7989501953125;-0.0782470703125;0.559999998586136;57;100 mA;
23.5497249405427;-0.79864501953125;-0.077880859375;0.569999998560888;58;100 mA;
23.5597249405174;-0.7989501953125;-0.078277587890625;0.579999998535641;59;100 mA;
23.5697249404922;-0.799560546875;-0.07763671875;0.589999998510393;60;100 mA;
23.5797249404669;-0.79925537109375;-0.078643798828125;0.599999998485146;61;100 mA;
23.5897249404417;-0.79925537109375;-0.077667236328125;0.609999998459898;62;100 mA;
23.5997249404164;-0.7989501953125;-0.0777587890625;0.61999999843465;63;100 mA;
23.6097249403912;-0.79925537109375;-0.077362060546875;0.629999998409403;64;100 mA;
23.6197249403659;-0.79925537109375;-0.07684326171875;0.639999998384155;65;100 mA;
23.6297249403407;-0.79925537109375;-0.07781982421875;0.649999998358908;66;100 mA;
23.6397249403154;-0.799560546875;-0.076934814453125;0.65999999833366;67;100 mA;
23.6497249402902;-0.799560546875;-0.077606201171875;0.669999998308413;68;100 mA;
23.6597249402649;-0.79925537109375;-0.077362060546875;0.679999998283165;69;100 mA;
23.6697249402397;-0.79986572265625;-0.07745361328125;0.689999998257917;70;100 mA;
23.6797249402144;-0.7989501953125;-0.078216552734375;0.69999999823267;71;100 mA;
23.6897249401892;-0.7989501953125;-0.07769775390625;0.709999998207422;72;100 mA;
23.6997249401639;-0.79925537109375;-0.078826904296875;0.719999998182175;73;100 mA;
23.7097249401387;-0.7989501953125;-0.07818603515625;0.729999998156927;74;100 mA;
23.7197249401135;-0.7989501953125;-0.078643798828125;0.73999999813168;75;100 mA;
23.7297249400882;-0.7989501953125;-0.078643798828125;0.749999998106432;76;100 mA;
23.739724940063;-0.79864501953125;-0.077911376953125;0.759999998081184;77;100 mA;
23.7497249400377;-0.79925537109375;-0.0784912109375;0.769999998055937;78;100 mA;
23.7597249400125;-0.79864501953125;-0.077301025390625;0.779999998030689;79;100 mA;
23.7697249399872;-0.79925537109375;-0.077880859375;0.789999998005442;80;100 mA;
23.779724939962;-0.7989501953125;-0.077392578125;0.799999997980194;81;100 mA;
23.7897249399367;-0.7989501953125;-0.0772705078125;0.809999997954947;82;100 mA;
23.7997249399115;-0.79833984375;-0.07769775390625;0.819999997929699;83;100 mA;
23.8097249398862;-0.79925537109375;-0.07696533203125;0.829999997904451;84;100 mA;
23.819724939861;-0.79925537109375;-0.07806396484375;0.839999997879204;85;100 mA;
23.8297249398357;-0.799560546875;-0.07745361328125;0.849999997853956;86;100 mA;
23.8397249398105;-0.79925537109375;-0.078125;0.859999997828709;87;100 mA;
23.8497249397852;-0.79925537109375;-0.07830810546875;0.869999997803461;88;100 mA;
23.85972493976;-0.7989501953125;-0.078094482421875;0.879999997778214;89;100 mA;
23.8697249397347;-0.79925537109375;-0.079376220703125;0.889999997752966;90;100 mA;
23.8797249397095;-0.79925537109375;-0.07867431640625;0.899999997727718;91;100 mA;
23.8897249396842;-0.799560546875;-0.079742431640625;0.909999997702471;92;100 mA;
23.899724939659;-0.7989501953125;-0.0794677734375;0.919999997677223;93;100 mA;
23.9097249396337;-0.79925537109375;-0.079498291015625;0.929999997651976;94;100 mA;
23.9197249396085;-0.7989501953125;-0.08001708984375;0.939999997626728;95;100 mA;
23.9297249395833;-0.7989501953125;-0.079376220703125;0.949999997601481;96;100 mA;
23.939724939558;-0.799560546875;-0.08056640625;0.959999997576233;97;100 mA;
23.9497249395328;-0.79925537109375;-0.07977294921875;0.969999997550985;98;100 mA;
23.9597249395075;-0.79986572265625;-0.08026123046875;0.979999997525738;99;100 mA;
23.9697249394823;-0.79925537109375;-0.080169677734375;0.98999999750049;100;100 mA;
23.979724939457;-0.79986572265625;-0.079620361328125;0.999999997475243;101;100 mA;
23.9897249394318;-0.79925537109375;-0.080322265625;1.00999999745;102;100 mA;
23.9997249394065;-0.79864501953125;-0.079132080078125;1.01999999742475;103;100 mA;
24.0097249393813;-0.79925537109375;-0.079925537109375;1.0299999973995;104;100 mA;
24.019724939356;-0.799560546875;-0.079376220703125;1.03999999737425;105;100 mA;
24.0297249393308;-0.7989501953125;-0.079132080078125;1.049999997349;106;100 mA;
24.0397249393055;-0.7989501953125;-0.07958984375;1.05999999732376;107;100 mA;
24.0497249392803;-0.799560546875;-0.078857421875;1.06999999729851;108;100 mA;
24.059724939255;-0.7989501953125;-0.079925537109375;1.07999999727326;109;100 mA;
24.0697249392298;-0.799560546875;-0.07904052734375;1.08999999724801;110;100 mA;
24.0797249392045;-0.79864501953125;-0.079559326171875;1.09999999722277;111;100 mA;
24.0897249391793;-0.7989501953125;-0.079437255859375;1.10999999719752;112;100 mA;
24.099724939154;-0.799560546875;-0.07867431640625;1.11999999717227;113;100 mA;
24.1097249391288;-0.79986572265625;-0.07928466796875;1.12999999714702;114;100 mA;
24.1197249391035;-0.79925537109375;-0.078125;1.13999999712178;115;100 mA;
24.1297249390783;-0.799560546875;-0.07879638671875;1.14999999709653;116;100 mA;
24.1397249390531;-0.7989501953125;-0.07830810546875;1.15999999707128;117;100 mA;
24.1497249390278;-0.7989501953125;-0.07818603515625;1.16999999704603;118;100 mA;
24.1597249390026;-0.79925537109375;-0.0787353515625;1.17999999702079;119;100 mA;
24.1697249389773;-0.79925537109375;-0.07794189453125;1.18999999699554;120;100 mA;
24.1797249389521;-0.79925537109375;-0.07891845703125;1.19999999697029;121;100 mA;
24.1897249389268;-0.7989501953125;-0.077911376953125;1.20999999694504;122;100 mA;
24.1997249389016;-0.79864501953125;-0.078369140625;1.2199999969198;123;100 mA;
24.2097249388763;-0.7989501953125;-0.0784912109375;1.22999999689455;124;100 mA;
24.2197249388511;-0.79925537109375;-0.078033447265625;1.2399999968693;125;100 mA;
24.2297249388258;-0.79925537109375;-0.0791015625;1.24999999684405;126;100 mA;
24.2397249388006;-0.799560546875;-0.07806396484375;1.25999999681881;127;100 mA;
24.2497249387753;-0.799560546875;-0.07891845703125;1.26999999679356;128;100 mA;
24.2597249387501;-0.79925537109375;-0.07861328125;1.27999999676831;129;100 mA;
24.2697249387248;-0.7989501953125;-0.078643798828125;1.28999999674306;130;100 mA;
24.2797249386996;-0.7989501953125;-0.079254150390625;1.29999999671782;131;100 mA;
24.2897249386743;-0.7989501953125;-0.07843017578125;1.30999999669257;132;100 mA;
24.2997249386491;-0.79864501953125;-0.0794677734375;1.31999999666732;133;100 mA;
24.3097249386238;-0.799560546875;-0.07867431640625;1.32999999664207;134;100 mA;
24.3197249385986;-0.7989501953125;-0.0791015625;1.33999999661683;135;100 mA;
24.3297249385733;-0.79925537109375;-0.07916259765625;1.34999999659158;136;100 mA;
24.3397249385481;-0.79925537109375;-0.07861328125;1.35999999656633;137;100 mA;
24.3497249385229;-0.79925537109375;-0.079376220703125;1.36999999654108;138;100 mA;
24.3597249384976;-0.799560546875;-0.078369140625;1.37999999651583;139;100 mA;
24.3697249384724;-0.79925537109375;-0.0791015625;1.38999999649059;140;100 mA;
24.3797249384471;-0.7989501953125;-0.0787353515625;1.39999999646534;141;100 mA;
24.3897249384219;-0.7989501953125;-0.0787353515625;1.40999999644009;142;100 mA;
24.3997249383966;-0.799560546875;-0.0792236328125;1.41999999641484;143;100 mA;
24.4097249383714;-0.7989501953125;-0.078338623046875;1.4299999963896;144;100 mA;
24.4197249383461;-0.7989501953125;-0.0791015625;1.43999999636435;145;100 mA;
24.4297249383209;-0.79925537109375;-0.078155517578125;1.4499999963391;146;100 mA;
24.4397249382956;-0.799560546875;-0.07843017578125;1.45999999631385;147;100 mA;
24.4497249382704;-0.7989501953125;-0.078277587890625;1.46999999628861;148;100 mA;
24.4597249382451;-0.799560546875;-0.0777587890625;1.47999999626336;149;100 mA;
24.4697249382199;-0.79925537109375;-0.078460693359375;1.48999999623811;150;100 mA;
24.4797249381946;-0.7989501953125;-0.07745361328125;1.49999999621286;151;100 mA;
24.4897249381694;-0.79925537109375;-0.078125;1.50999999618762;152;100 mA;
24.4997249381441;-0.79864501953125;-0.077301025390625;1.51999999616237;153;100 mA;
24.5097249381189;-0.79925537109375;-0.077056884765625;1.52999999613712;154;100 mA;
24.5197249380936;-0.79864501953125;-0.0775146484375;1.53999999611187;155;100 mA;
24.5297249380684;-0.79925537109375;-0.07672119140625;1.54999999608663;156;100 mA;
24.5397249380432;-0.79925537109375;-0.0777587890625;1.55999999606138;157;100 mA;
24.5497249380179;-0.79925537109375;-0.076873779296875;1.56999999603613;158;100 mA;
24.5597249379927;-0.7989501953125;-0.07733154296875;1.57999999601088;159;100 mA;
24.5697249379674;-0.79925537109375;-0.077728271484375;1.58999999598564;160;100 mA;
24.5797249379422;-0.799560546875;-0.07733154296875;1.59999999596039;161;100 mA;
24.5897249379169;-0.799560546875;-0.077972412109375;1.60999999593514;162;100 mA;
24.5997249378917;-0.79925537109375;-0.07708740234375;1.61999999590989;163;100 mA;
24.6097249378664;-0.79986572265625;-0.07745361328125;1.62999999588465;164;100 mA;
24.6197249378412;-0.799560546875;-0.076934814453125;1.6399999958594;165;100 mA;
24.6297249378159;-0.79925537109375;-0.07684326171875;1.64999999583415;166;100 mA;
24.6397249377907;-0.79925537109375;-0.077392578125;1.6599999958089;167;100 mA;
24.6497249377654;-0.79986572265625;-0.07659912109375;1.66999999578366;168;100 mA;
24.6597249377402;-0.79925537109375;-0.0780029296875;1.67999999575841;169;100 mA;
24.6697249377149;-0.7989501953125;-0.077362060546875;1.68999999573316;170;100 mA;
24.6797249376897;-0.7989501953125;-0.078033447265625;1.69999999570791;171;100 mA;
24.6897249376644;-0.799560546875;-0.078277587890625;1.70999999568267;172;100 mA;
24.6997249376392;-0.79986572265625;-0.07781982421875;1.71999999565742;173;100 mA;
24.7097249376139;-0.7989501953125;-0.07879638671875;1.72999999563217;174;100 mA;
24.7197249375887;-0.799560546875;-0.07806396484375;1.73999999560692;175;100 mA;
24.7297249375634;-0.799560546875;-0.078765869140625;1.74999999558167;176;100 mA;
24.7397249375382;-0.799560546875;-0.07830810546875;1.75999999555643;177;100 mA;
24.749724937513;-0.79925537109375;-0.078277587890625;1.76999999553118;178;100 mA;
24.7597249374877;-0.79925537109375;-0.078887939453125;1.77999999550593;179;100 mA;
24.7697249374625;-0.79925537109375;-0.078277587890625;1.78999999548068;180;100 mA;
24.7797249374372;-0.7989501953125;-0.0792236328125;1.79999999545544;181;100 mA;
24.789724937412;-0.79864501953125;-0.0782470703125;1.80999999543019;182;100 mA;
24.7997249373867;-0.7989501953125;-0.078460693359375;1.81999999540494;183;100 mA;
24.8097249373615;-0.79864501953125;-0.07843017578125;1.82999999537969;184;100 mA;
24.8197249373362;-0.799560546875;-0.078125;1.83999999535445;185;100 mA;
24.829724937311;-0.7989501953125;-0.07904052734375;1.8499999953292;186;100 mA;
24.8397249372857;-0.79925537109375;-0.07806396484375;1.85999999530395;187;100 mA;
24.8497249372605;-0.799560546875;-0.078948974609375;1.8699999952787;188;100 mA;
24.8597249372352;-0.7989501953125;-0.07843017578125;1.87999999525346;189;100 mA;
24.86972493721;-0.79864501953125;-0.078643798828125;1.88999999522821;190;100 mA;
24.8797249371847;-0.79864501953125;-0.079620361328125;1.89999999520296;191;100 mA;
24.8897249371595;-0.79925537109375;-0.07904052734375;1.90999999517771;192;100 mA;
24.8997249371342;-0.7989501953125;-0.080230712890625;1.91999999515247;193;100 mA;
24.909724937109;-0.799560546875;-0.079498291015625;1.92999999512722;194;100 mA;
24.9197249370837;-0.79925537109375;-0.079742431640625;1.93999999510197;195;100 mA;
24.9297249370585;-0.79986572265625;-0.079498291015625;1.94999999507672;196;100 mA;
24.9397249370332;-0.79925537109375;-0.0792236328125;1.95999999505148;197;100 mA;
24.949724937008;-0.79925537109375;-0.080352783203125;1.96999999502623;198;100 mA;
24.9597249369828;-0.7989501953125;-0.07928466796875;1.97999999500098;199;100 mA;
24.9697249369575;-0.7989501953125;-0.079986572265625;1.98999999497573;200;100 mA;
24.9797249369323;-0.7989501953125;-0.0792236328125;1.99999999495049;201;100 mA;
24.989724936907;-0.799560546875;-0.079132080078125;2.00999999492524;202;100 mA;
24.9997249368818;-0.7989501953125;-0.079681396484375;2.01999999489999;203;100 mA;
25.0097249368565;-0.79925537109375;-0.078643798828125;2.02999999487474;204;100 mA;
25.0197249368313;-0.79925537109375;-0.07952880859375;2.0399999948495;205;100 mA;
25.029724936806;-0.79925537109375;-0.0787353515625;2.04999999482425;206;100 mA;
25.0397249367808;-0.799560546875;-0.07916259765625;2.059999994799;207;100 mA;
25.0497249367555;-0.79925537109375;-0.079010009765625;2.06999999477375;208;100 mA;
25.0597249367303;-0.79925537109375;-0.078521728515625;2.0799999947485;209;100 mA;
25.069724936705;-0.79986572265625;-0.079620361328125;2.08999999472326;210;100 mA;
25.0797249366798;-0.79925537109375;-0.078765869140625;2.09999999469801;211;100 mA;
25.0897249366545;-0.79864501953125;-0.079620361328125;2.10999999467276;212;100 mA;
25.0997249366293;-0.79925537109375;-0.078948974609375;2.11999999464751;213;100 mA;
25.109724936604;-0.7989501953125;-0.079010009765625;2.12999999462227;214;100 mA;
25.1197249365788;-0.79925537109375;-0.07952880859375;2.13999999459702;215;100 mA;
25.1297249365535;-0.7989501953125;-0.078643798828125;2.14999999457177;216;100 mA;
25.1397249365283;-0.79925537109375;-0.079742431640625;2.15999999454652;217;100 mA;
25.149724936503;-0.7989501953125;-0.0787353515625;2.16999999452128;218;100 mA;
25.1597249364778;-0.79864501953125;-0.079193115234375;2.17999999449603;219;100 mA;
25.1697249364526;-0.799560546875;-0.079132080078125;2.18999999447078;220;100 mA;
25.1797249364273;-0.79925537109375;-0.07855224609375;2.19999999444553;221;100 mA;
25.1897249364021;-0.799560546875;-0.07940673828125;2.20999999442029;222;100 mA;
25.1997249363768;-0.7989501953125;-0.078094482421875;2.21999999439504;223;100 mA;
25.2097249363516;-0.79925537109375;-0.078765869140625;2.22999999436979;224;100 mA;
25.2197249363263;-0.799560546875;-0.077972412109375;2.23999999434454;225;100 mA;
25.2297249363011;-0.7989501953125;-0.07781982421875;2.2499999943193;226;100 mA;
25.2397249362758;-0.79864501953125;-0.078521728515625;2.25999999429405;227;100 mA;
25.2497249362506;-0.79925537109375;-0.077606201171875;2.2699999942688;228;100 mA;
25.2597249362253;-0.79925537109375;-0.078765869140625;2.27999999424355;229;100 mA;
25.2697249362001;-0.7989501953125;-0.07806396484375;2.28999999421831;230;100 mA;
25.2797249361748;-0.7989501953125;-0.07830810546875;2.29999999419306;231;100 mA;
25.2897249361496;-0.799560546875;-0.078155517578125;2.30999999416781;232;100 mA;
25.2997249361243;-0.799560546875;-0.077423095703125;2.31999999414256;233;100 mA;
25.3097249360991;-0.799560546875;-0.0782470703125;2.32999999411732;234;100 mA;
25.3197249360738;-0.79925537109375;-0.0772705078125;2.33999999409207;235;100 mA;
25.3297249360486;-0.79986572265625;-0.078094482421875;2.34999999406682;236;100 mA;
25.3397249360233;-0.79925537109375;-0.0777587890625;2.35999999404157;237;100 mA;
25.3497249359981;-0.7989501953125;-0.077789306640625;2.36999999401633;238;100 mA;
25.3597249359728;-0.79864501953125;-0.07843017578125;2.37999999399108;239;100 mA;
25.3697249359476;-0.79925537109375;-0.07781982421875;2.38999999396583;240;100 mA;
25.3797249359224;-0.79925537109375;-0.07904052734375;2.39999999394058;241;100 mA;
25.3897249358971;-0.79925537109375;-0.078582763671875;2.40999999391533;242;100 mA;
25.3997249358719;-0.799560546875;-0.079193115234375;2.41999999389009;243;100 mA;
25.4097249358466;-0.799560546875;-0.0794677734375;2.42999999386484;244;100 mA;
25.4197249358214;-0.7989501953125;-0.07916259765625;2.43999999383959;245;100 mA;
25.4297249357961;-0.79925537109375;-0.080169677734375;2.44999999381434;246;100 mA;
25.4397249357709;-0.79925537109375;-0.079315185546875;2.4599999937891;247;100 mA;
25.4497249357456;-0.7989501953125;-0.08013916015625;2.46999999376385;248;100 mA;
25.4597249357204;-0.79925537109375;-0.079803466796875;2.4799999937386;249;100 mA;
25.4697249356951;-0.799560546875;-0.07958984375;2.48999999371335;250;100 mA;
25.4797249356699;-0.79925537109375;-0.08001708984375;2.49999999368811;251;100 mA;
25.4897249356446;-0.7989501953125;-0.0792236328125;2.50999999366286;252;100 mA;
25.4997249356194;-0.79864501953125;-0.080169677734375;2.51999999363761;253;100 mA;
25.5097249355941;-0.79925537109375;-0.079681396484375;2.52999999361236;254;100 mA;
25.5197249355689;-0.79986572265625;-0.07989501953125;2.53999999358712;255;100 mA;
25.5297249355436;-0.79925537109375;-0.079681396484375;2.54999999356187;256;100 mA;
25.5397249355184;-0.799560546875;-0.07916259765625;2.55999999353662;257;100 mA;
25.5497249354931;-0.799560546875;-0.0802001953125;2.56999999351137;258;100 mA;
25.5597249354679;-0.79986572265625;-0.07952880859375;2.57999999348613;259;100 mA;
25.5697249354427;-0.7989501953125;-0.08038330078125;2.58999999346088;260;100 mA;
25.5797249354174;-0.79864501953125;-0.079864501953125;2.59999999343563;261;100 mA;
25.5897249353922;-0.79925537109375;-0.07965087890625;2.60999999341038;262;100 mA;
25.5997249353669;-0.79864501953125;-0.080108642578125;2.61999999338514;263;100 mA;
25.6097249353417;-0.7989501953125;-0.07904052734375;2.62999999335989;264;100 mA;
25.6197249353164;-0.799560546875;-0.07952880859375;2.63999999333464;265;100 mA;
25.6297249352912;-0.7989501953125;-0.07867431640625;2.64999999330939;266;100 mA;
25.6397249352659;-0.79925537109375;-0.0789794921875;2.65999999328415;267;100 mA;
25.6497249352407;-0.7989501953125;-0.07904052734375;2.6699999932589;268;100 mA;
25.6597249352154;-0.799560546875;-0.07855224609375;2.67999999323365;269;100 mA;
25.6697249351902;-0.799560546875;-0.0794677734375;2.6899999932084;270;100 mA;
25.6797249351649;-0.7989501953125;-0.07843017578125;2.69999999318316;271;100 mA;
25.6897249351397;-0.79986572265625;-0.079132080078125;2.70999999315791;272;100 mA;
25.6997249351144;-0.79925537109375;-0.07879638671875;2.71999999313266;273;100 mA;
25.7097249350892;-0.7989501953125;-0.078704833984375;2.72999999310741;274;100 mA;
25.7197249350639;-0.79925537109375;-0.0791015625;2.73999999308217;275;100 mA;
25.7297249350387;-0.799560546875;-0.07818603515625;2.74999999305692;276;100 mA;
25.7397249350134;-0.799560546875;-0.079132080078125;2.75999999303167;277;100 mA;
25.7497249349882;-0.7989501953125;-0.078338623046875;2.76999999300642;278;100 mA;
25.7597249349629;-0.79925537109375;-0.078857421875;2.77999999298117;279;100 mA;
25.7697249349377;-0.7989501953125;-0.07904052734375;2.78999999295593;280;100 mA;
25.7797249349125;-0.799560546875;-0.07843017578125;2.79999999293068;281;100 mA;
25.7897249348872;-0.79864501953125;-0.079193115234375;2.80999999290543;282;100 mA;
25.799724934862;-0.79925537109375;-0.07830810546875;2.81999999288018;283;100 mA;
25.8097249348367;-0.79864501953125;-0.079010009765625;2.82999999285494;284;100 mA;
25.8197249348115;-0.799560546875;-0.07855224609375;2.83999999282969;285;100 mA;
25.8297249347862;-0.7989501953125;-0.0782470703125;2.84999999280444;286;100 mA;
25.839724934761;-0.799560546875;-0.078643798828125;2.85999999277919;287;100 mA;
25.8497249347357;-0.79925537109375;-0.07763671875;2.86999999275395;288;100 mA;
25.8597249347105;-0.79864501953125;-0.07861328125;2.8799999927287;289;100 mA;
25.8697249346852;-0.799560546875;-0.077911376953125;2.88999999270345;290;100 mA;
25.87972493466;-0.79925537109375;-0.0782470703125;2.8999999926782;291;100 mA;
25.8897249346347;-0.79925537109375;-0.0782470703125;2.90999999265296;292;100 mA;
25.8997249346095;-0.799560546875;-0.07745361328125;2.91999999262771;293;100 mA;
25.9097249345842;-0.79925537109375;-0.0782470703125;2.92999999260246;294;100 mA;
25.919724934559;-0.79925537109375;-0.07720947265625;2.93999999257721;295;100 mA;
25.9297249345337;-0.799560546875;-0.07757568359375;2.94999999255197;296;100 mA;
25.9397249345085;-0.79925537109375;-0.076995849609375;2.95999999252672;297;100 mA;
25.9497249344832;-0.7989501953125;-0.076751708984375;2.96999999250147;298;100 mA;
25.959724934458;-0.79864501953125;-0.07720947265625;2.97999999247622;299;100 mA;
25.9697249344327;-0.79925537109375;-0.076385498046875;2.98999999245098;300;100 mA;
25.9797249344075;-0.7989501953125;-0.07720947265625;2.99999999242573;301;100 mA;
25.9897249343823;-0.7989501953125;-0.076263427734375;3.00999999240048;302;100 mA;
25.999724934357;-0.799560546875;-0.07672119140625;3.01999999237523;303;100 mA;
26.0097249343318;-0.7989501953125;-0.076812744140625;3.02999999234999;304;100 mA;
26.0197249343065;-0.799560546875;-0.076141357421875;3.03999999232474;305;100 mA;
26.0297249342813;-0.79925537109375;-0.0767822265625;3.04999999229949;306;100 mA;
26.039724934256;-0.7989501953125;-0.075836181640625;3.05999999227424;307;100 mA;
26.0497249342308;-0.79864501953125;-0.076416015625;3.069999992249;308;100 mA;
26.0597249342055;-0.7989501953125;-0.076202392578125;3.07999999222375;309;100 mA;
26.0697249341803;-0.7989501953125;-0.076263427734375;3.0899999921985;310;100 mA;
26.079724934155;-0.79925537109375;-0.07659912109375;3.09999999217325;311;100 mA;
26.0897249341298;-0.79925537109375;-0.075775146484375;3.109999992148;312;100 mA;
26.0997249341045;-0.7989501953125;-0.07666015625;3.11999999212276;313;100 mA;
26.1097249340793;-0.799560546875;-0.075653076171875;3.12999999209751;314;100 mA;
26.119724934054;-0.79925537109375;-0.075897216796875;3.13999999207226;315;100 mA;
26.1297249340288;-0.79925537109375;-0.075836181640625;3.14999999204701;316;100 mA;
26.1397249340035;-0.79925537109375;-0.07513427734375;3.15999999202177;317;100 mA;
26.1497249339783;-0.7989501953125;-0.075927734375;3.16999999199652;318;100 mA;
26.159724933953;-0.79925537109375;-0.075225830078125;3.17999999197127;319;100 mA;
26.1697249339278;-0.7989501953125;-0.075958251953125;3.18999999194602;320;100 mA;
26.1797249339025;-0.79925537109375;-0.0753173828125;3.19999999192078;321;100 mA;
26.1897249338773;-0.799560546875;-0.075164794921875;3.20999999189553;322;100 mA;
26.1997249338521;-0.79925537109375;-0.075958251953125;3.21999999187028;323;100 mA;
26.2097249338268;-0.79925537109375;-0.075531005859375;3.22999999184503;324;100 mA;
26.2197249338016;-0.7989501953125;-0.0765380859375;3.23999999181979;325;100 mA;
26.2297249337763;-0.7989501953125;-0.075714111328125;3.24999999179454;326;100 mA;
26.2397249337511;-0.7989501953125;-0.076080322265625;3.25999999176929;327;100 mA;
26.2497249337258;-0.79925537109375;-0.07611083984375;3.26999999174404;328;100 mA;
26.2597249337006;-0.799560546875;-0.076019287109375;3.2799999917188;329;100 mA;
26.2697249336753;-0.799560546875;-0.077362060546875;3.28999999169355;330;100 mA;
26.2797249336501;-0.799560546875;-0.076812744140625;3.2999999916683;331;100 mA;
26.2897249336248;-0.799560546875;-0.0780029296875;3.30999999164305;332;100 mA;
26.2997249335996;-0.79925537109375;-0.077728271484375;3.31999999161781;333;100 mA;
26.3097249335743;-0.7989501953125;-0.077606201171875;3.32999999159256;334;100 mA;
26.3197249335491;-0.7989501953125;-0.0782470703125;3.33999999156731;335;100 mA;
26.3297249335238;-0.799560546875;-0.077423095703125;3.34999999154206;336;100 mA;
26.3397249334986;-0.79864501953125;-0.078369140625;3.35999999151682;337;100 mA;
26.3497249334733;-0.7989501953125;-0.077667236328125;3.36999999149157;338;100 mA;
26.3597249334481;-0.7989501953125;-0.078216552734375;3.37999999146632;339;100 mA;
26.3697249334228;-0.7989501953125;-0.078369140625;3.38999999144107;340;100 mA;
26.3797249333976;-0.79986572265625;-0.077880859375;3.39999999141583;341;100 mA;
26.3897249333723;-0.79864501953125;-0.07861328125;3.40999999139058;342;100 mA;
26.3997249333471;-0.79925537109375;-0.077667236328125;3.41999999136533;343;100 mA;
26.4097249333219;-0.799560546875;-0.078216552734375;3.42999999134008;344;100 mA;
26.4197249332966;-0.79864501953125;-0.077392578125;3.43999999131483;345;100 mA;
26.4297249332714;-0.7989501953125;-0.07708740234375;3.44999999128959;346;100 mA;
26.4397249332461;-0.7989501953125;-0.07757568359375;3.45999999126434;347;100 mA;
26.4497249332209;-0.7989501953125;-0.076690673828125;3.46999999123909;348;100 mA;
26.4597249331956;-0.79925537109375;-0.07757568359375;3.47999999121384;349;100 mA;
26.4697249331704;-0.799560546875;-0.0765380859375;3.4899999911886;350;100 mA;
26.4797249331451;-0.79864501953125;-0.07659912109375;3.49999999116335;351;100 mA;
26.4897249331199;-0.79925537109375;-0.0767822265625;3.5099999911381;352;100 mA;
26.4997249330946;-0.79925537109375;-0.076416015625;3.51999999111285;353;100 mA;
26.5097249330694;-0.799560546875;-0.077545166015625;3.52999999108761;354;100 mA;
26.5197249330441;-0.79925537109375;-0.07708740234375;3.53999999106236;355;100 mA;
26.5297249330189;-0.799560546875;-0.078094482421875;3.54999999103711;356;100 mA;
26.5397249329936;-0.79864501953125;-0.0780029296875;3.55999999101186;357;100 mA;
26.5497249329684;-0.79864501953125;-0.07843017578125;3.56999999098662;358;100 mA;
26.5597249329431;-0.7989501953125;-0.07928466796875;3.57999999096137;359;100 mA;
26.5697249329179;-0.79864501953125;-0.07843017578125;3.58999999093612;360;100 mA;
26.5797249328926;-0.7989501953125;-0.079254150390625;3.59999999091087;361;100 mA;
26.5897249328674;-0.79986572265625;-0.078216552734375;3.60999999088563;362;100 mA;
26.5997249328422;-0.79925537109375;-0.0782470703125;3.61999999086038;363;100 mA;
26.6097249328169;-0.7989501953125;-0.078125;3.62999999083513;364;100 mA;
26.6197249327917;-0.799560546875;-0.077423095703125;3.63999999080988;365;100 mA;
26.6297249327664;-0.79925537109375;-0.077880859375;3.64999999078464;366;100 mA;
26.6397249327412;-0.79925537109375;-0.07666015625;3.65999999075939;367;100 mA;
26.6497249327159;-0.7989501953125;-0.077178955078125;3.66999999073414;368;100 mA;
26.6597249326907;-0.7989501953125;-0.0767822265625;3.67999999070889;369;100 mA;
26.6697249326654;-0.79925537109375;-0.07666015625;3.68999999068365;370;100 mA;
26.6797249326402;-0.79925537109375;-0.0772705078125;3.6999999906584;371;100 mA;
26.6897249326149;-0.79925537109375;-0.076324462890625;3.70999999063315;372;100 mA;
26.6997249325897;-0.79925537109375;-0.077178955078125;3.7199999906079;373;100 mA;
26.7097249325644;-0.799560546875;-0.076385498046875;3.72999999058266;374;100 mA;
26.7197249325392;-0.79925537109375;-0.076690673828125;3.73999999055741;375;100 mA;
26.7297249325139;-0.7989501953125;-0.076904296875;3.74999999053216;376;100 mA;
26.7397249324887;-0.7989501953125;-0.07672119140625;3.75999999050691;377;100 mA;
26.7497249324634;-0.7989501953125;-0.077880859375;3.76999999048167;378;100 mA;
26.7597249324382;-0.79925537109375;-0.0771484375;3.77999999045642;379;100 mA;
26.7697249324129;-0.7989501953125;-0.077972412109375;3.78999999043117;380;100 mA;
26.7797249323877;-0.799560546875;-0.077362060546875;3.79999999040592;381;100 mA;
26.7897249323624;-0.7989501953125;-0.07720947265625;3.80999999038067;382;100 mA;
26.7997249323372;-0.799560546875;-0.07757568359375;3.81999999035543;383;100 mA;
26.809724932312;-0.79925537109375;-0.0765380859375;3.82999999033018;384;100 mA;
26.8197249322867;-0.79925537109375;-0.077667236328125;3.83999999030493;385;100 mA;
26.8297249322615;-0.799560546875;-0.076629638671875;3.84999999027968;386;100 mA;
26.8397249322362;-0.79925537109375;-0.076690673828125;3.85999999025444;387;100 mA;
26.849724932211;-0.79925537109375;-0.07666015625;3.86999999022919;388;100 mA;
26.8597249321857;-0.799560546875;-0.07611083984375;3.87999999020394;389;100 mA;
26.8697249321605;-0.79986572265625;-0.0771484375;3.88999999017869;390;100 mA;
26.8797249321352;-0.799560546875;-0.076324462890625;3.89999999015345;391;100 mA;
26.88972493211;-0.79925537109375;-0.0771484375;3.9099999901282;392;100 mA;
26.8997249320847;-0.79925537109375;-0.0765380859375;3.91999999010295;393;100 mA;
26.9097249320595;-0.7989501953125;-0.076385498046875;3.9299999900777;394;100 mA;
26.9197249320342;-0.79864501953125;-0.077117919921875;3.93999999005246;395;100 mA;
26.929724932009;-0.7989501953125;-0.076171875;3.94999999002721;396;100 mA;
26.9397249319837;-0.79925537109375;-0.077178955078125;3.95999999000196;397;100 mA;
26.9497249319585;-0.7989501953125;-0.07635498046875;3.96999998997671;398;100 mA;
26.9597249319332;-0.799560546875;-0.07696533203125;3.97999998995147;399;100 mA;
26.969724931908;-0.7989501953125;-0.07696533203125;3.98999998992622;400;100 mA;
26.9797249318827;-0.79925537109375;-0.076507568359375;3.99999998990097;401;100 mA;
26.9897249318575;-0.7989501953125;-0.077728271484375;4.00999998987572;402;100 mA;
26.9997249318322;-0.7989501953125;-0.076812744140625;4.01999998985048;403;100 mA;
27.009724931807;-0.7989501953125;-0.077911376953125;4.02999998982523;404;100 mA;
27.0197249317818;-0.79925537109375;-0.077545166015625;4.03999998979998;405;100 mA;
27.0297249317565;-0.7989501953125;-0.07720947265625;4.04999998977473;406;100 mA;
27.0397249317313;-0.79925537109375;-0.077972412109375;4.05999998974949;407;100 mA;
27.049724931706;-0.79864501953125;-0.077117919921875;4.06999998972424;408;100 mA;
27.0597249316808;-0.79925537109375;-0.07830810546875;4.07999998969899;409;100 mA;
27.0697249316555;-0.799560546875;-0.07769775390625;4.08999998967374;410;100 mA;
27.0797249316303;-0.7989501953125;-0.0780029296875;4.0999999896485;411;100 mA;
27.089724931605;-0.799560546875;-0.07806396484375;4.10999998962325;412;100 mA;
27.0997249315798;-0.79925537109375;-0.077301025390625;4.119999989598;413;100 mA;
27.1097249315545;-0.799560546875;-0.078338623046875;4.12999998957275;414;100 mA;
27.1197249315293;-0.7989501953125;-0.077392578125;4.1399999895475;415;100 mA;
27.129724931504;-0.799560546875;-0.078338623046875;4.14999998952226;416;100 mA;
27.1397249314788;-0.7989501953125;-0.0780029296875;4.15999998949701;417;100 mA;
27.1497249314535;-0.7989501953125;-0.077880859375;4.16999998947176;418;100 mA;
27.1597249314283;-0.799560546875;-0.078521728515625;4.17999998944651;419;100 mA;
27.169724931403;-0.7989501953125;-0.077789306640625;4.18999998942127;420;100 mA;
27.1797249313778;-0.79925537109375;-0.07879638671875;4.19999998939602;421;100 mA;
27.1897249313525;-0.799560546875;-0.078125;4.20999998937077;422;100 mA;
27.1997249313273;-0.7989501953125;-0.07830810546875;4.21999998934552;423;100 mA;
27.209724931302;-0.79925537109375;-0.078338623046875;4.22999998932028;424;100 mA;
27.2197249312768;-0.79925537109375;-0.077789306640625;4.23999998929503;425;100 mA;
27.2297249312516;-0.79925537109375;-0.078643798828125;4.24999998926978;426;100 mA;
27.2397249312263;-0.7989501953125;-0.07781982421875;4.25999998924453;427;100 mA;
27.2497249312011;-0.79925537109375;-0.078521728515625;4.26999998921929;428;100 mA;
27.2597249311758;-0.79925537109375;-0.0777587890625;4.27999998919404;429;100 mA;
27.2697249311506;-0.7989501953125;-0.07745361328125;4.28999998916879;430;100 mA;
27.2797249311253;-0.79925537109375;-0.07806396484375;4.29999998914354;431;100 mA;
27.2897249311001;-0.79925537109375;-0.077239990234375;4.3099999891183;432;100 mA;
27.2997249310748;-0.7989501953125;-0.078033447265625;4.31999998909305;433;100 mA;
27.3097249310496;-0.7989501953125;-0.077301025390625;4.3299999890678;434;100 mA;
27.3197249310243;-0.799560546875;-0.077667236328125;4.33999998904255;435;100 mA;
27.3297249309991;-0.79925537109375;-0.077850341796875;4.34999998901731;436;100 mA;
27.3397249309738;-0.79925537109375;-0.077239990234375;4.35999998899206;437;100 mA;
27.3497249309486;-0.79925537109375;-0.078277587890625;4.36999998896681;438;100 mA;
27.3597249309233;-0.799560546875;-0.0772705078125;4.37999998894156;439;100 mA;
27.3697249308981;-0.79925537109375;-0.077911376953125;4.38999998891632;440;100 mA;
27.3797249308728;-0.79986572265625;-0.077789306640625;4.39999998889107;441;100 mA;
27.3897249308476;-0.79925537109375;-0.077606201171875;4.40999998886582;442;100 mA;
27.3997249308223;-0.7989501953125;-0.077972412109375;4.41999998884057;443;100 mA;
27.4097249307971;-0.79864501953125;-0.0772705078125;4.42999998881533;444;100 mA;
27.4197249307718;-0.7989501953125;-0.078094482421875;4.43999998879008;445;100 mA;
27.4297249307466;-0.79864501953125;-0.07720947265625;4.44999998876483;446;100 mA;
27.4397249307214;-0.799560546875;-0.07745361328125;4.45999998873958;447;100 mA;
27.4497249306961;-0.79925537109375;-0.077362060546875;4.46999998871433;448;100 mA;
27.4597249306709;-0.79986572265625;-0.076690673828125;4.47999998868909;449;100 mA;
27.4697249306456;-0.799560546875;-0.077728271484375;4.48999998866384;450;100 mA;
27.4797249306204;-0.79986572265625;-0.07672119140625;4.49999998863859;451;100 mA;
27.4897249305951;-0.799560546875;-0.07745361328125;4.50999998861334;452;100 mA;
27.4997249305699;-0.7989501953125;-0.07720947265625;4.5199999885881;453;100 mA;
27.5097249305446;-0.7989501953125;-0.076995849609375;4.52999998856285;454;100 mA;
27.5197249305194;-0.79925537109375;-0.077392578125;4.5399999885376;455;100 mA;
27.5297249304941;-0.79864501953125;-0.07666015625;4.54999998851235;456;100 mA;
27.5397249304689;-0.7989501953125;-0.077667236328125;4.55999998848711;457;100 mA;
27.5497249304436;-0.799560546875;-0.076904296875;4.56999998846186;458;100 mA;
27.5597249304184;-0.79986572265625;-0.07745361328125;4.57999998843661;459;100 mA;
27.5697249303931;-0.7989501953125;-0.0777587890625;4.58999998841136;460;100 mA;
27.5797249303679;-0.79986572265625;-0.077239990234375;4.59999998838612;461;100 mA;
27.5897249303426;-0.799560546875;-0.078216552734375;4.60999998836087;462;100 mA;
27.5997249303174;-0.7989501953125;-0.07733154296875;4.61999998833562;463;100 mA;
27.6097249302921;-0.79864501953125;-0.078033447265625;4.62999998831037;464;100 mA;
27.6197249302669;-0.7989501953125;-0.077850341796875;4.63999998828513;465;100 mA;
27.6297249302417;-0.79864501953125;-0.077606201171875;4.64999998825988;466;100 mA;
27.6397249302164;-0.79925537109375;-0.078033447265625;4.65999998823463;467;100 mA;
27.6497249301912;-0.79925537109375;-0.07720947265625;4.66999998820938;468;100 mA;
27.6597249301659;-0.7989501953125;-0.078216552734375;4.67999998818414;469;100 mA;
27.6697249301407;-0.79925537109375;-0.0772705078125;4.68999998815889;470;100 mA;
27.6797249301154;-0.799560546875;-0.077545166015625;4.69999998813364;471;100 mA;
27.6897249300902;-0.79925537109375;-0.07745361328125;4.70999998810839;472;100 mA;
27.6997249300649;-0.799560546875;-0.076690673828125;4.71999998808315;473;100 mA;
27.7097249300397;-0.79925537109375;-0.07720947265625;4.7299999880579;474;100 mA;
27.7197249300144;-0.799560546875;-0.0760498046875;4.73999998803265;475;100 mA;
27.7297249299892;-0.7989501953125;-0.076507568359375;4.7499999880074;476;100 mA;
27.7397249299639;-0.7989501953125;-0.076080322265625;4.75999998798216;477;100 mA;
27.7497249299387;-0.7989501953125;-0.075836181640625;4.76999998795691;478;100 mA;
27.7597249299134;-0.79925537109375;-0.076171875;4.77999998793166;479;100 mA;
27.7697249298882;-0.7989501953125;-0.075225830078125;4.78999998790641;480;100 mA;
27.7797249298629;-0.79925537109375;-0.07623291015625;4.79999998788116;481;100 mA;
27.7897249298377;-0.79925537109375;-0.075286865234375;4.80999998785592;482;100 mA;
27.7997249298124;-0.79925537109375;-0.075592041015625;4.81999998783067;483;100 mA;
27.8097249297872;-0.79925537109375;-0.075531005859375;4.82999998780542;484;100 mA;
27.8197249297619;-0.79925537109375;-0.07476806640625;4.83999998778017;485;100 mA;
27.8297249297367;-0.79925537109375;-0.07574462890625;4.84999998775493;486;100 mA;
27.8397249297115;-0.7989501953125;-0.074798583984375;4.85999998772968;487;100 mA;
27.8497249296862;-0.79925537109375;-0.075592041015625;4.86999998770443;488;100 mA;
27.859724929661;-0.79925537109375;-0.07525634765625;4.87999998767918;489;100 mA;
27.8697249296357;-0.79864501953125;-0.075164794921875;4.88999998765394;490;100 mA;
27.8797249296105;-0.79864501953125;-0.075958251953125;4.89999998762869;491;100 mA;
27.8897249295852;-0.799560546875;-0.0753173828125;4.90999998760344;492;100 mA;
27.89972492956;-0.79925537109375;-0.076385498046875;4.91999998757819;493;100 mA;
27.9097249295347;-0.79864501953125;-0.07550048828125;4.92999998755295;494;100 mA;
27.9197249295095;-0.79925537109375;-0.075958251953125;4.9399999875277;495;100 mA;
27.9297249294842;-0.79986572265625;-0.076202392578125;4.94999998750245;496;100 mA;
27.939724929459;-0.7989501953125;-0.075836181640625;4.9599999874772;497;100 mA;
27.9497249294337;-0.79925537109375;-0.076934814453125;4.96999998745196;498;100 mA;
27.9597249294085;-0.79986572265625;-0.076202392578125;4.97999998742671;499;100 mA;
27.9697249293832;-0.799560546875;-0.077117919921875;4.98999998740146;500;100 mA;
27.979724929358;-0.799560546875;-0.07684326171875;4.99999998737621;501;100 mA;
27.9897249293327;-0.79864501953125;-0.07684326171875;5.00999998735097;502;100 mA;
27.9997249293075;-0.7989501953125;-0.077484130859375;5.01999998732572;503;100 mA;
28.0097249292822;-0.79925537109375;-0.076904296875;5.02999998730047;504;100 mA;
28.019724929257;-0.79925537109375;-0.07794189453125;5.03999998727522;505;100 mA;
28.0297249292317;-0.7989501953125;-0.0771484375;5.04999998724998;506;100 mA;
28.0397249292065;-0.79925537109375;-0.077484130859375;5.05999998722473;507;100 mA;
28.0497249291813;-0.7989501953125;-0.077789306640625;5.06999998719948;508;100 mA;
28.059724929156;-0.79986572265625;-0.077301025390625;5.07999998717423;509;100 mA;
28.0697249291308;-0.799560546875;-0.078277587890625;5.08999998714899;510;100 mA;
28.0797249291055;-0.79925537109375;-0.077484130859375;5.09999998712374;511;100 mA;
28.0897249290803;-0.79925537109375;-0.078338623046875;5.10999998709849;512;100 mA;
28.099724929055;-0.79925537109375;-0.078216552734375;5.11999998707324;513;100 mA;
28.1097249290298;-0.7989501953125;-0.078216552734375;5.129999987048;514;100 mA;
28.1197249290045;-0.79864501953125;-0.0787353515625;5.13999998702275;515;100 mA;
28.1297249289793;-0.79925537109375;-0.077911376953125;5.1499999869975;516;100 mA;
28.139724928954;-0.79925537109375;-0.078765869140625;5.15999998697225;517;100 mA;
28.1497249289288;-0.79925537109375;-0.0780029296875;5.169999986947;518;100 mA;
28.1597249289035;-0.79925537109375;-0.078125;5.17999998692176;519;100 mA;
28.1697249288783;-0.79925537109375;-0.078216552734375;5.18999998689651;520;100 mA;
28.179724928853;-0.799560546875;-0.077728271484375;5.19999998687126;521;100 mA;
28.1897249288278;-0.79925537109375;-0.078704833984375;5.20999998684601;522;100 mA;
28.1997249288025;-0.799560546875;-0.0780029296875;5.21999998682077;523;100 mA;
28.2097249287773;-0.7989501953125;-0.078643798828125;5.22999998679552;524;100 mA;
28.219724928752;-0.79864501953125;-0.07806396484375;5.23999998677027;525;100 mA;
28.2297249287268;-0.79864501953125;-0.077789306640625;5.24999998674502;526;100 mA;
28.2397249287015;-0.799560546875;-0.078155517578125;5.25999998671978;527;100 mA;
28.2497249286763;-0.7989501953125;-0.077789306640625;5.26999998669453;528;100 mA;
28.2597249286511;-0.799560546875;-0.078765869140625;5.27999998666928;529;100 mA;
28.2697249286258;-0.79986572265625;-0.077880859375;5.28999998664403;530;100 mA;
28.2797249286006;-0.799560546875;-0.07794189453125;5.29999998661879;531;100 mA;
28.2897249285753;-0.7989501953125;-0.07794189453125;5.30999998659354;532;100 mA;
28.2997249285501;-0.799560546875;-0.077362060546875;5.31999998656829;533;100 mA;
28.3097249285248;-0.7989501953125;-0.077911376953125;5.32999998654304;534;100 mA;
28.3197249284996;-0.79925537109375;-0.076873779296875;5.3399999865178;535;100 mA;
28.3297249284743;-0.79986572265625;-0.077239990234375;5.34999998649255;536;100 mA;
28.3397249284491;-0.7989501953125;-0.076812744140625;5.3599999864673;537;100 mA;
28.3497249284238;-0.799560546875;-0.0767822265625;5.36999998644205;538;100 mA;
28.3597249283986;-0.7989501953125;-0.077362060546875;5.37999998641681;539;100 mA;
28.3697249283733;-0.79925537109375;-0.076629638671875;5.38999998639156;540;100 mA;
28.3797249283481;-0.79986572265625;-0.0771484375;5.39999998636631;541;100 mA;
28.3897249283228;-0.799560546875;-0.076416015625;5.40999998634106;542;100 mA;
28.3997249282976;-0.79986572265625;-0.07672119140625;5.41999998631582;543;100 mA;
28.4097249282723;-0.79864501953125;-0.07684326171875;5.42999998629057;544;100 mA;
28.4197249282471;-0.7989501953125;-0.07666015625;5.43999998626532;545;100 mA;
28.4297249282218;-0.79864501953125;-0.077545166015625;5.44999998624007;546;100 mA;
28.4397249281966;-0.79833984375;-0.07684326171875;5.45999998621483;547;100 mA;
28.4497249281713;-0.79864501953125;-0.077667236328125;5.46999998618958;548;100 mA;
28.4597249281461;-0.799560546875;-0.077117919921875;5.47999998616433;549;100 mA;
28.4697249281209;-0.79833984375;-0.077178955078125;5.48999998613908;550;100 mA;
28.4797249280956;-0.7989501953125;-0.077972412109375;5.49999998611383;551;100 mA;
28.4897249280704;-0.799560546875;-0.077392578125;5.50999998608859;552;100 mA;
28.4997249280451;-0.799560546875;-0.078460693359375;5.51999998606334;553;100 mA;
28.5097249280199;-0.7989501953125;-0.07769775390625;5.52999998603809;554;100 mA;
28.5197249279946;-0.79925537109375;-0.077880859375;5.53999998601284;555;100 mA;
28.5297249279694;-0.7989501953125;-0.078033447265625;5.5499999859876;556;100 mA;
28.5397249279441;-0.79925537109375;-0.0777587890625;5.55999998596235;557;100 mA;
28.5497249279189;-0.79925537109375;-0.07867431640625;5.5699999859371;558;100 mA;
28.5597249278936;-0.7989501953125;-0.077423095703125;5.57999998591185;559;100 mA;
28.5697249278684;-0.799560546875;-0.0780029296875;5.58999998588661;560;100 mA;
28.5797249278431;-0.79925537109375;-0.077362060546875;5.59999998586136;561;100 mA;
28.5897249278179;-0.7989501953125;-0.07733154296875;5.60999998583611;562;100 mA;
28.5997249277926;-0.799560546875;-0.078369140625;5.61999998581086;563;100 mA;
28.6097249277674;-0.7989501953125;-0.077972412109375;5.62999998578562;564;100 mA;
28.6197249277421;-0.79925537109375;-0.07940673828125;5.63999998576037;565;100 mA;
28.6297249277169;-0.7989501953125;-0.0789794921875;5.64999998573512;566;100 mA;
28.6397249276916;-0.79925537109375;-0.079559326171875;5.65999998570987;567;100 mA;
28.6497249276664;-0.7989501953125;-0.0797119140625;5.66999998568463;568;100 mA;
28.6597249276412;-0.7989501953125;-0.079376220703125;5.67999998565938;569;100 mA;
28.6697249276159;-0.799560546875;-0.080474853515625;5.68999998563413;570;100 mA;
28.6797249275907;-0.7989501953125;-0.079681396484375;5.69999998560888;571;100 mA;
28.6897249275654;-0.7989501953125;-0.080596923828125;5.70999998558364;572;100 mA;
28.6997249275402;-0.7989501953125;-0.080047607421875;5.71999998555839;573;100 mA;
28.7097249275149;-0.799560546875;-0.079833984375;5.72999998553314;574;100 mA;
28.7197249274897;-0.79864501953125;-0.0804443359375;5.73999998550789;575;100 mA;
28.7297249274644;-0.7989501953125;-0.079681396484375;5.74999998548265;576;100 mA;
28.7397249274392;-0.79833984375;-0.080322265625;5.7599999854574;577;100 mA;
28.7497249274139;-0.79864501953125;-0.079742431640625;5.76999998543215;578;100 mA;
28.7597249273887;-0.7989501953125;-0.07965087890625;5.7799999854069;579;100 mA;
28.7697249273634;-0.79925537109375;-0.079254150390625;5.78999998538166;580;100 mA;
28.7797249273382;-0.799560546875;-0.07843017578125;5.79999998535641;581;100 mA;
28.7897249273129;-0.7989501953125;-0.07928466796875;5.80999998533116;582;100 mA;
28.7997249272877;-0.79925537109375;-0.07818603515625;5.81999998530591;583;100 mA;
28.8097249272624;-0.799560546875;-0.07867431640625;5.82999998528066;584;100 mA;
28.8197249272372;-0.7989501953125;-0.078033447265625;5.83999998525542;585;100 mA;
28.8297249272119;-0.79925537109375;-0.07781982421875;5.84999998523017;586;100 mA;
28.8397249271867;-0.7989501953125;-0.078277587890625;5.85999998520492;587;100 mA;
28.8497249271614;-0.79925537109375;-0.077392578125;5.86999998517967;588;100 mA;
28.8597249271362;-0.79925537109375;-0.07806396484375;5.87999998515443;589;100 mA;
28.869724927111;-0.8001708984375;-0.07733154296875;5.88999998512918;590;100 mA;
28.8797249270857;-0.79925537109375;-0.07757568359375;5.89999998510393;591;100 mA;
28.8897249270605;-0.7989501953125;-0.077911376953125;5.90999998507868;592;100 mA;
28.8997249270352;-0.7989501953125;-0.077423095703125;5.91999998505344;593;100 mA;
28.90972492701;-0.7989501953125;-0.078460693359375;5.92999998502819;594;100 mA;
28.9197249269847;-0.7989501953125;-0.077789306640625;5.93999998500294;595;100 mA;
28.9297249269595;-0.79925537109375;-0.078521728515625;5.94999998497769;596;100 mA;
28.9397249269342;-0.7989501953125;-0.0784912109375;5.95999998495245;597;100 mA;
28.949724926909;-0.799560546875;-0.078521728515625;5.9699999849272;598;100 mA;
28.9597249268837;-0.79864501953125;-0.07904052734375;5.97999998490195;599;100 mA;
28.9697249268585;-0.79925537109375;-0.078094482421875;5.9899999848767;600;100 mA;
28.9797249268332;-0.7989501953125;-0.078826904296875;5.99999998485146;601;100 mA;
28.989724926808;-0.799560546875;-0.078125;6.00999998482621;602;100 mA;
28.9997249267827;-0.7989501953125;-0.078277587890625;6.01999998480096;603;100 mA;
29.0097249267575;-0.79925537109375;-0.078125;6.02999998477571;604;100 mA;
29.0197249267322;-0.799560546875;-0.077423095703125;6.03999998475047;605;100 mA;
29.029724926707;-0.7989501953125;-0.07806396484375;6.04999998472522;606;100 mA;
29.0397249266817;-0.79925537109375;-0.077117919921875;6.05999998469997;607;100 mA;
29.0497249266565;-0.7989501953125;-0.07757568359375;6.06999998467472;608;100 mA;
29.0597249266312;-0.7989501953125;-0.077117919921875;6.07999998464948;609;100 mA;
29.069724926606;-0.799560546875;-0.076751708984375;6.08999998462423;610;100 mA;
29.0797249265808;-0.799560546875;-0.077056884765625;6.09999998459898;611;100 mA;
29.0897249265555;-0.7989501953125;-0.0765380859375;6.10999998457373;612;100 mA;
29.0997249265303;-0.7989501953125;-0.0775146484375;6.11999998454849;613;100 mA;
29.109724926505;-0.7989501953125;-0.076934814453125;6.12999998452324;614;100 mA;
29.1197249264798;-0.79925537109375;-0.077301025390625;6.13999998449799;615;100 mA;
29.1297249264545;-0.7989501953125;-0.07745361328125;6.14999998447274;616;100 mA;
29.1397249264293;-0.799560546875;-0.077056884765625;6.1599999844475;617;100 mA;
29.149724926404;-0.799560546875;-0.07818603515625;6.16999998442225;618;100 mA;
29.1597249263788;-0.799560546875;-0.07745361328125;6.179999984397;619;100 mA;
29.1697249263535;-0.79925537109375;-0.07830810546875;6.18999998437175;620;100 mA;
29.1797249263283;-0.79925537109375;-0.078216552734375;6.1999999843465;621;100 mA;
29.189724926303;-0.79925537109375;-0.07843017578125;6.20999998432126;622;100 mA;
29.1997249262778;-0.799560546875;-0.079010009765625;6.21999998429601;623;100 mA;
29.2097249262525;-0.799560546875;-0.078338623046875;6.22999998427076;624;100 mA;
29.2197249262273;-0.79925537109375;-0.07940673828125;6.23999998424551;625;100 mA;
29.229724926202;-0.79925537109375;-0.078582763671875;6.24999998422027;626;100 mA;
29.2397249261768;-0.799560546875;-0.0791015625;6.25999998419502;627;100 mA;
29.2497249261515;-0.799560546875;-0.079010009765625;6.26999998416977;628;100 mA;
29.2597249261263;-0.79986572265625;-0.07830810546875;6.27999998414452;629;100 mA;
29.269724926101;-0.79925537109375;-0.0791015625;6.28999998411928;630;100 mA;
29.2797249260758;-0.799560546875;-0.077972412109375;6.29999998409403;631;100 mA;
29.2897249260506;-0.799560546875;-0.078582763671875;6.30999998406878;632;100 mA;
29.2997249260253;-0.79925537109375;-0.077972412109375;6.31999998404353;633;100 mA;
29.3097249260001;-0.79925537109375;-0.07757568359375;6.32999998401829;634;100 mA;
29.3197249259748;-0.7989501953125;-0.077850341796875;6.33999998399304;635;100 mA;
29.3297249259496;-0.7989501953125;-0.0770263671875;6.34999998396779;636;100 mA;
29.3397249259243;-0.7989501953125;-0.078216552734375;6.35999998394254;637;100 mA;
29.3497249258991;-0.79925537109375;-0.077392578125;6.3699999839173;638;100 mA;
29.3597249258738;-0.7989501953125;-0.07794189453125;6.37999998389205;639;100 mA;
29.3697249258486;-0.79925537109375;-0.078155517578125;6.3899999838668;640;100 mA;
29.3797249258233;-0.799560546875;-0.077789306640625;6.39999998384155;641;100 mA;
29.3897249257981;-0.79986572265625;-0.07867431640625;6.40999998381631;642;100 mA;
29.3997249257728;-0.799560546875;-0.077301025390625;6.41999998379106;643;100 mA;
29.4097249257476;-0.7989501953125;-0.07763671875;6.42999998376581;644;100 mA;
29.4197249257223;-0.7989501953125;-0.07708740234375;6.43999998374056;645;100 mA;
29.4297249256971;-0.7989501953125;-0.0767822265625;6.44999998371532;646;100 mA;
29.4397249256718;-0.7989501953125;-0.077117919921875;6.45999998369007;647;100 mA;
29.4497249256466;-0.7989501953125;-0.07611083984375;6.46999998366482;648;100 mA;
29.4597249256213;-0.79925537109375;-0.076446533203125;6.47999998363957;649;100 mA;
29.4697249255961;-0.79925537109375;-0.07537841796875;6.48999998361433;650;100 mA;
29.4797249255708;-0.79925537109375;-0.075653076171875;6.49999998358908;651;100 mA;
29.4897249255456;-0.79925537109375;-0.075531005859375;6.50999998356383;652;100 mA;
29.4997249255204;-0.79925537109375;-0.075042724609375;6.51999998353858;653;100 mA;
29.5097249254951;-0.799560546875;-0.075958251953125;6.52999998351333;654;100 mA;
29.5197249254699;-0.79925537109375;-0.075286865234375;6.53999998348809;655;100 mA;
29.5297249254446;-0.79864501953125;-0.076171875;6.54999998346284;656;100 mA;
29.5397249254194;-0.79925537109375;-0.07598876953125;6.55999998343759;657;100 mA;
29.5497249253941;-0.799560546875;-0.076171875;6.56999998341234;658;100 mA;
29.5597249253689;-0.799560546875;-0.076934814453125;6.5799999833871;659;100 mA;
29.5697249253436;-0.79864501953125;-0.07611083984375;6.58999998336185;660;100 mA;
29.5797249253184;-0.7989501953125;-0.077117919921875;6.5999999833366;661;100 mA;
29.5897249252931;-0.79925537109375;-0.07611083984375;6.60999998331135;662;100 mA;
29.5997249252679;-0.799560546875;-0.076263427734375;6.61999998328611;663;100 mA;
29.6097249252426;-0.7989501953125;-0.0762939453125;6.62999998326086;664;100 mA;
29.6197249252174;-0.79925537109375;-0.075714111328125;6.63999998323561;665;100 mA;
29.6297249251921;-0.799560546875;-0.076507568359375;6.64999998321036;666;100 mA;
29.6397249251669;-0.799560546875;-0.075469970703125;6.65999998318512;667;100 mA;
29.6497249251416;-0.79925537109375;-0.075836181640625;6.66999998315987;668;100 mA;
29.6597249251164;-0.799560546875;-0.07525634765625;6.67999998313462;669;100 mA;
29.6697249250911;-0.7989501953125;-0.0748291015625;6.68999998310937;670;100 mA;
29.6797249250659;-0.79864501953125;-0.07513427734375;6.69999998308413;671;100 mA;
29.6897249250407;-0.7989501953125;-0.07421875;6.70999998305888;672;100 mA;
29.6997249250154;-0.79925537109375;-0.075164794921875;6.71999998303363;673;100 mA;
29.7097249249902;-0.79864501953125;-0.074462890625;6.72999998300838;674;100 mA;
29.7197249249649;-0.7989501953125;-0.0750732421875;6.73999998298314;675;100 mA;
29.7297249249397;-0.79925537109375;-0.07550048828125;6.74999998295789;676;100 mA;
29.7397249249144;-0.79925537109375;-0.075042724609375;6.75999998293264;677;100 mA;
29.7497249248892;-0.79925537109375;-0.075958251953125;6.76999998290739;678;100 mA;
29.7597249248639;-0.79925537109375;-0.0751953125;6.77999998288215;679;100 mA;
29.7697249248387;-0.79925537109375;-0.075775146484375;6.7899999828569;680;100 mA;
29.7797249248134;-0.79925537109375;-0.075439453125;6.79999998283165;681;100 mA;
29.7897249247882;-0.799560546875;-0.075286865234375;6.8099999828064;682;100 mA;
29.7997249247629;-0.79925537109375;-0.07586669921875;6.81999998278116;683;100 mA;
29.8097249247377;-0.7989501953125;-0.0750732421875;6.82999998275591;684;100 mA;
29.8197249247124;-0.7989501953125;-0.076019287109375;6.83999998273066;685;100 mA;
29.8297249246872;-0.79925537109375;-0.07513427734375;6.84999998270541;686;100 mA;
29.8397249246619;-0.79925537109375;-0.07525634765625;6.85999998268016;687;100 mA;
29.8497249246367;-0.79925537109375;-0.07562255859375;6.86999998265492;688;100 mA;
29.8597249246114;-0.7989501953125;-0.075408935546875;6.87999998262967;689;100 mA;
29.8697249245862;-0.79925537109375;-0.076568603515625;6.88999998260442;690;100 mA;
29.8797249245609;-0.79925537109375;-0.076171875;6.89999998257917;691;100 mA;
29.8897249245357;-0.79925537109375;-0.0772705078125;6.90999998255393;692;100 mA;
29.8997249245105;-0.7989501953125;-0.077606201171875;6.91999998252868;693;100 mA;
29.9097249244852;-0.7989501953125;-0.077911376953125;6.92999998250343;694;100 mA;
29.91972492446;-0.79833984375;-0.078887939453125;6.93999998247818;695;100 mA;
29.9297249244347;-0.79925537109375;-0.07818603515625;6.94999998245294;696;100 mA;
29.9397249244095;-0.79864501953125;-0.079193115234375;6.95999998242769;697;100 mA;
29.9497249243842;-0.79925537109375;-0.078338623046875;6.96999998240244;698;100 mA;
29.959724924359;-0.7989501953125;-0.078125;6.97999998237719;699;100 mA;
29.9697249243337;-0.79864501953125;-0.078399658203125;6.98999998235195;700;100 mA;
