Time (s);WE(1).Potential (V);WE(1).Current (A);Corrected time (s);Index;Current range;Overload
45.5639188849622;-0.902099609375;-0.3944091796875;0;1;100 mA;Current overload
45.5739188849369;-0.8990478515625;-0.275054931640625;0.00999999997475243;2;100 mA;
45.5839188849117;-0.89935302734375;-0.220794677734375;0.0199999999495049;3;100 mA;
45.5939188848864;-0.89874267578125;-0.19073486328125;0.0299999999242573;4;100 mA;
45.6039188848612;-0.899658203125;-0.168731689453125;0.0399999998990097;5;100 mA;
45.6139188848359;-0.899658203125;-0.153717041015625;0.0499999998737621;6;100 mA;
45.6239188848107;-0.899658203125;-0.14215087890625;0.0599999998485146;7;100 mA;
45.6339188847854;-0.89935302734375;-0.132720947265625;0.069999999823267;8;100 mA;
45.6439188847602;-0.89935302734375;-0.126708984375;0.0799999997980194;9;100 mA;
45.6539188847349;-0.899658203125;-0.119964599609375;0.0899999997727718;10;100 mA;
45.6639188847097;-0.89935302734375;-0.11553955078125;0.0999999997475243;11;100 mA;
45.6739188846844;-0.8990478515625;-0.110443115234375;0.109999999722277;12;100 mA;
45.6839188846592;-0.89935302734375;-0.106475830078125;0.119999999697029;13;100 mA;
45.6939188846339;-0.899658203125;-0.1038818359375;0.129999999671782;14;100 mA;
45.7039188846087;-0.89935302734375;-0.10028076171875;0.139999999646534;15;100 mA;
45.7139188845834;-0.8990478515625;-0.098663330078125;0.149999999621286;16;100 mA;
45.7239188845582;-0.8990478515625;-0.0960693359375;0.159999999596039;17;100 mA;
45.733918884533;-0.89935302734375;-0.0941162109375;0.169999999570791;18;100 mA;
45.7439188845077;-0.899658203125;-0.092742919921875;0.179999999545544;19;100 mA;
45.7539188844825;-0.89935302734375;-0.090667724609375;0.189999999520296;20;100 mA;
45.7639188844572;-0.899658203125;-0.090362548828125;0.199999999495049;21;100 mA;
45.773918884432;-0.8990478515625;-0.08837890625;0.209999999469801;22;100 mA;
45.7839188844067;-0.8990478515625;-0.088104248046875;0.219999999444553;23;100 mA;
45.7939188843815;-0.89935302734375;-0.08636474609375;0.229999999419306;24;100 mA;
45.8039188843562;-0.89935302734375;-0.085479736328125;0.239999999394058;25;100 mA;
45.813918884331;-0.9002685546875;-0.085296630859375;0.249999999368811;26;100 mA;
45.8239188843057;-0.89996337890625;-0.084075927734375;0.259999999343563;27;100 mA;
45.8339188842805;-0.8990478515625;-0.084259033203125;0.269999999318316;28;100 mA;
45.8439188842552;-0.89996337890625;-0.08294677734375;0.279999999293068;29;100 mA;
45.85391888423;-0.899658203125;-0.08282470703125;0.28999999926782;30;100 mA;
45.8639188842047;-0.89935302734375;-0.082489013671875;0.299999999242573;31;100 mA;
45.8739188841795;-0.89935302734375;-0.0814208984375;0.309999999217325;32;100 mA;
45.8839188841542;-0.89935302734375;-0.081878662109375;0.319999999192078;33;100 mA;
45.893918884129;-0.89935302734375;-0.0806884765625;0.32999999916683;34;100 mA;
45.9039188841037;-0.89935302734375;-0.081024169921875;0.339999999141583;35;100 mA;
45.9139188840785;-0.89935302734375;-0.08013916015625;0.349999999116335;36;100 mA;
45.9239188840533;-0.89935302734375;-0.080108642578125;0.359999999091087;37;100 mA;
45.933918884028;-0.89935302734375;-0.0804443359375;0.36999999906584;38;100 mA;
45.9439188840028;-0.8990478515625;-0.079620361328125;0.379999999040592;39;100 mA;
45.9539188839775;-0.899658203125;-0.08074951171875;0.389999999015345;40;100 mA;
45.9639188839523;-0.899658203125;-0.079833984375;0.399999998990097;41;100 mA;
45.973918883927;-0.8990478515625;-0.08026123046875;0.40999999896485;42;100 mA;
45.9839188839018;-0.89935302734375;-0.079986572265625;0.419999998939602;43;100 mA;
45.9939188838765;-0.8990478515625;-0.079559326171875;0.429999998914354;44;100 mA;
46.0039188838513;-0.89874267578125;-0.080047607421875;0.439999998889107;45;100 mA;
46.013918883826;-0.8990478515625;-0.079071044921875;0.449999998863859;46;100 mA;
46.0239188838008;-0.89935302734375;-0.079498291015625;0.459999998838612;47;100 mA;
46.0339188837755;-0.899658203125;-0.0787353515625;0.469999998813364;48;100 mA;
46.0439188837503;-0.899658203125;-0.078460693359375;0.479999998788116;49;100 mA;
46.053918883725;-0.89935302734375;-0.0784912109375;0.489999998762869;50;100 mA;
46.0639188836998;-0.89935302734375;-0.07763671875;0.499999998737621;51;100 mA;
46.0739188836745;-0.89935302734375;-0.078399658203125;0.509999998712374;52;100 mA;
46.0839188836493;-0.899658203125;-0.077484130859375;0.519999998687126;53;100 mA;
46.093918883624;-0.899658203125;-0.078033447265625;0.529999998661879;54;100 mA;
46.1039188835988;-0.89935302734375;-0.07781982421875;0.539999998636631;55;100 mA;
46.1139188835735;-0.89935302734375;-0.077484130859375;0.549999998611383;56;100 mA;
46.1239188835483;-0.89935302734375;-0.078369140625;0.559999998586136;57;100 mA;
46.1339188835231;-0.899658203125;-0.07745361328125;0.569999998560888;58;100 mA;
46.1439188834978;-0.89874267578125;-0.078521728515625;0.579999998535641;59;100 mA;
46.1539188834726;-0.899658203125;-0.078216552734375;0.589999998510393;60;100 mA;
46.1639188834473;-0.89935302734375;-0.078338623046875;0.599999998485146;61;100 mA;
46.1739188834221;-0.899658203125;-0.07904052734375;0.609999998459898;62;100 mA;
46.1839188833968;-0.8990478515625;-0.07861328125;0.61999999843465;63;100 mA;
46.1939188833716;-0.8990478515625;-0.08001708984375;0.629999998409403;64;100 mA;
46.2039188833463;-0.89935302734375;-0.0794677734375;0.639999998384155;65;100 mA;
46.2139188833211;-0.89935302734375;-0.080108642578125;0.649999998358908;66;100 mA;
46.2239188832958;-0.89996337890625;-0.080596923828125;0.65999999833366;67;100 mA;
46.2339188832706;-0.89874267578125;-0.0804443359375;0.669999998308413;68;100 mA;
46.2439188832453;-0.899658203125;-0.081390380859375;0.679999998283165;69;100 mA;
46.2539188832201;-0.8990478515625;-0.08062744140625;0.689999998257917;70;100 mA;
46.2639188831948;-0.89935302734375;-0.081756591796875;0.69999999823267;71;100 mA;
46.2739188831696;-0.89935302734375;-0.0811767578125;0.709999998207422;72;100 mA;
46.2839188831443;-0.899658203125;-0.08123779296875;0.719999998182175;73;100 mA;
46.2939188831191;-0.89935302734375;-0.0814208984375;0.729999998156927;74;100 mA;
46.3039188830938;-0.899658203125;-0.080780029296875;0.73999999813168;75;100 mA;
46.3139188830686;-0.89935302734375;-0.08172607421875;0.749999998106432;76;100 mA;
46.3239188830433;-0.89935302734375;-0.080841064453125;0.759999998081184;77;100 mA;
46.3339188830181;-0.899658203125;-0.08087158203125;0.769999998055937;78;100 mA;
46.3439188829929;-0.89935302734375;-0.080780029296875;0.779999998030689;79;100 mA;
46.3539188829676;-0.89935302734375;-0.08038330078125;0.789999998005442;80;100 mA;
46.3639188829424;-0.899658203125;-0.08135986328125;0.799999997980194;81;100 mA;
46.3739188829171;-0.89935302734375;-0.080657958984375;0.809999997954947;82;100 mA;
46.3839188828919;-0.89874267578125;-0.081573486328125;0.819999997929699;83;100 mA;
46.3939188828666;-0.8990478515625;-0.080902099609375;0.829999997904451;84;100 mA;
46.4039188828414;-0.899658203125;-0.080780029296875;0.839999997879204;85;100 mA;
46.4139188828161;-0.899658203125;-0.080810546875;0.849999997853956;86;100 mA;
46.4239188827909;-0.89935302734375;-0.079803466796875;0.859999997828709;87;100 mA;
46.4339188827656;-0.9002685546875;-0.080535888671875;0.869999997803461;88;100 mA;
46.4439188827404;-0.8990478515625;-0.079437255859375;0.879999997778214;89;100 mA;
46.4539188827151;-0.899658203125;-0.07965087890625;0.889999997752966;90;100 mA;
46.4639188826899;-0.89935302734375;-0.07940673828125;0.899999997727718;91;100 mA;
46.4739188826646;-0.8990478515625;-0.07891845703125;0.909999997702471;92;100 mA;
46.4839188826394;-0.89935302734375;-0.0797119140625;0.919999997677223;93;100 mA;
46.4939188826141;-0.89935302734375;-0.07861328125;0.929999997651976;94;100 mA;
46.5039188825889;-0.8990478515625;-0.0792236328125;0.939999997626728;95;100 mA;
46.5139188825636;-0.9002685546875;-0.0789794921875;0.949999997601481;96;100 mA;
46.5239188825384;-0.89996337890625;-0.078887939453125;0.959999997576233;97;100 mA;
46.5339188825131;-0.899658203125;-0.079254150390625;0.969999997550985;98;100 mA;
46.5439188824879;-0.899658203125;-0.078460693359375;0.979999997525738;99;100 mA;
46.5539188824627;-0.89935302734375;-0.079345703125;0.98999999750049;100;100 mA;
46.5639188824374;-0.899658203125;-0.0782470703125;0.999999997475243;101;100 mA;
46.5739188824122;-0.89935302734375;-0.07861328125;1.00999999745;102;100 mA;
46.5839188823869;-0.8990478515625;-0.0782470703125;1.01999999742475;103;100 mA;
46.5939188823617;-0.8990478515625;-0.07769775390625;1.0299999973995;104;100 mA;
46.6039188823364;-0.89935302734375;-0.078521728515625;1.03999999737425;105;100 mA;
46.6139188823112;-0.89874267578125;-0.077728271484375;1.049999997349;106;100 mA;
46.6239188822859;-0.89935302734375;-0.0780029296875;1.05999999732376;107;100 mA;
46.6339188822607;-0.899658203125;-0.07763671875;1.06999999729851;108;100 mA;
46.6439188822354;-0.89935302734375;-0.07763671875;1.07999999727326;109;100 mA;
46.6539188822102;-0.899658203125;-0.07794189453125;1.08999999724801;110;100 mA;
46.6639188821849;-0.899658203125;-0.077178955078125;1.09999999722277;111;100 mA;
46.6739188821597;-0.899658203125;-0.077850341796875;1.10999999719752;112;100 mA;
46.6839188821344;-0.89874267578125;-0.07666015625;1.11999999717227;113;100 mA;
46.6939188821092;-0.89935302734375;-0.077056884765625;1.12999999714702;114;100 mA;
46.7039188820839;-0.89935302734375;-0.077056884765625;1.13999999712178;115;100 mA;
46.7139188820587;-0.8990478515625;-0.076568603515625;1.14999999709653;116;100 mA;
46.7239188820334;-0.899658203125;-0.077178955078125;1.15999999707128;117;100 mA;
46.7339188820082;-0.89935302734375;-0.07666015625;1.16999999704603;118;100 mA;
46.7439188819829;-0.89935302734375;-0.077545166015625;1.17999999702079;119;100 mA;
46.7539188819577;-0.89935302734375;-0.0772705078125;1.18999999699554;120;100 mA;
46.7639188819325;-0.899658203125;-0.077392578125;1.19999999697029;121;100 mA;
46.7739188819072;-0.8990478515625;-0.0777587890625;1.20999999694504;122;100 mA;
46.783918881882;-0.89935302734375;-0.077392578125;1.2199999969198;123;100 mA;
46.7939188818567;-0.8990478515625;-0.0787353515625;1.22999999689455;124;100 mA;
46.8039188818315;-0.89935302734375;-0.078094482421875;1.2399999968693;125;100 mA;
46.8139188818062;-0.899658203125;-0.07861328125;1.24999999684405;126;100 mA;
46.823918881781;-0.899658203125;-0.07861328125;1.25999999681881;127;100 mA;
46.8339188817557;-0.899658203125;-0.078033447265625;1.26999999679356;128;100 mA;
46.8439188817305;-0.89935302734375;-0.078460693359375;1.27999999676831;129;100 mA;
46.8539188817052;-0.899658203125;-0.077667236328125;1.28999999674306;130;100 mA;
46.86391888168;-0.89935302734375;-0.07818603515625;1.29999999671782;131;100 mA;
46.8739188816547;-0.8990478515625;-0.077606201171875;1.30999999669257;132;100 mA;
46.8839188816295;-0.899658203125;-0.077392578125;1.31999999666732;133;100 mA;
46.8939188816042;-0.89935302734375;-0.077850341796875;1.32999999664207;134;100 mA;
46.903918881579;-0.89935302734375;-0.077178955078125;1.33999999661683;135;100 mA;
46.9139188815537;-0.899658203125;-0.07806396484375;1.34999999659158;136;100 mA;
46.9239188815285;-0.89935302734375;-0.0771484375;1.35999999656633;137;100 mA;
46.9339188815032;-0.899658203125;-0.077117919921875;1.36999999654108;138;100 mA;
46.943918881478;-0.89935302734375;-0.076904296875;1.37999999651583;139;100 mA;
46.9539188814528;-0.8990478515625;-0.076629638671875;1.38999999649059;140;100 mA;
46.9639188814275;-0.899658203125;-0.0772705078125;1.39999999646534;141;100 mA;
46.9739188814023;-0.89935302734375;-0.076263427734375;1.40999999644009;142;100 mA;
46.983918881377;-0.8990478515625;-0.076812744140625;1.41999999641484;143;100 mA;
46.9939188813518;-0.8990478515625;-0.0762939453125;1.4299999963896;144;100 mA;
47.0039188813265;-0.89935302734375;-0.076263427734375;1.43999999636435;145;100 mA;
47.0139188813013;-0.899658203125;-0.07659912109375;1.4499999963391;146;100 mA;
47.023918881276;-0.89935302734375;-0.0758056640625;1.45999999631385;147;100 mA;
47.0339188812508;-0.89935302734375;-0.076629638671875;1.46999999628861;148;100 mA;
47.0439188812255;-0.89935302734375;-0.075836181640625;1.47999999626336;149;100 mA;
47.0539188812003;-0.899658203125;-0.076263427734375;1.48999999623811;150;100 mA;
47.063918881175;-0.8990478515625;-0.076171875;1.49999999621286;151;100 mA;
47.0739188811498;-0.89935302734375;-0.0758056640625;1.50999999618762;152;100 mA;
47.0839188811245;-0.89996337890625;-0.076507568359375;1.51999999616237;153;100 mA;
47.0939188810993;-0.899658203125;-0.07586669921875;1.52999999613712;154;100 mA;
47.103918881074;-0.8990478515625;-0.07684326171875;1.53999999611187;155;100 mA;
47.1139188810488;-0.89874267578125;-0.076507568359375;1.54999999608663;156;100 mA;
47.1239188810235;-0.899658203125;-0.076995849609375;1.55999999606138;157;100 mA;
47.1339188809983;-0.89935302734375;-0.077789306640625;1.56999999603613;158;100 mA;
47.143918880973;-0.89935302734375;-0.077362060546875;1.57999999601088;159;100 mA;
47.1539188809478;-0.8990478515625;-0.078216552734375;1.58999999598564;160;100 mA;
47.1639188809226;-0.899658203125;-0.0772705078125;1.59999999596039;161;100 mA;
47.1739188808973;-0.89935302734375;-0.07763671875;1.60999999593514;162;100 mA;
47.1839188808721;-0.89935302734375;-0.077545166015625;1.61999999590989;163;100 mA;
47.1939188808468;-0.8990478515625;-0.0772705078125;1.62999999588465;164;100 mA;
47.2039188808216;-0.8990478515625;-0.0782470703125;1.6399999958594;165;100 mA;
47.2139188807963;-0.8990478515625;-0.077484130859375;1.64999999583415;166;100 mA;
47.2239188807711;-0.8990478515625;-0.078277587890625;1.6599999958089;167;100 mA;
47.2339188807458;-0.89996337890625;-0.07757568359375;1.66999999578366;168;100 mA;
47.2439188807206;-0.89935302734375;-0.077484130859375;1.67999999575841;169;100 mA;
47.2539188806953;-0.9002685546875;-0.077911376953125;1.68999999573316;170;100 mA;
47.2639188806701;-0.89874267578125;-0.07708740234375;1.69999999570791;171;100 mA;
47.2739188806448;-0.899658203125;-0.077880859375;1.70999999568267;172;100 mA;
47.2839188806196;-0.899658203125;-0.0767822265625;1.71999999565742;173;100 mA;
47.2939188805943;-0.899658203125;-0.0771484375;1.72999999563217;174;100 mA;
47.3039188805691;-0.89935302734375;-0.07720947265625;1.73999999560692;175;100 mA;
47.3139188805438;-0.8990478515625;-0.077178955078125;1.74999999558167;176;100 mA;
47.3239188805186;-0.89874267578125;-0.078216552734375;1.75999999555643;177;100 mA;
47.3339188804933;-0.89935302734375;-0.077423095703125;1.76999999553118;178;100 mA;
47.3439188804681;-0.899658203125;-0.0780029296875;1.77999999550593;179;100 mA;
47.3539188804428;-0.89996337890625;-0.07733154296875;1.78999999548068;180;100 mA;
47.3639188804176;-0.899658203125;-0.077301025390625;1.79999999545544;181;100 mA;
47.3739188803924;-0.89935302734375;-0.0777587890625;1.80999999543019;182;100 mA;
47.3839188803671;-0.8990478515625;-0.0770263671875;1.81999999540494;183;100 mA;
47.3939188803419;-0.89935302734375;-0.077850341796875;1.82999999537969;184;100 mA;
47.4039188803166;-0.8990478515625;-0.07708740234375;1.83999999535445;185;100 mA;
47.4139188802914;-0.89935302734375;-0.077484130859375;1.8499999953292;186;100 mA;
47.4239188802661;-0.899658203125;-0.0772705078125;1.85999999530395;187;100 mA;
47.4339188802409;-0.899658203125;-0.077056884765625;1.8699999952787;188;100 mA;
47.4439188802156;-0.8990478515625;-0.07818603515625;1.87999999525346;189;100 mA;
47.4539188801904;-0.8990478515625;-0.077484130859375;1.88999999522821;190;100 mA;
47.4639188801651;-0.8990478515625;-0.07830810546875;1.89999999520296;191;100 mA;
47.4739188801399;-0.89935302734375;-0.07769775390625;1.90999999517771;192;100 mA;
47.4839188801146;-0.89874267578125;-0.07769775390625;1.91999999515247;193;100 mA;
47.4939188800894;-0.8990478515625;-0.07830810546875;1.92999999512722;194;100 mA;
47.5039188800641;-0.89935302734375;-0.07763671875;1.93999999510197;195;100 mA;
47.5139188800389;-0.89935302734375;-0.07861328125;1.94999999507672;196;100 mA;
47.5239188800136;-0.89996337890625;-0.0780029296875;1.95999999505148;197;100 mA;
47.5339188799884;-0.89935302734375;-0.0782470703125;1.96999999502623;198;100 mA;
47.5439188799631;-0.89935302734375;-0.078338623046875;1.97999999500098;199;100 mA;
47.5539188799379;-0.899658203125;-0.077911376953125;1.98999999497573;200;100 mA;
47.5639188799126;-0.89935302734375;-0.07867431640625;1.99999999495049;201;100 mA;
47.5739188798874;-0.899658203125;-0.077850341796875;2.00999999492524;202;100 mA;
47.5839188798622;-0.89935302734375;-0.0784912109375;2.01999999489999;203;100 mA;
47.5939188798369;-0.899658203125;-0.078094482421875;2.02999999487474;204;100 mA;
47.6039188798117;-0.8990478515625;-0.077972412109375;2.0399999948495;205;100 mA;
47.6139188797864;-0.89935302734375;-0.078369140625;2.04999999482425;206;100 mA;
47.6239188797612;-0.89874267578125;-0.077667236328125;2.059999994799;207;100 mA;
47.6339188797359;-0.89935302734375;-0.07843017578125;2.06999999477375;208;100 mA;
47.6439188797107;-0.899658203125;-0.0777587890625;2.0799999947485;209;100 mA;
47.6539188796854;-0.89935302734375;-0.077880859375;2.08999999472326;210;100 mA;
47.6639188796602;-0.899658203125;-0.077789306640625;2.09999999469801;211;100 mA;
47.6739188796349;-0.89935302734375;-0.077239990234375;2.10999999467276;212;100 mA;
47.6839188796097;-0.899658203125;-0.07806396484375;2.11999999464751;213;100 mA;
47.6939188795844;-0.8990478515625;-0.0772705078125;2.12999999462227;214;100 mA;
47.7039188795592;-0.899658203125;-0.077911376953125;2.13999999459702;215;100 mA;
47.7139188795339;-0.89874267578125;-0.077423095703125;2.14999999457177;216;100 mA;
47.7239188795087;-0.899658203125;-0.077117919921875;2.15999999454652;217;100 mA;
47.7339188794834;-0.89935302734375;-0.07733154296875;2.16999999452128;218;100 mA;
47.7439188794582;-0.899658203125;-0.076904296875;2.17999999449603;219;100 mA;
47.7539188794329;-0.8990478515625;-0.07763671875;2.18999999447078;220;100 mA;
47.7639188794077;-0.899658203125;-0.07684326171875;2.19999999444553;221;100 mA;
47.7739188793824;-0.899658203125;-0.07708740234375;2.20999999442029;222;100 mA;
47.7839188793572;-0.89996337890625;-0.07696533203125;2.21999999439504;223;100 mA;
47.793918879332;-0.8990478515625;-0.0767822265625;2.22999999436979;224;100 mA;
47.8039188793067;-0.89935302734375;-0.077728271484375;2.23999999434454;225;100 mA;
47.8139188792815;-0.89935302734375;-0.07720947265625;2.2499999943193;226;100 mA;
47.8239188792562;-0.8990478515625;-0.077911376953125;2.25999999429405;227;100 mA;
47.833918879231;-0.89935302734375;-0.07763671875;2.2699999942688;228;100 mA;
47.8439188792057;-0.899658203125;-0.07763671875;2.27999999424355;229;100 mA;
47.8539188791805;-0.89935302734375;-0.07794189453125;2.28999999421831;230;100 mA;
47.8639188791552;-0.899658203125;-0.077301025390625;2.29999999419306;231;100 mA;
47.87391887913;-0.89996337890625;-0.07830810546875;2.30999999416781;232;100 mA;
47.8839188791047;-0.89996337890625;-0.07769775390625;2.31999999414256;233;100 mA;
47.8939188790795;-0.899658203125;-0.0782470703125;2.32999999411732;234;100 mA;
47.9039188790542;-0.899658203125;-0.078125;2.33999999409207;235;100 mA;
47.913918879029;-0.89935302734375;-0.078033447265625;2.34999999406682;236;100 mA;
47.9239188790037;-0.899658203125;-0.079010009765625;2.35999999404157;237;100 mA;
47.9339188789785;-0.89935302734375;-0.07818603515625;2.36999999401633;238;100 mA;
47.9439188789532;-0.89935302734375;-0.078887939453125;2.37999999399108;239;100 mA;
47.953918878928;-0.9002685546875;-0.07843017578125;2.38999999396583;240;100 mA;
47.9639188789027;-0.89935302734375;-0.07843017578125;2.39999999394058;241;100 mA;
47.9739188788775;-0.8990478515625;-0.078765869140625;2.40999999391533;242;100 mA;
47.9839188788523;-0.899658203125;-0.07794189453125;2.41999999389009;243;100 mA;
47.993918878827;-0.899658203125;-0.07855224609375;2.42999999386484;244;100 mA;
48.0039188788018;-0.899658203125;-0.077850341796875;2.43999999383959;245;100 mA;
48.0139188787765;-0.899658203125;-0.078277587890625;2.44999999381434;246;100 mA;
48.0239188787513;-0.89935302734375;-0.07830810546875;2.4599999937891;247;100 mA;
48.033918878726;-0.89935302734375;-0.077850341796875;2.46999999376385;248;100 mA;
48.0439188787008;-0.89874267578125;-0.07867431640625;2.4799999937386;249;100 mA;
48.0539188786755;-0.8990478515625;-0.0780029296875;2.48999999371335;250;100 mA;
48.0639188786503;-0.89935302734375;-0.07879638671875;2.49999999368811;251;100 mA;
48.073918878625;-0.89996337890625;-0.07830810546875;2.50999999366286;252;100 mA;
48.0839188785998;-0.8990478515625;-0.07818603515625;2.51999999363761;253;100 mA;
48.0939188785745;-0.8990478515625;-0.078399658203125;2.52999999361236;254;100 mA;
48.1039188785493;-0.89935302734375;-0.077392578125;2.53999999358712;255;100 mA;
48.113918878524;-0.89935302734375;-0.078125;2.54999999356187;256;100 mA;
48.1239188784988;-0.89935302734375;-0.07733154296875;2.55999999353662;257;100 mA;
48.1339188784735;-0.89935302734375;-0.0777587890625;2.56999999351137;258;100 mA;
48.1439188784483;-0.89935302734375;-0.077667236328125;2.57999999348613;259;100 mA;
48.153918878423;-0.89935302734375;-0.076995849609375;2.58999999346088;260;100 mA;
48.1639188783978;-0.8990478515625;-0.077545166015625;2.59999999343563;261;100 mA;
48.1739188783725;-0.89935302734375;-0.076751708984375;2.60999999341038;262;100 mA;
48.1839188783473;-0.899658203125;-0.077606201171875;2.61999999338514;263;100 mA;
48.1939188783221;-0.89935302734375;-0.07708740234375;2.62999999335989;264;100 mA;
48.2039188782968;-0.8990478515625;-0.07696533203125;2.63999999333464;265;100 mA;
48.2139188782716;-0.89935302734375;-0.077301025390625;2.64999999330939;266;100 mA;
48.2239188782463;-0.89996337890625;-0.076568603515625;2.65999999328415;267;100 mA;
48.2339188782211;-0.89935302734375;-0.077911376953125;2.6699999932589;268;100 mA;
48.2439188781958;-0.89935302734375;-0.076934814453125;2.67999999323365;269;100 mA;
48.2539188781706;-0.89935302734375;-0.07720947265625;2.6899999932084;270;100 mA;
48.2639188781453;-0.899658203125;-0.07720947265625;2.69999999318316;271;100 mA;
48.2739188781201;-0.899658203125;-0.07684326171875;2.70999999315791;272;100 mA;
48.2839188780948;-0.89935302734375;-0.078094482421875;2.71999999313266;273;100 mA;
48.2939188780696;-0.899658203125;-0.07733154296875;2.72999999310741;274;100 mA;
48.3039188780443;-0.8990478515625;-0.078094482421875;2.73999999308217;275;100 mA;
48.3139188780191;-0.89874267578125;-0.07763671875;2.74999999305692;276;100 mA;
48.3239188779938;-0.899658203125;-0.077301025390625;2.75999999303167;277;100 mA;
48.3339188779686;-0.89874267578125;-0.07794189453125;2.76999999300642;278;100 mA;
48.3439188779433;-0.899658203125;-0.076873779296875;2.77999999298117;279;100 mA;
48.3539188779181;-0.89935302734375;-0.077789306640625;2.78999999295593;280;100 mA;
48.3639188778928;-0.899658203125;-0.077056884765625;2.79999999293068;281;100 mA;
48.3739188778676;-0.899658203125;-0.077423095703125;2.80999999290543;282;100 mA;
48.3839188778423;-0.899658203125;-0.077545166015625;2.81999999288018;283;100 mA;
48.3939188778171;-0.8990478515625;-0.07696533203125;2.82999999285494;284;100 mA;
48.4039188777919;-0.89935302734375;-0.0775146484375;2.83999999282969;285;100 mA;
48.4139188777666;-0.8990478515625;-0.076385498046875;2.84999999280444;286;100 mA;
48.4239188777414;-0.89935302734375;-0.07708740234375;2.85999999277919;287;100 mA;
48.4339188777161;-0.89935302734375;-0.07659912109375;2.86999999275395;288;100 mA;
48.4439188776909;-0.8990478515625;-0.0767822265625;2.8799999927287;289;100 mA;
48.4539188776656;-0.8990478515625;-0.077362060546875;2.88999999270345;290;100 mA;
48.4639188776404;-0.8990478515625;-0.076934814453125;2.8999999926782;291;100 mA;
48.4739188776151;-0.89935302734375;-0.07830810546875;2.90999999265296;292;100 mA;
48.4839188775899;-0.899658203125;-0.078033447265625;2.91999999262771;293;100 mA;
48.4939188775646;-0.899658203125;-0.078582763671875;2.92999999260246;294;100 mA;
48.5039188775394;-0.8990478515625;-0.07891845703125;2.93999999257721;295;100 mA;
48.5139188775141;-0.89996337890625;-0.078521728515625;2.94999999255197;296;100 mA;
48.5239188774889;-0.89935302734375;-0.079345703125;2.95999999252672;297;100 mA;
48.5339188774636;-0.8990478515625;-0.078369140625;2.96999999250147;298;100 mA;
48.5439188774384;-0.89874267578125;-0.0789794921875;2.97999999247622;299;100 mA;
48.5539188774131;-0.89935302734375;-0.07855224609375;2.98999999245098;300;100 mA;
48.5639188773879;-0.8984375;-0.07818603515625;2.99999999242573;301;100 mA;
48.5739188773626;-0.89935302734375;-0.078765869140625;3.00999999240048;302;100 mA;
48.5839188773374;-0.89935302734375;-0.07806396484375;3.01999999237523;303;100 mA;
48.5939188773121;-0.89996337890625;-0.078765869140625;3.02999999234999;304;100 mA;
48.6039188772869;-0.89935302734375;-0.077850341796875;3.03999999232474;305;100 mA;
48.6139188772617;-0.899658203125;-0.078033447265625;3.04999999229949;306;100 mA;
48.6239188772364;-0.89996337890625;-0.078125;3.05999999227424;307;100 mA;
48.6339188772112;-0.899658203125;-0.077728271484375;3.069999992249;308;100 mA;
48.6439188771859;-0.8990478515625;-0.07855224609375;3.07999999222375;309;100 mA;
48.6539188771607;-0.8990478515625;-0.07794189453125;3.0899999921985;310;100 mA;
48.6639188771354;-0.899658203125;-0.078399658203125;3.09999999217325;311;100 mA;
48.6739188771102;-0.89935302734375;-0.077911376953125;3.109999992148;312;100 mA;
48.6839188770849;-0.89935302734375;-0.0780029296875;3.11999999212276;313;100 mA;
48.6939188770597;-0.899658203125;-0.0782470703125;3.12999999209751;314;100 mA;
48.7039188770344;-0.899658203125;-0.077117919921875;3.13999999207226;315;100 mA;
48.7139188770092;-0.8990478515625;-0.0775146484375;3.14999999204701;316;100 mA;
48.7239188769839;-0.89935302734375;-0.076416015625;3.15999999202177;317;100 mA;
48.7339188769587;-0.8990478515625;-0.07666015625;3.16999999199652;318;100 mA;
48.7439188769334;-0.89935302734375;-0.076690673828125;3.17999999197127;319;100 mA;
48.7539188769082;-0.899658203125;-0.076568603515625;3.18999999194602;320;100 mA;
48.7639188768829;-0.8990478515625;-0.07745361328125;3.19999999192078;321;100 mA;
48.7739188768577;-0.8990478515625;-0.076751708984375;3.20999999189553;322;100 mA;
48.7839188768324;-0.8990478515625;-0.077484130859375;3.21999999187028;323;100 mA;
48.7939188768072;-0.8990478515625;-0.076934814453125;3.22999999184503;324;100 mA;
48.8039188767819;-0.899658203125;-0.076873779296875;3.23999999181979;325;100 mA;
48.8139188767567;-0.89935302734375;-0.077301025390625;3.24999999179454;326;100 mA;
48.8239188767315;-0.899658203125;-0.076446533203125;3.25999999176929;327;100 mA;
48.8339188767062;-0.899658203125;-0.0775146484375;3.26999999174404;328;100 mA;
48.843918876681;-0.89874267578125;-0.076934814453125;3.2799999917188;329;100 mA;
48.8539188766557;-0.89935302734375;-0.077423095703125;3.28999999169355;330;100 mA;
48.8639188766305;-0.89935302734375;-0.077728271484375;3.2999999916683;331;100 mA;
48.8739188766052;-0.89935302734375;-0.077545166015625;3.30999999164305;332;100 mA;
48.88391887658;-0.8990478515625;-0.0784912109375;3.31999999161781;333;100 mA;
48.8939188765547;-0.899658203125;-0.077728271484375;3.32999999159256;334;100 mA;
48.9039188765295;-0.8990478515625;-0.078338623046875;3.33999999156731;335;100 mA;
48.9139188765042;-0.8990478515625;-0.077545166015625;3.34999999154206;336;100 mA;
48.923918876479;-0.899658203125;-0.07745361328125;3.35999999151682;337;100 mA;
48.9339188764537;-0.89996337890625;-0.077789306640625;3.36999999149157;338;100 mA;
48.9439188764285;-0.89935302734375;-0.076690673828125;3.37999999146632;339;100 mA;
48.9539188764032;-0.89935302734375;-0.07733154296875;3.38999999144107;340;100 mA;
48.963918876378;-0.899658203125;-0.076416015625;3.39999999141583;341;100 mA;
48.9739188763527;-0.89874267578125;-0.076690673828125;3.40999999139058;342;100 mA;
48.9839188763275;-0.899658203125;-0.07672119140625;3.41999999136533;343;100 mA;
48.9939188763022;-0.89935302734375;-0.076141357421875;3.42999999134008;344;100 mA;
49.003918876277;-0.89935302734375;-0.076812744140625;3.43999999131483;345;100 mA;
49.0139188762518;-0.899658203125;-0.07586669921875;3.44999999128959;346;100 mA;
49.0239188762265;-0.89874267578125;-0.076141357421875;3.45999999126434;347;100 mA;
49.0339188762013;-0.89935302734375;-0.07568359375;3.46999999123909;348;100 mA;
49.043918876176;-0.89874267578125;-0.075927734375;3.47999999121384;349;100 mA;
49.0539188761508;-0.899658203125;-0.07647705078125;3.4899999911886;350;100 mA;
49.0639188761255;-0.89935302734375;-0.0755615234375;3.49999999116335;351;100 mA;
49.0739188761003;-0.8990478515625;-0.07666015625;3.5099999911381;352;100 mA;
49.083918876075;-0.8990478515625;-0.075958251953125;3.51999999111285;353;100 mA;
49.0939188760498;-0.8990478515625;-0.076446533203125;3.52999999108761;354;100 mA;
49.1039188760245;-0.899658203125;-0.0765380859375;3.53999999106236;355;100 mA;
49.1139188759993;-0.8990478515625;-0.076141357421875;3.54999999103711;356;100 mA;
49.123918875974;-0.89935302734375;-0.076995849609375;3.55999999101186;357;100 mA;
49.1339188759488;-0.89874267578125;-0.076171875;3.56999999098662;358;100 mA;
49.1439188759235;-0.8990478515625;-0.0767822265625;3.57999999096137;359;100 mA;
49.1539188758983;-0.89935302734375;-0.076385498046875;3.58999999093612;360;100 mA;
49.163918875873;-0.89935302734375;-0.07647705078125;3.59999999091087;361;100 mA;
49.1739188758478;-0.8990478515625;-0.0772705078125;3.60999999088563;362;100 mA;
49.1839188758225;-0.89935302734375;-0.0765380859375;3.61999999086038;363;100 mA;
49.1939188757973;-0.899658203125;-0.077392578125;3.62999999083513;364;100 mA;
49.203918875772;-0.89996337890625;-0.076446533203125;3.63999999080988;365;100 mA;
49.2139188757468;-0.89935302734375;-0.076751708984375;3.64999999078464;366;100 mA;
49.2239188757216;-0.899658203125;-0.076751708984375;3.65999999075939;367;100 mA;
49.2339188756963;-0.8990478515625;-0.076385498046875;3.66999999073414;368;100 mA;
49.2439188756711;-0.89935302734375;-0.077117919921875;3.67999999070889;369;100 mA;
49.2539188756458;-0.89935302734375;-0.07623291015625;3.68999999068365;370;100 mA;
49.2639188756206;-0.8990478515625;-0.076934814453125;3.6999999906584;371;100 mA;
49.2739188755953;-0.899658203125;-0.07635498046875;3.70999999063315;372;100 mA;
49.2839188755701;-0.899658203125;-0.076202392578125;3.7199999906079;373;100 mA;
49.2939188755448;-0.899658203125;-0.0767822265625;3.72999999058266;374;100 mA;
49.3039188755196;-0.89996337890625;-0.0760498046875;3.73999999055741;375;100 mA;
49.3139188754943;-0.899658203125;-0.076904296875;3.74999999053216;376;100 mA;
49.3239188754691;-0.89935302734375;-0.076629638671875;3.75999999050691;377;100 mA;
49.3339188754438;-0.89935302734375;-0.077239990234375;3.76999999048167;378;100 mA;
49.3439188754186;-0.89935302734375;-0.07720947265625;3.77999999045642;379;100 mA;
49.3539188753933;-0.89935302734375;-0.0767822265625;3.78999999043117;380;100 mA;
49.3639188753681;-0.89935302734375;-0.077728271484375;3.79999999040592;381;100 mA;
49.3739188753428;-0.89935302734375;-0.076812744140625;3.80999999038067;382;100 mA;
49.3839188753176;-0.899658203125;-0.077667236328125;3.81999999035543;383;100 mA;
49.3939188752923;-0.899658203125;-0.077392578125;3.82999999033018;384;100 mA;
49.4039188752671;-0.89935302734375;-0.0772705078125;3.83999999030493;385;100 mA;
49.4139188752418;-0.899658203125;-0.077850341796875;3.84999999027968;386;100 mA;
49.4239188752166;-0.89996337890625;-0.077117919921875;3.85999999025444;387;100 mA;
49.4339188751914;-0.89935302734375;-0.077911376953125;3.86999999022919;388;100 mA;
49.4439188751661;-0.8990478515625;-0.07733154296875;3.87999999020394;389;100 mA;
49.4539188751409;-0.89935302734375;-0.07781982421875;3.88999999017869;390;100 mA;
49.4639188751156;-0.899658203125;-0.077606201171875;3.89999999015345;391;100 mA;
49.4739188750904;-0.8990478515625;-0.076995849609375;3.9099999901282;392;100 mA;
49.4839188750651;-0.89874267578125;-0.0780029296875;3.91999999010295;393;100 mA;
49.4939188750399;-0.899658203125;-0.07733154296875;3.9299999900777;394;100 mA;
49.5039188750146;-0.899658203125;-0.078399658203125;3.93999999005246;395;100 mA;
49.5139188749894;-0.899658203125;-0.078033447265625;3.94999999002721;396;100 mA;
49.5239188749641;-0.899658203125;-0.077972412109375;3.95999999000196;397;100 mA;
49.5339188749389;-0.89935302734375;-0.07861328125;3.96999998997671;398;100 mA;
49.5439188749136;-0.89935302734375;-0.07794189453125;3.97999998995147;399;100 mA;
49.5539188748884;-0.89935302734375;-0.078948974609375;3.98999998992622;400;100 mA;
49.5639188748631;-0.89935302734375;-0.0784912109375;3.99999998990097;401;100 mA;
49.5739188748379;-0.8990478515625;-0.07891845703125;4.00999998987572;402;100 mA;
49.5839188748126;-0.89935302734375;-0.078826904296875;4.01999998985048;403;100 mA;
49.5939188747874;-0.89935302734375;-0.078521728515625;4.02999998982523;404;100 mA;
49.6039188747621;-0.89935302734375;-0.079498291015625;4.03999998979998;405;100 mA;
49.6139188747369;-0.89935302734375;-0.078765869140625;4.04999998977473;406;100 mA;
49.6239188747116;-0.899658203125;-0.079345703125;4.05999998974949;407;100 mA;
49.6339188746864;-0.8990478515625;-0.07861328125;4.06999998972424;408;100 mA;
49.6439188746612;-0.89935302734375;-0.07830810546875;4.07999998969899;409;100 mA;
49.6539188746359;-0.899658203125;-0.078582763671875;4.08999998967374;410;100 mA;
49.6639188746107;-0.8990478515625;-0.077911376953125;4.0999999896485;411;100 mA;
49.6739188745854;-0.89935302734375;-0.07861328125;4.10999998962325;412;100 mA;
49.6839188745602;-0.89996337890625;-0.077789306640625;4.119999989598;413;100 mA;
49.6939188745349;-0.899658203125;-0.077972412109375;4.12999998957275;414;100 mA;
49.7039188745097;-0.89996337890625;-0.07794189453125;4.1399999895475;415;100 mA;
49.7139188744844;-0.89935302734375;-0.077392578125;4.14999998952226;416;100 mA;
49.7239188744592;-0.89935302734375;-0.078216552734375;4.15999998949701;417;100 mA;
49.7339188744339;-0.8990478515625;-0.077178955078125;4.16999998947176;418;100 mA;
49.7439188744087;-0.8990478515625;-0.07745361328125;4.17999998944651;419;100 mA;
49.7539188743834;-0.8990478515625;-0.077301025390625;4.18999998942127;420;100 mA;
49.7639188743582;-0.89935302734375;-0.0777587890625;4.19999998939602;421;100 mA;
49.7739188743329;-0.89935302734375;-0.0782470703125;4.20999998937077;422;100 mA;
49.7839188743077;-0.89935302734375;-0.0775146484375;4.21999998934552;423;100 mA;
49.7939188742824;-0.89935302734375;-0.07843017578125;4.22999998932028;424;100 mA;
49.8039188742572;-0.899658203125;-0.07769775390625;4.23999998929503;425;100 mA;
49.8139188742319;-0.899658203125;-0.077972412109375;4.24999998926978;426;100 mA;
49.8239188742067;-0.8990478515625;-0.077789306640625;4.25999998924453;427;100 mA;
49.8339188741814;-0.899658203125;-0.077117919921875;4.26999998921929;428;100 mA;
49.8439188741562;-0.89935302734375;-0.0780029296875;4.27999998919404;429;100 mA;
49.853918874131;-0.8990478515625;-0.077056884765625;4.28999998916879;430;100 mA;
49.8639188741057;-0.899658203125;-0.0775146484375;4.29999998914354;431;100 mA;
49.8739188740805;-0.89874267578125;-0.0771484375;4.3099999891183;432;100 mA;
49.8839188740552;-0.89935302734375;-0.076995849609375;4.31999998909305;433;100 mA;
49.89391887403;-0.89935302734375;-0.077545166015625;4.3299999890678;434;100 mA;
49.9039188740047;-0.89935302734375;-0.07684326171875;4.33999998904255;435;100 mA;
49.9139188739795;-0.89935302734375;-0.077728271484375;4.34999998901731;436;100 mA;
49.9239188739542;-0.899658203125;-0.076995849609375;4.35999998899206;437;100 mA;
49.933918873929;-0.89935302734375;-0.07733154296875;4.36999998896681;438;100 mA;
49.9439188739037;-0.89935302734375;-0.077545166015625;4.37999998894156;439;100 mA;
49.9539188738785;-0.89935302734375;-0.0770263671875;4.38999998891632;440;100 mA;
49.9639188738532;-0.8990478515625;-0.0777587890625;4.39999998889107;441;100 mA;
49.973918873828;-0.899658203125;-0.077056884765625;4.40999998886582;442;100 mA;
49.9839188738027;-0.8990478515625;-0.07763671875;4.41999998884057;443;100 mA;
49.9939188737775;-0.8990478515625;-0.07733154296875;4.42999998881533;444;100 mA;
50.0039188737522;-0.899658203125;-0.0772705078125;4.43999998879008;445;100 mA;
50.013918873727;-0.89935302734375;-0.07781982421875;4.44999998876483;446;100 mA;
50.0239188737017;-0.899658203125;-0.077301025390625;4.45999998873958;447;100 mA;
50.0339188736765;-0.899658203125;-0.078369140625;4.46999998871433;448;100 mA;
50.0439188736513;-0.89935302734375;-0.07757568359375;4.47999998868909;449;100 mA;
50.053918873626;-0.89874267578125;-0.078033447265625;4.48999998866384;450;100 mA;
50.0639188736008;-0.899658203125;-0.078033447265625;4.49999998863859;451;100 mA;
50.0739188735755;-0.89935302734375;-0.07745361328125;4.50999998861334;452;100 mA;
50.0839188735503;-0.899658203125;-0.077972412109375;4.5199999885881;453;100 mA;
50.093918873525;-0.899658203125;-0.07708740234375;4.52999998856285;454;100 mA;
50.1039188734998;-0.8990478515625;-0.077606201171875;4.5399999885376;455;100 mA;
50.1139188734745;-0.899658203125;-0.077239990234375;4.54999998851235;456;100 mA;
50.1239188734493;-0.899658203125;-0.077117919921875;4.55999998848711;457;100 mA;
50.133918873424;-0.89935302734375;-0.0775146484375;4.56999998846186;458;100 mA;
50.1439188733988;-0.89935302734375;-0.07696533203125;4.57999998843661;459;100 mA;
50.1539188733735;-0.899658203125;-0.07769775390625;4.58999998841136;460;100 mA;
50.1639188733483;-0.89935302734375;-0.07666015625;4.59999998838612;461;100 mA;
50.173918873323;-0.8990478515625;-0.07659912109375;4.60999998836087;462;100 mA;
50.1839188732978;-0.89935302734375;-0.07659912109375;4.61999998833562;463;100 mA;
50.1939188732725;-0.89935302734375;-0.076171875;4.62999998831037;464;100 mA;
50.2039188732473;-0.899658203125;-0.07666015625;4.63999998828513;465;100 mA;
50.213918873222;-0.899658203125;-0.0760498046875;4.64999998825988;466;100 mA;
50.2239188731968;-0.89935302734375;-0.076385498046875;4.65999998823463;467;100 mA;
50.2339188731715;-0.89935302734375;-0.07574462890625;4.66999998820938;468;100 mA;
50.2439188731463;-0.8990478515625;-0.0758056640625;4.67999998818414;469;100 mA;
50.2539188731211;-0.899658203125;-0.076263427734375;4.68999998815889;470;100 mA;
50.2639188730958;-0.899658203125;-0.075653076171875;4.69999998813364;471;100 mA;
50.2739188730706;-0.8990478515625;-0.076568603515625;4.70999998810839;472;100 mA;
50.2839188730453;-0.8990478515625;-0.07574462890625;4.71999998808315;473;100 mA;
50.2939188730201;-0.89935302734375;-0.075958251953125;4.7299999880579;474;100 mA;
50.3039188729948;-0.899658203125;-0.075927734375;4.73999998803265;475;100 mA;
50.3139188729696;-0.89935302734375;-0.075531005859375;4.7499999880074;476;100 mA;
50.3239188729443;-0.89935302734375;-0.076080322265625;4.75999998798216;477;100 mA;
50.3339188729191;-0.89935302734375;-0.07568359375;4.76999998795691;478;100 mA;
50.3439188728938;-0.899658203125;-0.076263427734375;4.77999998793166;479;100 mA;
50.3539188728686;-0.8990478515625;-0.07611083984375;4.78999998790641;480;100 mA;
50.3639188728433;-0.8990478515625;-0.075958251953125;4.79999998788116;481;100 mA;
50.3739188728181;-0.8990478515625;-0.07659912109375;4.80999998785592;482;100 mA;
50.3839188727928;-0.899658203125;-0.076171875;4.81999998783067;483;100 mA;
50.3939188727676;-0.8990478515625;-0.07696533203125;4.82999998780542;484;100 mA;
50.4039188727423;-0.8984375;-0.076324462890625;4.83999998778017;485;100 mA;
50.4139188727171;-0.89935302734375;-0.0767822265625;4.84999998775493;486;100 mA;
50.4239188726918;-0.89996337890625;-0.076568603515625;4.85999998772968;487;100 mA;
50.4339188726666;-0.89935302734375;-0.076446533203125;4.86999998770443;488;100 mA;
50.4439188726413;-0.899658203125;-0.077362060546875;4.87999998767918;489;100 mA;
50.4539188726161;-0.89935302734375;-0.076995849609375;4.88999998765394;490;100 mA;
50.4639188725909;-0.89935302734375;-0.077880859375;4.89999998762869;491;100 mA;
50.4739188725656;-0.8990478515625;-0.07708740234375;4.90999998760344;492;100 mA;
50.4839188725404;-0.8990478515625;-0.0771484375;4.91999998757819;493;100 mA;
50.4939188725151;-0.89935302734375;-0.07763671875;4.92999998755295;494;100 mA;
50.5039188724899;-0.899658203125;-0.0767822265625;4.9399999875277;495;100 mA;
50.5139188724646;-0.89996337890625;-0.07781982421875;4.94999998750245;496;100 mA;
50.5239188724394;-0.89935302734375;-0.0771484375;4.9599999874772;497;100 mA;
50.5339188724141;-0.8990478515625;-0.077423095703125;4.96999998745196;498;100 mA;
50.5439188723889;-0.8990478515625;-0.07769775390625;4.97999998742671;499;100 mA;
50.5539188723636;-0.89935302734375;-0.07757568359375;4.98999998740146;500;100 mA;
50.5639188723384;-0.89935302734375;-0.0782470703125;4.99999998737621;501;100 mA;
50.5739188723131;-0.89996337890625;-0.07745361328125;5.00999998735097;502;100 mA;
50.5839188722879;-0.899658203125;-0.078155517578125;5.01999998732572;503;100 mA;
50.5939188722626;-0.89874267578125;-0.077545166015625;5.02999998730047;504;100 mA;
50.6039188722374;-0.89935302734375;-0.07757568359375;5.03999998727522;505;100 mA;
50.6139188722121;-0.8990478515625;-0.078125;5.04999998724998;506;100 mA;
50.6239188721869;-0.89935302734375;-0.0772705078125;5.05999998722473;507;100 mA;
50.6339188721616;-0.899658203125;-0.077972412109375;5.06999998719948;508;100 mA;
50.6439188721364;-0.899658203125;-0.07757568359375;5.07999998717423;509;100 mA;
50.6539188721111;-0.899658203125;-0.07745361328125;5.08999998714899;510;100 mA;
50.6639188720859;-0.89935302734375;-0.07794189453125;5.09999998712374;511;100 mA;
50.6739188720607;-0.89935302734375;-0.077484130859375;5.10999998709849;512;100 mA;
50.6839188720354;-0.89996337890625;-0.078460693359375;5.11999998707324;513;100 mA;
50.6939188720102;-0.89935302734375;-0.077728271484375;5.129999987048;514;100 mA;
50.7039188719849;-0.89874267578125;-0.07818603515625;5.13999998702275;515;100 mA;
50.7139188719597;-0.899658203125;-0.0777587890625;5.1499999869975;516;100 mA;
50.7239188719344;-0.89935302734375;-0.077545166015625;5.15999998697225;517;100 mA;
50.7339188719092;-0.8990478515625;-0.0782470703125;5.169999986947;518;100 mA;
50.7439188718839;-0.899658203125;-0.077667236328125;5.17999998692176;519;100 mA;
50.7539188718587;-0.899658203125;-0.078369140625;5.18999998689651;520;100 mA;
50.7639188718334;-0.899658203125;-0.077545166015625;5.19999998687126;521;100 mA;
50.7739188718082;-0.89935302734375;-0.07733154296875;5.20999998684601;522;100 mA;
50.7839188717829;-0.89935302734375;-0.07745361328125;5.21999998682077;523;100 mA;
50.7939188717577;-0.89996337890625;-0.076812744140625;5.22999998679552;524;100 mA;
50.8039188717324;-0.89935302734375;-0.077728271484375;5.23999998677027;525;100 mA;
50.8139188717072;-0.8990478515625;-0.07672119140625;5.24999998674502;526;100 mA;
50.8239188716819;-0.89996337890625;-0.076995849609375;5.25999998671978;527;100 mA;
50.8339188716567;-0.89935302734375;-0.07659912109375;5.26999998669453;528;100 mA;
50.8439188716314;-0.89935302734375;-0.076629638671875;5.27999998666928;529;100 mA;
50.8539188716062;-0.89935302734375;-0.077056884765625;5.28999998664403;530;100 mA;
50.8639188715809;-0.899658203125;-0.07647705078125;5.29999998661879;531;100 mA;
50.8739188715557;-0.89935302734375;-0.077362060546875;5.30999998659354;532;100 mA;
50.8839188715305;-0.8990478515625;-0.07647705078125;5.31999998656829;533;100 mA;
50.8939188715052;-0.89935302734375;-0.076507568359375;5.32999998654304;534;100 mA;
50.90391887148;-0.89935302734375;-0.076629638671875;5.3399999865178;535;100 mA;
50.9139188714547;-0.8990478515625;-0.07635498046875;5.34999998649255;536;100 mA;
50.9239188714295;-0.8990478515625;-0.07708740234375;5.3599999864673;537;100 mA;
50.9339188714042;-0.89935302734375;-0.076751708984375;5.36999998644205;538;100 mA;
50.943918871379;-0.89935302734375;-0.077178955078125;5.37999998641681;539;100 mA;
50.9539188713537;-0.89996337890625;-0.076416015625;5.38999998639156;540;100 mA;
50.9639188713285;-0.8990478515625;-0.076141357421875;5.39999998636631;541;100 mA;
50.9739188713032;-0.899658203125;-0.076568603515625;5.40999998634106;542;100 mA;
50.983918871278;-0.89935302734375;-0.076263427734375;5.41999998631582;543;100 mA;
50.9939188712527;-0.899658203125;-0.07666015625;5.42999998629057;544;100 mA;
51.0039188712275;-0.8984375;-0.07647705078125;5.43999998626532;545;100 mA;
51.0139188712022;-0.89935302734375;-0.076446533203125;5.44999998624007;546;100 mA;
51.023918871177;-0.89996337890625;-0.0762939453125;5.45999998621483;547;100 mA;
51.0339188711517;-0.8990478515625;-0.07550048828125;5.46999998618958;548;100 mA;
51.0439188711265;-0.8990478515625;-0.075775146484375;5.47999998616433;549;100 mA;
51.0539188711012;-0.89935302734375;-0.074951171875;5.48999998613908;550;100 mA;
51.063918871076;-0.899658203125;-0.07598876953125;5.49999998611383;551;100 mA;
51.0739188710508;-0.899658203125;-0.075531005859375;5.50999998608859;552;100 mA;
51.0839188710255;-0.8990478515625;-0.075225830078125;5.51999998606334;553;100 mA;
51.0939188710003;-0.899658203125;-0.075592041015625;5.52999998603809;554;100 mA;
51.103918870975;-0.89935302734375;-0.074981689453125;5.53999998601284;555;100 mA;
51.1139188709498;-0.899658203125;-0.075836181640625;5.5499999859876;556;100 mA;
51.1239188709245;-0.89935302734375;-0.075927734375;5.55999998596235;557;100 mA;
51.1339188708993;-0.899658203125;-0.076141357421875;5.5699999859371;558;100 mA;
51.143918870874;-0.89935302734375;-0.076446533203125;5.57999998591185;559;100 mA;
51.1539188708488;-0.8990478515625;-0.076416015625;5.58999998588661;560;100 mA;
51.1639188708235;-0.89935302734375;-0.077362060546875;5.59999998586136;561;100 mA;
51.1739188707983;-0.89935302734375;-0.0770263671875;5.60999998583611;562;100 mA;
51.183918870773;-0.89935302734375;-0.077728271484375;5.61999998581086;563;100 mA;
51.1939188707478;-0.89935302734375;-0.077728271484375;5.62999998578562;564;100 mA;
51.2039188707225;-0.8990478515625;-0.078125;5.63999998576037;565;100 mA;
51.2139188706973;-0.89935302734375;-0.078826904296875;5.64999998573512;566;100 mA;
51.223918870672;-0.899658203125;-0.078460693359375;5.65999998570987;567;100 mA;
51.2339188706468;-0.89935302734375;-0.07879638671875;5.66999998568463;568;100 mA;
51.2439188706215;-0.899658203125;-0.07830810546875;5.67999998565938;569;100 mA;
51.2539188705963;-0.89935302734375;-0.077880859375;5.68999998563413;570;100 mA;
51.263918870571;-0.899658203125;-0.078460693359375;5.69999998560888;571;100 mA;
51.2739188705458;-0.8990478515625;-0.07830810546875;5.70999998558364;572;100 mA;
51.2839188705206;-0.89935302734375;-0.078826904296875;5.71999998555839;573;100 mA;
51.2939188704953;-0.89935302734375;-0.0782470703125;5.72999998553314;574;100 mA;
51.3039188704701;-0.89874267578125;-0.078887939453125;5.73999998550789;575;100 mA;
51.3139188704448;-0.89935302734375;-0.078887939453125;5.74999998548265;576;100 mA;
51.3239188704196;-0.89935302734375;-0.078887939453125;5.7599999854574;577;100 mA;
51.3339188703943;-0.89935302734375;-0.079376220703125;5.76999998543215;578;100 mA;
51.3439188703691;-0.899658203125;-0.078887939453125;5.7799999854069;579;100 mA;
51.3539188703438;-0.89935302734375;-0.079132080078125;5.78999998538166;580;100 mA;
51.3639188703186;-0.89996337890625;-0.078460693359375;5.79999998535641;581;100 mA;
51.3739188702933;-0.899658203125;-0.079345703125;5.80999998533116;582;100 mA;
51.3839188702681;-0.899658203125;-0.07977294921875;5.81999998530591;583;100 mA;
51.3939188702428;-0.89874267578125;-0.079254150390625;5.82999998528066;584;100 mA;
51.4039188702176;-0.89935302734375;-0.079986572265625;5.83999998525542;585;100 mA;
51.4139188701923;-0.899658203125;-0.0791015625;5.84999998523017;586;100 mA;
51.4239188701671;-0.8990478515625;-0.0791015625;5.85999998520492;587;100 mA;
51.4339188701418;-0.89996337890625;-0.079803466796875;5.86999998517967;588;100 mA;
51.4439188701166;-0.89935302734375;-0.07958984375;5.87999998515443;589;100 mA;
51.4539188700913;-0.899658203125;-0.07928466796875;5.88999998512918;590;100 mA;
51.4639188700661;-0.899658203125;-0.0791015625;5.89999998510393;591;100 mA;
51.4739188700408;-0.89996337890625;-0.079925537109375;5.90999998507868;592;100 mA;
51.4839188700156;-0.89996337890625;-0.079833984375;5.91999998505344;593;100 mA;
51.4939188699904;-0.89935302734375;-0.079925537109375;5.92999998502819;594;100 mA;
51.5039188699651;-0.8990478515625;-0.08001708984375;5.93999998500294;595;100 mA;
51.5139188699399;-0.89935302734375;-0.07940673828125;5.94999998497769;596;100 mA;
51.5239188699146;-0.8990478515625;-0.079986572265625;5.95999998495245;597;100 mA;
51.5339188698894;-0.89935302734375;-0.07940673828125;5.9699999849272;598;100 mA;
51.5439188698641;-0.8990478515625;-0.079498291015625;5.97999998490195;599;100 mA;
51.5539188698389;-0.899658203125;-0.079559326171875;5.9899999848767;600;100 mA;
51.5639188698136;-0.899658203125;-0.079010009765625;5.99999998485146;601;100 mA;
51.5739188697884;-0.899658203125;-0.07928466796875;6.00999998482621;602;100 mA;
51.5839188697631;-0.89935302734375;-0.07916259765625;6.01999998480096;603;100 mA;
51.5939188697379;-0.899658203125;-0.07989501953125;6.02999998477571;604;100 mA;
51.6039188697126;-0.8990478515625;-0.078826904296875;6.03999998475047;605;100 mA;
51.6139188696874;-0.89935302734375;-0.07867431640625;6.04999998472522;606;100 mA;
51.6239188696621;-0.89935302734375;-0.078643798828125;6.05999998469997;607;100 mA;
51.6339188696369;-0.89935302734375;-0.077728271484375;6.06999998467472;608;100 mA;
51.6439188696116;-0.899658203125;-0.077972412109375;6.07999998464948;609;100 mA;
51.6539188695864;-0.8990478515625;-0.076751708984375;6.08999998462423;610;100 mA;
51.6639188695611;-0.899658203125;-0.07684326171875;6.09999998459898;611;100 mA;
51.6739188695359;-0.899658203125;-0.076812744140625;6.10999998457373;612;100 mA;
51.6839188695106;-0.89935302734375;-0.07598876953125;6.11999998454849;613;100 mA;
51.6939188694854;-0.89935302734375;-0.0762939453125;6.12999998452324;614;100 mA;
51.7039188694602;-0.8990478515625;-0.076263427734375;6.13999998449799;615;100 mA;
51.7139188694349;-0.8990478515625;-0.07720947265625;6.14999998447274;616;100 mA;
51.7239188694097;-0.89935302734375;-0.0762939453125;6.1599999844475;617;100 mA;
51.7339188693844;-0.89935302734375;-0.076629638671875;6.16999998442225;618;100 mA;
51.7439188693592;-0.8990478515625;-0.076629638671875;6.179999984397;619;100 mA;
51.7539188693339;-0.899658203125;-0.076263427734375;6.18999998437175;620;100 mA;
51.7639188693087;-0.89935302734375;-0.076904296875;6.1999999843465;621;100 mA;
51.7739188692834;-0.899658203125;-0.07586669921875;6.20999998432126;622;100 mA;
51.7839188692582;-0.899658203125;-0.076080322265625;6.21999998429601;623;100 mA;
51.7939188692329;-0.89935302734375;-0.076934814453125;6.22999998427076;624;100 mA;
51.8039188692077;-0.8990478515625;-0.076446533203125;6.23999998424551;625;100 mA;
51.8139188691824;-0.899658203125;-0.077178955078125;6.24999998422027;626;100 mA;
51.8239188691572;-0.89935302734375;-0.076416015625;6.25999998419502;627;100 mA;
51.8339188691319;-0.89935302734375;-0.0771484375;6.26999998416977;628;100 mA;
51.8439188691067;-0.8990478515625;-0.076080322265625;6.27999998414452;629;100 mA;
51.8539188690814;-0.89935302734375;-0.07574462890625;6.28999998411928;630;100 mA;
51.8639188690562;-0.89996337890625;-0.07666015625;6.29999998409403;631;100 mA;
51.8739188690309;-0.89935302734375;-0.07611083984375;6.30999998406878;632;100 mA;
51.8839188690057;-0.89935302734375;-0.07647705078125;6.31999998404353;633;100 mA;
51.8939188689804;-0.89996337890625;-0.076416015625;6.32999998401829;634;100 mA;
51.9039188689552;-0.89935302734375;-0.076934814453125;6.33999998399304;635;100 mA;
51.91391886893;-0.89935302734375;-0.076507568359375;6.34999998396779;636;100 mA;
51.9239188689047;-0.89935302734375;-0.076385498046875;6.35999998394254;637;100 mA;
51.9339188688795;-0.8990478515625;-0.076873779296875;6.3699999839173;638;100 mA;
51.9439188688542;-0.89935302734375;-0.076416015625;6.37999998389205;639;100 mA;
51.953918868829;-0.89874267578125;-0.07672119140625;6.3899999838668;640;100 mA;
51.9639188688037;-0.89935302734375;-0.076690673828125;6.39999998384155;641;100 mA;
51.9739188687785;-0.8990478515625;-0.07659912109375;6.40999998381631;642;100 mA;
51.9839188687532;-0.89935302734375;-0.077117919921875;6.41999998379106;643;100 mA;
51.993918868728;-0.899658203125;-0.076568603515625;6.42999998376581;644;100 mA;
52.0039188687027;-0.8990478515625;-0.077239990234375;6.43999998374056;645;100 mA;
52.0139188686775;-0.899658203125;-0.076446533203125;6.44999998371532;646;100 mA;
52.0239188686522;-0.899658203125;-0.076904296875;6.45999998369007;647;100 mA;
52.033918868627;-0.8990478515625;-0.0762939453125;6.46999998366482;648;100 mA;
52.0439188686017;-0.8990478515625;-0.07574462890625;6.47999998363957;649;100 mA;
52.0539188685765;-0.89935302734375;-0.07672119140625;6.48999998361433;650;100 mA;
52.0639188685512;-0.89935302734375;-0.07574462890625;6.49999998358908;651;100 mA;
52.073918868526;-0.89935302734375;-0.075286865234375;6.50999998356383;652;100 mA;
52.0839188685007;-0.8990478515625;-0.075103759765625;6.51999998353858;653;100 mA;
52.0939188684755;-0.899658203125;-0.075408935546875;6.52999998351333;654;100 mA;
52.1039188684503;-0.89935302734375;-0.07666015625;6.53999998348809;655;100 mA;
52.113918868425;-0.89874267578125;-0.076934814453125;6.54999998346284;656;100 mA;
52.1239188683998;-0.89996337890625;-0.077728271484375;6.55999998343759;657;100 mA;
52.1339188683745;-0.8990478515625;-0.076873779296875;6.56999998341234;658;100 mA;
52.1439188683493;-0.89935302734375;-0.07745361328125;6.5799999833871;659;100 mA;
52.153918868324;-0.8990478515625;-0.0772705078125;6.58999998336185;660;100 mA;
52.1639188682988;-0.8990478515625;-0.0767822265625;6.5999999833366;661;100 mA;
52.1739188682735;-0.89874267578125;-0.077606201171875;6.60999998331135;662;100 mA;
52.1839188682483;-0.8990478515625;-0.077056884765625;6.61999998328611;663;100 mA;
52.193918868223;-0.89996337890625;-0.07769775390625;6.62999998326086;664;100 mA;
52.2039188681978;-0.90057373046875;-0.077056884765625;6.63999998323561;665;100 mA;
52.2139188681725;-0.899658203125;-0.0771484375;6.64999998321036;666;100 mA;
52.2239188681473;-0.89935302734375;-0.0775146484375;6.65999998318512;667;100 mA;
52.233918868122;-0.8990478515625;-0.0770263671875;6.66999998315987;668;100 mA;
52.2439188680968;-0.89996337890625;-0.077789306640625;6.67999998313462;669;100 mA;
52.2539188680715;-0.89874267578125;-0.07708740234375;6.68999998310937;670;100 mA;
52.2639188680463;-0.89935302734375;-0.0772705078125;6.69999998308413;671;100 mA;
52.273918868021;-0.899658203125;-0.077484130859375;6.70999998305888;672;100 mA;
52.2839188679958;-0.89935302734375;-0.077423095703125;6.71999998303363;673;100 mA;
52.2939188679705;-0.8990478515625;-0.077972412109375;6.72999998300838;674;100 mA;
52.3039188679453;-0.89935302734375;-0.077484130859375;6.73999998298314;675;100 mA;
52.3139188679201;-0.899658203125;-0.07818603515625;6.74999998295789;676;100 mA;
52.3239188678948;-0.899658203125;-0.077545166015625;6.75999998293264;677;100 mA;
52.3339188678696;-0.8990478515625;-0.077728271484375;6.76999998290739;678;100 mA;
52.3439188678443;-0.8984375;-0.077789306640625;6.77999998288215;679;100 mA;
52.3539188678191;-0.89935302734375;-0.07745361328125;6.7899999828569;680;100 mA;
52.3639188677938;-0.89935302734375;-0.07818603515625;6.79999998283165;681;100 mA;
52.3739188677686;-0.899658203125;-0.07696533203125;6.8099999828064;682;100 mA;
52.3839188677433;-0.89935302734375;-0.076751708984375;6.81999998278116;683;100 mA;
52.3939188677181;-0.899658203125;-0.078033447265625;6.82999998275591;684;100 mA;
52.4039188676928;-0.89996337890625;-0.07763671875;6.83999998273066;685;100 mA;
52.4139188676676;-0.8990478515625;-0.078125;6.84999998270541;686;100 mA;
52.4239188676423;-0.899658203125;-0.077545166015625;6.85999998268016;687;100 mA;
52.4339188676171;-0.899658203125;-0.077850341796875;6.86999998265492;688;100 mA;
52.4439188675918;-0.89996337890625;-0.077423095703125;6.87999998262967;689;100 mA;
52.4539188675666;-0.89996337890625;-0.0767822265625;6.88999998260442;690;100 mA;
52.4639188675413;-0.89996337890625;-0.077239990234375;6.89999998257917;691;100 mA;
52.4739188675161;-0.89935302734375;-0.076751708984375;6.90999998255393;692;100 mA;
52.4839188674908;-0.89935302734375;-0.07720947265625;6.91999998252868;693;100 mA;
52.4939188674656;-0.89935302734375;-0.077056884765625;6.92999998250343;694;100 mA;
52.5039188674403;-0.8990478515625;-0.077392578125;6.93999998247818;695;100 mA;
52.5139188674151;-0.89935302734375;-0.0770263671875;6.94999998245294;696;100 mA;
52.5239188673899;-0.899658203125;-0.0767822265625;6.95999998242769;697;100 mA;
52.5339188673646;-0.8990478515625;-0.07733154296875;6.96999998240244;698;100 mA;
52.5439188673394;-0.899658203125;-0.0770263671875;6.97999998237719;699;100 mA;
52.5539188673141;-0.8990478515625;-0.07720947265625;6.98999998235195;700;100 mA;
