Time (s);WE(1).Potential (V);WE(1).Current (A);Corrected time (s);Index;Current range;Overload
68.5174288270101;-1.00189208984375;-0.399566650390625;0;1;100 mA;Current overload
68.5274288269849;-0.99945068359375;-0.273956298828125;0.00999999997475243;2;100 mA;
68.5374288269596;-0.99945068359375;-0.220733642578125;0.0199999999495049;3;100 mA;
68.5474288269344;-0.99945068359375;-0.19085693359375;0.0299999999242573;4;100 mA;
68.5574288269091;-1.00006103515625;-0.1688232421875;0.0399999998990097;5;100 mA;
68.5674288268839;-0.99945068359375;-0.1546630859375;0.0499999998737621;6;100 mA;
68.5774288268586;-0.99945068359375;-0.14190673828125;0.0599999998485146;7;100 mA;
68.5874288268334;-0.9991455078125;-0.13330078125;0.069999999823267;8;100 mA;
68.5974288268081;-0.9991455078125;-0.125946044921875;0.0799999997980194;9;100 mA;
68.6074288267829;-0.99945068359375;-0.119598388671875;0.0899999997727718;10;100 mA;
68.6174288267576;-0.99945068359375;-0.11541748046875;0.0999999997475243;11;100 mA;
68.6274288267324;-0.9991455078125;-0.110565185546875;0.109999999722277;12;100 mA;
68.6374288267072;-0.999755859375;-0.10693359375;0.119999999697029;13;100 mA;
68.6474288266819;-0.999755859375;-0.103912353515625;0.129999999671782;14;100 mA;
68.6574288266567;-0.99945068359375;-0.101165771484375;0.139999999646534;15;100 mA;
68.6674288266314;-0.9991455078125;-0.099395751953125;0.149999999621286;16;100 mA;
68.6774288266062;-1.00006103515625;-0.09649658203125;0.159999999596039;17;100 mA;
68.6874288265809;-0.999755859375;-0.095672607421875;0.169999999570791;18;100 mA;
68.6974288265557;-0.9991455078125;-0.09326171875;0.179999999545544;19;100 mA;
68.7074288265304;-0.9991455078125;-0.0924072265625;0.189999999520296;20;100 mA;
68.7174288265052;-0.99945068359375;-0.091400146484375;0.199999999495049;21;100 mA;
68.7274288264799;-0.99945068359375;-0.089752197265625;0.209999999469801;22;100 mA;
68.7374288264547;-0.999755859375;-0.0892333984375;0.219999999444553;23;100 mA;
68.7474288264294;-0.999755859375;-0.087799072265625;0.229999999419306;24;100 mA;
68.7574288264042;-0.999755859375;-0.087310791015625;0.239999999394058;25;100 mA;
68.7674288263789;-1.00006103515625;-0.086181640625;0.249999999368811;26;100 mA;
68.7774288263537;-0.99945068359375;-0.085174560546875;0.259999999343563;27;100 mA;
68.7874288263284;-0.99945068359375;-0.084991455078125;0.269999999318316;28;100 mA;
68.7974288263032;-1.00006103515625;-0.08380126953125;0.279999999293068;29;100 mA;
68.8074288262779;-0.99945068359375;-0.084259033203125;0.28999999926782;30;100 mA;
68.8174288262527;-0.99945068359375;-0.083038330078125;0.299999999242573;31;100 mA;
68.8274288262274;-0.99945068359375;-0.08319091796875;0.309999999217325;32;100 mA;
68.8374288262022;-0.9991455078125;-0.082794189453125;0.319999999192078;33;100 mA;
68.847428826177;-0.99945068359375;-0.082061767578125;0.32999999916683;34;100 mA;
68.8574288261517;-0.99884033203125;-0.082305908203125;0.339999999141583;35;100 mA;
68.8674288261265;-0.99945068359375;-0.081329345703125;0.349999999116335;36;100 mA;
68.8774288261012;-0.999755859375;-0.081695556640625;0.359999999091087;37;100 mA;
68.887428826076;-0.99945068359375;-0.080780029296875;0.36999999906584;38;100 mA;
68.8974288260507;-0.99945068359375;-0.08062744140625;0.379999999040592;39;100 mA;
68.9074288260255;-0.999755859375;-0.080780029296875;0.389999999015345;40;100 mA;
68.9174288260002;-0.9991455078125;-0.079925537109375;0.399999998990097;41;100 mA;
68.927428825975;-0.99884033203125;-0.080810546875;0.40999999896485;42;100 mA;
68.9374288259497;-0.99945068359375;-0.07965087890625;0.419999998939602;43;100 mA;
68.9474288259245;-0.9991455078125;-0.080322265625;0.429999998914354;44;100 mA;
68.9574288258992;-0.9991455078125;-0.080230712890625;0.439999998889107;45;100 mA;
68.967428825874;-0.999755859375;-0.079864501953125;0.449999998863859;46;100 mA;
68.9774288258487;-1.00006103515625;-0.080657958984375;0.459999998838612;47;100 mA;
68.9874288258235;-0.99945068359375;-0.07965087890625;0.469999998813364;48;100 mA;
68.9974288257982;-0.99945068359375;-0.08056640625;0.479999998788116;49;100 mA;
69.007428825773;-0.9991455078125;-0.07989501953125;0.489999998762869;50;100 mA;
69.0174288257477;-0.99945068359375;-0.08001708984375;0.499999998737621;51;100 mA;
69.0274288257225;-0.99945068359375;-0.080841064453125;0.509999998712374;52;100 mA;
69.0374288256972;-0.99884033203125;-0.079925537109375;0.519999998687126;53;100 mA;
69.047428825672;-0.99945068359375;-0.08074951171875;0.529999998661879;54;100 mA;
69.0574288256468;-0.999755859375;-0.079498291015625;0.539999998636631;55;100 mA;
69.0674288256215;-0.9991455078125;-0.079833984375;0.549999998611383;56;100 mA;
69.0774288255963;-1.0003662109375;-0.079833984375;0.559999998586136;57;100 mA;
69.087428825571;-0.9991455078125;-0.079132080078125;0.569999998560888;58;100 mA;
69.0974288255458;-0.99945068359375;-0.079925537109375;0.579999998535641;59;100 mA;
69.1074288255205;-0.9991455078125;-0.078765869140625;0.589999998510393;60;100 mA;
69.1174288254953;-0.99884033203125;-0.079498291015625;0.599999998485146;61;100 mA;
69.12742882547;-0.99945068359375;-0.0791015625;0.609999998459898;62;100 mA;
69.1374288254448;-0.99945068359375;-0.07904052734375;0.61999999843465;63;100 mA;
69.1474288254195;-0.99945068359375;-0.079742431640625;0.629999998409403;64;100 mA;
69.1574288253943;-0.99945068359375;-0.079071044921875;0.639999998384155;65;100 mA;
69.167428825369;-0.999755859375;-0.079986572265625;0.649999998358908;66;100 mA;
69.1774288253438;-0.99945068359375;-0.0792236328125;0.65999999833366;67;100 mA;
69.1874288253185;-0.999755859375;-0.079498291015625;0.669999998308413;68;100 mA;
69.1974288252933;-0.99945068359375;-0.0797119140625;0.679999998283165;69;100 mA;
69.207428825268;-0.999755859375;-0.07904052734375;0.689999998257917;70;100 mA;
69.2174288252428;-0.99945068359375;-0.0797119140625;0.69999999823267;71;100 mA;
69.2274288252175;-0.99945068359375;-0.078643798828125;0.709999998207422;72;100 mA;
69.2374288251923;-0.999755859375;-0.0792236328125;0.719999998182175;73;100 mA;
69.247428825167;-1.00006103515625;-0.079010009765625;0.729999998156927;74;100 mA;
69.2574288251418;-0.9991455078125;-0.078857421875;0.73999999813168;75;100 mA;
69.2674288251166;-0.999755859375;-0.07940673828125;0.749999998106432;76;100 mA;
69.2774288250913;-0.99945068359375;-0.07879638671875;0.759999998081184;77;100 mA;
69.2874288250661;-0.999755859375;-0.079925537109375;0.769999998055937;78;100 mA;
69.2974288250408;-0.9991455078125;-0.07916259765625;0.779999998030689;79;100 mA;
69.3074288250156;-0.99945068359375;-0.079498291015625;0.789999998005442;80;100 mA;
69.3174288249903;-0.99945068359375;-0.079681396484375;0.799999997980194;81;100 mA;
69.3274288249651;-0.9991455078125;-0.0792236328125;0.809999997954947;82;100 mA;
69.3374288249398;-0.99945068359375;-0.080078125;0.819999997929699;83;100 mA;
69.3474288249146;-0.99945068359375;-0.07928466796875;0.829999997904451;84;100 mA;
69.3574288248893;-0.999755859375;-0.079254150390625;0.839999997879204;85;100 mA;
69.3674288248641;-0.99945068359375;-0.07855224609375;0.849999997853956;86;100 mA;
69.3774288248388;-0.99884033203125;-0.078399658203125;0.859999997828709;87;100 mA;
69.3874288248136;-0.99884033203125;-0.078826904296875;0.869999997803461;88;100 mA;
69.3974288247883;-0.9991455078125;-0.07781982421875;0.879999997778214;89;100 mA;
69.4074288247631;-0.9991455078125;-0.07843017578125;0.889999997752966;90;100 mA;
69.4174288247378;-0.999755859375;-0.077667236328125;0.899999997727718;91;100 mA;
69.4274288247126;-0.999755859375;-0.078094482421875;0.909999997702471;92;100 mA;
69.4374288246873;-0.999755859375;-0.0784912109375;0.919999997677223;93;100 mA;
69.4474288246621;-0.99945068359375;-0.07818603515625;0.929999997651976;94;100 mA;
69.4574288246368;-0.99945068359375;-0.079010009765625;0.939999997626728;95;100 mA;
69.4674288246116;-0.99945068359375;-0.07818603515625;0.949999997601481;96;100 mA;
69.4774288245864;-0.9991455078125;-0.079010009765625;0.959999997576233;97;100 mA;
69.4874288245611;-0.9991455078125;-0.078582763671875;0.969999997550985;98;100 mA;
69.4974288245359;-0.99884033203125;-0.078582763671875;0.979999997525738;99;100 mA;
69.5074288245106;-0.9991455078125;-0.079193115234375;0.98999999750049;100;100 mA;
69.5174288244854;-0.9991455078125;-0.07843017578125;0.999999997475243;101;100 mA;
69.5274288244601;-0.99945068359375;-0.079345703125;1.00999999745;102;100 mA;
69.5374288244349;-0.99884033203125;-0.078460693359375;1.01999999742475;103;100 mA;
69.5474288244096;-0.9991455078125;-0.078643798828125;1.0299999973995;104;100 mA;
69.5574288243844;-0.99945068359375;-0.079132080078125;1.03999999737425;105;100 mA;
69.5674288243591;-0.99945068359375;-0.079010009765625;1.049999997349;106;100 mA;
69.5774288243339;-0.99945068359375;-0.080169677734375;1.05999999732376;107;100 mA;
69.5874288243086;-1.00006103515625;-0.079376220703125;1.06999999729851;108;100 mA;
69.5974288242834;-0.9991455078125;-0.080352783203125;1.07999999727326;109;100 mA;
69.6074288242581;-0.99853515625;-0.08013916015625;1.08999999724801;110;100 mA;
69.6174288242329;-0.99945068359375;-0.080413818359375;1.09999999722277;111;100 mA;
69.6274288242076;-0.99945068359375;-0.081390380859375;1.10999999719752;112;100 mA;
69.6374288241824;-0.9991455078125;-0.080810546875;1.11999999717227;113;100 mA;
69.6474288241571;-0.999755859375;-0.082183837890625;1.12999999714702;114;100 mA;
69.6574288241319;-1.00006103515625;-0.0816650390625;1.13999999712178;115;100 mA;
69.6674288241067;-0.99945068359375;-0.08203125;1.14999999709653;116;100 mA;
69.6774288240814;-0.999755859375;-0.081939697265625;1.15999999707128;117;100 mA;
69.6874288240562;-0.999755859375;-0.081085205078125;1.16999999704603;118;100 mA;
69.6974288240309;-0.9991455078125;-0.08197021484375;1.17999999702079;119;100 mA;
69.7074288240057;-0.99945068359375;-0.0811767578125;1.18999999699554;120;100 mA;
69.7174288239804;-0.99945068359375;-0.081756591796875;1.19999999697029;121;100 mA;
69.7274288239552;-0.9991455078125;-0.081451416015625;1.20999999694504;122;100 mA;
69.7374288239299;-0.99945068359375;-0.0811767578125;1.2199999969198;123;100 mA;
69.7474288239047;-0.9991455078125;-0.081878662109375;1.22999999689455;124;100 mA;
69.7574288238794;-0.99945068359375;-0.081207275390625;1.2399999968693;125;100 mA;
69.7674288238542;-0.99945068359375;-0.082122802734375;1.24999999684405;126;100 mA;
69.7774288238289;-0.99945068359375;-0.0814208984375;1.25999999681881;127;100 mA;
69.7874288238037;-0.999755859375;-0.08160400390625;1.26999999679356;128;100 mA;
69.7974288237784;-0.99945068359375;-0.081451416015625;1.27999999676831;129;100 mA;
69.8074288237532;-0.999755859375;-0.08056640625;1.28999999674306;130;100 mA;
69.8174288237279;-0.999755859375;-0.0809326171875;1.29999999671782;131;100 mA;
69.8274288237027;-0.99945068359375;-0.07958984375;1.30999999669257;132;100 mA;
69.8374288236774;-0.999755859375;-0.079681396484375;1.31999999666732;133;100 mA;
69.8474288236522;-0.9991455078125;-0.0791015625;1.32999999664207;134;100 mA;
69.8574288236269;-0.9991455078125;-0.078887939453125;1.33999999661683;135;100 mA;
69.8674288236017;-0.9991455078125;-0.079010009765625;1.34999999659158;136;100 mA;
69.8774288235765;-0.99945068359375;-0.077880859375;1.35999999656633;137;100 mA;
69.8874288235512;-0.9991455078125;-0.078704833984375;1.36999999654108;138;100 mA;
69.897428823526;-0.9991455078125;-0.07806396484375;1.37999999651583;139;100 mA;
69.9074288235007;-0.999755859375;-0.078582763671875;1.38999999649059;140;100 mA;
69.9174288234755;-0.999755859375;-0.07867431640625;1.39999999646534;141;100 mA;
69.9274288234502;-0.9991455078125;-0.078277587890625;1.40999999644009;142;100 mA;
69.937428823425;-0.999755859375;-0.07928466796875;1.41999999641484;143;100 mA;
69.9474288233997;-0.999755859375;-0.078521728515625;1.4299999963896;144;100 mA;
69.9574288233745;-0.99945068359375;-0.079071044921875;1.43999999636435;145;100 mA;
69.9674288233492;-0.999755859375;-0.07855224609375;1.4499999963391;146;100 mA;
69.977428823324;-0.99945068359375;-0.078369140625;1.45999999631385;147;100 mA;
69.9874288232987;-0.99945068359375;-0.07843017578125;1.46999999628861;148;100 mA;
69.9974288232735;-0.99945068359375;-0.077423095703125;1.47999999626336;149;100 mA;
70.0074288232482;-0.9991455078125;-0.078125;1.48999999623811;150;100 mA;
70.017428823223;-0.999755859375;-0.077362060546875;1.49999999621286;151;100 mA;
70.0274288231977;-0.999755859375;-0.077728271484375;1.50999999618762;152;100 mA;
70.0374288231725;-0.99945068359375;-0.07757568359375;1.51999999616237;153;100 mA;
70.0474288231472;-0.99945068359375;-0.077056884765625;1.52999999613712;154;100 mA;
70.057428823122;-0.99945068359375;-0.077972412109375;1.53999999611187;155;100 mA;
70.0674288230967;-0.9991455078125;-0.077056884765625;1.54999999608663;156;100 mA;
70.0774288230715;-0.999755859375;-0.077880859375;1.55999999606138;157;100 mA;
70.0874288230463;-0.99945068359375;-0.077545166015625;1.56999999603613;158;100 mA;
70.097428823021;-0.99945068359375;-0.0775146484375;1.57999999601088;159;100 mA;
70.1074288229958;-0.999755859375;-0.0780029296875;1.58999999598564;160;100 mA;
70.1174288229705;-0.99945068359375;-0.077301025390625;1.59999999596039;161;100 mA;
70.1274288229453;-0.999755859375;-0.078094482421875;1.60999999593514;162;100 mA;
70.13742882292;-1.00006103515625;-0.077545166015625;1.61999999590989;163;100 mA;
70.1474288228948;-0.99945068359375;-0.077880859375;1.62999999588465;164;100 mA;
70.1574288228695;-0.99884033203125;-0.07781982421875;1.6399999958594;165;100 mA;
70.1674288228443;-0.999755859375;-0.07708740234375;1.64999999583415;166;100 mA;
70.177428822819;-0.999755859375;-0.0777587890625;1.6599999958089;167;100 mA;
70.1874288227938;-0.99945068359375;-0.076690673828125;1.66999999578366;168;100 mA;
70.1974288227685;-0.9991455078125;-0.0772705078125;1.67999999575841;169;100 mA;
70.2074288227433;-1.00006103515625;-0.076629638671875;1.68999999573316;170;100 mA;
70.217428822718;-0.999755859375;-0.076507568359375;1.69999999570791;171;100 mA;
70.2274288226928;-1.00006103515625;-0.076934814453125;1.70999999568267;172;100 mA;
70.2374288226675;-0.99945068359375;-0.076202392578125;1.71999999565742;173;100 mA;
70.2474288226423;-0.99945068359375;-0.077117919921875;1.72999999563217;174;100 mA;
70.257428822617;-0.99884033203125;-0.0762939453125;1.73999999560692;175;100 mA;
70.2674288225918;-0.99884033203125;-0.07666015625;1.74999999558167;176;100 mA;
70.2774288225665;-0.999755859375;-0.07672119140625;1.75999999555643;177;100 mA;
70.2874288225413;-1.00006103515625;-0.07635498046875;1.76999999553118;178;100 mA;
70.2974288225161;-0.9991455078125;-0.0775146484375;1.77999999550593;179;100 mA;
70.3074288224908;-0.999755859375;-0.076568603515625;1.78999999548068;180;100 mA;
70.3174288224656;-0.9991455078125;-0.077484130859375;1.79999999545544;181;100 mA;
70.3274288224403;-0.9991455078125;-0.07708740234375;1.80999999543019;182;100 mA;
70.3374288224151;-0.9991455078125;-0.0770263671875;1.81999999540494;183;100 mA;
70.3474288223898;-0.999755859375;-0.07763671875;1.82999999537969;184;100 mA;
70.3574288223646;-0.99945068359375;-0.07696533203125;1.83999999535445;185;100 mA;
70.3674288223393;-0.99945068359375;-0.0780029296875;1.8499999953292;186;100 mA;
70.3774288223141;-0.99945068359375;-0.077301025390625;1.85999999530395;187;100 mA;
70.3874288222888;-0.99853515625;-0.07781982421875;1.8699999952787;188;100 mA;
70.3974288222636;-0.99945068359375;-0.07794189453125;1.87999999525346;189;100 mA;
70.4074288222383;-0.999755859375;-0.07745361328125;1.88999999522821;190;100 mA;
70.4174288222131;-0.99945068359375;-0.078399658203125;1.89999999520296;191;100 mA;
70.4274288221878;-0.99945068359375;-0.077606201171875;1.90999999517771;192;100 mA;
70.4374288221626;-0.999755859375;-0.07867431640625;1.91999999515247;193;100 mA;
70.4474288221373;-0.99853515625;-0.07855224609375;1.92999999512722;194;100 mA;
70.4574288221121;-0.9991455078125;-0.078399658203125;1.93999999510197;195;100 mA;
70.4674288220868;-0.9991455078125;-0.07891845703125;1.94999999507672;196;100 mA;
70.4774288220616;-0.9991455078125;-0.07861328125;1.95999999505148;197;100 mA;
70.4874288220363;-0.9991455078125;-0.07977294921875;1.96999999502623;198;100 mA;
70.4974288220111;-0.999755859375;-0.079132080078125;1.97999999500098;199;100 mA;
70.5074288219859;-0.99945068359375;-0.07965087890625;1.98999999497573;200;100 mA;
70.5174288219606;-0.999755859375;-0.079803466796875;1.99999999495049;201;100 mA;
70.5274288219354;-0.99945068359375;-0.079498291015625;2.00999999492524;202;100 mA;
70.5374288219101;-0.99945068359375;-0.080535888671875;2.01999999489999;203;100 mA;
70.5474288218849;-0.999755859375;-0.079833984375;2.02999999487474;204;100 mA;
70.5574288218596;-0.99945068359375;-0.080657958984375;2.0399999948495;205;100 mA;
70.5674288218344;-0.99884033203125;-0.080596923828125;2.04999999482425;206;100 mA;
70.5774288218091;-0.99945068359375;-0.080902099609375;2.059999994799;207;100 mA;
70.5874288217839;-0.9991455078125;-0.0816650390625;2.06999999477375;208;100 mA;
70.5974288217586;-0.9991455078125;-0.080841064453125;2.0799999947485;209;100 mA;
70.6074288217334;-0.99884033203125;-0.081787109375;2.08999999472326;210;100 mA;
70.6174288217081;-0.999755859375;-0.080963134765625;2.09999999469801;211;100 mA;
70.6274288216829;-0.99945068359375;-0.08135986328125;2.10999999467276;212;100 mA;
70.6374288216576;-0.999755859375;-0.081573486328125;2.11999999464751;213;100 mA;
70.6474288216324;-0.99945068359375;-0.080841064453125;2.12999999462227;214;100 mA;
70.6574288216071;-0.999755859375;-0.08154296875;2.13999999459702;215;100 mA;
70.6674288215819;-0.999755859375;-0.08056640625;2.14999999457177;216;100 mA;
70.6774288215566;-0.9991455078125;-0.0814208984375;2.15999999454652;217;100 mA;
70.6874288215314;-0.99945068359375;-0.08123779296875;2.16999999452128;218;100 mA;
70.6974288215062;-0.9991455078125;-0.080963134765625;2.17999999449603;219;100 mA;
70.7074288214809;-0.9991455078125;-0.08148193359375;2.18999999447078;220;100 mA;
70.7174288214557;-0.9991455078125;-0.08056640625;2.19999999444553;221;100 mA;
70.7274288214304;-0.99884033203125;-0.08123779296875;2.20999999442029;222;100 mA;
70.7374288214052;-0.999755859375;-0.08038330078125;2.21999999439504;223;100 mA;
70.7474288213799;-0.9991455078125;-0.080474853515625;2.22999999436979;224;100 mA;
70.7574288213547;-0.999755859375;-0.08050537109375;2.23999999434454;225;100 mA;
70.7674288213294;-0.99945068359375;-0.079925537109375;2.2499999943193;226;100 mA;
70.7774288213042;-0.99945068359375;-0.08056640625;2.25999999429405;227;100 mA;
70.7874288212789;-0.9991455078125;-0.07952880859375;2.2699999942688;228;100 mA;
70.7974288212537;-0.9991455078125;-0.080047607421875;2.27999999424355;229;100 mA;
70.8074288212284;-0.99945068359375;-0.07952880859375;2.28999999421831;230;100 mA;
70.8174288212032;-0.99945068359375;-0.079193115234375;2.29999999419306;231;100 mA;
70.8274288211779;-0.99945068359375;-0.0797119140625;2.30999999416781;232;100 mA;
70.8374288211527;-0.9991455078125;-0.07867431640625;2.31999999414256;233;100 mA;
70.8474288211274;-0.9991455078125;-0.079437255859375;2.32999999411732;234;100 mA;
70.8574288211022;-0.99884033203125;-0.078643798828125;2.33999999409207;235;100 mA;
70.8674288210769;-0.9991455078125;-0.078704833984375;2.34999999406682;236;100 mA;
70.8774288210517;-0.9991455078125;-0.07904052734375;2.35999999404157;237;100 mA;
70.8874288210264;-1.00006103515625;-0.0782470703125;2.36999999401633;238;100 mA;
70.8974288210012;-0.9991455078125;-0.079010009765625;2.37999999399108;239;100 mA;
70.907428820976;-1.00006103515625;-0.078033447265625;2.38999999396583;240;100 mA;
70.9174288209507;-0.99945068359375;-0.07855224609375;2.39999999394058;241;100 mA;
70.9274288209255;-0.999755859375;-0.078155517578125;2.40999999391533;242;100 mA;
70.9374288209002;-0.99945068359375;-0.077880859375;2.41999999389009;243;100 mA;
70.947428820875;-0.9991455078125;-0.078521728515625;2.42999999386484;244;100 mA;
70.9574288208497;-1.00006103515625;-0.07781982421875;2.43999999383959;245;100 mA;
70.9674288208245;-0.9991455078125;-0.078521728515625;2.44999999381434;246;100 mA;
70.9774288207992;-0.999755859375;-0.078125;2.4599999937891;247;100 mA;
70.987428820774;-0.99945068359375;-0.078216552734375;2.46999999376385;248;100 mA;
70.9974288207487;-0.9991455078125;-0.078216552734375;2.4799999937386;249;100 mA;
71.0074288207235;-0.99945068359375;-0.07745361328125;2.48999999371335;250;100 mA;
71.0174288206982;-1.00006103515625;-0.078033447265625;2.49999999368811;251;100 mA;
71.027428820673;-0.999755859375;-0.077362060546875;2.50999999366286;252;100 mA;
71.0374288206477;-0.99945068359375;-0.0780029296875;2.51999999363761;253;100 mA;
71.0474288206225;-0.999755859375;-0.07763671875;2.52999999361236;254;100 mA;
71.0574288205972;-0.99945068359375;-0.077423095703125;2.53999999358712;255;100 mA;
71.067428820572;-0.99945068359375;-0.07794189453125;2.54999999356187;256;100 mA;
71.0774288205467;-0.99945068359375;-0.077362060546875;2.55999999353662;257;100 mA;
71.0874288205215;-0.999755859375;-0.0782470703125;2.56999999351137;258;100 mA;
71.0974288204962;-0.9991455078125;-0.07745361328125;2.57999999348613;259;100 mA;
71.107428820471;-0.999755859375;-0.07769775390625;2.58999999346088;260;100 mA;
71.1174288204458;-0.999755859375;-0.07769775390625;2.59999999343563;261;100 mA;
71.1274288204205;-1.00006103515625;-0.0772705078125;2.60999999341038;262;100 mA;
71.1374288203953;-0.99945068359375;-0.07806396484375;2.61999999338514;263;100 mA;
71.14742882037;-0.99945068359375;-0.07745361328125;2.62999999335989;264;100 mA;
71.1574288203448;-0.99945068359375;-0.077880859375;2.63999999333464;265;100 mA;
71.1674288203195;-0.9991455078125;-0.0772705078125;2.64999999330939;266;100 mA;
71.1774288202943;-0.9991455078125;-0.077301025390625;2.65999999328415;267;100 mA;
71.187428820269;-0.999755859375;-0.077911376953125;2.6699999932589;268;100 mA;
71.1974288202438;-0.99945068359375;-0.077178955078125;2.67999999323365;269;100 mA;
71.2074288202185;-0.9991455078125;-0.078338623046875;2.6899999932084;270;100 mA;
71.2174288201933;-0.999755859375;-0.07781982421875;2.69999999318316;271;100 mA;
71.227428820168;-0.999755859375;-0.07843017578125;2.70999999315791;272;100 mA;
71.2374288201428;-0.99945068359375;-0.078948974609375;2.71999999313266;273;100 mA;
71.2474288201175;-0.99945068359375;-0.078765869140625;2.72999999310741;274;100 mA;
71.2574288200923;-0.999755859375;-0.0797119140625;2.73999999308217;275;100 mA;
71.267428820067;-0.99945068359375;-0.078765869140625;2.74999999305692;276;100 mA;
71.2774288200418;-0.9991455078125;-0.07916259765625;2.75999999303167;277;100 mA;
71.2874288200165;-0.99945068359375;-0.07861328125;2.76999999300642;278;100 mA;
71.2974288199913;-0.9991455078125;-0.07830810546875;2.77999999298117;279;100 mA;
71.307428819966;-0.9991455078125;-0.07861328125;2.78999999295593;280;100 mA;
71.3174288199408;-0.999755859375;-0.077362060546875;2.79999999293068;281;100 mA;
71.3274288199156;-0.99884033203125;-0.07806396484375;2.80999999290543;282;100 mA;
71.3374288198903;-0.99945068359375;-0.076995849609375;2.81999999288018;283;100 mA;
71.3474288198651;-0.9991455078125;-0.077301025390625;2.82999999285494;284;100 mA;
71.3574288198398;-0.999755859375;-0.077301025390625;2.83999999282969;285;100 mA;
71.3674288198146;-1.0003662109375;-0.076507568359375;2.84999999280444;286;100 mA;
71.3774288197893;-0.9991455078125;-0.077239990234375;2.85999999277919;287;100 mA;
71.3874288197641;-0.9991455078125;-0.076324462890625;2.86999999275395;288;100 mA;
71.3974288197388;-0.99884033203125;-0.077117919921875;2.8799999927287;289;100 mA;
71.4074288197136;-0.999755859375;-0.076568603515625;2.88999999270345;290;100 mA;
71.4174288196883;-0.99945068359375;-0.076416015625;2.8999999926782;291;100 mA;
71.4274288196631;-0.99945068359375;-0.07696533203125;2.90999999265296;292;100 mA;
71.4374288196378;-0.999755859375;-0.076171875;2.91999999262771;293;100 mA;
71.4474288196126;-0.99945068359375;-0.07708740234375;2.92999999260246;294;100 mA;
71.4574288195873;-0.999755859375;-0.076141357421875;2.93999999257721;295;100 mA;
71.4674288195621;-0.99945068359375;-0.076385498046875;2.94999999255197;296;100 mA;
71.4774288195368;-0.99945068359375;-0.07647705078125;2.95999999252672;297;100 mA;
71.4874288195116;-0.999755859375;-0.0758056640625;2.96999999250147;298;100 mA;
71.4974288194863;-0.99945068359375;-0.07666015625;2.97999999247622;299;100 mA;
71.5074288194611;-0.99945068359375;-0.075531005859375;2.98999999245098;300;100 mA;
71.5174288194358;-0.99945068359375;-0.076171875;2.99999999242573;301;100 mA;
71.5274288194106;-0.99945068359375;-0.075927734375;3.00999999240048;302;100 mA;
71.5374288193854;-0.99945068359375;-0.076171875;3.01999999237523;303;100 mA;
71.5474288193601;-0.99945068359375;-0.07708740234375;3.02999999234999;304;100 mA;
71.5574288193349;-0.9991455078125;-0.0762939453125;3.03999999232474;305;100 mA;
71.5674288193096;-0.999755859375;-0.077362060546875;3.04999999229949;306;100 mA;
71.5774288192844;-0.99945068359375;-0.076690673828125;3.05999999227424;307;100 mA;
71.5874288192591;-0.999755859375;-0.076934814453125;3.069999992249;308;100 mA;
71.5974288192339;-0.999755859375;-0.07733154296875;3.07999999222375;309;100 mA;
71.6074288192086;-0.99945068359375;-0.07720947265625;3.0899999921985;310;100 mA;
71.6174288191834;-0.99945068359375;-0.07861328125;3.09999999217325;311;100 mA;
71.6274288191581;-0.999755859375;-0.07818603515625;3.109999992148;312;100 mA;
71.6374288191329;-0.9991455078125;-0.07940673828125;3.11999999212276;313;100 mA;
71.6474288191076;-0.99884033203125;-0.0794677734375;3.12999999209751;314;100 mA;
71.6574288190824;-0.99945068359375;-0.079376220703125;3.13999999207226;315;100 mA;
71.6674288190571;-0.99945068359375;-0.080322265625;3.14999999204701;316;100 mA;
71.6774288190319;-0.99945068359375;-0.079437255859375;3.15999999202177;317;100 mA;
71.6874288190066;-0.99945068359375;-0.08050537109375;3.16999999199652;318;100 mA;
71.6974288189814;-0.99945068359375;-0.079833984375;3.17999999197127;319;100 mA;
71.7074288189561;-0.999755859375;-0.080047607421875;3.18999999194602;320;100 mA;
71.7174288189309;-0.999755859375;-0.0799560546875;3.19999999192078;321;100 mA;
71.7274288189057;-0.99945068359375;-0.079132080078125;3.20999999189553;322;100 mA;
71.7374288188804;-0.99945068359375;-0.079864501953125;3.21999999187028;323;100 mA;
71.7474288188552;-0.99945068359375;-0.07891845703125;3.22999999184503;324;100 mA;
71.7574288188299;-0.99884033203125;-0.079620361328125;3.23999999181979;325;100 mA;
71.7674288188047;-0.99945068359375;-0.079254150390625;3.24999999179454;326;100 mA;
71.7774288187794;-0.99945068359375;-0.078948974609375;3.25999999176929;327;100 mA;
71.7874288187542;-0.9991455078125;-0.07952880859375;3.26999999174404;328;100 mA;
71.7974288187289;-0.999755859375;-0.07891845703125;3.2799999917188;329;100 mA;
71.8074288187037;-0.99945068359375;-0.08026123046875;3.28999999169355;330;100 mA;
71.8174288186784;-0.999755859375;-0.079803466796875;3.2999999916683;331;100 mA;
71.8274288186532;-0.99945068359375;-0.0804443359375;3.30999999164305;332;100 mA;
71.8374288186279;-0.999755859375;-0.080596923828125;3.31999999161781;333;100 mA;
71.8474288186027;-0.999755859375;-0.08013916015625;3.32999999159256;334;100 mA;
71.8574288185774;-0.99945068359375;-0.081146240234375;3.33999999156731;335;100 mA;
71.8674288185522;-0.99945068359375;-0.08038330078125;3.34999999154206;336;100 mA;
71.8774288185269;-0.99884033203125;-0.08111572265625;3.35999999151682;337;100 mA;
71.8874288185017;-0.99945068359375;-0.08056640625;3.36999999149157;338;100 mA;
71.8974288184764;-1.00006103515625;-0.080169677734375;3.37999999146632;339;100 mA;
71.9074288184512;-0.99945068359375;-0.080474853515625;3.38999999144107;340;100 mA;
71.9174288184259;-0.999755859375;-0.079681396484375;3.39999999141583;341;100 mA;
71.9274288184007;-0.9991455078125;-0.080810546875;3.40999999139058;342;100 mA;
71.9374288183755;-0.9991455078125;-0.080169677734375;3.41999999136533;343;100 mA;
71.9474288183502;-0.9991455078125;-0.080352783203125;3.42999999134008;344;100 mA;
71.957428818325;-0.9991455078125;-0.080078125;3.43999999131483;345;100 mA;
71.9674288182997;-0.9991455078125;-0.079315185546875;3.44999999128959;346;100 mA;
71.9774288182745;-0.999755859375;-0.080108642578125;3.45999999126434;347;100 mA;
71.9874288182492;-0.9991455078125;-0.079193115234375;3.46999999123909;348;100 mA;
71.997428818224;-0.9991455078125;-0.07977294921875;3.47999999121384;349;100 mA;
72.0074288181987;-0.99945068359375;-0.0791015625;3.4899999911886;350;100 mA;
72.0174288181735;-0.99945068359375;-0.078765869140625;3.49999999116335;351;100 mA;
72.0274288181482;-0.99945068359375;-0.079071044921875;3.5099999911381;352;100 mA;
72.037428818123;-0.9991455078125;-0.07806396484375;3.51999999111285;353;100 mA;
72.0474288180977;-0.99945068359375;-0.078948974609375;3.52999999108761;354;100 mA;
72.0574288180725;-0.9991455078125;-0.0782470703125;3.53999999106236;355;100 mA;
72.0674288180472;-0.99945068359375;-0.078399658203125;3.54999999103711;356;100 mA;
72.077428818022;-0.9991455078125;-0.078765869140625;3.55999999101186;357;100 mA;
72.0874288179967;-0.9991455078125;-0.0782470703125;3.56999999098662;358;100 mA;
72.0974288179715;-0.99945068359375;-0.079315185546875;3.57999999096137;359;100 mA;
72.1074288179462;-0.99945068359375;-0.078704833984375;3.58999999093612;360;100 mA;
72.117428817921;-0.99945068359375;-0.0797119140625;3.59999999091087;361;100 mA;
72.1274288178957;-0.9991455078125;-0.079559326171875;3.60999999088563;362;100 mA;
72.1374288178705;-0.999755859375;-0.07952880859375;3.61999999086038;363;100 mA;
72.1474288178453;-0.99945068359375;-0.080108642578125;3.62999999083513;364;100 mA;
72.15742881782;-0.99945068359375;-0.07958984375;3.63999999080988;365;100 mA;
72.1674288177948;-0.999755859375;-0.080657958984375;3.64999999078464;366;100 mA;
72.1774288177695;-0.99945068359375;-0.07977294921875;3.65999999075939;367;100 mA;
72.1874288177443;-0.999755859375;-0.07989501953125;3.66999999073414;368;100 mA;
72.197428817719;-0.99945068359375;-0.079925537109375;3.67999999070889;369;100 mA;
72.2074288176938;-0.99945068359375;-0.07904052734375;3.68999999068365;370;100 mA;
72.2174288176685;-0.999755859375;-0.07977294921875;3.6999999906584;371;100 mA;
72.2274288176433;-0.9991455078125;-0.078765869140625;3.70999999063315;372;100 mA;
72.237428817618;-0.9991455078125;-0.07940673828125;3.7199999906079;373;100 mA;
72.2474288175928;-0.9991455078125;-0.079071044921875;3.72999999058266;374;100 mA;
72.2574288175675;-0.9991455078125;-0.078704833984375;3.73999999055741;375;100 mA;
72.2674288175423;-0.99945068359375;-0.079132080078125;3.74999999053216;376;100 mA;
72.277428817517;-0.99945068359375;-0.078216552734375;3.75999999050691;377;100 mA;
72.2874288174918;-0.99945068359375;-0.079132080078125;3.76999999048167;378;100 mA;
72.2974288174665;-0.99945068359375;-0.078338623046875;3.77999999045642;379;100 mA;
72.3074288174413;-0.99945068359375;-0.07867431640625;3.78999999043117;380;100 mA;
72.317428817416;-0.999755859375;-0.07861328125;3.79999999040592;381;100 mA;
72.3274288173908;-0.99945068359375;-0.078125;3.80999999038067;382;100 mA;
72.3374288173655;-0.9991455078125;-0.079193115234375;3.81999999035543;383;100 mA;
72.3474288173403;-0.999755859375;-0.07843017578125;3.82999999033018;384;100 mA;
72.3574288173151;-0.9991455078125;-0.07916259765625;3.83999999030493;385;100 mA;
72.3674288172898;-0.999755859375;-0.078887939453125;3.84999999027968;386;100 mA;
72.3774288172646;-0.9991455078125;-0.078765869140625;3.85999999025444;387;100 mA;
72.3874288172393;-0.999755859375;-0.079315185546875;3.86999999022919;388;100 mA;
72.3974288172141;-0.999755859375;-0.0782470703125;3.87999999020394;389;100 mA;
72.4074288171888;-0.99945068359375;-0.07879638671875;3.88999999017869;390;100 mA;
72.4174288171636;-0.99945068359375;-0.07769775390625;3.89999999015345;391;100 mA;
72.4274288171383;-0.999755859375;-0.0777587890625;3.9099999901282;392;100 mA;
72.4374288171131;-0.9991455078125;-0.07781982421875;3.91999999010295;393;100 mA;
72.4474288170878;-0.99945068359375;-0.077362060546875;3.9299999900777;394;100 mA;
72.4574288170626;-0.99945068359375;-0.078369140625;3.93999999005246;395;100 mA;
72.4674288170373;-0.999755859375;-0.077484130859375;3.94999999002721;396;100 mA;
72.4774288170121;-0.9991455078125;-0.0780029296875;3.95999999000196;397;100 mA;
72.4874288169868;-1.00006103515625;-0.07745361328125;3.96999998997671;398;100 mA;
72.4974288169616;-0.99945068359375;-0.077392578125;3.97999998995147;399;100 mA;
72.5074288169363;-0.99945068359375;-0.077972412109375;3.98999998992622;400;100 mA;
72.5174288169111;-0.999755859375;-0.07708740234375;3.99999998990097;401;100 mA;
72.5274288168858;-0.9991455078125;-0.0780029296875;4.00999998987572;402;100 mA;
72.5374288168606;-1.00006103515625;-0.07708740234375;4.01999998985048;403;100 mA;
72.5474288168353;-0.99945068359375;-0.077392578125;4.02999998982523;404;100 mA;
72.5574288168101;-0.9991455078125;-0.077850341796875;4.03999998979998;405;100 mA;
72.5674288167849;-0.99945068359375;-0.077484130859375;4.04999998977473;406;100 mA;
72.5774288167596;-0.9991455078125;-0.078216552734375;4.05999998974949;407;100 mA;
72.5874288167344;-0.9991455078125;-0.077484130859375;4.06999998972424;408;100 mA;
72.5974288167091;-0.99945068359375;-0.078033447265625;4.07999998969899;409;100 mA;
72.6074288166839;-0.9991455078125;-0.077484130859375;4.08999998967374;410;100 mA;
72.6174288166586;-0.99945068359375;-0.07745361328125;4.0999999896485;411;100 mA;
72.6274288166334;-0.9991455078125;-0.078277587890625;4.10999998962325;412;100 mA;
72.6374288166081;-0.99945068359375;-0.07733154296875;4.119999989598;413;100 mA;
72.6474288165829;-0.999755859375;-0.0780029296875;4.12999998957275;414;100 mA;
72.6574288165576;-0.99945068359375;-0.076812744140625;4.1399999895475;415;100 mA;
72.6674288165324;-0.999755859375;-0.076934814453125;4.14999998952226;416;100 mA;
72.6774288165071;-0.999755859375;-0.077484130859375;4.15999998949701;417;100 mA;
72.6874288164819;-0.999755859375;-0.076873779296875;4.16999998947176;418;100 mA;
72.6974288164566;-0.99945068359375;-0.077606201171875;4.17999998944651;419;100 mA;
72.7074288164314;-0.99945068359375;-0.076629638671875;4.18999998942127;420;100 mA;
72.7174288164061;-0.99945068359375;-0.077545166015625;4.19999998939602;421;100 mA;
72.7274288163809;-0.9991455078125;-0.0771484375;4.20999998937077;422;100 mA;
72.7374288163556;-0.99945068359375;-0.076995849609375;4.21999998934552;423;100 mA;
72.7474288163304;-0.99945068359375;-0.07763671875;4.22999998932028;424;100 mA;
72.7574288163052;-0.99945068359375;-0.0767822265625;4.23999998929503;425;100 mA;
72.7674288162799;-0.9991455078125;-0.078125;4.24999998926978;426;100 mA;
72.7774288162547;-1.00006103515625;-0.07763671875;4.25999998924453;427;100 mA;
72.7874288162294;-1.00006103515625;-0.078094482421875;4.26999998921929;428;100 mA;
72.7974288162042;-0.99945068359375;-0.0782470703125;4.27999998919404;429;100 mA;
72.8074288161789;-0.99945068359375;-0.0777587890625;4.28999998916879;430;100 mA;
72.8174288161537;-0.999755859375;-0.0789794921875;4.29999998914354;431;100 mA;
72.8274288161284;-0.999755859375;-0.0784912109375;4.3099999891183;432;100 mA;
72.8374288161032;-0.9991455078125;-0.079559326171875;4.31999998909305;433;100 mA;
72.8474288160779;-0.99884033203125;-0.079315185546875;4.3299999890678;434;100 mA;
72.8574288160527;-0.999755859375;-0.079254150390625;4.33999998904255;435;100 mA;
72.8674288160274;-0.99945068359375;-0.08013916015625;4.34999998901731;436;100 mA;
72.8774288160022;-0.9991455078125;-0.079437255859375;4.35999998899206;437;100 mA;
72.8874288159769;-0.99884033203125;-0.080810546875;4.36999998896681;438;100 mA;
72.8974288159517;-0.999755859375;-0.08001708984375;4.37999998894156;439;100 mA;
72.9074288159264;-0.999755859375;-0.07977294921875;4.38999998891632;440;100 mA;
72.9174288159012;-0.99945068359375;-0.079437255859375;4.39999998889107;441;100 mA;
72.9274288158759;-1.00006103515625;-0.078369140625;4.40999998886582;442;100 mA;
72.9374288158507;-0.99945068359375;-0.079193115234375;4.41999998884057;443;100 mA;
72.9474288158254;-0.999755859375;-0.078155517578125;4.42999998881533;444;100 mA;
72.9574288158002;-0.99945068359375;-0.0784912109375;4.43999998879008;445;100 mA;
72.967428815775;-0.999755859375;-0.07763671875;4.44999998876483;446;100 mA;
72.9774288157497;-0.999755859375;-0.077392578125;4.45999998873958;447;100 mA;
72.9874288157245;-0.99945068359375;-0.078399658203125;4.46999998871433;448;100 mA;
72.9974288156992;-0.9991455078125;-0.077728271484375;4.47999998868909;449;100 mA;
73.007428815674;-0.999755859375;-0.07855224609375;4.48999998866384;450;100 mA;
73.0174288156487;-0.99945068359375;-0.077850341796875;4.49999998863859;451;100 mA;
73.0274288156235;-0.999755859375;-0.077972412109375;4.50999998861334;452;100 mA;
73.0374288155982;-0.999755859375;-0.077667236328125;4.5199999885881;453;100 mA;
73.047428815573;-0.9991455078125;-0.076934814453125;4.52999998856285;454;100 mA;
73.0574288155477;-0.99945068359375;-0.07763671875;4.5399999885376;455;100 mA;
73.0674288155225;-0.9991455078125;-0.076995849609375;4.54999998851235;456;100 mA;
73.0774288154972;-0.9991455078125;-0.07763671875;4.55999998848711;457;100 mA;
73.087428815472;-0.99945068359375;-0.077423095703125;4.56999998846186;458;100 mA;
73.0974288154467;-0.9991455078125;-0.0771484375;4.57999998843661;459;100 mA;
73.1074288154215;-0.99945068359375;-0.077392578125;4.58999998841136;460;100 mA;
73.1174288153962;-0.999755859375;-0.076751708984375;4.59999998838612;461;100 mA;
73.127428815371;-0.999755859375;-0.077911376953125;4.60999998836087;462;100 mA;
73.1374288153457;-0.99945068359375;-0.076812744140625;4.61999998833562;463;100 mA;
73.1474288153205;-0.99945068359375;-0.076995849609375;4.62999998831037;464;100 mA;
73.1574288152952;-0.999755859375;-0.077056884765625;4.63999998828513;465;100 mA;
73.16742881527;-0.9991455078125;-0.07672119140625;4.64999998825988;466;100 mA;
73.1774288152448;-0.99945068359375;-0.07763671875;4.65999998823463;467;100 mA;
73.1874288152195;-0.99884033203125;-0.076446533203125;4.66999998820938;468;100 mA;
73.1974288151943;-0.99945068359375;-0.07708740234375;4.67999998818414;469;100 mA;
73.207428815169;-0.99945068359375;-0.076568603515625;4.68999998815889;470;100 mA;
73.2174288151438;-0.9991455078125;-0.076507568359375;4.69999998813364;471;100 mA;
73.2274288151185;-0.99945068359375;-0.077484130859375;4.70999998810839;472;100 mA;
73.2374288150933;-0.999755859375;-0.076812744140625;4.71999998808315;473;100 mA;
73.247428815068;-0.99884033203125;-0.078033447265625;4.7299999880579;474;100 mA;
73.2574288150428;-0.9991455078125;-0.07763671875;4.73999998803265;475;100 mA;
73.2674288150175;-0.9991455078125;-0.078125;4.7499999880074;476;100 mA;
73.2774288149923;-0.9991455078125;-0.078369140625;4.75999998798216;477;100 mA;
73.287428814967;-1.0003662109375;-0.0780029296875;4.76999998795691;478;100 mA;
73.2974288149418;-0.9991455078125;-0.079010009765625;4.77999998793166;479;100 mA;
73.3074288149165;-0.9991455078125;-0.078277587890625;4.78999998790641;480;100 mA;
73.3174288148913;-0.9991455078125;-0.079132080078125;4.79999998788116;481;100 mA;
73.327428814866;-0.99945068359375;-0.0787353515625;4.80999998785592;482;100 mA;
73.3374288148408;-0.9991455078125;-0.078521728515625;4.81999998783067;483;100 mA;
73.3474288148155;-0.999755859375;-0.079254150390625;4.82999998780542;484;100 mA;
73.3574288147903;-0.99884033203125;-0.078460693359375;4.83999998778017;485;100 mA;
73.367428814765;-0.99945068359375;-0.079498291015625;4.84999998775493;486;100 mA;
73.3774288147398;-0.99945068359375;-0.078765869140625;4.85999998772968;487;100 mA;
73.3874288147146;-0.99945068359375;-0.078857421875;4.86999998770443;488;100 mA;
73.3974288146893;-0.999755859375;-0.079132080078125;4.87999998767918;489;100 mA;
73.4074288146641;-0.99945068359375;-0.078643798828125;4.88999998765394;490;100 mA;
73.4174288146388;-1.00006103515625;-0.079681396484375;4.89999998762869;491;100 mA;
73.4274288146136;-1.00006103515625;-0.07891845703125;4.90999998760344;492;100 mA;
73.4374288145883;-0.99945068359375;-0.079833984375;4.91999998757819;493;100 mA;
73.4474288145631;-0.9991455078125;-0.079620361328125;4.92999998755295;494;100 mA;
73.4574288145378;-0.9991455078125;-0.079498291015625;4.9399999875277;495;100 mA;
73.4674288145126;-0.999755859375;-0.08026123046875;4.94999998750245;496;100 mA;
73.4774288144873;-0.99945068359375;-0.079315185546875;4.9599999874772;497;100 mA;
73.4874288144621;-0.999755859375;-0.080352783203125;4.96999998745196;498;100 mA;
73.4974288144368;-0.999755859375;-0.079742431640625;4.97999998742671;499;100 mA;
73.5074288144116;-0.99945068359375;-0.079864501953125;4.98999998740146;500;100 mA;
73.5174288143863;-0.99945068359375;-0.08001708984375;4.99999998737621;501;100 mA;
73.5274288143611;-0.999755859375;-0.079254150390625;5.00999998735097;502;100 mA;
73.5374288143358;-0.99945068359375;-0.07989501953125;5.01999998732572;503;100 mA;
73.5474288143106;-0.999755859375;-0.079254150390625;5.02999998730047;504;100 mA;
73.5574288142853;-0.99945068359375;-0.0799560546875;5.03999998727522;505;100 mA;
73.5674288142601;-0.99945068359375;-0.079681396484375;5.04999998724998;506;100 mA;
73.5774288142348;-0.99884033203125;-0.079193115234375;5.05999998722473;507;100 mA;
73.5874288142096;-0.999755859375;-0.0797119140625;5.06999998719948;508;100 mA;
73.5974288141844;-0.9991455078125;-0.079193115234375;5.07999998717423;509;100 mA;
73.6074288141591;-1.00006103515625;-0.079986572265625;5.08999998714899;510;100 mA;
73.6174288141339;-0.999755859375;-0.079345703125;5.09999998712374;511;100 mA;
73.6274288141086;-0.99945068359375;-0.07928466796875;5.10999998709849;512;100 mA;
73.6374288140834;-0.99945068359375;-0.079833984375;5.11999998707324;513;100 mA;
73.6474288140581;-0.999755859375;-0.07928466796875;5.129999987048;514;100 mA;
73.6574288140329;-0.9991455078125;-0.0799560546875;5.13999998702275;515;100 mA;
73.6674288140076;-0.9991455078125;-0.078826904296875;5.1499999869975;516;100 mA;
73.6774288139824;-0.999755859375;-0.07855224609375;5.15999998697225;517;100 mA;
73.6874288139571;-1.00006103515625;-0.078826904296875;5.169999986947;518;100 mA;
73.6974288139319;-0.99945068359375;-0.078582763671875;5.17999998692176;519;100 mA;
73.7074288139066;-0.99884033203125;-0.07916259765625;5.18999998689651;520;100 mA;
73.7174288138814;-0.999755859375;-0.078277587890625;5.19999998687126;521;100 mA;
73.7274288138561;-0.99945068359375;-0.078887939453125;5.20999998684601;522;100 mA;
73.7374288138309;-0.99945068359375;-0.0784912109375;5.21999998682077;523;100 mA;
73.7474288138056;-0.999755859375;-0.07818603515625;5.22999998679552;524;100 mA;
73.7574288137804;-0.99945068359375;-0.078155517578125;5.23999998677027;525;100 mA;
73.7674288137551;-0.999755859375;-0.077850341796875;5.24999998674502;526;100 mA;
73.7774288137299;-0.999755859375;-0.078826904296875;5.25999998671978;527;100 mA;
73.7874288137047;-0.99945068359375;-0.078033447265625;5.26999998669453;528;100 mA;
73.7974288136794;-0.9991455078125;-0.0782470703125;5.27999998666928;529;100 mA;
73.8074288136542;-0.999755859375;-0.077880859375;5.28999998664403;530;100 mA;
73.8174288136289;-0.99884033203125;-0.07745361328125;5.29999998661879;531;100 mA;
73.8274288136037;-0.999755859375;-0.077484130859375;5.30999998659354;532;100 mA;
73.8374288135784;-0.99945068359375;-0.07733154296875;5.31999998656829;533;100 mA;
73.8474288135532;-0.99884033203125;-0.0780029296875;5.32999998654304;534;100 mA;
73.8574288135279;-0.9991455078125;-0.077056884765625;5.3399999865178;535;100 mA;
73.8674288135027;-0.99884033203125;-0.077117919921875;5.34999998649255;536;100 mA;
73.8774288134774;-0.9991455078125;-0.077239990234375;5.3599999864673;537;100 mA;
73.8874288134522;-0.999755859375;-0.076751708984375;5.36999998644205;538;100 mA;
73.8974288134269;-0.9991455078125;-0.077667236328125;5.37999998641681;539;100 mA;
73.9074288134017;-0.9991455078125;-0.076812744140625;5.38999998639156;540;100 mA;
73.9174288133764;-0.99884033203125;-0.0772705078125;5.39999998636631;541;100 mA;
73.9274288133512;-0.9991455078125;-0.0767822265625;5.40999998634106;542;100 mA;
73.9374288133259;-0.99853515625;-0.07696533203125;5.41999998631582;543;100 mA;
73.9474288133007;-0.9991455078125;-0.07763671875;5.42999998629057;544;100 mA;
73.9574288132754;-0.99945068359375;-0.076934814453125;5.43999998626532;545;100 mA;
73.9674288132502;-0.99945068359375;-0.077423095703125;5.44999998624007;546;100 mA;
73.9774288132249;-0.99945068359375;-0.076934814453125;5.45999998621483;547;100 mA;
73.9874288131997;-0.999755859375;-0.077117919921875;5.46999998618958;548;100 mA;
73.9974288131745;-0.9991455078125;-0.07733154296875;5.47999998616433;549;100 mA;
74.0074288131492;-0.9991455078125;-0.0767822265625;5.48999998613908;550;100 mA;
74.017428813124;-0.99945068359375;-0.07757568359375;5.49999998611383;551;100 mA;
74.0274288130987;-0.999755859375;-0.07659912109375;5.50999998608859;552;100 mA;
74.0374288130735;-0.99945068359375;-0.07745361328125;5.51999998606334;553;100 mA;
74.0474288130482;-0.9991455078125;-0.077423095703125;5.52999998603809;554;100 mA;
74.057428813023;-0.999755859375;-0.0772705078125;5.53999998601284;555;100 mA;
74.0674288129977;-0.99945068359375;-0.077850341796875;5.5499999859876;556;100 mA;
74.0774288129725;-0.99945068359375;-0.076812744140625;5.55999998596235;557;100 mA;
74.0874288129472;-0.9991455078125;-0.077178955078125;5.5699999859371;558;100 mA;
74.097428812922;-0.99945068359375;-0.07696533203125;5.57999998591185;559;100 mA;
74.1074288128967;-0.999755859375;-0.076324462890625;5.58999998588661;560;100 mA;
74.1174288128715;-0.99945068359375;-0.077117919921875;5.59999998586136;561;100 mA;
74.1274288128462;-0.99945068359375;-0.076324462890625;5.60999998583611;562;100 mA;
74.137428812821;-0.99945068359375;-0.0770263671875;5.61999998581086;563;100 mA;
74.1474288127957;-0.9991455078125;-0.075958251953125;5.62999998578562;564;100 mA;
74.1574288127705;-0.999755859375;-0.07568359375;5.63999998576037;565;100 mA;
74.1674288127452;-0.99945068359375;-0.076416015625;5.64999998573512;566;100 mA;
74.17742881272;-0.999755859375;-0.075653076171875;5.65999998570987;567;100 mA;
74.1874288126947;-0.999755859375;-0.0760498046875;5.66999998568463;568;100 mA;
74.1974288126695;-0.9991455078125;-0.07513427734375;5.67999998565938;569;100 mA;
74.2074288126443;-0.99884033203125;-0.076416015625;5.68999998563413;570;100 mA;
74.217428812619;-0.99945068359375;-0.07598876953125;5.69999998560888;571;100 mA;
74.2274288125938;-0.999755859375;-0.076416015625;5.70999998558364;572;100 mA;
74.2374288125685;-0.99945068359375;-0.076568603515625;5.71999998555839;573;100 mA;
74.2474288125433;-0.99945068359375;-0.07623291015625;5.72999998553314;574;100 mA;
74.257428812518;-0.9991455078125;-0.07708740234375;5.73999998550789;575;100 mA;
74.2674288124928;-0.99884033203125;-0.076507568359375;5.74999998548265;576;100 mA;
74.2774288124675;-0.9991455078125;-0.076812744140625;5.7599999854574;577;100 mA;
74.2874288124423;-0.999755859375;-0.077362060546875;5.76999998543215;578;100 mA;
74.297428812417;-0.99945068359375;-0.077178955078125;5.7799999854069;579;100 mA;
74.3074288123918;-0.9991455078125;-0.077789306640625;5.78999998538166;580;100 mA;
74.3174288123665;-1.00006103515625;-0.076904296875;5.79999998535641;581;100 mA;
74.3274288123413;-1.00006103515625;-0.07708740234375;5.80999998533116;582;100 mA;
74.337428812316;-0.999755859375;-0.0765380859375;5.81999998530591;583;100 mA;
74.3474288122908;-0.9991455078125;-0.076202392578125;5.82999998528066;584;100 mA;
74.3574288122655;-0.999755859375;-0.07647705078125;5.83999998525542;585;100 mA;
74.3674288122403;-0.999755859375;-0.075836181640625;5.84999998523017;586;100 mA;
74.377428812215;-0.99884033203125;-0.07647705078125;5.85999998520492;587;100 mA;
74.3874288121898;-0.999755859375;-0.076385498046875;5.86999998517967;588;100 mA;
74.3974288121645;-1.00006103515625;-0.076416015625;5.87999998515443;589;100 mA;
74.4074288121393;-0.99945068359375;-0.076324462890625;5.88999998512918;590;100 mA;
74.4174288121141;-0.99945068359375;-0.076324462890625;5.89999998510393;591;100 mA;
74.4274288120888;-0.9991455078125;-0.077239990234375;5.90999998507868;592;100 mA;
74.4374288120636;-0.999755859375;-0.076385498046875;5.91999998505344;593;100 mA;
74.4474288120383;-0.99945068359375;-0.0770263671875;5.92999998502819;594;100 mA;
74.4574288120131;-0.99884033203125;-0.076446533203125;5.93999998500294;595;100 mA;
74.4674288119878;-0.999755859375;-0.07586669921875;5.94999998497769;596;100 mA;
74.4774288119626;-0.99945068359375;-0.07708740234375;5.95999998495245;597;100 mA;
74.4874288119373;-0.9991455078125;-0.076507568359375;5.9699999849272;598;100 mA;
74.4974288119121;-0.9991455078125;-0.076263427734375;5.97999998490195;599;100 mA;
74.5074288118868;-0.99945068359375;-0.075958251953125;5.9899999848767;600;100 mA;
74.5174288118616;-0.999755859375;-0.07666015625;5.99999998485146;601;100 mA;
74.5274288118363;-0.999755859375;-0.076141357421875;6.00999998482621;602;100 mA;
74.5374288118111;-0.99945068359375;-0.075592041015625;6.01999998480096;603;100 mA;
74.5474288117858;-0.9991455078125;-0.076385498046875;6.02999998477571;604;100 mA;
74.5574288117606;-0.999755859375;-0.075714111328125;6.03999998475047;605;100 mA;
74.5674288117353;-0.999755859375;-0.076080322265625;6.04999998472522;606;100 mA;
74.5774288117101;-0.9991455078125;-0.07550048828125;6.05999998469997;607;100 mA;
74.5874288116848;-0.99945068359375;-0.07550048828125;6.06999998467472;608;100 mA;
74.5974288116596;-0.99945068359375;-0.0758056640625;6.07999998464948;609;100 mA;
74.6074288116343;-0.999755859375;-0.07464599609375;6.08999998462423;610;100 mA;
74.6174288116091;-0.999755859375;-0.0758056640625;6.09999998459898;611;100 mA;
74.6274288115839;-0.999755859375;-0.076202392578125;6.10999998457373;612;100 mA;
74.6374288115586;-0.99945068359375;-0.075714111328125;6.11999998454849;613;100 mA;
74.6474288115334;-0.99884033203125;-0.076171875;6.12999998452324;614;100 mA;
74.6574288115081;-0.9991455078125;-0.075653076171875;6.13999998449799;615;100 mA;
74.6674288114829;-0.999755859375;-0.076629638671875;6.14999998447274;616;100 mA;
74.6774288114576;-0.999755859375;-0.076080322265625;6.1599999844475;617;100 mA;
74.6874288114324;-0.9991455078125;-0.0758056640625;6.16999998442225;618;100 mA;
74.6974288114071;-0.99945068359375;-0.07562255859375;6.179999984397;619;100 mA;
74.7074288113819;-0.999755859375;-0.07550048828125;6.18999998437175;620;100 mA;
74.7174288113566;-0.99945068359375;-0.076141357421875;6.1999999843465;621;100 mA;
74.7274288113314;-0.99945068359375;-0.076141357421875;6.20999998432126;622;100 mA;
74.7374288113061;-1.00006103515625;-0.07672119140625;6.21999998429601;623;100 mA;
74.7474288112809;-1.00006103515625;-0.075927734375;6.22999998427076;624;100 mA;
74.7574288112556;-0.99945068359375;-0.07586669921875;6.23999998424551;625;100 mA;
74.7674288112304;-0.999755859375;-0.07574462890625;6.24999998422027;626;100 mA;
74.7774288112051;-0.99884033203125;-0.075439453125;6.25999998419502;627;100 mA;
74.7874288111799;-0.99884033203125;-0.075775146484375;6.26999998416977;628;100 mA;
74.7974288111546;-0.99945068359375;-0.07525634765625;6.27999998414452;629;100 mA;
74.8074288111294;-0.999755859375;-0.07525634765625;6.28999998411928;630;100 mA;
74.8174288111042;-0.999755859375;-0.07415771484375;6.29999998409403;631;100 mA;
74.8274288110789;-0.99884033203125;-0.075225830078125;6.30999998406878;632;100 mA;
74.8374288110537;-0.999755859375;-0.076019287109375;6.31999998404353;633;100 mA;
74.8474288110284;-0.999755859375;-0.075408935546875;6.32999998401829;634;100 mA;
74.8574288110032;-0.99945068359375;-0.076141357421875;6.33999998399304;635;100 mA;
74.8674288109779;-0.99945068359375;-0.07537841796875;6.34999998396779;636;100 mA;
74.8774288109527;-0.9991455078125;-0.075897216796875;6.35999998394254;637;100 mA;
74.8874288109274;-0.99945068359375;-0.075531005859375;6.3699999839173;638;100 mA;
74.8974288109022;-0.9991455078125;-0.074981689453125;6.37999998389205;639;100 mA;
74.9074288108769;-1.00006103515625;-0.07476806640625;6.3899999838668;640;100 mA;
74.9174288108517;-0.999755859375;-0.074554443359375;6.39999998384155;641;100 mA;
74.9274288108264;-1.00006103515625;-0.07574462890625;6.40999998381631;642;100 mA;
74.9374288108012;-0.99945068359375;-0.07568359375;6.41999998379106;643;100 mA;
74.9474288107759;-0.99945068359375;-0.07525634765625;6.42999998376581;644;100 mA;
74.9574288107507;-0.9991455078125;-0.07537841796875;6.43999998374056;645;100 mA;
74.9674288107254;-0.999755859375;-0.0748291015625;6.44999998371532;646;100 mA;
74.9774288107002;-0.999755859375;-0.075103759765625;6.45999998369007;647;100 mA;
74.9874288106749;-0.9991455078125;-0.073699951171875;6.46999998366482;648;100 mA;
74.9974288106497;-0.999755859375;-0.073883056640625;6.47999998363957;649;100 mA;
75.0074288106244;-0.999755859375;-0.07464599609375;6.48999998361433;650;100 mA;
75.0174288105992;-0.9991455078125;-0.074493408203125;6.49999998358908;651;100 mA;
75.027428810574;-0.99853515625;-0.075042724609375;6.50999998356383;652;100 mA;
75.0374288105487;-0.9991455078125;-0.074951171875;6.51999998353858;653;100 mA;
75.0474288105235;-0.9991455078125;-0.075469970703125;6.52999998351333;654;100 mA;
75.0574288104982;-0.99945068359375;-0.075439453125;6.53999998348809;655;100 mA;
75.067428810473;-0.99945068359375;-0.075592041015625;6.54999998346284;656;100 mA;
75.0774288104477;-0.999755859375;-0.07586669921875;6.55999998343759;657;100 mA;
75.0874288104225;-0.9991455078125;-0.07525634765625;6.56999998341234;658;100 mA;
75.0974288103972;-0.999755859375;-0.075469970703125;6.5799999833871;659;100 mA;
75.107428810372;-0.9991455078125;-0.074981689453125;6.58999998336185;660;100 mA;
75.1174288103467;-0.9991455078125;-0.07562255859375;6.5999999833366;661;100 mA;
75.1274288103215;-0.99945068359375;-0.0760498046875;6.60999998331135;662;100 mA;
75.1374288102962;-0.99945068359375;-0.075775146484375;6.61999998328611;663;100 mA;
75.147428810271;-0.99884033203125;-0.076385498046875;6.62999998326086;664;100 mA;
75.1574288102457;-0.9991455078125;-0.076141357421875;6.63999998323561;665;100 mA;
75.1674288102205;-0.9991455078125;-0.07696533203125;6.64999998321036;666;100 mA;
75.1774288101952;-0.999755859375;-0.076934814453125;6.65999998318512;667;100 mA;
75.18742881017;-0.99945068359375;-0.07647705078125;6.66999998315987;668;100 mA;
75.1974288101447;-1.00006103515625;-0.07733154296875;6.67999998313462;669;100 mA;
75.2074288101195;-0.999755859375;-0.077392578125;6.68999998310937;670;100 mA;
75.2174288100942;-0.999755859375;-0.07794189453125;6.69999998308413;671;100 mA;
75.227428810069;-1.00006103515625;-0.07781982421875;6.70999998305888;672;100 mA;
75.2374288100438;-0.9991455078125;-0.078399658203125;6.71999998303363;673;100 mA;
75.2474288100185;-0.9991455078125;-0.078094482421875;6.72999998300838;674;100 mA;
75.2574288099933;-0.999755859375;-0.07818603515625;6.73999998298314;675;100 mA;
75.267428809968;-0.99884033203125;-0.078857421875;6.74999998295789;676;100 mA;
75.2774288099428;-0.99884033203125;-0.078369140625;6.75999998293264;677;100 mA;
75.2874288099175;-0.99853515625;-0.07794189453125;6.76999998290739;678;100 mA;
75.2974288098923;-0.999755859375;-0.078155517578125;6.77999998288215;679;100 mA;
75.307428809867;-0.999755859375;-0.078765869140625;6.7899999828569;680;100 mA;
75.3174288098418;-0.99945068359375;-0.0792236328125;6.79999998283165;681;100 mA;
75.3274288098165;-0.999755859375;-0.07861328125;6.8099999828064;682;100 mA;
75.3374288097913;-0.9991455078125;-0.07940673828125;6.81999998278116;683;100 mA;
75.347428809766;-0.99945068359375;-0.079132080078125;6.82999998275591;684;100 mA;
75.3574288097408;-0.99945068359375;-0.079437255859375;6.83999998273066;685;100 mA;
75.3674288097155;-0.99945068359375;-0.079681396484375;6.84999998270541;686;100 mA;
75.3774288096903;-0.99945068359375;-0.07916259765625;6.85999998268016;687;100 mA;
75.387428809665;-0.99884033203125;-0.07928466796875;6.86999998265492;688;100 mA;
75.3974288096398;-0.99945068359375;-0.0782470703125;6.87999998262967;689;100 mA;
75.4074288096145;-0.99945068359375;-0.078399658203125;6.88999998260442;690;100 mA;
75.4174288095893;-1.00006103515625;-0.07891845703125;6.89999998257917;691;100 mA;
75.427428809564;-0.999755859375;-0.07879638671875;6.90999998255393;692;100 mA;
75.4374288095388;-0.99945068359375;-0.079254150390625;6.91999998252868;693;100 mA;
75.4474288095136;-0.999755859375;-0.07855224609375;6.92999998250343;694;100 mA;
75.4574288094883;-0.9991455078125;-0.07916259765625;6.93999998247818;695;100 mA;
75.4674288094631;-0.9991455078125;-0.07843017578125;6.94999998245294;696;100 mA;
75.4774288094378;-0.99945068359375;-0.077667236328125;6.95999998242769;697;100 mA;
75.4874288094126;-1.00006103515625;-0.077606201171875;6.96999998240244;698;100 mA;
75.4974288093873;-0.99945068359375;-0.0777587890625;6.97999998237719;699;100 mA;
75.5074288093621;-0.99945068359375;-0.07806396484375;6.98999998235195;700;100 mA;
