Time (s);WE(1).Potential (V);WE(1).Current (A);Corrected time (s);Index;Current range
0.561228998583033;-0.399688720703125;-0.0243072509765625;0;1;1 A
0.571228998557785;-0.399658203125;-0.020428466796875;0.00999999997475243;2;1 A
0.581228998532538;-0.39984130859375;-0.01795654296875;0.0199999999495049;3;1 A
0.59122899850729;-0.399658203125;-0.0162200927734375;0.0299999999242573;4;1 A
0.601228998482043;-0.3997802734375;-0.0149200439453125;0.0399999998990097;5;1 A
0.611228998456795;-0.399627685546875;-0.0138916015625;0.0499999998737621;6;1 A
0.621228998431548;-0.39971923828125;-0.01307373046875;0.0599999998485146;7;1 A
0.6312289984063;-0.399749755859375;-0.012384033203125;0.069999999823267;8;1 A
0.641228998381052;-0.3997802734375;-0.0117950439453125;0.0799999997980194;9;1 A
0.651228998355805;-0.39971923828125;-0.011309814453125;0.0899999997727718;10;1 A
0.661228998330557;-0.399749755859375;-0.010870361328125;0.0999999997475243;11;1 A
0.67122899830531;-0.39971923828125;-0.010498046875;0.109999999722277;12;1 A
0.681228998280062;-0.399688720703125;-0.0101654052734375;0.119999999697029;13;1 A
0.691228998254815;-0.399749755859375;-0.0098602294921875;0.129999999671782;14;1 A
0.701228998229567;-0.3997802734375;-0.0095855712890625;0.139999999646534;15;1 A
0.711228998204319;-0.39971923828125;-0.0093414306640625;0.149999999621286;16;1 A
0.721228998179072;-0.39984130859375;-0.00911865234375001;0.159999999596039;17;1 A
0.731228998153824;-0.399658203125;-0.00893554687500001;0.169999999570791;18;1 A
0.741228998128577;-0.39971923828125;-0.008746337890625;0.179999999545544;19;1 A
0.751228998103329;-0.399658203125;-0.00859680175781249;0.189999999520296;20;1 A
0.761228998078082;-0.3997802734375;-0.0084381103515625;0.199999999495049;21;1 A
0.771228998052834;-0.399627685546875;-0.00832519531250001;0.209999999469801;22;1 A
0.781228998027586;-0.3997802734375;-0.00820312500000001;0.219999999444553;23;1 A
0.791228998002339;-0.39971923828125;-0.008099365234375;0.229999999419306;24;1 A
0.801228997977091;-0.399749755859375;-0.00800170898437499;0.239999999394058;25;1 A
0.811228997951844;-0.399749755859375;-0.00789794921875001;0.249999999368811;26;1 A
0.821228997926596;-0.399871826171875;-0.00780639648437501;0.259999999343563;27;1 A
0.831228997901349;-0.399688720703125;-0.0077362060546875;0.269999999318316;28;1 A
0.841228997876101;-0.399810791015625;-0.007659912109375;0.279999999293068;29;1 A
0.851228997850853;-0.399749755859375;-0.007586669921875;0.28999999926782;30;1 A
0.861228997825606;-0.399688720703125;-0.00751647949218751;0.299999999242573;31;1 A
0.871228997800358;-0.399810791015625;-0.0074432373046875;0.309999999217325;32;1 A
0.881228997775111;-0.399810791015625;-0.00737609863281249;0.319999999192078;33;1 A
0.891228997749863;-0.39971923828125;-0.0073272705078125;0.32999999916683;34;1 A
0.901228997724616;-0.399749755859375;-0.007275390625;0.339999999141583;35;1 A
0.911228997699368;-0.399688720703125;-0.0072479248046875;0.349999999116335;36;1 A
0.92122899767412;-0.399688720703125;-0.00719604492187501;0.359999999091087;37;1 A
0.931228997648873;-0.399810791015625;-0.0071685791015625;0.36999999906584;38;1 A
0.941228997623625;-0.3997802734375;-0.007110595703125;0.379999999040592;39;1 A
0.951228997598378;-0.399688720703125;-0.00710144042968749;0.389999999015345;40;1 A
0.96122899757313;-0.399749755859375;-0.0070526123046875;0.399999998990097;41;1 A
0.971228997547882;-0.39971923828125;-0.0070343017578125;0.40999999896485;42;1 A
0.981228997522635;-0.399749755859375;-0.00700988769531249;0.419999998939602;43;1 A
0.991228997497387;-0.399688720703125;-0.00697937011718749;0.429999998914354;44;1 A
1.00122899747214;-0.39984130859375;-0.00697021484375;0.439999998889107;45;1 A
1.01122899744689;-0.399688720703125;-0.0069549560546875;0.449999998863859;46;1 A
1.02122899742164;-0.399810791015625;-0.00694580078125;0.459999998838612;47;1 A
1.0312289973964;-0.39971923828125;-0.00693359374999999;0.469999998813364;48;1 A
1.04122899737115;-0.399749755859375;-0.0069000244140625;0.479999998788116;49;1 A
1.0512289973459;-0.399749755859375;-0.00688781738281249;0.489999998762869;50;1 A
1.06122899732065;-0.399810791015625;-0.00684509277343751;0.499999998737621;51;1 A
1.07122899729541;-0.399749755859375;-0.0068511962890625;0.509999998712374;52;1 A
1.08122899727016;-0.399749755859375;-0.00682678222656249;0.519999998687126;53;1 A
1.09122899724491;-0.39971923828125;-0.0068359375;0.529999998661879;54;1 A
1.10122899721966;-0.39971923828125;-0.00682373046875;0.539999998636631;55;1 A
1.11122899719442;-0.39971923828125;-0.0068084716796875;0.549999998611383;56;1 A
1.12122899716917;-0.39984130859375;-0.00679931640625001;0.559999998586136;57;1 A
1.13122899714392;-0.39971923828125;-0.0067901611328125;0.569999998560888;58;1 A
1.14122899711867;-0.399810791015625;-0.00677490234375;0.579999998535641;59;1 A
1.15122899709343;-0.399658203125;-0.00676574707031249;0.589999998510393;60;1 A
1.16122899706818;-0.399688720703125;-0.00675048828124999;0.599999998485146;61;1 A
1.17122899704293;-0.3997802734375;-0.00672302246093751;0.609999998459898;62;1 A
1.18122899701768;-0.399810791015625;-0.0066986083984375;0.61999999843465;63;1 A
1.19122899699244;-0.399688720703125;-0.0066864013671875;0.629999998409403;64;1 A
1.20122899696719;-0.3997802734375;-0.006671142578125;0.639999998384155;65;1 A
1.21122899694194;-0.399658203125;-0.0066680908203125;0.649999998358908;66;1 A
1.22122899691669;-0.399627685546875;-0.00666198730468751;0.65999999833366;67;1 A
1.23122899689145;-0.399658203125;-0.0066650390625;0.669999998308413;68;1 A
1.2412289968662;-0.399810791015625;-0.006640625;0.679999998283165;69;1 A
1.25122899684095;-0.399658203125;-0.00665893554687499;0.689999998257917;70;1 A
1.2612289968157;-0.39971923828125;-0.006634521484375;0.69999999823267;71;1 A
1.27122899679046;-0.399688720703125;-0.006640625;0.709999998207422;72;1 A
1.28122899676521;-0.3997802734375;-0.00664672851562501;0.719999998182175;73;1 A
1.29122899673996;-0.39971923828125;-0.00662841796874999;0.729999998156927;74;1 A
1.30122899671471;-0.3997802734375;-0.0066192626953125;0.73999999813168;75;1 A
1.31122899668947;-0.39971923828125;-0.00659790039062499;0.749999998106432;76;1 A
1.32122899666422;-0.399749755859375;-0.00658569335937501;0.759999998081184;77;1 A
1.33122899663897;-0.399688720703125;-0.0065643310546875;0.769999998055937;78;1 A
1.34122899661372;-0.39971923828125;-0.00655517578125001;0.779999998030689;79;1 A
1.35122899658847;-0.39971923828125;-0.00653686523437499;0.789999998005442;80;1 A
1.36122899656323;-0.39990234375;-0.0065032958984375;0.799999997980194;81;1 A
1.37122899653798;-0.399658203125;-0.0065032958984375;0.809999997954947;82;1 A
1.38122899651273;-0.39971923828125;-0.0064727783203125;0.819999997929699;83;1 A
1.39122899648748;-0.39971923828125;-0.0064666748046875;0.829999997904451;84;1 A
1.40122899646224;-0.3997802734375;-0.00644836425781251;0.839999997879204;85;1 A
1.41122899643699;-0.399658203125;-0.00643005371093749;0.849999997853956;86;1 A
1.42122899641174;-0.3997802734375;-0.00640869140625;0.859999997828709;87;1 A
1.43122899638649;-0.39971923828125;-0.00640869140625;0.869999997803461;88;1 A
1.44122899636125;-0.3997802734375;-0.006396484375;0.879999997778214;89;1 A
1.451228996336;-0.399658203125;-0.00639953613281249;0.889999997752966;90;1 A
1.46122899631075;-0.3997802734375;-0.006396484375;0.899999997727718;91;1 A
1.4712289962855;-0.399658203125;-0.006390380859375;0.909999997702471;92;1 A
1.48122899626026;-0.39984130859375;-0.0063812255859375;0.919999997677223;93;1 A
1.49122899623501;-0.39971923828125;-0.00636901855468749;0.929999997651976;94;1 A
1.50122899620976;-0.3997802734375;-0.0063629150390625;0.939999997626728;95;1 A
1.51122899618451;-0.399688720703125;-0.00635986328125;0.949999997601481;96;1 A
1.52122899615927;-0.399749755859375;-0.00635375976562499;0.959999997576233;97;1 A
1.53122899613402;-0.399749755859375;-0.006365966796875;0.969999997550985;98;1 A
1.54122899610877;-0.39984130859375;-0.00635375976562499;0.979999997525738;99;1 A
1.55122899608352;-0.399749755859375;-0.00638427734374999;0.98999999750049;100;1 A
1.56122899605828;-0.39971923828125;-0.00637207031250001;0.999999997475243;101;1 A
1.57122899603303;-0.3997802734375;-0.0063934326171875;1.00999999745;102;1 A
1.58122899600778;-0.39971923828125;-0.0063934326171875;1.01999999742475;103;1 A
1.59122899598253;-0.399688720703125;-0.0063934326171875;1.0299999973995;104;1 A
1.60122899595729;-0.399810791015625;-0.006396484375;1.03999999737425;105;1 A
1.61122899593204;-0.3997802734375;-0.006396484375;1.049999997349;106;1 A
1.62122899590679;-0.3997802734375;-0.0063934326171875;1.05999999732376;107;1 A
1.63122899588154;-0.39971923828125;-0.00638732910156251;1.06999999729851;108;1 A
1.6412289958563;-0.399749755859375;-0.0063751220703125;1.07999999727326;109;1 A
1.65122899583105;-0.399658203125;-0.00635681152343751;1.08999999724801;110;1 A
1.6612289958058;-0.3997802734375;-0.00632629394531251;1.09999999722277;111;1 A
1.67122899578055;-0.399658203125;-0.00632629394531251;1.10999999719752;112;1 A
1.6812289957553;-0.399749755859375;-0.00631103515625001;1.11999999717227;113;1 A
1.69122899573006;-0.399658203125;-0.00632629394531251;1.12999999714702;114;1 A
1.70122899570481;-0.399749755859375;-0.0063201904296875;1.13999999712178;115;1 A
1.71122899567956;-0.39971923828125;-0.00632324218749999;1.14999999709653;116;1 A
1.72122899565431;-0.3997802734375;-0.0063201904296875;1.15999999707128;117;1 A
1.73122899562907;-0.39971923828125;-0.00633544921875;1.16999999704603;118;1 A
1.74122899560382;-0.399749755859375;-0.0063323974609375;1.17999999702079;119;1 A
1.75122899557857;-0.399749755859375;-0.00635681152343751;1.18999999699554;120;1 A
1.76122899555332;-0.39971923828125;-0.00637207031250001;1.19999999697029;121;1 A
1.77122899552808;-0.399810791015625;-0.00638427734374999;1.20999999694504;122;1 A
1.78122899550283;-0.39984130859375;-0.00639953613281249;1.2199999969198;123;1 A
1.79122899547758;-0.39971923828125;-0.0064117431640625;1.22999999689455;124;1 A
1.80122899545233;-0.399749755859375;-0.0064239501953125;1.2399999968693;125;1 A
1.81122899542709;-0.399688720703125;-0.0064239501953125;1.24999999684405;126;1 A
1.82122899540184;-0.399749755859375;-0.00643005371093749;1.25999999681881;127;1 A
1.83122899537659;-0.399749755859375;-0.0064422607421875;1.26999999679356;128;1 A
1.84122899535134;-0.39984130859375;-0.00643005371093749;1.27999999676831;129;1 A
1.8512289953261;-0.39971923828125;-0.006451416015625;1.28999999674306;130;1 A
1.86122899530085;-0.399749755859375;-0.006439208984375;1.29999999671782;131;1 A
1.8712289952756;-0.399688720703125;-0.0064697265625;1.30999999669257;132;1 A
1.88122899525035;-0.3997802734375;-0.00647583007812499;1.31999999666732;133;1 A
1.89122899522511;-0.399688720703125;-0.006488037109375;1.32999999664207;134;1 A
1.90122899519986;-0.39984130859375;-0.00649414062500001;1.33999999661683;135;1 A
1.91122899517461;-0.399688720703125;-0.0065032958984375;1.34999999659158;136;1 A
1.92122899514936;-0.39971923828125;-0.00652160644531249;1.35999999656633;137;1 A
1.93122899512412;-0.399749755859375;-0.0065277099609375;1.36999999654108;138;1 A
1.94122899509887;-0.3997802734375;-0.0065277099609375;1.37999999651583;139;1 A
1.95122899507362;-0.399688720703125;-0.0065185546875;1.38999999649059;140;1 A
1.96122899504837;-0.3997802734375;-0.006500244140625;1.39999999646534;141;1 A
1.97122899502313;-0.399688720703125;-0.0065032958984375;1.40999999644009;142;1 A
1.98122899499788;-0.39971923828125;-0.0065032958984375;1.41999999641484;143;1 A
1.99122899497263;-0.399749755859375;-0.006512451171875;1.4299999963896;144;1 A
2.00122899494738;-0.3997802734375;-0.0065155029296875;1.43999999636435;145;1 A
2.01122899492213;-0.399749755859375;-0.00653991699218751;1.4499999963391;146;1 A
2.02122899489689;-0.399810791015625;-0.00654296875;1.45999999631385;147;1 A
2.03122899487164;-0.39971923828125;-0.0065765380859375;1.46999999628861;148;1 A
2.04122899484639;-0.39971923828125;-0.00657043457031251;1.47999999626336;149;1 A
2.05122899482114;-0.39971923828125;-0.00658569335937501;1.48999999623811;150;1 A
2.0612289947959;-0.399749755859375;-0.0065887451171875;1.49999999621286;151;1 A
2.07122899477065;-0.399688720703125;-0.00658264160156249;1.50999999618762;152;1 A
2.0812289947454;-0.3997802734375;-0.00658569335937501;1.51999999616237;153;1 A
2.09122899472015;-0.3997802734375;-0.006561279296875;1.52999999613712;154;1 A
2.10122899469491;-0.399749755859375;-0.0065643310546875;1.53999999611187;155;1 A
2.11122899466966;-0.399749755859375;-0.00653991699218751;1.54999999608663;156;1 A
2.12122899464441;-0.3997802734375;-0.00653686523437499;1.55999999606138;157;1 A
2.13122899461916;-0.399627685546875;-0.0065338134765625;1.56999999603613;158;1 A
2.14122899459392;-0.3997802734375;-0.0065185546875;1.57999999601088;159;1 A
2.15122899456867;-0.39971923828125;-0.00653076171875;1.58999999598564;160;1 A
2.16122899454342;-0.399749755859375;-0.00652160644531249;1.59999999596039;161;1 A
2.17122899451817;-0.399749755859375;-0.00655517578125001;1.60999999593514;162;1 A
2.18122899449293;-0.399810791015625;-0.00657043457031251;1.61999999590989;163;1 A
2.19122899446768;-0.399749755859375;-0.0065948486328125;1.62999999588465;164;1 A
2.20122899444243;-0.39984130859375;-0.0066192626953125;1.6399999958594;165;1 A
2.21122899441718;-0.399688720703125;-0.006640625;1.64999999583415;166;1 A
2.22122899439194;-0.399658203125;-0.0066558837890625;1.6599999958089;167;1 A
2.23122899436669;-0.399688720703125;-0.0066680908203125;1.66999999578366;168;1 A
2.24122899434144;-0.39971923828125;-0.0066864013671875;1.67999999575841;169;1 A
2.25122899431619;-0.39971923828125;-0.00669250488281251;1.68999999573316;170;1 A
2.26122899429095;-0.3997802734375;-0.006695556640625;1.69999999570791;171;1 A
2.2712289942657;-0.3997802734375;-0.0066986083984375;1.70999999568267;172;1 A
2.28122899424045;-0.399749755859375;-0.00670471191406249;1.71999999565742;173;1 A
2.2912289942152;-0.399749755859375;-0.00670166015625;1.72999999563217;174;1 A
2.30122899418996;-0.3997802734375;-0.00669250488281251;1.73999999560692;175;1 A
2.31122899416471;-0.39971923828125;-0.0066864013671875;1.74999999558167;176;1 A
2.32122899413946;-0.399810791015625;-0.006671142578125;1.75999999555643;177;1 A
2.33122899411421;-0.39971923828125;-0.006683349609375;1.76999999553118;178;1 A
2.34122899408897;-0.399810791015625;-0.00667419433593749;1.77999999550593;179;1 A
2.35122899406372;-0.399688720703125;-0.00668945312499999;1.78999999548068;180;1 A
2.36122899403847;-0.399749755859375;-0.0066986083984375;1.79999999545544;181;1 A
2.37122899401322;-0.399658203125;-0.0067138671875;1.80999999543019;182;1 A
2.38122899398797;-0.3997802734375;-0.00672607421875;1.81999999540494;183;1 A
2.39122899396273;-0.399688720703125;-0.006732177734375;1.82999999537969;184;1 A
2.40122899393748;-0.39971923828125;-0.0067413330078125;1.83999999535445;185;1 A
2.41122899391223;-0.399749755859375;-0.006732177734375;1.8499999953292;186;1 A
2.42122899388698;-0.39971923828125;-0.00673828125000001;1.85999999530395;187;1 A
2.43122899386174;-0.39971923828125;-0.00673522949218749;1.8699999952787;188;1 A
2.44122899383649;-0.399810791015625;-0.00671997070312499;1.87999999525346;189;1 A
2.45122899381124;-0.399749755859375;-0.0067291259765625;1.88999999522821;190;1 A
2.46122899378599;-0.39971923828125;-0.0067169189453125;1.89999999520296;191;1 A
2.47122899376075;-0.39971923828125;-0.00673522949218749;1.90999999517771;192;1 A
2.4812289937355;-0.39971923828125;-0.00673522949218749;1.91999999515247;193;1 A
2.49122899371025;-0.399688720703125;-0.00673828125000001;1.92999999512722;194;1 A
2.501228993685;-0.399810791015625;-0.00673828125000001;1.93999999510197;195;1 A
2.51122899365976;-0.3997802734375;-0.00675048828124999;1.94999999507672;196;1 A
2.52122899363451;-0.39971923828125;-0.006756591796875;1.95999999505148;197;1 A
2.53122899360926;-0.39971923828125;-0.0067626953125;1.96999999502623;198;1 A
2.54122899358401;-0.3997802734375;-0.00676574707031249;1.97999999500098;199;1 A
2.55122899355877;-0.399688720703125;-0.0067596435546875;1.98999999497573;200;1 A
2.56122899353352;-0.3997802734375;-0.00675048828124999;1.99999999495049;201;1 A
2.57122899350827;-0.399688720703125;-0.0067474365234375;2.00999999492524;202;1 A
2.58122899348302;-0.3997802734375;-0.0067474365234375;2.01999999489999;203;1 A
2.59122899345778;-0.39971923828125;-0.00673828125000001;2.02999999487474;204;1 A
2.60122899343253;-0.399810791015625;-0.0067291259765625;2.0399999948495;205;1 A
2.61122899340728;-0.399658203125;-0.00671997070312499;2.04999999482425;206;1 A
2.62122899338203;-0.3997802734375;-0.00670776367187501;2.059999994799;207;1 A
2.63122899335679;-0.39971923828125;-0.0067138671875;2.06999999477375;208;1 A
2.64122899333154;-0.399688720703125;-0.00669250488281251;2.0799999947485;209;1 A
2.65122899330629;-0.3997802734375;-0.00670776367187501;2.08999999472326;210;1 A
2.66122899328104;-0.399749755859375;-0.00670166015625;2.09999999469801;211;1 A
2.6712289932558;-0.399749755859375;-0.0067169189453125;2.10999999467276;212;1 A
2.68122899323055;-0.3997802734375;-0.00672302246093751;2.11999999464751;213;1 A
2.6912289932053;-0.39984130859375;-0.00672607421875;2.12999999462227;214;1 A
2.70122899318005;-0.399749755859375;-0.00673522949218749;2.13999999459702;215;1 A
2.7112289931548;-0.399749755859375;-0.0067291259765625;2.14999999457177;216;1 A
2.72122899312956;-0.39971923828125;-0.0067474365234375;2.15999999454652;217;1 A
2.73122899310431;-0.39971923828125;-0.0067413330078125;2.16999999452128;218;1 A
2.74122899307906;-0.3997802734375;-0.00673828125000001;2.17999999449603;219;1 A
2.75122899305381;-0.3997802734375;-0.006744384765625;2.18999999447078;220;1 A
2.76122899302857;-0.3997802734375;-0.00673828125000001;2.19999999444553;221;1 A
2.77122899300332;-0.399749755859375;-0.0067626953125;2.20999999442029;222;1 A
2.78122899297807;-0.3997802734375;-0.0067718505859375;2.21999999439504;223;1 A
2.79122899295282;-0.399658203125;-0.006787109375;2.22999999436979;224;1 A
2.80122899292758;-0.3997802734375;-0.0067901611328125;2.23999999434454;225;1 A
2.81122899290233;-0.399688720703125;-0.0068084716796875;2.2499999943193;226;1 A
2.82122899287708;-0.39984130859375;-0.006817626953125;2.25999999429405;227;1 A
2.83122899285183;-0.399749755859375;-0.0068359375;2.2699999942688;228;1 A
2.84122899282659;-0.399810791015625;-0.006854248046875;2.27999999424355;229;1 A
2.85122899280134;-0.399749755859375;-0.0068634033203125;2.28999999421831;230;1 A
2.86122899277609;-0.39984130859375;-0.0068695068359375;2.29999999419306;231;1 A
2.87122899275084;-0.399749755859375;-0.006878662109375;2.30999999416781;232;1 A
2.8812289927256;-0.399658203125;-0.00689697265625;2.31999999414256;233;1 A
2.89122899270035;-0.39971923828125;-0.00689086914062501;2.32999999411732;234;1 A
2.9012289926751;-0.399749755859375;-0.00690307617187499;2.33999999409207;235;1 A
2.91122899264985;-0.399749755859375;-0.00690612792968751;2.34999999406682;236;1 A
2.92122899262461;-0.3997802734375;-0.00690307617187499;2.35999999404157;237;1 A
2.93122899259936;-0.399749755859375;-0.006915283203125;2.36999999401633;238;1 A
2.94122899257411;-0.399749755859375;-0.0069000244140625;2.37999999399108;239;1 A
2.95122899254886;-0.399688720703125;-0.00692138671875001;2.38999999396583;240;1 A
2.96122899252362;-0.39971923828125;-0.006915283203125;2.39999999394058;241;1 A
2.97122899249837;-0.39971923828125;-0.006927490234375;2.40999999391533;242;1 A
2.98122899247312;-0.399810791015625;-0.0069305419921875;2.41999999389009;243;1 A
2.99122899244787;-0.399688720703125;-0.0069305419921875;2.42999999386484;244;1 A
3.00122899242263;-0.399749755859375;-0.00693359374999999;2.43999999383959;245;1 A
3.01122899239738;-0.399749755859375;-0.00692138671875001;2.44999999381434;246;1 A
3.02122899237213;-0.3997802734375;-0.0069305419921875;2.4599999937891;247;1 A
3.03122899234688;-0.39971923828125;-0.00692138671875001;2.46999999376385;248;1 A
3.04122899232163;-0.39984130859375;-0.0069091796875;2.4799999937386;249;1 A
3.05122899229639;-0.39971923828125;-0.0069091796875;2.48999999371335;250;1 A
3.06122899227114;-0.399810791015625;-0.00690307617187499;2.49999999368811;251;1 A
3.07122899224589;-0.399749755859375;-0.0069091796875;2.50999999366286;252;1 A
3.08122899222064;-0.399810791015625;-0.00690612792968751;2.51999999363761;253;1 A
3.0912289921954;-0.399749755859375;-0.0069091796875;2.52999999361236;254;1 A
3.10122899217015;-0.3997802734375;-0.00690307617187499;2.53999999358712;255;1 A
3.1112289921449;-0.399749755859375;-0.00690612792968751;2.54999999356187;256;1 A
3.12122899211965;-0.399688720703125;-0.0068939208984375;2.55999999353662;257;1 A
3.13122899209441;-0.39971923828125;-0.00689697265625;2.56999999351137;258;1 A
3.14122899206916;-0.3997802734375;-0.00690612792968751;2.57999999348613;259;1 A
3.15122899204391;-0.39971923828125;-0.00690612792968751;2.58999999346088;260;1 A
3.16122899201866;-0.3997802734375;-0.0069091796875;2.59999999343563;261;1 A
3.17122899199342;-0.399749755859375;-0.00690612792968751;2.60999999341038;262;1 A
3.18122899196817;-0.399688720703125;-0.006915283203125;2.61999999338514;263;1 A
3.19122899194292;-0.399749755859375;-0.0068939208984375;2.62999999335989;264;1 A
3.20122899191767;-0.39971923828125;-0.0068939208984375;2.63999999333464;265;1 A
3.21122899189243;-0.39971923828125;-0.00687561035156251;2.64999999330939;266;1 A
3.22122899186718;-0.399810791015625;-0.00686035156250001;2.65999999328415;267;1 A
3.23122899184193;-0.399749755859375;-0.00685729980468749;2.6699999932589;268;1 A
3.24122899181668;-0.39984130859375;-0.0068359375;2.67999999323365;269;1 A
3.25122899179144;-0.39971923828125;-0.00684814453125;2.6899999932084;270;1 A
3.26122899176619;-0.399810791015625;-0.0068359375;2.69999999318316;271;1 A
3.27122899174094;-0.399688720703125;-0.00684204101562499;2.70999999315791;272;1 A
3.28122899171569;-0.39984130859375;-0.00682983398437501;2.71999999313266;273;1 A
3.29122899169045;-0.399749755859375;-0.00681457519531251;2.72999999310741;274;1 A
3.3012289916652;-0.399749755859375;-0.006805419921875;2.73999999308217;275;1 A
3.31122899163995;-0.3997802734375;-0.00678405761718751;2.74999999305692;276;1 A
3.3212289916147;-0.399810791015625;-0.00678405761718751;2.75999999303167;277;1 A
3.33122899158946;-0.399749755859375;-0.00677490234375;2.76999999300642;278;1 A
3.34122899156421;-0.399810791015625;-0.0067718505859375;2.77999999298117;279;1 A
3.35122899153896;-0.399749755859375;-0.0067718505859375;2.78999999295593;280;1 A
3.36122899151371;-0.3997802734375;-0.00676574707031249;2.79999999293068;281;1 A
3.37122899148846;-0.399749755859375;-0.0067626953125;2.80999999290543;282;1 A
3.38122899146322;-0.3997802734375;-0.006756591796875;2.81999999288018;283;1 A
3.39122899143797;-0.39971923828125;-0.00675048828124999;2.82999999285494;284;1 A
3.40122899141272;-0.399749755859375;-0.006744384765625;2.83999999282969;285;1 A
3.41122899138747;-0.3997802734375;-0.0067474365234375;2.84999999280444;286;1 A
3.42122899136223;-0.39971923828125;-0.00675048828124999;2.85999999277919;287;1 A
3.43122899133698;-0.39971923828125;-0.00676574707031249;2.86999999275395;288;1 A
3.44122899131173;-0.39971923828125;-0.0067779541015625;2.8799999927287;289;1 A
3.45122899128648;-0.399688720703125;-0.00679626464843749;2.88999999270345;290;1 A
3.46122899126124;-0.3997802734375;-0.006817626953125;2.8999999926782;291;1 A
3.47122899123599;-0.399749755859375;-0.0068359375;2.90999999265296;292;1 A
3.48122899121074;-0.3997802734375;-0.006866455078125;2.91999999262771;293;1 A
3.49122899118549;-0.399810791015625;-0.0068695068359375;2.92999999260246;294;1 A
3.50122899116025;-0.39984130859375;-0.00689697265625;2.93999999257721;295;1 A
3.511228991135;-0.399688720703125;-0.0069000244140625;2.94999999255197;296;1 A
3.52122899110975;-0.399688720703125;-0.00690307617187499;2.95999999252672;297;1 A
3.5312289910845;-0.39971923828125;-0.00690307617187499;2.96999999250147;298;1 A
3.54122899105926;-0.39971923828125;-0.00688781738281249;2.97999999247622;299;1 A
3.55122899103401;-0.399810791015625;-0.0068939208984375;2.98999999245098;300;1 A
3.56122899100876;-0.3997802734375;-0.00687255859374999;2.99999999242573;301;1 A
3.57122899098351;-0.399688720703125;-0.00687255859374999;3.00999999240048;302;1 A
3.58122899095827;-0.399749755859375;-0.0068634033203125;3.01999999237523;303;1 A
3.59122899093302;-0.3997802734375;-0.00686035156250001;3.02999999234999;304;1 A
3.60122899090777;-0.399688720703125;-0.006866455078125;3.03999999232474;305;1 A
3.61122899088252;-0.3997802734375;-0.0068634033203125;3.04999999229949;306;1 A
3.62122899085728;-0.3997802734375;-0.00687561035156251;3.05999999227424;307;1 A
3.63122899083203;-0.399658203125;-0.00687255859374999;3.069999992249;308;1 A
3.64122899080678;-0.399749755859375;-0.00687561035156251;3.07999999222375;309;1 A
3.65122899078153;-0.3997802734375;-0.0068817138671875;3.0899999921985;310;1 A
3.66122899075629;-0.399749755859375;-0.00688781738281249;3.09999999217325;311;1 A
3.67122899073104;-0.3997802734375;-0.006884765625;3.109999992148;312;1 A
3.68122899070579;-0.3997802734375;-0.006884765625;3.11999999212276;313;1 A
3.69122899068054;-0.399658203125;-0.0068817138671875;3.12999999209751;314;1 A
3.7012289906553;-0.399810791015625;-0.00687255859374999;3.13999999207226;315;1 A
3.71122899063005;-0.3997802734375;-0.00686035156250001;3.14999999204701;316;1 A
3.7212289906048;-0.3997802734375;-0.006854248046875;3.15999999202177;317;1 A
3.73122899057955;-0.399749755859375;-0.0068695068359375;3.16999999199652;318;1 A
3.7412289905543;-0.399810791015625;-0.00687255859374999;3.17999999197127;319;1 A
3.75122899052906;-0.399810791015625;-0.00688781738281249;3.18999999194602;320;1 A
3.76122899050381;-0.399749755859375;-0.0068939208984375;3.19999999192078;321;1 A
3.77122899047856;-0.399688720703125;-0.0069122314453125;3.20999999189553;322;1 A
3.78122899045331;-0.399627685546875;-0.0069305419921875;3.21999999187028;323;1 A
3.79122899042807;-0.399810791015625;-0.00693359374999999;3.22999999184503;324;1 A
3.80122899040282;-0.399688720703125;-0.00694885253906249;3.23999999181979;325;1 A
3.81122899037757;-0.39971923828125;-0.00693359374999999;3.24999999179454;326;1 A
3.82122899035232;-0.3997802734375;-0.0069305419921875;3.25999999176929;327;1 A
3.83122899032708;-0.399749755859375;-0.00691833496093749;3.26999999174404;328;1 A
3.84122899030183;-0.399749755859375;-0.00690612792968751;3.2799999917188;329;1 A
3.85122899027658;-0.39971923828125;-0.0069122314453125;3.28999999169355;330;1 A
3.86122899025133;-0.399749755859375;-0.00690307617187499;3.2999999916683;331;1 A
3.87122899022609;-0.399749755859375;-0.00692138671875001;3.30999999164305;332;1 A
3.88122899020084;-0.3997802734375;-0.0069244384765625;3.31999999161781;333;1 A
3.89122899017559;-0.399810791015625;-0.00693664550781251;3.32999999159256;334;1 A
3.90122899015034;-0.399810791015625;-0.0069427490234375;3.33999999156731;335;1 A
3.9112289901251;-0.399749755859375;-0.00694580078125;3.34999999154206;336;1 A
3.92122899009985;-0.399810791015625;-0.00696411132812499;3.35999999151682;337;1 A
3.9312289900746;-0.39971923828125;-0.00696411132812499;3.36999999149157;338;1 A
3.94122899004935;-0.3997802734375;-0.00696411132812499;3.37999999146632;339;1 A
3.95122899002411;-0.399749755859375;-0.0069610595703125;3.38999999144107;340;1 A
3.96122898999886;-0.3997802734375;-0.00696411132812499;3.39999999141583;341;1 A
3.97122898997361;-0.3997802734375;-0.0069549560546875;3.40999999139058;342;1 A
3.98122898994836;-0.39984130859375;-0.0069580078125;3.41999999136533;343;1 A
3.99122898992312;-0.399749755859375;-0.00694580078125;3.42999999134008;344;1 A
4.00122898989787;-0.399688720703125;-0.00693359374999999;3.43999999131483;345;1 A
4.01122898987262;-0.3997802734375;-0.006915283203125;3.44999999128959;346;1 A
4.02122898984737;-0.39971923828125;-0.0068939208984375;3.45999999126434;347;1 A
4.03122898982213;-0.39984130859375;-0.00688781738281249;3.46999999123909;348;1 A
4.04122898979688;-0.3997802734375;-0.00686035156250001;3.47999999121384;349;1 A
4.05122898977163;-0.399749755859375;-0.0068511962890625;3.4899999911886;350;1 A
4.06122898974638;-0.399749755859375;-0.00682678222656249;3.49999999116335;351;1 A
4.07122898972113;-0.3997802734375;-0.0068206787109375;3.5099999911381;352;1 A
4.08122898969589;-0.39971923828125;-0.00681457519531251;3.51999999111285;353;1 A
4.09122898967064;-0.399810791015625;-0.0068084716796875;3.52999999108761;354;1 A
4.10122898964539;-0.3997802734375;-0.00682373046875;3.53999999106236;355;1 A
4.11122898962014;-0.399749755859375;-0.006817626953125;3.54999999103711;356;1 A
4.1212289895949;-0.39971923828125;-0.0068328857421875;3.55999999101186;357;1 A
4.13122898956965;-0.39971923828125;-0.0068328857421875;3.56999999098662;358;1 A
4.1412289895444;-0.399749755859375;-0.00682983398437501;3.57999999096137;359;1 A
4.15122898951915;-0.399749755859375;-0.0068359375;3.58999999093612;360;1 A
4.16122898949391;-0.399810791015625;-0.006817626953125;3.59999999091087;361;1 A
4.17122898946866;-0.399688720703125;-0.0068206787109375;3.60999999088563;362;1 A
4.18122898944341;-0.399749755859375;-0.00679626464843749;3.61999999086038;363;1 A
4.19122898941816;-0.399749755859375;-0.00678100585937499;3.62999999083513;364;1 A
4.20122898939292;-0.39971923828125;-0.0067718505859375;3.63999999080988;365;1 A
4.21122898936767;-0.399810791015625;-0.00676574707031249;3.64999999078464;366;1 A
4.22122898934242;-0.399810791015625;-0.0067779541015625;3.65999999075939;367;1 A
4.23122898931717;-0.39971923828125;-0.00677490234375;3.66999999073414;368;1 A
4.24122898929193;-0.39971923828125;-0.00677490234375;3.67999999070889;369;1 A
4.25122898926668;-0.399810791015625;-0.00675354003906251;3.68999999068365;370;1 A
4.26122898924143;-0.399658203125;-0.00673828125000001;3.6999999906584;371;1 A
4.27122898921618;-0.39984130859375;-0.0067108154296875;3.70999999063315;372;1 A
4.28122898919094;-0.399810791015625;-0.0067108154296875;3.7199999906079;373;1 A
4.29122898916569;-0.39971923828125;-0.0066986083984375;3.72999999058266;374;1 A
4.30122898914044;-0.399749755859375;-0.006695556640625;3.73999999055741;375;1 A
4.31122898911519;-0.39984130859375;-0.00669250488281251;3.74999999053216;376;1 A
4.32122898908995;-0.399749755859375;-0.00669250488281251;3.75999999050691;377;1 A
4.3312289890647;-0.399810791015625;-0.0067138671875;3.76999999048167;378;1 A
4.34122898903945;-0.3997802734375;-0.00672302246093751;3.77999999045642;379;1 A
4.3512289890142;-0.399658203125;-0.0067596435546875;3.78999999043117;380;1 A
4.36122898898896;-0.399688720703125;-0.0067779541015625;3.79999999040592;381;1 A
4.37122898896371;-0.39971923828125;-0.00681457519531251;3.80999999038067;382;1 A
4.38122898893846;-0.3997802734375;-0.0068389892578125;3.81999999035543;383;1 A
4.39122898891321;-0.399749755859375;-0.00684509277343751;3.82999999033018;384;1 A
4.40122898888796;-0.3997802734375;-0.0068695068359375;3.83999999030493;385;1 A
4.41122898886272;-0.39971923828125;-0.0068634033203125;3.84999999027968;386;1 A
4.42122898883747;-0.3997802734375;-0.0068817138671875;3.85999999025444;387;1 A
4.43122898881222;-0.399749755859375;-0.0068817138671875;3.86999999022919;388;1 A
4.44122898878697;-0.3997802734375;-0.00689086914062501;3.87999999020394;389;1 A
4.45122898876173;-0.39984130859375;-0.00689086914062501;3.88999999017869;390;1 A
4.46122898873648;-0.3997802734375;-0.00687561035156251;3.89999999015345;391;1 A
4.47122898871123;-0.3997802734375;-0.006884765625;3.9099999901282;392;1 A
4.48122898868598;-0.399688720703125;-0.00688781738281249;3.91999999010295;393;1 A
4.49122898866074;-0.399810791015625;-0.0068939208984375;3.9299999900777;394;1 A
4.50122898863549;-0.39971923828125;-0.00689697265625;3.93999999005246;395;1 A
4.51122898861024;-0.3997802734375;-0.0069000244140625;3.94999999002721;396;1 A
4.52122898858499;-0.399749755859375;-0.00690307617187499;3.95999999000196;397;1 A
4.53122898855975;-0.39971923828125;-0.00690307617187499;3.96999998997671;398;1 A
4.5412289885345;-0.39971923828125;-0.00689697265625;3.97999998995147;399;1 A
4.55122898850925;-0.399810791015625;-0.0068939208984375;3.98999998992622;400;1 A
4.561228988484;-0.3997802734375;-0.006884765625;3.99999998990097;401;1 A
4.57122898845876;-0.399810791015625;-0.006866455078125;4.00999998987572;402;1 A
4.58122898843351;-0.399810791015625;-0.00685729980468749;4.01999998985048;403;1 A
4.59122898840826;-0.39971923828125;-0.0068328857421875;4.02999998982523;404;1 A
4.60122898838301;-0.399749755859375;-0.00681457519531251;4.03999998979998;405;1 A
4.61122898835777;-0.39971923828125;-0.006787109375;4.04999998977473;406;1 A
4.62122898833252;-0.3997802734375;-0.0067718505859375;4.05999998974949;407;1 A
4.63122898830727;-0.399688720703125;-0.0067596435546875;4.06999998972424;408;1 A
4.64122898828202;-0.3997802734375;-0.00673522949218749;4.07999998969899;409;1 A
4.65122898825678;-0.39971923828125;-0.0067291259765625;4.08999998967374;410;1 A
4.66122898823153;-0.39971923828125;-0.00670166015625;4.0999999896485;411;1 A
4.67122898820628;-0.3997802734375;-0.00670166015625;4.10999998962325;412;1 A
4.68122898818103;-0.399688720703125;-0.00668945312499999;4.119999989598;413;1 A
4.69122898815579;-0.39984130859375;-0.00667419433593749;4.12999998957275;414;1 A
4.70122898813054;-0.39971923828125;-0.00667724609375001;4.1399999895475;415;1 A
4.71122898810529;-0.3997802734375;-0.0066558837890625;4.14999998952226;416;1 A
4.72122898808004;-0.39971923828125;-0.00665893554687499;4.15999998949701;417;1 A
4.7312289880548;-0.39971923828125;-0.00664672851562501;4.16999998947176;418;1 A
4.74122898802955;-0.399688720703125;-0.00664367675781249;4.17999998944651;419;1 A
4.7512289880043;-0.399810791015625;-0.0066253662109375;4.18999998942127;420;1 A
4.76122898797905;-0.399749755859375;-0.00661315917968749;4.19999998939602;421;1 A
4.7712289879538;-0.3997802734375;-0.006610107421875;4.20999998937077;422;1 A
4.78122898792856;-0.39971923828125;-0.00660095214843751;4.21999998934552;423;1 A
4.79122898790331;-0.39984130859375;-0.00660095214843751;4.22999998932028;424;1 A
4.80122898787806;-0.399749755859375;-0.00659790039062499;4.23999998929503;425;1 A
4.81122898785281;-0.399810791015625;-0.00660400390625;4.24999998926978;426;1 A
4.82122898782757;-0.399871826171875;-0.006610107421875;4.25999998924453;427;1 A
4.83122898780232;-0.39971923828125;-0.0066253662109375;4.26999998921929;428;1 A
4.84122898777707;-0.399749755859375;-0.00662841796874999;4.27999998919404;429;1 A
4.85122898775182;-0.39971923828125;-0.00663146972656251;4.28999998916879;430;1 A
4.86122898772658;-0.399749755859375;-0.0066253662109375;4.29999998914354;431;1 A
4.87122898770133;-0.39984130859375;-0.00661315917968749;4.3099999891183;432;1 A
4.88122898767608;-0.39984130859375;-0.00661315917968749;4.31999998909305;433;1 A
4.89122898765083;-0.3997802734375;-0.0065948486328125;4.3299999890678;434;1 A
4.90122898762559;-0.399749755859375;-0.0065948486328125;4.33999998904255;435;1 A
4.91122898760034;-0.399749755859375;-0.006573486328125;4.34999998901731;436;1 A
4.92122898757509;-0.399688720703125;-0.00657043457031251;4.35999998899206;437;1 A
4.93122898754984;-0.39984130859375;-0.0065765380859375;4.36999998896681;438;1 A
4.9412289875246;-0.3997802734375;-0.006573486328125;4.37999998894156;439;1 A
4.95122898749935;-0.3997802734375;-0.0065887451171875;4.38999998891632;440;1 A
4.9612289874741;-0.399749755859375;-0.0065887451171875;4.39999998889107;441;1 A
4.97122898744885;-0.399749755859375;-0.00661621093750001;4.40999998886582;442;1 A
4.98122898742361;-0.39971923828125;-0.00661315917968749;4.41999998884057;443;1 A
4.99122898739836;-0.399810791015625;-0.00661621093750001;4.42999998881533;444;1 A
5.00122898737311;-0.39971923828125;-0.00663146972656251;4.43999998879008;445;1 A
5.01122898734786;-0.39971923828125;-0.00662841796874999;4.44999998876483;446;1 A
5.02122898732262;-0.399749755859375;-0.006640625;4.45999998873958;447;1 A
5.03122898729737;-0.39984130859375;-0.00664367675781249;4.46999998871433;448;1 A
5.04122898727212;-0.3997802734375;-0.00666198730468751;4.47999998868909;449;1 A
5.05122898724687;-0.399810791015625;-0.0066680908203125;4.48999998866384;450;1 A
5.06122898722163;-0.39984130859375;-0.00667724609375001;4.49999998863859;451;1 A
5.07122898719638;-0.39971923828125;-0.00669250488281251;4.50999998861334;452;1 A
5.08122898717113;-0.3997802734375;-0.0067108154296875;4.5199999885881;453;1 A
5.09122898714588;-0.399688720703125;-0.00673828125000001;4.52999998856285;454;1 A
5.10122898712063;-0.39971923828125;-0.0067626953125;4.5399999885376;455;1 A
5.11122898709539;-0.399871826171875;-0.0067901611328125;4.54999998851235;456;1 A
5.12122898707014;-0.399810791015625;-0.006805419921875;4.55999998848711;457;1 A
5.13122898704489;-0.39984130859375;-0.00682373046875;4.56999998846186;458;1 A
5.14122898701964;-0.399749755859375;-0.0068359375;4.57999998843661;459;1 A
5.1512289869944;-0.399810791015625;-0.00684509277343751;4.58999998841136;460;1 A
5.16122898696915;-0.399688720703125;-0.0068389892578125;4.59999998838612;461;1 A
5.1712289869439;-0.399810791015625;-0.0068359375;4.60999998836087;462;1 A
5.18122898691865;-0.399749755859375;-0.00684204101562499;4.61999998833562;463;1 A
5.19122898689341;-0.3997802734375;-0.00682373046875;4.62999998831037;464;1 A
5.20122898686816;-0.399749755859375;-0.00682983398437501;4.63999998828513;465;1 A
5.21122898684291;-0.399749755859375;-0.006817626953125;4.64999998825988;466;1 A
5.22122898681766;-0.39971923828125;-0.00682983398437501;4.65999998823463;467;1 A
5.23122898679242;-0.39984130859375;-0.00682373046875;4.66999998820938;468;1 A
5.24122898676717;-0.3997802734375;-0.0068084716796875;4.67999998818414;469;1 A
5.25122898674192;-0.399749755859375;-0.00681457519531251;4.68999998815889;470;1 A
5.26122898671667;-0.399749755859375;-0.00679931640625001;4.69999998813364;471;1 A
5.27122898669143;-0.399749755859375;-0.00681152343749999;4.70999998810839;472;1 A
5.28122898666618;-0.399749755859375;-0.006805419921875;4.71999998808315;473;1 A
5.29122898664093;-0.399810791015625;-0.00681457519531251;4.7299999880579;474;1 A
5.30122898661568;-0.399810791015625;-0.00682983398437501;4.73999998803265;475;1 A
5.31122898659044;-0.3997802734375;-0.0068328857421875;4.7499999880074;476;1 A
5.32122898656519;-0.399688720703125;-0.006854248046875;4.75999998798216;477;1 A
5.33122898653994;-0.39971923828125;-0.00686035156250001;4.76999998795691;478;1 A
5.34122898651469;-0.399749755859375;-0.00687561035156251;4.77999998793166;479;1 A
5.35122898648945;-0.399871826171875;-0.006884765625;4.78999998790641;480;1 A
5.3612289864642;-0.39971923828125;-0.00690307617187499;4.79999998788116;481;1 A
5.37122898643895;-0.399749755859375;-0.0069122314453125;4.80999998785592;482;1 A
5.3812289864137;-0.399688720703125;-0.0069305419921875;4.81999998783067;483;1 A
5.39122898638846;-0.39984130859375;-0.006939697265625;4.82999998780542;484;1 A
5.40122898636321;-0.399688720703125;-0.0069610595703125;4.83999998778017;485;1 A
5.41122898633796;-0.39990234375;-0.0069854736328125;4.84999998775493;486;1 A
5.42122898631271;-0.399749755859375;-0.0070068359375;4.85999998772968;487;1 A
5.43122898628746;-0.399749755859375;-0.00702819824218751;4.86999998770443;488;1 A
5.44122898626222;-0.399688720703125;-0.0070343017578125;4.87999998767918;489;1 A
5.45122898623697;-0.399749755859375;-0.0070465087890625;4.88999998765394;490;1 A
5.46122898621172;-0.399627685546875;-0.00704040527343749;4.89999998762869;491;1 A
5.47122898618647;-0.3997802734375;-0.00703125;4.90999998760344;492;1 A
5.48122898616123;-0.399749755859375;-0.00702819824218751;4.91999998757819;493;1 A
5.49122898613598;-0.399688720703125;-0.00699462890624999;4.92999998755295;494;1 A
5.50122898611073;-0.39971923828125;-0.0069854736328125;4.9399999875277;495;1 A
5.51122898608548;-0.3997802734375;-0.0069549560546875;4.94999998750245;496;1 A
5.52122898606024;-0.399749755859375;-0.00694580078125;4.9599999874772;497;1 A
5.53122898603499;-0.399749755859375;-0.00692138671875001;4.96999998745196;498;1 A
5.54122898600974;-0.399749755859375;-0.0068939208984375;4.97999998742671;499;1 A
5.55122898598449;-0.39971923828125;-0.006878662109375;4.98999998740146;500;1 A
5.56122898595925;-0.399658203125;-0.0068511962890625;4.99999998737621;501;1 A
5.571228985934;-0.3997802734375;-0.0068511962890625;5.00999998735097;502;1 A
5.58122898590875;-0.399749755859375;-0.00684204101562499;5.01999998732572;503;1 A
5.5912289858835;-0.3997802734375;-0.006854248046875;5.02999998730047;504;1 A
5.60122898585826;-0.3997802734375;-0.006866455078125;5.03999998727522;505;1 A
5.61122898583301;-0.3997802734375;-0.0068695068359375;5.04999998724998;506;1 A
5.62122898580776;-0.399688720703125;-0.0068939208984375;5.05999998722473;507;1 A
5.63122898578251;-0.3997802734375;-0.0069000244140625;5.06999998719948;508;1 A
5.64122898575727;-0.39971923828125;-0.00690612792968751;5.07999998717423;509;1 A
5.65122898573202;-0.399871826171875;-0.00690307617187499;5.08999998714899;510;1 A
5.66122898570677;-0.399749755859375;-0.00690307617187499;5.09999998712374;511;1 A
5.67122898568152;-0.3997802734375;-0.00689086914062501;5.10999998709849;512;1 A
5.68122898565628;-0.39971923828125;-0.00689086914062501;5.11999998707324;513;1 A
5.69122898563103;-0.39984130859375;-0.006878662109375;5.129999987048;514;1 A
5.70122898560578;-0.399810791015625;-0.00687561035156251;5.13999998702275;515;1 A
5.71122898558053;-0.399749755859375;-0.00687561035156251;5.1499999869975;516;1 A
5.72122898555529;-0.39971923828125;-0.00687255859374999;5.15999998697225;517;1 A
5.73122898553004;-0.39971923828125;-0.00687561035156251;5.169999986947;518;1 A
5.74122898550479;-0.39971923828125;-0.0068634033203125;5.17999998692176;519;1 A
5.75122898547954;-0.399810791015625;-0.00687561035156251;5.18999998689651;520;1 A
5.7612289854543;-0.399749755859375;-0.006866455078125;5.19999998687126;521;1 A
5.77122898542905;-0.39984130859375;-0.006878662109375;5.20999998684601;522;1 A
5.7812289854038;-0.3997802734375;-0.00689086914062501;5.21999998682077;523;1 A
5.79122898537855;-0.39971923828125;-0.00688781738281249;5.22999998679552;524;1 A
5.8012289853533;-0.399688720703125;-0.00691833496093749;5.23999998677027;525;1 A
5.81122898532806;-0.399749755859375;-0.00692138671875001;5.24999998674502;526;1 A
5.82122898530281;-0.399749755859375;-0.00693664550781251;5.25999998671978;527;1 A
5.83122898527756;-0.399810791015625;-0.0069305419921875;5.26999998669453;528;1 A
5.84122898525231;-0.3997802734375;-0.00693359374999999;5.27999998666928;529;1 A
5.85122898522707;-0.399749755859375;-0.006927490234375;5.28999998664403;530;1 A
5.86122898520182;-0.39971923828125;-0.0069244384765625;5.29999998661879;531;1 A
5.87122898517657;-0.399810791015625;-0.0069305419921875;5.30999998659354;532;1 A
5.88122898515132;-0.39971923828125;-0.0069244384765625;5.31999998656829;533;1 A
5.89122898512608;-0.399810791015625;-0.00693359374999999;5.32999998654304;534;1 A
5.90122898510083;-0.399749755859375;-0.00693359374999999;5.3399999865178;535;1 A
5.91122898507558;-0.3997802734375;-0.0069305419921875;5.34999998649255;536;1 A
5.92122898505033;-0.399749755859375;-0.00693664550781251;5.3599999864673;537;1 A
5.93122898502509;-0.399810791015625;-0.006939697265625;5.36999998644205;538;1 A
5.94122898499984;-0.399749755859375;-0.006939697265625;5.37999998641681;539;1 A
5.95122898497459;-0.3997802734375;-0.00693359374999999;5.38999998639156;540;1 A
5.96122898494934;-0.399749755859375;-0.006927490234375;5.39999998636631;541;1 A
5.9712289849241;-0.399688720703125;-0.0069122314453125;5.40999998634106;542;1 A
5.98122898489885;-0.399688720703125;-0.00690612792968751;5.41999998631582;543;1 A
5.9912289848736;-0.39971923828125;-0.00688781738281249;5.42999998629057;544;1 A
6.00122898484835;-0.399810791015625;-0.006878662109375;5.43999998626532;545;1 A
6.01122898482311;-0.3997802734375;-0.006854248046875;5.44999998624007;546;1 A
6.02122898479786;-0.39971923828125;-0.00684509277343751;5.45999998621483;547;1 A
6.03122898477261;-0.39971923828125;-0.0068389892578125;5.46999998618958;548;1 A
6.04122898474736;-0.3997802734375;-0.00681457519531251;5.47999998616433;549;1 A
6.05122898472212;-0.3997802734375;-0.0068206787109375;5.48999998613908;550;1 A
6.06122898469687;-0.399688720703125;-0.00679931640625001;5.49999998611383;551;1 A
6.07122898467162;-0.399749755859375;-0.0068023681640625;5.50999998608859;552;1 A
6.08122898464637;-0.399810791015625;-0.006805419921875;5.51999998606334;553;1 A
6.09122898462113;-0.399871826171875;-0.0067901611328125;5.52999998603809;554;1 A
6.10122898459588;-0.399658203125;-0.00679626464843749;5.53999998601284;555;1 A
6.11122898457063;-0.399749755859375;-0.0067779541015625;5.5499999859876;556;1 A
6.12122898454538;-0.39971923828125;-0.006787109375;5.55999998596235;557;1 A
6.13122898452013;-0.39971923828125;-0.00677490234375;5.5699999859371;558;1 A
6.14122898449489;-0.39971923828125;-0.00678100585937499;5.57999998591185;559;1 A
6.15122898446964;-0.3997802734375;-0.00678405761718751;5.58999998588661;560;1 A
6.16122898444439;-0.399688720703125;-0.0067779541015625;5.59999998586136;561;1 A
6.17122898441914;-0.3997802734375;-0.006787109375;5.60999998583611;562;1 A
6.1812289843939;-0.399749755859375;-0.00678100585937499;5.61999998581086;563;1 A
6.19122898436865;-0.39984130859375;-0.006787109375;5.62999998578562;564;1 A
6.2012289843434;-0.3997802734375;-0.00678405761718751;5.63999998576037;565;1 A
6.21122898431815;-0.399688720703125;-0.00679626464843749;5.64999998573512;566;1 A
6.22122898429291;-0.39971923828125;-0.006805419921875;5.65999998570987;567;1 A
6.23122898426766;-0.3997802734375;-0.00681152343749999;5.66999998568463;568;1 A
6.24122898424241;-0.3997802734375;-0.0068084716796875;5.67999998565938;569;1 A
6.25122898421716;-0.399810791015625;-0.00679626464843749;5.68999998563413;570;1 A
6.26122898419192;-0.39971923828125;-0.00679626464843749;5.69999998560888;571;1 A
6.27122898416667;-0.399810791015625;-0.00678405761718751;5.70999998558364;572;1 A
6.28122898414142;-0.39971923828125;-0.0067901611328125;5.71999998555839;573;1 A
6.29122898411617;-0.39984130859375;-0.00677490234375;5.72999998553314;574;1 A
6.30122898409093;-0.399688720703125;-0.00677490234375;5.73999998550789;575;1 A
6.31122898406568;-0.3997802734375;-0.006756591796875;5.74999998548265;576;1 A
6.32122898404043;-0.399749755859375;-0.00673828125000001;5.7599999854574;577;1 A
6.33122898401518;-0.399810791015625;-0.0067169189453125;5.76999998543215;578;1 A
6.34122898398994;-0.399688720703125;-0.00669250488281251;5.7799999854069;579;1 A
6.35122898396469;-0.399810791015625;-0.00669250488281251;5.78999998538166;580;1 A
6.36122898393944;-0.399658203125;-0.006671142578125;5.79999998535641;581;1 A
6.37122898391419;-0.39984130859375;-0.006671142578125;5.80999998533116;582;1 A
6.38122898388895;-0.399749755859375;-0.0066558837890625;5.81999998530591;583;1 A
6.3912289838637;-0.39984130859375;-0.006640625;5.82999998528066;584;1 A
6.40122898383845;-0.399749755859375;-0.006640625;5.83999998525542;585;1 A
6.4112289838132;-0.399810791015625;-0.0066253662109375;5.84999998523017;586;1 A
6.42122898378796;-0.399749755859375;-0.00663146972656251;5.85999998520492;587;1 A
6.43122898376271;-0.3997802734375;-0.0066253662109375;5.86999998517967;588;1 A
6.44122898373746;-0.399810791015625;-0.0066253662109375;5.87999998515443;589;1 A
6.45122898371221;-0.39971923828125;-0.006610107421875;5.88999998512918;590;1 A
6.46122898368696;-0.39971923828125;-0.00660400390625;5.89999998510393;591;1 A
6.47122898366172;-0.399749755859375;-0.00659790039062499;5.90999998507868;592;1 A
6.48122898363647;-0.399749755859375;-0.00660095214843751;5.91999998505344;593;1 A
6.49122898361122;-0.399871826171875;-0.0066192626953125;5.92999998502819;594;1 A
6.50122898358597;-0.399749755859375;-0.006634521484375;5.93999998500294;595;1 A
6.51122898356073;-0.399749755859375;-0.00665893554687499;5.94999998497769;596;1 A
6.52122898353548;-0.399658203125;-0.006683349609375;5.95999998495245;597;1 A
6.53122898351023;-0.3997802734375;-0.0067169189453125;5.9699999849272;598;1 A
6.54122898348498;-0.39971923828125;-0.00673522949218749;5.97999998490195;599;1 A
6.55122898345974;-0.399810791015625;-0.00675048828124999;5.9899999848767;600;1 A
6.56122898343449;-0.399810791015625;-0.00676879882812501;5.99999998485146;601;1 A
6.57122898340924;-0.3997802734375;-0.00678405761718751;6.00999998482621;602;1 A
6.58122898338399;-0.399688720703125;-0.00679931640625001;6.01999998480096;603;1 A
6.59122898335875;-0.3997802734375;-0.00679626464843749;6.02999998477571;604;1 A
6.6012289833335;-0.399749755859375;-0.00681457519531251;6.03999998475047;605;1 A
6.61122898330825;-0.399810791015625;-0.0068084716796875;6.04999998472522;606;1 A
6.621228983283;-0.39971923828125;-0.00682373046875;6.05999998469997;607;1 A
6.63122898325776;-0.3997802734375;-0.00682983398437501;6.06999998467472;608;1 A
6.64122898323251;-0.39971923828125;-0.0068328857421875;6.07999998464948;609;1 A
6.65122898320726;-0.3997802734375;-0.00685729980468749;6.08999998462423;610;1 A
6.66122898318201;-0.399749755859375;-0.00685729980468749;6.09999998459898;611;1 A
6.67122898315677;-0.399810791015625;-0.00689086914062501;6.10999998457373;612;1 A
6.68122898313152;-0.3997802734375;-0.0069000244140625;6.11999998454849;613;1 A
6.69122898310627;-0.399688720703125;-0.00690307617187499;6.12999998452324;614;1 A
6.70122898308102;-0.399688720703125;-0.0069244384765625;6.13999998449799;615;1 A
6.71122898305578;-0.399658203125;-0.006927490234375;6.14999998447274;616;1 A
6.72122898303053;-0.399810791015625;-0.00693359374999999;6.1599999844475;617;1 A
6.73122898300528;-0.399749755859375;-0.00691833496093749;6.16999998442225;618;1 A
6.74122898298003;-0.3997802734375;-0.0069091796875;6.179999984397;619;1 A
6.75122898295479;-0.3997802734375;-0.0068817138671875;6.18999998437175;620;1 A
6.76122898292954;-0.39971923828125;-0.006866455078125;6.1999999843465;621;1 A
6.77122898290429;-0.3997802734375;-0.00684814453125;6.20999998432126;622;1 A
6.78122898287904;-0.3997802734375;-0.0068359375;6.21999998429601;623;1 A
6.7912289828538;-0.399810791015625;-0.00682983398437501;6.22999998427076;624;1 A
6.80122898282855;-0.399810791015625;-0.00682678222656249;6.23999998424551;625;1 A
6.8112289828033;-0.399810791015625;-0.00682373046875;6.24999998422027;626;1 A
6.82122898277805;-0.399688720703125;-0.00682983398437501;6.25999998419502;627;1 A
6.8312289827528;-0.3997802734375;-0.0068389892578125;6.26999998416977;628;1 A
6.84122898272756;-0.399658203125;-0.0068389892578125;6.27999998414452;629;1 A
6.85122898270231;-0.3997802734375;-0.0068511962890625;6.28999998411928;630;1 A
6.86122898267706;-0.399749755859375;-0.0068511962890625;6.29999998409403;631;1 A
6.87122898265181;-0.39984130859375;-0.00684814453125;6.30999998406878;632;1 A
6.88122898262657;-0.399658203125;-0.00684814453125;6.31999998404353;633;1 A
6.89122898260132;-0.39984130859375;-0.0068328857421875;6.32999998401829;634;1 A
6.90122898257607;-0.3997802734375;-0.00684204101562499;6.33999998399304;635;1 A
6.91122898255082;-0.399749755859375;-0.00682373046875;6.34999998396779;636;1 A
6.92122898252558;-0.3997802734375;-0.0068328857421875;6.35999998394254;637;1 A
6.93122898250033;-0.399688720703125;-0.0068328857421875;6.3699999839173;638;1 A
6.94122898247508;-0.399688720703125;-0.0068359375;6.37999998389205;639;1 A
6.95122898244983;-0.39971923828125;-0.00684204101562499;6.3899999838668;640;1 A
6.96122898242459;-0.399749755859375;-0.0068206787109375;6.39999998384155;641;1 A
6.97122898239934;-0.39984130859375;-0.0068328857421875;6.40999998381631;642;1 A
6.98122898237409;-0.3997802734375;-0.0068206787109375;6.41999998379106;643;1 A
6.99122898234884;-0.39971923828125;-0.0068084716796875;6.42999998376581;644;1 A
7.0012289823236;-0.399688720703125;-0.006805419921875;6.43999998374056;645;1 A
7.01122898229835;-0.399749755859375;-0.00679626464843749;6.44999998371532;646;1 A
7.0212289822731;-0.399688720703125;-0.00679626464843749;6.45999998369007;647;1 A
7.03122898224785;-0.399810791015625;-0.006787109375;6.46999998366482;648;1 A
7.04122898222261;-0.3997802734375;-0.0067901611328125;6.47999998363957;649;1 A
7.05122898219736;-0.39984130859375;-0.00677490234375;6.48999998361433;650;1 A
7.06122898217211;-0.399658203125;-0.0067779541015625;6.49999998358908;651;1 A
7.07122898214686;-0.399749755859375;-0.0067718505859375;6.50999998356383;652;1 A
7.08122898212162;-0.39971923828125;-0.00676879882812501;6.51999998353858;653;1 A
7.09122898209637;-0.3997802734375;-0.0067596435546875;6.52999998351333;654;1 A
7.10122898207112;-0.399749755859375;-0.00675354003906251;6.53999998348809;655;1 A
7.11122898204587;-0.399749755859375;-0.0067474365234375;6.54999998346284;656;1 A
7.12122898202063;-0.399658203125;-0.00673522949218749;6.55999998343759;657;1 A
7.13122898199538;-0.399810791015625;-0.00673522949218749;6.56999998341234;658;1 A
7.14122898197013;-0.39971923828125;-0.0067169189453125;6.5799999833871;659;1 A
7.15122898194488;-0.399810791015625;-0.00671997070312499;6.58999998336185;660;1 A
7.16122898191963;-0.399810791015625;-0.0067138671875;6.5999999833366;661;1 A
7.17122898189439;-0.39971923828125;-0.0067138671875;6.60999998331135;662;1 A
7.18122898186914;-0.399658203125;-0.0067291259765625;6.61999998328611;663;1 A
7.19122898184389;-0.39971923828125;-0.00671997070312499;6.62999998326086;664;1 A
7.20122898181864;-0.399749755859375;-0.00672607421875;6.63999998323561;665;1 A
7.2112289817934;-0.39984130859375;-0.00670471191406249;6.64999998321036;666;1 A
7.22122898176815;-0.3997802734375;-0.00670776367187501;6.65999998318512;667;1 A
7.2312289817429;-0.3997802734375;-0.00668945312499999;6.66999998315987;668;1 A
7.24122898171765;-0.399749755859375;-0.00667419433593749;6.67999998313462;669;1 A
7.25122898169241;-0.399749755859375;-0.006671142578125;6.68999998310937;670;1 A
7.26122898166716;-0.399688720703125;-0.0066558837890625;6.69999998308413;671;1 A
7.27122898164191;-0.3997802734375;-0.006671142578125;6.70999998305888;672;1 A
7.28122898161666;-0.399749755859375;-0.006671142578125;6.71999998303363;673;1 A
7.29122898159142;-0.399871826171875;-0.0066802978515625;6.72999998300838;674;1 A
7.30122898156617;-0.399658203125;-0.006695556640625;6.73999998298314;675;1 A
7.31122898154092;-0.399810791015625;-0.00670776367187501;6.74999998295789;676;1 A
7.32122898151567;-0.39971923828125;-0.0067138671875;6.75999998293264;677;1 A
7.33122898149043;-0.399749755859375;-0.0067138671875;6.76999998290739;678;1 A
7.34122898146518;-0.399658203125;-0.0067169189453125;6.77999998288215;679;1 A
7.35122898143993;-0.399749755859375;-0.00670166015625;6.7899999828569;680;1 A
7.36122898141468;-0.399749755859375;-0.0066864013671875;6.79999998283165;681;1 A
7.37122898138944;-0.3997802734375;-0.0066680908203125;6.8099999828064;682;1 A
7.38122898136419;-0.399749755859375;-0.00665283203125;6.81999998278116;683;1 A
7.39122898133894;-0.3997802734375;-0.00663146972656251;6.82999998275591;684;1 A
7.40122898131369;-0.3997802734375;-0.0066253662109375;6.83999998273066;685;1 A
7.41122898128845;-0.3997802734375;-0.00661315917968749;6.84999998270541;686;1 A
7.4212289812632;-0.399627685546875;-0.006610107421875;6.85999998268016;687;1 A
7.43122898123795;-0.399749755859375;-0.00661315917968749;6.86999998265492;688;1 A
7.4412289812127;-0.399749755859375;-0.0065948486328125;6.87999998262967;689;1 A
7.45122898118746;-0.39971923828125;-0.0066070556640625;6.88999998260442;690;1 A
7.46122898116221;-0.399749755859375;-0.0065948486328125;6.89999998257917;691;1 A
7.47122898113696;-0.39971923828125;-0.00658569335937501;6.90999998255393;692;1 A
7.48122898111171;-0.399658203125;-0.00658264160156249;6.91999998252868;693;1 A
7.49122898108646;-0.39971923828125;-0.00656738281249999;6.92999998250343;694;1 A
7.50122898106122;-0.39971923828125;-0.006573486328125;6.93999998247818;695;1 A
7.51122898103597;-0.3997802734375;-0.006561279296875;6.94999998245294;696;1 A
7.52122898101072;-0.39971923828125;-0.00657958984375;6.95999998242769;697;1 A
7.53122898098547;-0.399810791015625;-0.00657958984375;6.96999998240244;698;1 A
7.54122898096023;-0.39971923828125;-0.0065948486328125;6.97999998237719;699;1 A
7.55122898093498;-0.3997802734375;-0.00660400390625;6.98999998235195;700;1 A
