Time (s);WE(1).Potential (V);WE(1).Current (A);Corrected time (s);Index;Current range
15.9286009597841;-0.5997314453125;-0.00970458984375;0;1;1 A
15.9386009597589;-0.599700927734375;-0.00871887207031249;0.00999999997475243;2;1 A
15.9486009597337;-0.599761962890625;-0.008258056640625;0.0199999999495049;3;1 A
15.9586009597084;-0.599761962890625;-0.00800170898437499;0.0299999999242573;4;1 A
15.9686009596832;-0.59979248046875;-0.00783386230468749;0.0399999998990097;5;1 A
15.9786009596579;-0.599700927734375;-0.00769958496093751;0.0499999998737621;6;1 A
15.9886009596327;-0.59979248046875;-0.007598876953125;0.0599999998485146;7;1 A
15.9986009596074;-0.599761962890625;-0.0075103759765625;0.069999999823267;8;1 A
16.0086009595822;-0.59967041015625;-0.007427978515625;0.0799999997980194;9;1 A
16.0186009595569;-0.59979248046875;-0.0073822021484375;0.0899999997727718;10;1 A
16.0286009595317;-0.5997314453125;-0.00731506347656249;0.0999999997475243;11;1 A
16.0386009595064;-0.5997314453125;-0.0072601318359375;0.109999999722277;12;1 A
16.0486009594812;-0.599761962890625;-0.0072052001953125;0.119999999697029;13;1 A
16.0586009594559;-0.59979248046875;-0.00713500976562501;0.129999999671782;14;1 A
16.0686009594307;-0.599761962890625;-0.0071075439453125;0.139999999646534;15;1 A
16.0786009594054;-0.599700927734375;-0.0070648193359375;0.149999999621286;16;1 A
16.0886009593802;-0.5997314453125;-0.0070526123046875;0.159999999596039;17;1 A
16.0986009593549;-0.5997314453125;-0.00701904296875;0.169999999570791;18;1 A
16.1086009593297;-0.599853515625;-0.00698242187500001;0.179999999545544;19;1 A
16.1186009593044;-0.599761962890625;-0.00696716308593751;0.189999999520296;20;1 A
16.1286009592792;-0.59979248046875;-0.0069305419921875;0.199999999495049;21;1 A
16.1386009592539;-0.59979248046875;-0.00694885253906249;0.209999999469801;22;1 A
16.1486009592287;-0.599822998046875;-0.006939697265625;0.219999999444553;23;1 A
16.1586009592035;-0.599761962890625;-0.0069305419921875;0.229999999419306;24;1 A
16.1686009591782;-0.5997314453125;-0.0069244384765625;0.239999999394058;25;1 A
16.178600959153;-0.59967041015625;-0.0069000244140625;0.249999999368811;26;1 A
16.1886009591277;-0.599761962890625;-0.006915283203125;0.259999999343563;27;1 A
16.1986009591025;-0.59979248046875;-0.0069305419921875;0.269999999318316;28;1 A
16.2086009590772;-0.59979248046875;-0.0069549560546875;0.279999999293068;29;1 A
16.218600959052;-0.5997314453125;-0.0069580078125;0.28999999926782;30;1 A
16.2286009590267;-0.599761962890625;-0.0069580078125;0.299999999242573;31;1 A
16.2386009590015;-0.599761962890625;-0.00696716308593751;0.309999999217325;32;1 A
16.2486009589762;-0.5997314453125;-0.006988525390625;0.319999999192078;33;1 A
16.258600958951;-0.599700927734375;-0.00700988769531249;0.32999999916683;34;1 A
16.2686009589257;-0.5997314453125;-0.00702514648437499;0.339999999141583;35;1 A
16.2786009589005;-0.599761962890625;-0.00701904296875;0.349999999116335;36;1 A
16.2886009588752;-0.5997314453125;-0.00700988769531249;0.359999999091087;37;1 A
16.29860095885;-0.599761962890625;-0.0070068359375;0.36999999906584;38;1 A
16.3086009588247;-0.599761962890625;-0.0069915771484375;0.379999999040592;39;1 A
16.3186009587995;-0.599761962890625;-0.0070159912109375;0.389999999015345;40;1 A
16.3286009587742;-0.599761962890625;-0.007000732421875;0.399999998990097;41;1 A
16.338600958749;-0.599761962890625;-0.0070037841796875;0.40999999896485;42;1 A
16.3486009587238;-0.599700927734375;-0.00699462890624999;0.419999998939602;43;1 A
16.3586009586985;-0.599761962890625;-0.0069732666015625;0.429999998914354;44;1 A
16.3686009586733;-0.599761962890625;-0.006988525390625;0.439999998889107;45;1 A
16.378600958648;-0.5997314453125;-0.006976318359375;0.449999998863859;46;1 A
16.3886009586228;-0.5997314453125;-0.0069854736328125;0.459999998838612;47;1 A
16.3986009585975;-0.59979248046875;-0.00696411132812499;0.469999998813364;48;1 A
16.4086009585723;-0.599761962890625;-0.006927490234375;0.479999998788116;49;1 A
16.418600958547;-0.599700927734375;-0.0069122314453125;0.489999998762869;50;1 A
16.4286009585218;-0.599761962890625;-0.00687561035156251;0.499999998737621;51;1 A
16.4386009584965;-0.599761962890625;-0.0069000244140625;0.509999998712374;52;1 A
16.4486009584713;-0.599700927734375;-0.00689086914062501;0.519999998687126;53;1 A
16.458600958446;-0.59979248046875;-0.00688781738281249;0.529999998661879;54;1 A
16.4686009584208;-0.5997314453125;-0.00688781738281249;0.539999998636631;55;1 A
16.4786009583955;-0.59979248046875;-0.0068634033203125;0.549999998611383;56;1 A
16.4886009583703;-0.599761962890625;-0.006866455078125;0.559999998586136;57;1 A
16.498600958345;-0.5997314453125;-0.00685729980468749;0.569999998560888;58;1 A
16.5086009583198;-0.599761962890625;-0.006854248046875;0.579999998535641;59;1 A
16.5186009582945;-0.59979248046875;-0.00684509277343751;0.589999998510393;60;1 A
16.5286009582693;-0.5997314453125;-0.0068206787109375;0.599999998485146;61;1 A
16.538600958244;-0.59979248046875;-0.00681152343749999;0.609999998459898;62;1 A
16.5486009582188;-0.599822998046875;-0.00681152343749999;0.61999999843465;63;1 A
16.5586009581936;-0.599761962890625;-0.006817626953125;0.629999998409403;64;1 A
16.5686009581683;-0.599822998046875;-0.0068206787109375;0.639999998384155;65;1 A
16.5786009581431;-0.59967041015625;-0.0068023681640625;0.649999998358908;66;1 A
16.5886009581178;-0.59979248046875;-0.0067901611328125;0.65999999833366;67;1 A
16.5986009580926;-0.599639892578125;-0.00676879882812501;0.669999998308413;68;1 A
16.6086009580673;-0.59979248046875;-0.0067474365234375;0.679999998283165;69;1 A
16.6186009580421;-0.599761962890625;-0.0067626953125;0.689999998257917;70;1 A
16.6286009580168;-0.5997314453125;-0.0067413330078125;0.69999999823267;71;1 A
16.6386009579916;-0.59979248046875;-0.00673828125000001;0.709999998207422;72;1 A
16.6486009579663;-0.5997314453125;-0.00672607421875;0.719999998182175;73;1 A
16.6586009579411;-0.599761962890625;-0.00670776367187501;0.729999998156927;74;1 A
16.6686009579158;-0.599700927734375;-0.00671997070312499;0.73999999813168;75;1 A
16.6786009578906;-0.599822998046875;-0.0067138671875;0.749999998106432;76;1 A
16.6886009578653;-0.5997314453125;-0.0067474365234375;0.759999998081184;77;1 A
16.6986009578401;-0.599761962890625;-0.006744384765625;0.769999998055937;78;1 A
16.7086009578148;-0.599761962890625;-0.0067413330078125;0.779999998030689;79;1 A
16.7186009577896;-0.59979248046875;-0.0067413330078125;0.789999998005442;80;1 A
16.7286009577643;-0.599761962890625;-0.0067291259765625;0.799999997980194;81;1 A
16.7386009577391;-0.599700927734375;-0.006756591796875;0.809999997954947;82;1 A
16.7486009577138;-0.59979248046875;-0.006756591796875;0.819999997929699;83;1 A
16.7586009576886;-0.599761962890625;-0.0067596435546875;0.829999997904451;84;1 A
16.7686009576634;-0.5997314453125;-0.006756591796875;0.839999997879204;85;1 A
16.7786009576381;-0.599700927734375;-0.0067474365234375;0.849999997853956;86;1 A
16.7886009576129;-0.59979248046875;-0.00675354003906251;0.859999997828709;87;1 A
16.7986009575876;-0.599761962890625;-0.00677490234375;0.869999997803461;88;1 A
16.8086009575624;-0.599822998046875;-0.0067779541015625;0.879999997778214;89;1 A
16.8186009575371;-0.59979248046875;-0.0067718505859375;0.889999997752966;90;1 A
16.8286009575119;-0.599761962890625;-0.006756591796875;0.899999997727718;91;1 A
16.8386009574866;-0.5997314453125;-0.00675048828124999;0.909999997702471;92;1 A
16.8486009574614;-0.59979248046875;-0.0067596435546875;0.919999997677223;93;1 A
16.8586009574361;-0.599761962890625;-0.0067626953125;0.929999997651976;94;1 A
16.8686009574109;-0.59979248046875;-0.006793212890625;0.939999997626728;95;1 A
16.8786009573856;-0.599761962890625;-0.00678405761718751;0.949999997601481;96;1 A
16.8886009573604;-0.599761962890625;-0.006793212890625;0.959999997576233;97;1 A
16.8986009573351;-0.599761962890625;-0.00679626464843749;0.969999997550985;98;1 A
16.9086009573099;-0.599700927734375;-0.00678100585937499;0.979999997525738;99;1 A
16.9186009572846;-0.599761962890625;-0.006805419921875;0.98999999750049;100;1 A
16.9286009572594;-0.599700927734375;-0.0067779541015625;0.999999997475243;101;1 A
16.9386009572341;-0.59979248046875;-0.0067779541015625;1.00999999745;102;1 A
16.9486009572089;-0.599700927734375;-0.00676574707031249;1.01999999742475;103;1 A
16.9586009571836;-0.599761962890625;-0.00675048828124999;1.0299999973995;104;1 A
16.9686009571584;-0.599761962890625;-0.0067626953125;1.03999999737425;105;1 A
16.9786009571332;-0.599761962890625;-0.006756591796875;1.049999997349;106;1 A
16.9886009571079;-0.5997314453125;-0.00677490234375;1.05999999732376;107;1 A
16.9986009570827;-0.599700927734375;-0.00676574707031249;1.06999999729851;108;1 A
17.0086009570574;-0.599761962890625;-0.00676574707031249;1.07999999727326;109;1 A
17.0186009570322;-0.599700927734375;-0.00676879882812501;1.08999999724801;110;1 A
17.0286009570069;-0.59979248046875;-0.00677490234375;1.09999999722277;111;1 A
17.0386009569817;-0.599700927734375;-0.0068206787109375;1.10999999719752;112;1 A
17.0486009569564;-0.59979248046875;-0.00684814453125;1.11999999717227;113;1 A
17.0586009569312;-0.5997314453125;-0.00687255859374999;1.12999999714702;114;1 A
17.0686009569059;-0.599822998046875;-0.00689086914062501;1.13999999712178;115;1 A
17.0786009568807;-0.59979248046875;-0.00689086914062501;1.14999999709653;116;1 A
17.0886009568554;-0.5997314453125;-0.0069091796875;1.15999999707128;117;1 A
17.0986009568302;-0.5997314453125;-0.0069244384765625;1.16999999704603;118;1 A
17.1086009568049;-0.5997314453125;-0.00692138671875001;1.17999999702079;119;1 A
17.1186009567797;-0.599822998046875;-0.0069122314453125;1.18999999699554;120;1 A
17.1286009567544;-0.59979248046875;-0.0068817138671875;1.19999999697029;121;1 A
17.1386009567292;-0.59979248046875;-0.0068634033203125;1.20999999694504;122;1 A
17.1486009567039;-0.59967041015625;-0.00686035156250001;1.2199999969198;123;1 A
17.1586009566787;-0.5997314453125;-0.00684204101562499;1.22999999689455;124;1 A
17.1686009566534;-0.599700927734375;-0.00684814453125;1.2399999968693;125;1 A
17.1786009566282;-0.5997314453125;-0.00682678222656249;1.24999999684405;126;1 A
17.188600956603;-0.599700927734375;-0.00682373046875;1.25999999681881;127;1 A
17.1986009565777;-0.599822998046875;-0.00681457519531251;1.26999999679356;128;1 A
17.2086009565525;-0.59979248046875;-0.006793212890625;1.27999999676831;129;1 A
17.2186009565272;-0.599761962890625;-0.0068206787109375;1.28999999674306;130;1 A
17.228600956502;-0.599761962890625;-0.00679626464843749;1.29999999671782;131;1 A
17.2386009564767;-0.599639892578125;-0.00681152343749999;1.30999999669257;132;1 A
17.2486009564515;-0.59979248046875;-0.00679626464843749;1.31999999666732;133;1 A
17.2586009564262;-0.599700927734375;-0.006787109375;1.32999999664207;134;1 A
17.268600956401;-0.599822998046875;-0.0067901611328125;1.33999999661683;135;1 A
17.2786009563757;-0.59979248046875;-0.00678100585937499;1.34999999659158;136;1 A
17.2886009563505;-0.599853515625;-0.0068023681640625;1.35999999656633;137;1 A
17.2986009563252;-0.599761962890625;-0.006787109375;1.36999999654108;138;1 A
17.3086009563;-0.5997314453125;-0.00678100585937499;1.37999999651583;139;1 A
17.3186009562747;-0.599700927734375;-0.0067718505859375;1.38999999649059;140;1 A
17.3286009562495;-0.599700927734375;-0.00676574707031249;1.39999999646534;141;1 A
17.3386009562242;-0.599761962890625;-0.00678100585937499;1.40999999644009;142;1 A
17.348600956199;-0.599700927734375;-0.0067718505859375;1.41999999641484;143;1 A
17.3586009561737;-0.599761962890625;-0.00675354003906251;1.4299999963896;144;1 A
17.3686009561485;-0.599700927734375;-0.00672607421875;1.43999999636435;145;1 A
17.3786009561233;-0.5997314453125;-0.00669250488281251;1.4499999963391;146;1 A
17.388600956098;-0.599761962890625;-0.0066802978515625;1.45999999631385;147;1 A
17.3986009560728;-0.5997314453125;-0.00668945312499999;1.46999999628861;148;1 A
17.4086009560475;-0.599700927734375;-0.006683349609375;1.47999999626336;149;1 A
17.4186009560223;-0.59967041015625;-0.0066864013671875;1.48999999623811;150;1 A
17.428600955997;-0.599761962890625;-0.0066650390625;1.49999999621286;151;1 A
17.4386009559718;-0.5997314453125;-0.0066680908203125;1.50999999618762;152;1 A
17.4486009559465;-0.599822998046875;-0.0066680908203125;1.51999999616237;153;1 A
17.4586009559213;-0.599761962890625;-0.00666198730468751;1.52999999613712;154;1 A
17.468600955896;-0.599761962890625;-0.00667419433593749;1.53999999611187;155;1 A
17.4786009558708;-0.599761962890625;-0.0066558837890625;1.54999999608663;156;1 A
17.4886009558455;-0.599822998046875;-0.00665893554687499;1.55999999606138;157;1 A
17.4986009558203;-0.599700927734375;-0.00666198730468751;1.56999999603613;158;1 A
17.508600955795;-0.59979248046875;-0.00665893554687499;1.57999999601088;159;1 A
17.5186009557698;-0.5997314453125;-0.0066986083984375;1.58999999598564;160;1 A
17.5286009557445;-0.599761962890625;-0.0066986083984375;1.59999999596039;161;1 A
17.5386009557193;-0.59979248046875;-0.0067291259765625;1.60999999593514;162;1 A
17.548600955694;-0.5997314453125;-0.00673522949218749;1.61999999590989;163;1 A
17.5586009556688;-0.599761962890625;-0.00673828125000001;1.62999999588465;164;1 A
17.5686009556435;-0.599761962890625;-0.00675048828124999;1.6399999958594;165;1 A
17.5786009556183;-0.5997314453125;-0.006756591796875;1.64999999583415;166;1 A
17.5886009555931;-0.5997314453125;-0.00678100585937499;1.6599999958089;167;1 A
17.5986009555678;-0.5997314453125;-0.0067718505859375;1.66999999578366;168;1 A
17.6086009555426;-0.599761962890625;-0.00676879882812501;1.67999999575841;169;1 A
17.6186009555173;-0.5997314453125;-0.0067718505859375;1.68999999573316;170;1 A
17.6286009554921;-0.5997314453125;-0.00677490234375;1.69999999570791;171;1 A
17.6386009554668;-0.59979248046875;-0.0068023681640625;1.70999999568267;172;1 A
17.6486009554416;-0.59979248046875;-0.0068206787109375;1.71999999565742;173;1 A
17.6586009554163;-0.5997314453125;-0.0068359375;1.72999999563217;174;1 A
17.6686009553911;-0.599761962890625;-0.00685729980468749;1.73999999560692;175;1 A
17.6786009553658;-0.5997314453125;-0.0068634033203125;1.74999999558167;176;1 A
17.6886009553406;-0.5997314453125;-0.006884765625;1.75999999555643;177;1 A
17.6986009553153;-0.599761962890625;-0.00692138671875001;1.76999999553118;178;1 A
17.7086009552901;-0.599761962890625;-0.00692138671875001;1.77999999550593;179;1 A
17.7186009552648;-0.59979248046875;-0.00693359374999999;1.78999999548068;180;1 A
17.7286009552396;-0.599761962890625;-0.006915283203125;1.79999999545544;181;1 A
17.7386009552143;-0.5997314453125;-0.0069091796875;1.80999999543019;182;1 A
17.7486009551891;-0.5997314453125;-0.0069091796875;1.81999999540494;183;1 A
17.7586009551638;-0.59967041015625;-0.00689697265625;1.82999999537969;184;1 A
17.7686009551386;-0.599761962890625;-0.00690612792968751;1.83999999535445;185;1 A
17.7786009551133;-0.599761962890625;-0.00687255859374999;1.8499999953292;186;1 A
17.7886009550881;-0.599700927734375;-0.0068695068359375;1.85999999530395;187;1 A
17.7986009550629;-0.599761962890625;-0.0068511962890625;1.8699999952787;188;1 A
17.8086009550376;-0.5997314453125;-0.00684204101562499;1.87999999525346;189;1 A
17.8186009550124;-0.599700927734375;-0.0068634033203125;1.88999999522821;190;1 A
17.8286009549871;-0.599700927734375;-0.00684204101562499;1.89999999520296;191;1 A
17.8386009549619;-0.599761962890625;-0.0068511962890625;1.90999999517771;192;1 A
17.8486009549366;-0.5997314453125;-0.0068359375;1.91999999515247;193;1 A
17.8586009549114;-0.59979248046875;-0.00682983398437501;1.92999999512722;194;1 A
17.8686009548861;-0.599853515625;-0.00682983398437501;1.93999999510197;195;1 A
17.8786009548609;-0.599761962890625;-0.00682983398437501;1.94999999507672;196;1 A
17.8886009548356;-0.599761962890625;-0.00684204101562499;1.95999999505148;197;1 A
17.8986009548104;-0.599700927734375;-0.00682983398437501;1.96999999502623;198;1 A
17.9086009547851;-0.599761962890625;-0.00681457519531251;1.97999999500098;199;1 A
17.9186009547599;-0.599700927734375;-0.0068023681640625;1.98999999497573;200;1 A
17.9286009547346;-0.599853515625;-0.00679931640625001;1.99999999495049;201;1 A
17.9386009547094;-0.599700927734375;-0.006817626953125;2.00999999492524;202;1 A
17.9486009546841;-0.59979248046875;-0.00682373046875;2.01999999489999;203;1 A
17.9586009546589;-0.5997314453125;-0.006805419921875;2.02999999487474;204;1 A
17.9686009546336;-0.599761962890625;-0.0068023681640625;2.0399999948495;205;1 A
17.9786009546084;-0.599761962890625;-0.006793212890625;2.04999999482425;206;1 A
17.9886009545831;-0.599761962890625;-0.006793212890625;2.059999994799;207;1 A
17.9986009545579;-0.599761962890625;-0.00681152343749999;2.06999999477375;208;1 A
18.0086009545327;-0.59967041015625;-0.00679931640625001;2.0799999947485;209;1 A
18.0186009545074;-0.599761962890625;-0.00681457519531251;2.08999999472326;210;1 A
18.0286009544822;-0.5997314453125;-0.00679931640625001;2.09999999469801;211;1 A
18.0386009544569;-0.599761962890625;-0.00681152343749999;2.10999999467276;212;1 A
18.0486009544317;-0.5997314453125;-0.00681457519531251;2.11999999464751;213;1 A
18.0586009544064;-0.59979248046875;-0.00681152343749999;2.12999999462227;214;1 A
18.0686009543812;-0.599761962890625;-0.00681457519531251;2.13999999459702;215;1 A
18.0786009543559;-0.599761962890625;-0.0067718505859375;2.14999999457177;216;1 A
18.0886009543307;-0.5997314453125;-0.0067718505859375;2.15999999454652;217;1 A
18.0986009543054;-0.599853515625;-0.0067474365234375;2.16999999452128;218;1 A
18.1086009542802;-0.599822998046875;-0.006732177734375;2.17999999449603;219;1 A
18.1186009542549;-0.599761962890625;-0.0067413330078125;2.18999999447078;220;1 A
18.1286009542297;-0.5997314453125;-0.00670776367187501;2.19999999444553;221;1 A
18.1386009542044;-0.599700927734375;-0.00670471191406249;2.20999999442029;222;1 A
18.1486009541792;-0.5997314453125;-0.006671142578125;2.21999999439504;223;1 A
18.1586009541539;-0.59967041015625;-0.00665283203125;2.22999999436979;224;1 A
18.1686009541287;-0.59979248046875;-0.006634521484375;2.23999999434454;225;1 A
18.1786009541034;-0.5997314453125;-0.00663146972656251;2.2499999943193;226;1 A
18.1886009540782;-0.59979248046875;-0.00663146972656251;2.25999999429405;227;1 A
18.1986009540529;-0.599761962890625;-0.006622314453125;2.2699999942688;228;1 A
18.2086009540277;-0.59979248046875;-0.00660095214843751;2.27999999424355;229;1 A
18.2186009540025;-0.59979248046875;-0.00658569335937501;2.28999999421831;230;1 A
18.2286009539772;-0.599761962890625;-0.006573486328125;2.29999999419306;231;1 A
18.238600953952;-0.599761962890625;-0.006573486328125;2.30999999416781;232;1 A
18.2486009539267;-0.599822998046875;-0.006573486328125;2.31999999414256;233;1 A
18.2586009539015;-0.5997314453125;-0.0065582275390625;2.32999999411732;234;1 A
18.2686009538762;-0.599761962890625;-0.00657043457031251;2.33999999409207;235;1 A
18.278600953851;-0.5997314453125;-0.0065643310546875;2.34999999406682;236;1 A
18.2886009538257;-0.59979248046875;-0.00659790039062499;2.35999999404157;237;1 A
18.2986009538005;-0.5997314453125;-0.00664672851562501;2.36999999401633;238;1 A
18.3086009537752;-0.59967041015625;-0.00666198730468751;2.37999999399108;239;1 A
18.31860095375;-0.599700927734375;-0.006695556640625;2.38999999396583;240;1 A
18.3286009537247;-0.5997314453125;-0.00669250488281251;2.39999999394058;241;1 A
18.3386009536995;-0.59979248046875;-0.00671997070312499;2.40999999391533;242;1 A
18.3486009536742;-0.59979248046875;-0.00672302246093751;2.41999999389009;243;1 A
18.358600953649;-0.599761962890625;-0.00672607421875;2.42999999386484;244;1 A
18.3686009536237;-0.59979248046875;-0.00673522949218749;2.43999999383959;245;1 A
18.3786009535985;-0.5997314453125;-0.00670471191406249;2.44999999381434;246;1 A
18.3886009535732;-0.59979248046875;-0.00670471191406249;2.4599999937891;247;1 A
18.398600953548;-0.5997314453125;-0.0066802978515625;2.46999999376385;248;1 A
18.4086009535228;-0.5997314453125;-0.0066864013671875;2.4799999937386;249;1 A
18.4186009534975;-0.599761962890625;-0.00670776367187501;2.48999999371335;250;1 A
18.4286009534723;-0.599761962890625;-0.0067108154296875;2.49999999368811;251;1 A
18.438600953447;-0.599822998046875;-0.006732177734375;2.50999999366286;252;1 A
18.4486009534218;-0.59979248046875;-0.006732177734375;2.51999999363761;253;1 A
18.4586009533965;-0.599761962890625;-0.006744384765625;2.52999999361236;254;1 A
18.4686009533713;-0.5997314453125;-0.0067596435546875;2.53999999358712;255;1 A
18.478600953346;-0.599761962890625;-0.0067779541015625;2.54999999356187;256;1 A
18.4886009533208;-0.59979248046875;-0.00679931640625001;2.55999999353662;257;1 A
18.4986009532955;-0.5997314453125;-0.0068023681640625;2.56999999351137;258;1 A
18.5086009532703;-0.599761962890625;-0.0068023681640625;2.57999999348613;259;1 A
18.518600953245;-0.59979248046875;-0.0068084716796875;2.58999999346088;260;1 A
18.5286009532198;-0.59979248046875;-0.0068023681640625;2.59999999343563;261;1 A
18.5386009531945;-0.59979248046875;-0.00681457519531251;2.60999999341038;262;1 A
18.5486009531693;-0.5997314453125;-0.00681457519531251;2.61999999338514;263;1 A
18.558600953144;-0.599700927734375;-0.00678405761718751;2.62999999335989;264;1 A
18.5686009531188;-0.599761962890625;-0.0067718505859375;2.63999999333464;265;1 A
18.5786009530935;-0.5997314453125;-0.006732177734375;2.64999999330939;266;1 A
18.5886009530683;-0.599822998046875;-0.006732177734375;2.65999999328415;267;1 A
18.598600953043;-0.599761962890625;-0.00673828125000001;2.6699999932589;268;1 A
18.6086009530178;-0.59979248046875;-0.00673522949218749;2.67999999323365;269;1 A
18.6186009529926;-0.59979248046875;-0.00673828125000001;2.6899999932084;270;1 A
18.6286009529673;-0.59979248046875;-0.0067108154296875;2.69999999318316;271;1 A
18.6386009529421;-0.5997314453125;-0.0067169189453125;2.70999999315791;272;1 A
18.6486009529168;-0.599639892578125;-0.00670166015625;2.71999999313266;273;1 A
18.6586009528916;-0.5997314453125;-0.00670471191406249;2.72999999310741;274;1 A
18.6686009528663;-0.599761962890625;-0.0067108154296875;2.73999999308217;275;1 A
18.6786009528411;-0.599761962890625;-0.006683349609375;2.74999999305692;276;1 A
18.6886009528158;-0.599761962890625;-0.00669250488281251;2.75999999303167;277;1 A
18.6986009527906;-0.59979248046875;-0.00666198730468751;2.76999999300642;278;1 A
18.7086009527653;-0.599761962890625;-0.00665893554687499;2.77999999298117;279;1 A
18.7186009527401;-0.599761962890625;-0.0066680908203125;2.78999999295593;280;1 A
18.7286009527148;-0.599761962890625;-0.0066558837890625;2.79999999293068;281;1 A
18.7386009526896;-0.599761962890625;-0.0066680908203125;2.80999999290543;282;1 A
18.7486009526643;-0.59979248046875;-0.00665893554687499;2.81999999288018;283;1 A
18.7586009526391;-0.599700927734375;-0.0066558837890625;2.82999999285494;284;1 A
18.7686009526138;-0.599761962890625;-0.0066558837890625;2.83999999282969;285;1 A
18.7786009525886;-0.599761962890625;-0.0066558837890625;2.84999999280444;286;1 A
18.7886009525633;-0.59979248046875;-0.00665893554687499;2.85999999277919;287;1 A
18.7986009525381;-0.599700927734375;-0.00664367675781249;2.86999999275395;288;1 A
18.8086009525128;-0.599761962890625;-0.006622314453125;2.8799999927287;289;1 A
18.8186009524876;-0.599700927734375;-0.0066070556640625;2.88999999270345;290;1 A
18.8286009524624;-0.599761962890625;-0.0065948486328125;2.8999999926782;291;1 A
18.8386009524371;-0.599822998046875;-0.00660095214843751;2.90999999265296;292;1 A
18.8486009524119;-0.59979248046875;-0.00660095214843751;2.91999999262771;293;1 A
18.8586009523866;-0.59979248046875;-0.00658569335937501;2.92999999260246;294;1 A
18.8686009523614;-0.599761962890625;-0.0065887451171875;2.93999999257721;295;1 A
18.8786009523361;-0.59979248046875;-0.006561279296875;2.94999999255197;296;1 A
18.8886009523109;-0.599822998046875;-0.0065765380859375;2.95999999252672;297;1 A
18.8986009522856;-0.599761962890625;-0.006591796875;2.96999999250147;298;1 A
18.9086009522604;-0.599761962890625;-0.00658569335937501;2.97999999247622;299;1 A
18.9186009522351;-0.59979248046875;-0.00659790039062499;2.98999999245098;300;1 A
18.9286009522099;-0.599761962890625;-0.006573486328125;2.99999999242573;301;1 A
18.9386009521846;-0.59979248046875;-0.006591796875;3.00999999240048;302;1 A
18.9486009521594;-0.59979248046875;-0.0065948486328125;3.01999999237523;303;1 A
18.9586009521341;-0.5997314453125;-0.00661315917968749;3.02999999234999;304;1 A
18.9686009521089;-0.599700927734375;-0.006634521484375;3.03999999232474;305;1 A
18.9786009520836;-0.5997314453125;-0.00662841796874999;3.04999999229949;306;1 A
18.9886009520584;-0.599761962890625;-0.0066497802734375;3.05999999227424;307;1 A
18.9986009520331;-0.599761962890625;-0.00664367675781249;3.069999992249;308;1 A
19.0086009520079;-0.599822998046875;-0.0066650390625;3.07999999222375;309;1 A
19.0186009519826;-0.599822998046875;-0.0066986083984375;3.0899999921985;310;1 A
19.0286009519574;-0.5997314453125;-0.0067138671875;3.09999999217325;311;1 A
19.0386009519322;-0.599700927734375;-0.00673828125000001;3.109999992148;312;1 A
19.0486009519069;-0.59979248046875;-0.006744384765625;3.11999999212276;313;1 A
19.0586009518817;-0.5997314453125;-0.0067474365234375;3.12999999209751;314;1 A
19.0686009518564;-0.599761962890625;-0.00676574707031249;3.13999999207226;315;1 A
19.0786009518312;-0.59979248046875;-0.00678405761718751;3.14999999204701;316;1 A
19.0886009518059;-0.599822998046875;-0.00679626464843749;3.15999999202177;317;1 A
19.0986009517807;-0.599700927734375;-0.00679931640625001;3.16999999199652;318;1 A
19.1086009517554;-0.599822998046875;-0.0067718505859375;3.17999999197127;319;1 A
19.1186009517302;-0.599761962890625;-0.0067718505859375;3.18999999194602;320;1 A
19.1286009517049;-0.599700927734375;-0.0067626953125;3.19999999192078;321;1 A
19.1386009516797;-0.59979248046875;-0.006787109375;3.20999999189553;322;1 A
19.1486009516544;-0.599761962890625;-0.006805419921875;3.21999999187028;323;1 A
19.1586009516292;-0.59979248046875;-0.00679626464843749;3.22999999184503;324;1 A
19.1686009516039;-0.59967041015625;-0.0068206787109375;3.23999999181979;325;1 A
19.1786009515787;-0.599761962890625;-0.00681152343749999;3.24999999179454;326;1 A
19.1886009515534;-0.59979248046875;-0.00684204101562499;3.25999999176929;327;1 A
19.1986009515282;-0.59979248046875;-0.0068634033203125;3.26999999174404;328;1 A
19.2086009515029;-0.59979248046875;-0.00687255859374999;3.2799999917188;329;1 A
19.2186009514777;-0.5997314453125;-0.0068939208984375;3.28999999169355;330;1 A
19.2286009514524;-0.5997314453125;-0.006878662109375;3.2999999916683;331;1 A
19.2386009514272;-0.5997314453125;-0.00690612792968751;3.30999999164305;332;1 A
19.248600951402;-0.599822998046875;-0.0069122314453125;3.31999999161781;333;1 A
19.2586009513767;-0.59979248046875;-0.00693664550781251;3.32999999159256;334;1 A
19.2686009513515;-0.59979248046875;-0.0069580078125;3.33999999156731;335;1 A
19.2786009513262;-0.599822998046875;-0.00694580078125;3.34999999154206;336;1 A
19.288600951301;-0.59979248046875;-0.0069580078125;3.35999999151682;337;1 A
19.2986009512757;-0.599700927734375;-0.006939697265625;3.36999999149157;338;1 A
19.3086009512505;-0.59979248046875;-0.00693359374999999;3.37999999146632;339;1 A
19.3186009512252;-0.599761962890625;-0.0069427490234375;3.38999999144107;340;1 A
19.3286009512;-0.599700927734375;-0.006927490234375;3.39999999141583;341;1 A
19.3386009511747;-0.599822998046875;-0.0069305419921875;3.40999999139058;342;1 A
19.3486009511495;-0.5997314453125;-0.006915283203125;3.41999999136533;343;1 A
19.3586009511242;-0.59979248046875;-0.0068939208984375;3.42999999134008;344;1 A
19.368600951099;-0.599700927734375;-0.006884765625;3.43999999131483;345;1 A
19.3786009510737;-0.599761962890625;-0.006884765625;3.44999999128959;346;1 A
19.3886009510485;-0.599761962890625;-0.006884765625;3.45999999126434;347;1 A
19.3986009510232;-0.5997314453125;-0.006878662109375;3.46999999123909;348;1 A
19.408600950998;-0.5997314453125;-0.0068634033203125;3.47999999121384;349;1 A
19.4186009509727;-0.599822998046875;-0.00687561035156251;3.4899999911886;350;1 A
19.4286009509475;-0.599822998046875;-0.00686035156250001;3.49999999116335;351;1 A
19.4386009509223;-0.5997314453125;-0.00689086914062501;3.5099999911381;352;1 A
19.448600950897;-0.599700927734375;-0.00689086914062501;3.51999999111285;353;1 A
19.4586009508718;-0.5997314453125;-0.006866455078125;3.52999999108761;354;1 A
19.4686009508465;-0.599761962890625;-0.00686035156250001;3.53999999106236;355;1 A
19.4786009508213;-0.59967041015625;-0.0068206787109375;3.54999999103711;356;1 A
19.488600950796;-0.599761962890625;-0.0068328857421875;3.55999999101186;357;1 A
19.4986009507708;-0.59979248046875;-0.00682373046875;3.56999999098662;358;1 A
19.5086009507455;-0.599761962890625;-0.006805419921875;3.57999999096137;359;1 A
19.5186009507203;-0.5997314453125;-0.006805419921875;3.58999999093612;360;1 A
19.528600950695;-0.599761962890625;-0.0067596435546875;3.59999999091087;361;1 A
19.5386009506698;-0.59979248046875;-0.00676574707031249;3.60999999088563;362;1 A
19.5486009506445;-0.599700927734375;-0.0067474365234375;3.61999999086038;363;1 A
19.5586009506193;-0.599761962890625;-0.0067596435546875;3.62999999083513;364;1 A
19.568600950594;-0.599761962890625;-0.0067596435546875;3.63999999080988;365;1 A
19.5786009505688;-0.5997314453125;-0.006744384765625;3.64999999078464;366;1 A
19.5886009505435;-0.59979248046875;-0.00675048828124999;3.65999999075939;367;1 A
19.5986009505183;-0.59979248046875;-0.006732177734375;3.66999999073414;368;1 A
19.608600950493;-0.599761962890625;-0.006732177734375;3.67999999070889;369;1 A
19.6186009504678;-0.599700927734375;-0.006744384765625;3.68999999068365;370;1 A
19.6286009504425;-0.5997314453125;-0.0067413330078125;3.6999999906584;371;1 A
19.6386009504173;-0.5997314453125;-0.00675048828124999;3.70999999063315;372;1 A
19.6486009503921;-0.5997314453125;-0.00675048828124999;3.7199999906079;373;1 A
19.6586009503668;-0.599761962890625;-0.00673828125000001;3.72999999058266;374;1 A
19.6686009503416;-0.599761962890625;-0.00675048828124999;3.73999999055741;375;1 A
19.6786009503163;-0.5997314453125;-0.00675354003906251;3.74999999053216;376;1 A
19.6886009502911;-0.599761962890625;-0.0067596435546875;3.75999999050691;377;1 A
19.6986009502658;-0.59967041015625;-0.006756591796875;3.76999999048167;378;1 A
19.7086009502406;-0.5997314453125;-0.00673828125000001;3.77999999045642;379;1 A
19.7186009502153;-0.599700927734375;-0.0067474365234375;3.78999999043117;380;1 A
19.7286009501901;-0.5997314453125;-0.00673522949218749;3.79999999040592;381;1 A
19.7386009501648;-0.5997314453125;-0.0067626953125;3.80999999038067;382;1 A
19.7486009501396;-0.5997314453125;-0.00676574707031249;3.81999999035543;383;1 A
19.7586009501143;-0.59979248046875;-0.00675354003906251;3.82999999033018;384;1 A
19.7686009500891;-0.599761962890625;-0.00675354003906251;3.83999999030493;385;1 A
19.7786009500638;-0.59979248046875;-0.00672607421875;3.84999999027968;386;1 A
19.7886009500386;-0.59967041015625;-0.0067474365234375;3.85999999025444;387;1 A
19.7986009500133;-0.599761962890625;-0.00675048828124999;3.86999999022919;388;1 A
19.8086009499881;-0.5997314453125;-0.00675354003906251;3.87999999020394;389;1 A
19.8186009499628;-0.599761962890625;-0.0067626953125;3.88999999017869;390;1 A
19.8286009499376;-0.5997314453125;-0.00675354003906251;3.89999999015345;391;1 A
19.8386009499123;-0.5997314453125;-0.00677490234375;3.9099999901282;392;1 A
19.8486009498871;-0.5997314453125;-0.0067779541015625;3.91999999010295;393;1 A
19.8586009498619;-0.5997314453125;-0.00679931640625001;3.9299999900777;394;1 A
19.8686009498366;-0.599700927734375;-0.00681152343749999;3.93999999005246;395;1 A
19.8786009498114;-0.599822998046875;-0.00679931640625001;3.94999999002721;396;1 A
19.8886009497861;-0.599700927734375;-0.0068023681640625;3.95999999000196;397;1 A
19.8986009497609;-0.5997314453125;-0.00679931640625001;3.96999998997671;398;1 A
19.9086009497356;-0.59979248046875;-0.0067901611328125;3.97999998995147;399;1 A
19.9186009497104;-0.5997314453125;-0.00679931640625001;3.98999998992622;400;1 A
19.9286009496851;-0.5997314453125;-0.006793212890625;3.99999998990097;401;1 A
19.9386009496599;-0.599761962890625;-0.00678405761718751;4.00999998987572;402;1 A
19.9486009496346;-0.5997314453125;-0.0067779541015625;4.01999998985048;403;1 A
19.9586009496094;-0.5997314453125;-0.00675354003906251;4.02999998982523;404;1 A
19.9686009495841;-0.59979248046875;-0.00676574707031249;4.03999998979998;405;1 A
19.9786009495589;-0.5997314453125;-0.0067718505859375;4.04999998977473;406;1 A
19.9886009495336;-0.599761962890625;-0.0067901611328125;4.05999998974949;407;1 A
19.9986009495084;-0.5997314453125;-0.00678405761718751;4.06999998972424;408;1 A
20.0086009494831;-0.599822998046875;-0.00676574707031249;4.07999998969899;409;1 A
20.0186009494579;-0.59979248046875;-0.0067718505859375;4.08999998967374;410;1 A
20.0286009494326;-0.5997314453125;-0.0067413330078125;4.0999999896485;411;1 A
20.0386009494074;-0.599761962890625;-0.0067596435546875;4.10999998962325;412;1 A
20.0486009493821;-0.599761962890625;-0.00673522949218749;4.119999989598;413;1 A
20.0586009493569;-0.5997314453125;-0.0067138671875;4.12999998957275;414;1 A
20.0686009493317;-0.59979248046875;-0.0067138671875;4.1399999895475;415;1 A
20.0786009493064;-0.599761962890625;-0.00669250488281251;4.14999998952226;416;1 A
20.0886009492812;-0.5997314453125;-0.00671997070312499;4.15999998949701;417;1 A
20.0986009492559;-0.59979248046875;-0.006732177734375;4.16999998947176;418;1 A
20.1086009492307;-0.5997314453125;-0.00675354003906251;4.17999998944651;419;1 A
20.1186009492054;-0.59979248046875;-0.0067596435546875;4.18999998942127;420;1 A
20.1286009491802;-0.599761962890625;-0.006756591796875;4.19999998939602;421;1 A
20.1386009491549;-0.599761962890625;-0.00677490234375;4.20999998937077;422;1 A
20.1486009491297;-0.5997314453125;-0.00677490234375;4.21999998934552;423;1 A
20.1586009491044;-0.5997314453125;-0.00679931640625001;4.22999998932028;424;1 A
20.1686009490792;-0.5997314453125;-0.00679931640625001;4.23999998929503;425;1 A
20.1786009490539;-0.599761962890625;-0.00678405761718751;4.24999998926978;426;1 A
20.1886009490287;-0.599761962890625;-0.00678405761718751;4.25999998924453;427;1 A
20.1986009490034;-0.5997314453125;-0.0067718505859375;4.26999998921929;428;1 A
20.2086009489782;-0.59979248046875;-0.006756591796875;4.27999998919404;429;1 A
20.2186009489529;-0.59979248046875;-0.0067626953125;4.28999998916879;430;1 A
20.2286009489277;-0.5997314453125;-0.00675048828124999;4.29999998914354;431;1 A
20.2386009489024;-0.59979248046875;-0.00675048828124999;4.3099999891183;432;1 A
20.2486009488772;-0.59979248046875;-0.006744384765625;4.31999998909305;433;1 A
20.2586009488519;-0.59979248046875;-0.0067169189453125;4.3299999890678;434;1 A
20.2686009488267;-0.59967041015625;-0.00673828125000001;4.33999998904255;435;1 A
20.2786009488015;-0.59979248046875;-0.00675048828124999;4.34999998901731;436;1 A
20.2886009487762;-0.5997314453125;-0.00678100585937499;4.35999998899206;437;1 A
20.298600948751;-0.59979248046875;-0.006793212890625;4.36999998896681;438;1 A
20.3086009487257;-0.599761962890625;-0.00679626464843749;4.37999998894156;439;1 A
20.3186009487005;-0.5997314453125;-0.00682373046875;4.38999998891632;440;1 A
20.3286009486752;-0.59979248046875;-0.00682678222656249;4.39999998889107;441;1 A
20.33860094865;-0.599700927734375;-0.0068695068359375;4.40999998886582;442;1 A
20.3486009486247;-0.59967041015625;-0.006866455078125;4.41999998884057;443;1 A
20.3586009485995;-0.599700927734375;-0.00686035156250001;4.42999998881533;444;1 A
20.3686009485742;-0.5997314453125;-0.00685729980468749;4.43999998879008;445;1 A
20.378600948549;-0.5997314453125;-0.00682373046875;4.44999998876483;446;1 A
20.3886009485237;-0.599761962890625;-0.00684204101562499;4.45999998873958;447;1 A
20.3986009484985;-0.599700927734375;-0.00682373046875;4.46999998871433;448;1 A
20.4086009484732;-0.599822998046875;-0.006817626953125;4.47999998868909;449;1 A
20.418600948448;-0.5997314453125;-0.00681457519531251;4.48999998866384;450;1 A
20.4286009484227;-0.599761962890625;-0.00679931640625001;4.49999998863859;451;1 A
20.4386009483975;-0.599700927734375;-0.0068084716796875;4.50999998861334;452;1 A
20.4486009483722;-0.599761962890625;-0.0068023681640625;4.5199999885881;453;1 A
20.458600948347;-0.59979248046875;-0.006817626953125;4.52999998856285;454;1 A
20.4686009483218;-0.599761962890625;-0.0068206787109375;4.5399999885376;455;1 A
20.4786009482965;-0.59979248046875;-0.00681457519531251;4.54999998851235;456;1 A
20.4886009482713;-0.5997314453125;-0.006817626953125;4.55999998848711;457;1 A
20.498600948246;-0.599853515625;-0.00681457519531251;4.56999998846186;458;1 A
20.5086009482208;-0.5997314453125;-0.00681152343749999;4.57999998843661;459;1 A
20.5186009481955;-0.5997314453125;-0.0068206787109375;4.58999998841136;460;1 A
20.5286009481703;-0.599700927734375;-0.006805419921875;4.59999998838612;461;1 A
20.538600948145;-0.599761962890625;-0.006793212890625;4.60999998836087;462;1 A
20.5486009481198;-0.5997314453125;-0.0067779541015625;4.61999998833562;463;1 A
20.5586009480945;-0.599761962890625;-0.00675048828124999;4.62999998831037;464;1 A
20.5686009480693;-0.5997314453125;-0.00676879882812501;4.63999998828513;465;1 A
20.578600948044;-0.599700927734375;-0.00677490234375;4.64999998825988;466;1 A
20.5886009480188;-0.59979248046875;-0.0068023681640625;4.65999998823463;467;1 A
20.5986009479935;-0.599761962890625;-0.0068084716796875;4.66999998820938;468;1 A
20.6086009479683;-0.5997314453125;-0.00679931640625001;4.67999998818414;469;1 A
20.618600947943;-0.599761962890625;-0.006805419921875;4.68999998815889;470;1 A
20.6286009479178;-0.5997314453125;-0.006787109375;4.69999998813364;471;1 A
20.6386009478925;-0.599761962890625;-0.00681457519531251;4.70999998810839;472;1 A
20.6486009478673;-0.5997314453125;-0.0068084716796875;4.71999998808315;473;1 A
20.658600947842;-0.5997314453125;-0.00679626464843749;4.7299999880579;474;1 A
20.6686009478168;-0.59979248046875;-0.006793212890625;4.73999998803265;475;1 A
20.6786009477916;-0.59967041015625;-0.00676574707031249;4.7499999880074;476;1 A
20.6886009477663;-0.599700927734375;-0.00678100585937499;4.75999998798216;477;1 A
20.6986009477411;-0.599761962890625;-0.00676574707031249;4.76999998795691;478;1 A
20.7086009477158;-0.599761962890625;-0.0067626953125;4.77999998793166;479;1 A
20.7186009476906;-0.59979248046875;-0.006756591796875;4.78999998790641;480;1 A
20.7286009476653;-0.599761962890625;-0.00673828125000001;4.79999998788116;481;1 A
20.7386009476401;-0.59979248046875;-0.0067413330078125;4.80999998785592;482;1 A
20.7486009476148;-0.599700927734375;-0.00673828125000001;4.81999998783067;483;1 A
20.7586009475896;-0.599761962890625;-0.006756591796875;4.82999998780542;484;1 A
20.7686009475643;-0.599761962890625;-0.0067718505859375;4.83999998778017;485;1 A
20.7786009475391;-0.599761962890625;-0.00677490234375;4.84999998775493;486;1 A
20.7886009475138;-0.599761962890625;-0.00678405761718751;4.85999998772968;487;1 A
20.7986009474886;-0.599761962890625;-0.0067779541015625;4.86999998770443;488;1 A
20.8086009474633;-0.59979248046875;-0.00676574707031249;4.87999998767918;489;1 A
20.8186009474381;-0.5997314453125;-0.00678100585937499;4.88999998765394;490;1 A
20.8286009474128;-0.59979248046875;-0.0067779541015625;4.89999998762869;491;1 A
20.8386009473876;-0.59967041015625;-0.00678405761718751;4.90999998760344;492;1 A
20.8486009473623;-0.599761962890625;-0.0067779541015625;4.91999998757819;493;1 A
20.8586009473371;-0.5997314453125;-0.00675048828124999;4.92999998755295;494;1 A
20.8686009473118;-0.599761962890625;-0.0067596435546875;4.9399999875277;495;1 A
20.8786009472866;-0.59979248046875;-0.00673522949218749;4.94999998750245;496;1 A
20.8886009472614;-0.5997314453125;-0.00673522949218749;4.9599999874772;497;1 A
20.8986009472361;-0.5997314453125;-0.0066986083984375;4.96999998745196;498;1 A
20.9086009472109;-0.599853515625;-0.0066650390625;4.97999998742671;499;1 A
20.9186009471856;-0.5997314453125;-0.0066558837890625;4.98999998740146;500;1 A
20.9286009471604;-0.5997314453125;-0.00663146972656251;4.99999998737621;501;1 A
20.9386009471351;-0.599761962890625;-0.0066680908203125;5.00999998735097;502;1 A
20.9486009471099;-0.599761962890625;-0.00666198730468751;5.01999998732572;503;1 A
20.9586009470846;-0.59979248046875;-0.00665893554687499;5.02999998730047;504;1 A
20.9686009470594;-0.5997314453125;-0.00665893554687499;5.03999998727522;505;1 A
20.9786009470341;-0.599761962890625;-0.0066375732421875;5.04999998724998;506;1 A
20.9886009470089;-0.5997314453125;-0.00664672851562501;5.05999998722473;507;1 A
20.9986009469836;-0.5997314453125;-0.006640625;5.06999998719948;508;1 A
21.0086009469584;-0.59967041015625;-0.006640625;5.07999998717423;509;1 A
21.0186009469331;-0.59979248046875;-0.0066253662109375;5.08999998714899;510;1 A
21.0286009469079;-0.599761962890625;-0.00661621093750001;5.09999998712374;511;1 A
21.0386009468826;-0.599761962890625;-0.00661315917968749;5.10999998709849;512;1 A
21.0486009468574;-0.5997314453125;-0.006610107421875;5.11999998707324;513;1 A
21.0586009468321;-0.59979248046875;-0.00661621093750001;5.129999987048;514;1 A
21.0686009468069;-0.599761962890625;-0.00661621093750001;5.13999998702275;515;1 A
21.0786009467816;-0.5997314453125;-0.00660095214843751;5.1499999869975;516;1 A
21.0886009467564;-0.5997314453125;-0.0065948486328125;5.15999998697225;517;1 A
21.0986009467312;-0.5997314453125;-0.0065765380859375;5.169999986947;518;1 A
21.1086009467059;-0.5997314453125;-0.00655517578125001;5.17999998692176;519;1 A
21.1186009466807;-0.59967041015625;-0.00657043457031251;5.18999998689651;520;1 A
21.1286009466554;-0.599761962890625;-0.0065460205078125;5.19999998687126;521;1 A
21.1386009466302;-0.599761962890625;-0.00653686523437499;5.20999998684601;522;1 A
21.1486009466049;-0.59979248046875;-0.00650939941406251;5.21999998682077;523;1 A
21.1586009465797;-0.5997314453125;-0.0064849853515625;5.22999998679552;524;1 A
21.1686009465544;-0.599700927734375;-0.0064971923828125;5.23999998677027;525;1 A
21.1786009465292;-0.5997314453125;-0.00648193359375;5.24999998674502;526;1 A
21.1886009465039;-0.599700927734375;-0.00650634765624999;5.25999998671978;527;1 A
21.1986009464787;-0.599761962890625;-0.00649108886718749;5.26999998669453;528;1 A
21.2086009464534;-0.599822998046875;-0.00649108886718749;5.27999998666928;529;1 A
21.2186009464282;-0.59979248046875;-0.0065032958984375;5.28999998664403;530;1 A
21.2286009464029;-0.59979248046875;-0.00650634765624999;5.29999998661879;531;1 A
21.2386009463777;-0.5997314453125;-0.006561279296875;5.30999998659354;532;1 A
21.2486009463524;-0.5997314453125;-0.00657043457031251;5.31999998656829;533;1 A
21.2586009463272;-0.599700927734375;-0.0065887451171875;5.32999998654304;534;1 A
21.2686009463019;-0.599700927734375;-0.00660095214843751;5.3399999865178;535;1 A
21.2786009462767;-0.599761962890625;-0.00660400390625;5.34999998649255;536;1 A
21.2886009462514;-0.599822998046875;-0.0066253662109375;5.3599999864673;537;1 A
21.2986009462262;-0.599761962890625;-0.00663146972656251;5.36999998644205;538;1 A
21.308600946201;-0.599761962890625;-0.006634521484375;5.37999998641681;539;1 A
21.3186009461757;-0.59979248046875;-0.00662841796874999;5.38999998639156;540;1 A
21.3286009461505;-0.5997314453125;-0.00661621093750001;5.39999998636631;541;1 A
21.3386009461252;-0.5997314453125;-0.0066192626953125;5.40999998634106;542;1 A
21.3486009461;-0.599761962890625;-0.006622314453125;5.41999998631582;543;1 A
21.3586009460747;-0.599853515625;-0.006634521484375;5.42999998629057;544;1 A
21.3686009460495;-0.599761962890625;-0.00664367675781249;5.43999998626532;545;1 A
21.3786009460242;-0.59979248046875;-0.00663146972656251;5.44999998624007;546;1 A
21.388600945999;-0.599761962890625;-0.00662841796874999;5.45999998621483;547;1 A
21.3986009459737;-0.59979248046875;-0.00661315917968749;5.46999998618958;548;1 A
21.4086009459485;-0.599639892578125;-0.0065887451171875;5.47999998616433;549;1 A
21.4186009459232;-0.599761962890625;-0.00660400390625;5.48999998613908;550;1 A
21.428600945898;-0.59967041015625;-0.00658569335937501;5.49999998611383;551;1 A
21.4386009458727;-0.59979248046875;-0.0065887451171875;5.50999998608859;552;1 A
21.4486009458475;-0.599761962890625;-0.00656738281249999;5.51999998606334;553;1 A
21.4586009458222;-0.599761962890625;-0.00655212402343749;5.52999998603809;554;1 A
21.468600945797;-0.599761962890625;-0.006561279296875;5.53999998601284;555;1 A
21.4786009457717;-0.599761962890625;-0.00655517578125001;5.5499999859876;556;1 A
21.4886009457465;-0.5997314453125;-0.0065643310546875;5.55999998596235;557;1 A
21.4986009457213;-0.599761962890625;-0.0065338134765625;5.5699999859371;558;1 A
21.508600945696;-0.599761962890625;-0.00652160644531249;5.57999998591185;559;1 A
21.5186009456708;-0.59979248046875;-0.0065155029296875;5.58999998588661;560;1 A
21.5286009456455;-0.599822998046875;-0.00650634765624999;5.59999998586136;561;1 A
21.5386009456203;-0.5997314453125;-0.00654296875;5.60999998583611;562;1 A
21.548600945595;-0.59979248046875;-0.00654296875;5.61999998581086;563;1 A
21.5586009455698;-0.599700927734375;-0.00655212402343749;5.62999998578562;564;1 A
21.5686009455445;-0.59967041015625;-0.0065582275390625;5.63999998576037;565;1 A
21.5786009455193;-0.599761962890625;-0.0065582275390625;5.64999998573512;566;1 A
21.588600945494;-0.599761962890625;-0.00657043457031251;5.65999998570987;567;1 A
21.5986009454688;-0.59979248046875;-0.006573486328125;5.66999998568463;568;1 A
21.6086009454435;-0.599761962890625;-0.006573486328125;5.67999998565938;569;1 A
21.6186009454183;-0.599761962890625;-0.00656738281249999;5.68999998563413;570;1 A
21.628600945393;-0.59979248046875;-0.006549072265625;5.69999998560888;571;1 A
21.6386009453678;-0.5997314453125;-0.0065460205078125;5.70999998558364;572;1 A
21.6486009453425;-0.59967041015625;-0.0065460205078125;5.71999998555839;573;1 A
21.6586009453173;-0.59979248046875;-0.00655212402343749;5.72999998553314;574;1 A
21.668600945292;-0.599761962890625;-0.0065765380859375;5.73999998550789;575;1 A
21.6786009452668;-0.5997314453125;-0.00658264160156249;5.74999998548265;576;1 A
21.6886009452415;-0.599761962890625;-0.00660095214843751;5.7599999854574;577;1 A
21.6986009452163;-0.599822998046875;-0.00661315917968749;5.76999998543215;578;1 A
21.7086009451911;-0.599761962890625;-0.006610107421875;5.7799999854069;579;1 A
21.7186009451658;-0.59979248046875;-0.00665893554687499;5.78999998538166;580;1 A
21.7286009451406;-0.599700927734375;-0.00665893554687499;5.79999998535641;581;1 A
21.7386009451153;-0.599700927734375;-0.00668945312499999;5.80999998533116;582;1 A
21.7486009450901;-0.599822998046875;-0.006695556640625;5.81999998530591;583;1 A
21.7586009450648;-0.599761962890625;-0.0066986083984375;5.82999998528066;584;1 A
21.7686009450396;-0.5997314453125;-0.0067291259765625;5.83999998525542;585;1 A
21.7786009450143;-0.59979248046875;-0.0067291259765625;5.84999998523017;586;1 A
21.7886009449891;-0.599822998046875;-0.0067474365234375;5.85999998520492;587;1 A
21.7986009449638;-0.599700927734375;-0.00671997070312499;5.86999998517967;588;1 A
21.8086009449386;-0.59979248046875;-0.00670166015625;5.87999998515443;589;1 A
21.8186009449133;-0.5997314453125;-0.00668945312499999;5.88999998512918;590;1 A
21.8286009448881;-0.599761962890625;-0.0066802978515625;5.89999998510393;591;1 A
21.8386009448628;-0.599761962890625;-0.00670776367187501;5.90999998507868;592;1 A
21.8486009448376;-0.59979248046875;-0.00670166015625;5.91999998505344;593;1 A
21.8586009448123;-0.59979248046875;-0.00670776367187501;5.92999998502819;594;1 A
21.8686009447871;-0.599761962890625;-0.00670776367187501;5.93999998500294;595;1 A
21.8786009447618;-0.5997314453125;-0.00670471191406249;5.94999998497769;596;1 A
21.8886009447366;-0.599700927734375;-0.0067108154296875;5.95999998495245;597;1 A
21.8986009447113;-0.599700927734375;-0.00672302246093751;5.9699999849272;598;1 A
21.9086009446861;-0.599761962890625;-0.00672302246093751;5.97999998490195;599;1 A
21.9186009446609;-0.599761962890625;-0.00672607421875;5.9899999848767;600;1 A
21.9286009446356;-0.5997314453125;-0.0067169189453125;5.99999998485146;601;1 A
21.9386009446104;-0.599761962890625;-0.0067169189453125;6.00999998482621;602;1 A
21.9486009445851;-0.5997314453125;-0.006732177734375;6.01999998480096;603;1 A
21.9586009445599;-0.599822998046875;-0.0067413330078125;6.02999998477571;604;1 A
21.9686009445346;-0.5997314453125;-0.00676574707031249;6.03999998475047;605;1 A
21.9786009445094;-0.599700927734375;-0.00675354003906251;6.04999998472522;606;1 A
21.9886009444841;-0.599761962890625;-0.0067626953125;6.05999998469997;607;1 A
21.9986009444589;-0.599700927734375;-0.0067626953125;6.06999998467472;608;1 A
22.0086009444336;-0.599822998046875;-0.0067626953125;6.07999998464948;609;1 A
22.0186009444084;-0.599761962890625;-0.00679626464843749;6.08999998462423;610;1 A
22.0286009443831;-0.599761962890625;-0.006787109375;6.09999998459898;611;1 A
22.0386009443579;-0.5997314453125;-0.00681152343749999;6.10999998457373;612;1 A
22.0486009443326;-0.5997314453125;-0.00679931640625001;6.11999998454849;613;1 A
22.0586009443074;-0.599761962890625;-0.006793212890625;6.12999998452324;614;1 A
22.0686009442821;-0.599761962890625;-0.00679931640625001;6.13999998449799;615;1 A
22.0786009442569;-0.599822998046875;-0.006793212890625;6.14999998447274;616;1 A
22.0886009442316;-0.599761962890625;-0.0068206787109375;6.1599999844475;617;1 A
22.0986009442064;-0.599761962890625;-0.006805419921875;6.16999998442225;618;1 A
22.1086009441811;-0.599761962890625;-0.00679931640625001;6.179999984397;619;1 A
22.1186009441559;-0.59979248046875;-0.0067901611328125;6.18999998437175;620;1 A
22.1286009441307;-0.5997314453125;-0.006793212890625;6.1999999843465;621;1 A
22.1386009441054;-0.59967041015625;-0.0068084716796875;6.20999998432126;622;1 A
22.1486009440802;-0.5997314453125;-0.00679931640625001;6.21999998429601;623;1 A
22.1586009440549;-0.599761962890625;-0.00678100585937499;6.22999998427076;624;1 A
22.1686009440297;-0.59979248046875;-0.00676574707031249;6.23999998424551;625;1 A
22.1786009440044;-0.599822998046875;-0.00675048828124999;6.24999998422027;626;1 A
22.1886009439792;-0.5997314453125;-0.00675048828124999;6.25999998419502;627;1 A
22.1986009439539;-0.59979248046875;-0.006744384765625;6.26999998416977;628;1 A
22.2086009439287;-0.5997314453125;-0.0067291259765625;6.27999998414452;629;1 A
22.2186009439034;-0.599700927734375;-0.0067169189453125;6.28999998411928;630;1 A
22.2286009438782;-0.599700927734375;-0.00669250488281251;6.29999998409403;631;1 A
22.2386009438529;-0.599700927734375;-0.00667724609375001;6.30999998406878;632;1 A
22.2486009438277;-0.599761962890625;-0.0066680908203125;6.31999998404353;633;1 A
22.2586009438024;-0.599761962890625;-0.00665283203125;6.32999998401829;634;1 A
22.2686009437772;-0.599761962890625;-0.00666198730468751;6.33999998399304;635;1 A
22.2786009437519;-0.599761962890625;-0.00663146972656251;6.34999998396779;636;1 A
22.2886009437267;-0.5997314453125;-0.0066375732421875;6.35999998394254;637;1 A
22.2986009437014;-0.5997314453125;-0.00661315917968749;6.3699999839173;638;1 A
22.3086009436762;-0.5997314453125;-0.00660400390625;6.37999998389205;639;1 A
22.3186009436509;-0.599761962890625;-0.00661315917968749;6.3899999838668;640;1 A
22.3286009436257;-0.5997314453125;-0.0065887451171875;6.39999998384155;641;1 A
22.3386009436005;-0.599761962890625;-0.0065887451171875;6.40999998381631;642;1 A
22.3486009435752;-0.5997314453125;-0.0065460205078125;6.41999998379106;643;1 A
22.35860094355;-0.599761962890625;-0.0065155029296875;6.42999998376581;644;1 A
22.3686009435247;-0.5997314453125;-0.006500244140625;6.43999998374056;645;1 A
22.3786009434995;-0.599761962890625;-0.00648193359375;6.44999998371532;646;1 A
22.3886009434742;-0.599700927734375;-0.0064849853515625;6.45999998369007;647;1 A
22.398600943449;-0.599761962890625;-0.006451416015625;6.46999998366482;648;1 A
22.4086009434237;-0.599761962890625;-0.0064361572265625;6.47999998363957;649;1 A
22.4186009433985;-0.599822998046875;-0.00641479492187499;6.48999998361433;650;1 A
22.4286009433732;-0.599761962890625;-0.0064117431640625;6.49999998358908;651;1 A
22.438600943348;-0.599700927734375;-0.00643310546875001;6.50999998356383;652;1 A
22.4486009433227;-0.5997314453125;-0.0064422607421875;6.51999998353858;653;1 A
22.4586009432975;-0.5997314453125;-0.00644836425781251;6.52999998351333;654;1 A
22.4686009432722;-0.599761962890625;-0.0064422607421875;6.53999998348809;655;1 A
22.478600943247;-0.5997314453125;-0.006427001953125;6.54999998346284;656;1 A
22.4886009432217;-0.599761962890625;-0.0064239501953125;6.55999998343759;657;1 A
22.4986009431965;-0.59979248046875;-0.0064361572265625;6.56999998341234;658;1 A
22.5086009431712;-0.599761962890625;-0.00643005371093749;6.5799999833871;659;1 A
22.518600943146;-0.599761962890625;-0.00644836425781251;6.58999998336185;660;1 A
22.5286009431208;-0.59979248046875;-0.00644836425781251;6.5999999833366;661;1 A
22.5386009430955;-0.5997314453125;-0.0064727783203125;6.60999998331135;662;1 A
22.5486009430703;-0.5997314453125;-0.00649108886718749;6.61999998328611;663;1 A
22.558600943045;-0.599761962890625;-0.006512451171875;6.62999998326086;664;1 A
22.5686009430198;-0.599761962890625;-0.006549072265625;6.63999998323561;665;1 A
22.5786009429945;-0.59979248046875;-0.00653991699218751;6.64999998321036;666;1 A
22.5886009429693;-0.599761962890625;-0.006561279296875;6.65999998318512;667;1 A
22.598600942944;-0.59979248046875;-0.0065582275390625;6.66999998315987;668;1 A
22.6086009429188;-0.5997314453125;-0.006573486328125;6.67999998313462;669;1 A
22.6186009428935;-0.5997314453125;-0.006610107421875;6.68999998310937;670;1 A
22.6286009428683;-0.599700927734375;-0.0066192626953125;6.69999998308413;671;1 A
22.638600942843;-0.599761962890625;-0.00665283203125;6.70999998305888;672;1 A
22.6486009428178;-0.599761962890625;-0.0066497802734375;6.71999998303363;673;1 A
22.6586009427925;-0.599761962890625;-0.00666198730468751;6.72999998300838;674;1 A
22.6686009427673;-0.599761962890625;-0.00667724609375001;6.73999998298314;675;1 A
22.678600942742;-0.59979248046875;-0.00669250488281251;6.74999998295789;676;1 A
22.6886009427168;-0.59979248046875;-0.0067169189453125;6.75999998293264;677;1 A
22.6986009426915;-0.599761962890625;-0.0067138671875;6.76999998290739;678;1 A
22.7086009426663;-0.59979248046875;-0.00672302246093751;6.77999998288215;679;1 A
22.718600942641;-0.59967041015625;-0.006732177734375;6.7899999828569;680;1 A
22.7286009426158;-0.599822998046875;-0.00675048828124999;6.79999998283165;681;1 A
22.7386009425906;-0.599761962890625;-0.0067901611328125;6.8099999828064;682;1 A
22.7486009425653;-0.599761962890625;-0.0068023681640625;6.81999998278116;683;1 A
22.7586009425401;-0.599761962890625;-0.00681152343749999;6.82999998275591;684;1 A
22.7686009425148;-0.5997314453125;-0.00682983398437501;6.83999998273066;685;1 A
22.7786009424896;-0.599761962890625;-0.0068359375;6.84999998270541;686;1 A
22.7886009424643;-0.599700927734375;-0.0068511962890625;6.85999998268016;687;1 A
22.7986009424391;-0.599761962890625;-0.00687561035156251;6.86999998265492;688;1 A
22.8086009424138;-0.5997314453125;-0.00687255859374999;6.87999998262967;689;1 A
22.8186009423886;-0.5997314453125;-0.00687561035156251;6.88999998260442;690;1 A
22.8286009423633;-0.5997314453125;-0.00685729980468749;6.89999998257917;691;1 A
22.8386009423381;-0.59979248046875;-0.0068634033203125;6.90999998255393;692;1 A
22.8486009423128;-0.59979248046875;-0.0068634033203125;6.91999998252868;693;1 A
22.8586009422876;-0.59979248046875;-0.00686035156250001;6.92999998250343;694;1 A
22.8686009422623;-0.599761962890625;-0.00687561035156251;6.93999998247818;695;1 A
22.8786009422371;-0.599700927734375;-0.0068511962890625;6.94999998245294;696;1 A
22.8886009422118;-0.5997314453125;-0.0068634033203125;6.95999998242769;697;1 A
22.8986009421866;-0.599761962890625;-0.006854248046875;6.96999998240244;698;1 A
22.9086009421613;-0.59979248046875;-0.00686035156250001;6.97999998237719;699;1 A
22.9186009421361;-0.599700927734375;-0.0068817138671875;6.98999998235195;700;1 A
