Time (s);WE(1).Potential (V);WE(1).Current (A);Corrected time (s);Index;Current range;Overload
46.8180688817957;-0.90179443359375;-2.3431396484375;0;1;1 A;Current overload
46.8280688817705;-0.97503662109375;-2.00103759765625;0.00999999997475243;2;1 A;Current overload
46.8380688817452;-1.051025390625;-1.41265869140625;0.0199999999495049;3;1 A;
46.84806888172;-1.0498046875;-1.18194580078125;0.0299999999242573;4;1 A;
46.8580688816947;-1.0498046875;-1.04217529296875;0.0399999998990097;5;1 A;
46.8680688816695;-1.0498046875;-0.94451904296875;0.0499999998737621;6;1 A;
46.8780688816443;-1.0498046875;-0.87127685546875;0.0599999998485146;7;1 A;
46.888068881619;-1.04949951171875;-0.814208984375;0.069999999823267;8;1 A;
46.8980688815938;-1.04949951171875;-0.76812744140625;0.0799999997980194;9;1 A;
46.9080688815685;-1.05010986328125;-0.72998046875;0.0899999997727718;10;1 A;
46.9180688815433;-1.04949951171875;-0.69793701171875;0.0999999997475243;11;1 A;
46.928068881518;-1.0491943359375;-0.67108154296875;0.109999999722277;12;1 A;
46.9380688814928;-1.0498046875;-0.64697265625;0.119999999697029;13;1 A;
46.9480688814675;-1.0498046875;-0.62652587890625;0.129999999671782;14;1 A;
46.9580688814423;-1.0498046875;-0.60821533203125;0.139999999646534;15;1 A;
46.968068881417;-1.0491943359375;-0.59173583984375;0.149999999621286;16;1 A;
46.9780688813918;-1.0498046875;-0.57769775390625;0.159999999596039;17;1 A;
46.9880688813665;-1.0491943359375;-0.565185546875;0.169999999570791;18;1 A;
46.9980688813413;-1.04949951171875;-0.55419921875;0.179999999545544;19;1 A;
47.008068881316;-1.0498046875;-0.54443359375;0.189999999520296;20;1 A;
47.0180688812908;-1.0491943359375;-0.535888671875;0.199999999495049;21;1 A;
47.0280688812655;-1.05010986328125;-0.52825927734375;0.209999999469801;22;1 A;
47.0380688812403;-1.0498046875;-0.52154541015625;0.219999999444553;23;1 A;
47.048068881215;-1.0498046875;-0.516357421875;0.229999999419306;24;1 A;
47.0580688811898;-1.04949951171875;-0.51055908203125;0.239999999394058;25;1 A;
47.0680688811645;-1.04949951171875;-0.5059814453125;0.249999999368811;26;1 A;
47.0780688811393;-1.0491943359375;-0.5010986328125;0.259999999343563;27;1 A;
47.0880688811141;-1.0498046875;-0.49658203125;0.269999999318316;28;1 A;
47.0980688810888;-1.04949951171875;-0.4927978515625;0.279999999293068;29;1 A;
47.1080688810636;-1.0498046875;-0.489776611328125;0.28999999926782;30;1 A;
47.1180688810383;-1.04949951171875;-0.486419677734375;0.299999999242573;31;1 A;
47.1280688810131;-1.0491943359375;-0.48333740234375;0.309999999217325;32;1 A;
47.1380688809878;-1.04949951171875;-0.481201171875;0.319999999192078;33;1 A;
47.1480688809626;-1.0491943359375;-0.47833251953125;0.32999999916683;34;1 A;
47.1580688809373;-1.0491943359375;-0.47705078125;0.339999999141583;35;1 A;
47.1680688809121;-1.0498046875;-0.474578857421875;0.349999999116335;36;1 A;
47.1780688808868;-1.0491943359375;-0.472259521484375;0.359999999091087;37;1 A;
47.1880688808616;-1.0491943359375;-0.470001220703125;0.36999999906584;38;1 A;
47.1980688808363;-1.0491943359375;-0.466705322265625;0.379999999040592;39;1 A;
47.2080688808111;-1.0498046875;-0.464111328125;0.389999999015345;40;1 A;
47.2180688807858;-1.04949951171875;-0.46087646484375;0.399999998990097;41;1 A;
47.2280688807606;-1.0491943359375;-0.459136962890625;0.40999999896485;42;1 A;
47.2380688807353;-1.04949951171875;-0.455963134765625;0.419999998939602;43;1 A;
47.2480688807101;-1.04949951171875;-0.4544677734375;0.429999998914354;44;1 A;
47.2580688806848;-1.0491943359375;-0.45233154296875;0.439999998889107;45;1 A;
47.2680688806596;-1.04949951171875;-0.449859619140625;0.449999998863859;46;1 A;
47.2780688806344;-1.0491943359375;-0.4482421875;0.459999998838612;47;1 A;
47.2880688806091;-1.04888916015625;-0.4459228515625;0.469999998813364;48;1 A;
47.2980688805839;-1.0491943359375;-0.443878173828125;0.479999998788116;49;1 A;
47.3080688805586;-1.04888916015625;-0.441162109375;0.489999998762869;50;1 A;
47.3180688805334;-1.04949951171875;-0.4390869140625;0.499999998737621;51;1 A;
47.3280688805081;-1.04949951171875;-0.436004638671875;0.509999998712374;52;1 A;
47.3380688804829;-1.0491943359375;-0.433837890625;0.519999998687126;53;1 A;
47.3480688804576;-1.0498046875;-0.431640625;0.529999998661879;54;1 A;
47.3580688804324;-1.04949951171875;-0.429351806640625;0.539999998636631;55;1 A;
47.3680688804071;-1.0498046875;-0.42864990234375;0.549999998611383;56;1 A;
47.3780688803819;-1.04949951171875;-0.42669677734375;0.559999998586136;57;1 A;
47.3880688803566;-1.0491943359375;-0.425872802734375;0.569999998560888;58;1 A;
47.3980688803314;-1.0498046875;-0.4246826171875;0.579999998535641;59;1 A;
47.4080688803061;-1.04949951171875;-0.4244384765625;0.589999998510393;60;1 A;
47.4180688802809;-1.04949951171875;-0.42315673828125;0.599999998485146;61;1 A;
47.4280688802556;-1.04949951171875;-0.423492431640625;0.609999998459898;62;1 A;
47.4380688802304;-1.0498046875;-0.424072265625;0.61999999843465;63;1 A;
47.4480688802051;-1.04949951171875;-0.42449951171875;0.629999998409403;64;1 A;
47.4580688801799;-1.04949951171875;-0.426025390625;0.639999998384155;65;1 A;
47.4680688801546;-1.04949951171875;-0.426177978515625;0.649999998358908;66;1 A;
47.4780688801294;-1.0498046875;-0.42718505859375;0.65999999833366;67;1 A;
47.4880688801042;-1.05010986328125;-0.4271240234375;0.669999998308413;68;1 A;
47.4980688800789;-1.04949951171875;-0.426910400390625;0.679999998283165;69;1 A;
47.5080688800537;-1.04949951171875;-0.42657470703125;0.689999998257917;70;1 A;
47.5180688800284;-1.04949951171875;-0.42645263671875;0.69999999823267;71;1 A;
47.5280688800032;-1.0498046875;-0.427154541015625;0.709999998207422;72;1 A;
47.5380688799779;-1.0491943359375;-0.426849365234375;0.719999998182175;73;1 A;
47.5480688799527;-1.04888916015625;-0.428375244140625;0.729999998156927;74;1 A;
47.5580688799274;-1.0491943359375;-0.428497314453125;0.73999999813168;75;1 A;
47.5680688799022;-1.0498046875;-0.42919921875;0.749999998106432;76;1 A;
47.5780688798769;-1.0498046875;-0.430145263671875;0.759999998081184;77;1 A;
47.5880688798517;-1.04949951171875;-0.431060791015625;0.769999998055937;78;1 A;
47.5980688798264;-1.04949951171875;-0.431671142578125;0.779999998030689;79;1 A;
47.6080688798012;-1.04949951171875;-0.43182373046875;0.789999998005442;80;1 A;
47.6180688797759;-1.04949951171875;-0.43255615234375;0.799999997980194;81;1 A;
47.6280688797507;-1.0498046875;-0.432037353515625;0.809999997954947;82;1 A;
47.6380688797254;-1.0491943359375;-0.432647705078125;0.819999997929699;83;1 A;
47.6480688797002;-1.04949951171875;-0.4322509765625;0.829999997904451;84;1 A;
47.6580688796749;-1.04949951171875;-0.43212890625;0.839999997879204;85;1 A;
47.6680688796497;-1.0498046875;-0.4326171875;0.849999997853956;86;1 A;
47.6780688796244;-1.0498046875;-0.4322509765625;0.859999997828709;87;1 A;
47.6880688795992;-1.0498046875;-0.433074951171875;0.869999997803461;88;1 A;
47.698068879574;-1.04949951171875;-0.43377685546875;0.879999997778214;89;1 A;
47.7080688795487;-1.04949951171875;-0.4354248046875;0.889999997752966;90;1 A;
47.7180688795235;-1.0491943359375;-0.434814453125;0.899999997727718;91;1 A;
47.7280688794982;-1.05010986328125;-0.435546875;0.909999997702471;92;1 A;
47.738068879473;-1.0491943359375;-0.4354248046875;0.919999997677223;93;1 A;
47.7480688794477;-1.0491943359375;-0.43511962890625;0.929999997651976;94;1 A;
47.7580688794225;-1.04949951171875;-0.43597412109375;0.939999997626728;95;1 A;
47.7680688793972;-1.0491943359375;-0.435943603515625;0.949999997601481;96;1 A;
47.778068879372;-1.0491943359375;-0.4368896484375;0.959999997576233;97;1 A;
47.7880688793467;-1.04949951171875;-0.43707275390625;0.969999997550985;98;1 A;
47.7980688793215;-1.0498046875;-0.437957763671875;0.979999997525738;99;1 A;
47.8080688792962;-1.0491943359375;-0.438323974609375;0.98999999750049;100;1 A;
47.818068879271;-1.0498046875;-0.43896484375;0.999999997475243;101;1 A;
47.8280688792457;-1.0491943359375;-0.43914794921875;1.00999999745;102;1 A;
47.8380688792205;-1.0491943359375;-0.438140869140625;1.01999999742475;103;1 A;
47.8480688791952;-1.0498046875;-0.438751220703125;1.0299999973995;104;1 A;
47.85806887917;-1.04888916015625;-0.438140869140625;1.03999999737425;105;1 A;
47.8680688791447;-1.0491943359375;-0.438720703125;1.049999997349;106;1 A;
47.8780688791195;-1.04949951171875;-0.439605712890625;1.05999999732376;107;1 A;
47.8880688790942;-1.04949951171875;-0.441009521484375;1.06999999729851;108;1 A;
47.898068879069;-1.0498046875;-0.441162109375;1.07999999727326;109;1 A;
47.9080688790438;-1.0498046875;-0.441253662109375;1.08999999724801;110;1 A;
47.9180688790185;-1.04888916015625;-0.44146728515625;1.09999999722277;111;1 A;
47.9280688789933;-1.04949951171875;-0.440765380859375;1.10999999719752;112;1 A;
47.938068878968;-1.0498046875;-0.44183349609375;1.11999999717227;113;1 A;
47.9480688789428;-1.0491943359375;-0.441864013671875;1.12999999714702;114;1 A;
47.9580688789175;-1.0498046875;-0.443206787109375;1.13999999712178;115;1 A;
47.9680688788923;-1.0491943359375;-0.444244384765625;1.14999999709653;116;1 A;
47.978068878867;-1.05010986328125;-0.44476318359375;1.15999999707128;117;1 A;
47.9880688788418;-1.04888916015625;-0.445220947265625;1.16999999704603;118;1 A;
47.9980688788165;-1.04949951171875;-0.44482421875;1.17999999702079;119;1 A;
48.0080688787913;-1.04949951171875;-0.44464111328125;1.18999999699554;120;1 A;
48.018068878766;-1.04949951171875;-0.44268798828125;1.19999999697029;121;1 A;
48.0280688787408;-1.04949951171875;-0.443145751953125;1.20999999694504;122;1 A;
48.0380688787155;-1.04949951171875;-0.44244384765625;1.2199999969198;123;1 A;
48.0480688786903;-1.0491943359375;-0.441986083984375;1.22999999689455;124;1 A;
48.058068878665;-1.0491943359375;-0.44195556640625;1.2399999968693;125;1 A;
48.0680688786398;-1.04949951171875;-0.440826416015625;1.24999999684405;126;1 A;
48.0780688786145;-1.0498046875;-0.44036865234375;1.25999999681881;127;1 A;
48.0880688785893;-1.04949951171875;-0.438873291015625;1.26999999679356;128;1 A;
48.098068878564;-1.04949951171875;-0.4384765625;1.27999999676831;129;1 A;
48.1080688785388;-1.04888916015625;-0.437347412109375;1.28999999674306;130;1 A;
48.1180688785136;-1.04949951171875;-0.437652587890625;1.29999999671782;131;1 A;
48.1280688784883;-1.0491943359375;-0.437744140625;1.30999999669257;132;1 A;
48.1380688784631;-1.04949951171875;-0.438262939453125;1.31999999666732;133;1 A;
48.1480688784378;-1.04949951171875;-0.440277099609375;1.32999999664207;134;1 A;
48.1580688784126;-1.0498046875;-0.44140625;1.33999999661683;135;1 A;
48.1680688783873;-1.04949951171875;-0.443450927734375;1.34999999659158;136;1 A;
48.1780688783621;-1.0498046875;-0.445343017578125;1.35999999656633;137;1 A;
48.1880688783368;-1.0498046875;-0.447509765625;1.36999999654108;138;1 A;
48.1980688783116;-1.05010986328125;-0.448333740234375;1.37999999651583;139;1 A;
48.2080688782863;-1.04949951171875;-0.44964599609375;1.38999999649059;140;1 A;
48.2180688782611;-1.04949951171875;-0.4501953125;1.39999999646534;141;1 A;
48.2280688782358;-1.0491943359375;-0.4495849609375;1.40999999644009;142;1 A;
48.2380688782106;-1.04949951171875;-0.449951171875;1.41999999641484;143;1 A;
48.2480688781853;-1.04949951171875;-0.448577880859375;1.4299999963896;144;1 A;
48.2580688781601;-1.04949951171875;-0.448699951171875;1.43999999636435;145;1 A;
48.2680688781348;-1.04949951171875;-0.447967529296875;1.4499999963391;146;1 A;
48.2780688781096;-1.0491943359375;-0.44781494140625;1.45999999631385;147;1 A;
48.2880688780843;-1.04949951171875;-0.447784423828125;1.46999999628861;148;1 A;
48.2980688780591;-1.05010986328125;-0.448028564453125;1.47999999626336;149;1 A;
48.3080688780339;-1.04949951171875;-0.44818115234375;1.48999999623811;150;1 A;
48.3180688780086;-1.0491943359375;-0.44757080078125;1.49999999621286;151;1 A;
48.3280688779834;-1.04949951171875;-0.44915771484375;1.50999999618762;152;1 A;
48.3380688779581;-1.0491943359375;-0.44879150390625;1.51999999616237;153;1 A;
48.3480688779329;-1.04949951171875;-0.44879150390625;1.52999999613712;154;1 A;
48.3580688779076;-1.04949951171875;-0.449127197265625;1.53999999611187;155;1 A;
48.3680688778824;-1.0491943359375;-0.44927978515625;1.54999999608663;156;1 A;
48.3780688778571;-1.04949951171875;-0.44964599609375;1.55999999606138;157;1 A;
48.3880688778319;-1.04888916015625;-0.44940185546875;1.56999999603613;158;1 A;
48.3980688778066;-1.04949951171875;-0.449554443359375;1.57999999601088;159;1 A;
48.4080688777814;-1.0491943359375;-0.44866943359375;1.58999999598564;160;1 A;
48.4180688777561;-1.0491943359375;-0.449127197265625;1.59999999596039;161;1 A;
48.4280688777309;-1.0491943359375;-0.448028564453125;1.60999999593514;162;1 A;
48.4380688777056;-1.0498046875;-0.44830322265625;1.61999999590989;163;1 A;
48.4480688776804;-1.0498046875;-0.448486328125;1.62999999588465;164;1 A;
48.4580688776551;-1.05010986328125;-0.44830322265625;1.6399999958594;165;1 A;
48.4680688776299;-1.0491943359375;-0.44842529296875;1.64999999583415;166;1 A;
48.4780688776046;-1.04949951171875;-0.44854736328125;1.6599999958089;167;1 A;
48.4880688775794;-1.0491943359375;-0.449066162109375;1.66999999578366;168;1 A;
48.4980688775541;-1.0498046875;-0.448822021484375;1.67999999575841;169;1 A;
48.5080688775289;-1.04949951171875;-0.450469970703125;1.68999999573316;170;1 A;
48.5180688775037;-1.0498046875;-0.450469970703125;1.69999999570791;171;1 A;
48.5280688774784;-1.04949951171875;-0.450714111328125;1.70999999568267;172;1 A;
48.5380688774532;-1.04949951171875;-0.451568603515625;1.71999999565742;173;1 A;
48.5480688774279;-1.0498046875;-0.4510498046875;1.72999999563217;174;1 A;
48.5580688774027;-1.04949951171875;-0.4520263671875;1.73999999560692;175;1 A;
48.5680688773774;-1.0491943359375;-0.451751708984375;1.74999999558167;176;1 A;
48.5780688773522;-1.05010986328125;-0.452850341796875;1.75999999555643;177;1 A;
48.5880688773269;-1.0498046875;-0.4527587890625;1.76999999553118;178;1 A;
48.5980688773017;-1.04949951171875;-0.453521728515625;1.77999999550593;179;1 A;
48.6080688772764;-1.0498046875;-0.452850341796875;1.78999999548068;180;1 A;
48.6180688772512;-1.0491943359375;-0.45263671875;1.79999999545544;181;1 A;
48.6280688772259;-1.0498046875;-0.453582763671875;1.80999999543019;182;1 A;
48.6380688772007;-1.05010986328125;-0.452880859375;1.81999999540494;183;1 A;
48.6480688771754;-1.0498046875;-0.452911376953125;1.82999999537969;184;1 A;
48.6580688771502;-1.0498046875;-0.4530029296875;1.83999999535445;185;1 A;
48.6680688771249;-1.04949951171875;-0.453277587890625;1.8499999953292;186;1 A;
48.6780688770997;-1.05010986328125;-0.453399658203125;1.85999999530395;187;1 A;
48.6880688770744;-1.04949951171875;-0.453643798828125;1.8699999952787;188;1 A;
48.6980688770492;-1.04949951171875;-0.453765869140625;1.87999999525346;189;1 A;
48.7080688770239;-1.04949951171875;-0.453125;1.88999999522821;190;1 A;
48.7180688769987;-1.0491943359375;-0.45391845703125;1.89999999520296;191;1 A;
48.7280688769735;-1.0491943359375;-0.452178955078125;1.90999999517771;192;1 A;
48.7380688769482;-1.04949951171875;-0.452392578125;1.91999999515247;193;1 A;
48.748068876923;-1.0491943359375;-0.451019287109375;1.92999999512722;194;1 A;
48.7580688768977;-1.04949951171875;-0.4503173828125;1.93999999510197;195;1 A;
48.7680688768725;-1.0498046875;-0.449462890625;1.94999999507672;196;1 A;
48.7780688768472;-1.04888916015625;-0.449005126953125;1.95999999505148;197;1 A;
48.788068876822;-1.04949951171875;-0.447418212890625;1.96999999502623;198;1 A;
48.7980688767967;-1.0498046875;-0.445404052734375;1.97999999500098;199;1 A;
48.8080688767715;-1.0491943359375;-0.446197509765625;1.98999999497573;200;1 A;
48.8180688767462;-1.04888916015625;-0.44482421875;1.99999999495049;201;1 A;
48.828068876721;-1.0498046875;-0.445159912109375;2.00999999492524;202;1 A;
48.8380688766957;-1.04949951171875;-0.445526123046875;2.01999999489999;203;1 A;
48.8480688766705;-1.0498046875;-0.44500732421875;2.02999999487474;204;1 A;
48.8580688766452;-1.05010986328125;-0.445281982421875;2.0399999948495;205;1 A;
48.86806887662;-1.04949951171875;-0.444000244140625;2.04999999482425;206;1 A;
48.8780688765947;-1.04949951171875;-0.44439697265625;2.059999994799;207;1 A;
48.8880688765695;-1.04949951171875;-0.443115234375;2.06999999477375;208;1 A;
48.8980688765442;-1.04949951171875;-0.44415283203125;2.0799999947485;209;1 A;
48.908068876519;-1.0498046875;-0.441864013671875;2.08999999472326;210;1 A;
48.9180688764937;-1.0498046875;-0.44183349609375;2.09999999469801;211;1 A;
48.9280688764685;-1.0498046875;-0.4415283203125;2.10999999467276;212;1 A;
48.9380688764433;-1.04949951171875;-0.440399169921875;2.11999999464751;213;1 A;
48.948068876418;-1.0498046875;-0.440155029296875;2.12999999462227;214;1 A;
48.9580688763928;-1.04949951171875;-0.439727783203125;2.13999999459702;215;1 A;
48.9680688763675;-1.0491943359375;-0.439544677734375;2.14999999457177;216;1 A;
48.9780688763423;-1.0498046875;-0.438323974609375;2.15999999454652;217;1 A;
48.988068876317;-1.04949951171875;-0.438934326171875;2.16999999452128;218;1 A;
48.9980688762918;-1.0491943359375;-0.437957763671875;2.17999999449603;219;1 A;
49.0080688762665;-1.04949951171875;-0.43743896484375;2.18999999447078;220;1 A;
49.0180688762413;-1.04949951171875;-0.438507080078125;2.19999999444553;221;1 A;
49.028068876216;-1.0498046875;-0.436370849609375;2.20999999442029;222;1 A;
49.0380688761908;-1.04949951171875;-0.43768310546875;2.21999999439504;223;1 A;
49.0480688761655;-1.0491943359375;-0.43572998046875;2.22999999436979;224;1 A;
49.0580688761403;-1.0498046875;-0.43670654296875;2.23999999434454;225;1 A;
49.068068876115;-1.04949951171875;-0.436065673828125;2.2499999943193;226;1 A;
49.0780688760898;-1.04949951171875;-0.437103271484375;2.25999999429405;227;1 A;
49.0880688760645;-1.04949951171875;-0.435791015625;2.2699999942688;228;1 A;
49.0980688760393;-1.0498046875;-0.4349365234375;2.27999999424355;229;1 A;
49.108068876014;-1.0491943359375;-0.4364013671875;2.28999999421831;230;1 A;
49.1180688759888;-1.0491943359375;-0.43389892578125;2.29999999419306;231;1 A;
49.1280688759635;-1.04949951171875;-0.433319091796875;2.30999999416781;232;1 A;
49.1380688759383;-1.0491943359375;-0.432342529296875;2.31999999414256;233;1 A;
49.1480688759131;-1.0498046875;-0.43115234375;2.32999999411732;234;1 A;
49.1580688758878;-1.04888916015625;-0.43023681640625;2.33999999409207;235;1 A;
49.1680688758626;-1.05010986328125;-0.4285888671875;2.34999999406682;236;1 A;
49.1780688758373;-1.04949951171875;-0.428802490234375;2.35999999404157;237;1 A;
49.1880688758121;-1.0498046875;-0.4276123046875;2.36999999401633;238;1 A;
49.1980688757868;-1.04949951171875;-0.4296875;2.37999999399108;239;1 A;
49.2080688757616;-1.04949951171875;-0.42730712890625;2.38999999396583;240;1 A;
49.2180688757363;-1.04949951171875;-0.429718017578125;2.39999999394058;241;1 A;
49.2280688757111;-1.0498046875;-0.43023681640625;2.40999999391533;242;1 A;
49.2380688756858;-1.04949951171875;-0.431396484375;2.41999999389009;243;1 A;
49.2480688756606;-1.0498046875;-0.432586669921875;2.42999999386484;244;1 A;
49.2580688756353;-1.0491943359375;-0.433746337890625;2.43999999383959;245;1 A;
49.2680688756101;-1.04949951171875;-0.43402099609375;2.44999999381434;246;1 A;
49.2780688755848;-1.04949951171875;-0.433349609375;2.4599999937891;247;1 A;
49.2880688755596;-1.0498046875;-0.435699462890625;2.46999999376385;248;1 A;
49.2980688755343;-1.04949951171875;-0.434326171875;2.4799999937386;249;1 A;
49.3080688755091;-1.0498046875;-0.435089111328125;2.48999999371335;250;1 A;
49.3180688754838;-1.0491943359375;-0.436737060546875;2.49999999368811;251;1 A;
49.3280688754586;-1.05010986328125;-0.435882568359375;2.50999999366286;252;1 A;
49.3380688754334;-1.04949951171875;-0.438751220703125;2.51999999363761;253;1 A;
49.3480688754081;-1.05010986328125;-0.4375;2.52999999361236;254;1 A;
49.3580688753829;-1.04949951171875;-0.440216064453125;2.53999999358712;255;1 A;
49.3680688753576;-1.04949951171875;-0.440185546875;2.54999999356187;256;1 A;
49.3780688753324;-1.0498046875;-0.443084716796875;2.55999999353662;257;1 A;
49.3880688753071;-1.04949951171875;-0.440887451171875;2.56999999351137;258;1 A;
49.3980688752819;-1.0498046875;-0.441802978515625;2.57999999348613;259;1 A;
49.4080688752566;-1.04949951171875;-0.44354248046875;2.58999999346088;260;1 A;
49.4180688752314;-1.0498046875;-0.4422607421875;2.59999999343563;261;1 A;
49.4280688752061;-1.04949951171875;-0.4429931640625;2.60999999341038;262;1 A;
49.4380688751809;-1.04949951171875;-0.442535400390625;2.61999999338514;263;1 A;
49.4480688751556;-1.0498046875;-0.442596435546875;2.62999999335989;264;1 A;
49.4580688751304;-1.0498046875;-0.442138671875;2.63999999333464;265;1 A;
49.4680688751051;-1.04949951171875;-0.4423828125;2.64999999330939;266;1 A;
49.4780688750799;-1.0491943359375;-0.443084716796875;2.65999999328415;267;1 A;
49.4880688750546;-1.0498046875;-0.443084716796875;2.6699999932589;268;1 A;
49.4980688750294;-1.0498046875;-0.44580078125;2.67999999323365;269;1 A;
49.5080688750041;-1.04949951171875;-0.442474365234375;2.6899999932084;270;1 A;
49.5180688749789;-1.0491943359375;-0.4454345703125;2.69999999318316;271;1 A;
49.5280688749536;-1.0491943359375;-0.444091796875;2.70999999315791;272;1 A;
49.5380688749284;-1.0491943359375;-0.44573974609375;2.71999999313266;273;1 A;
49.5480688749032;-1.0491943359375;-0.445587158203125;2.72999999310741;274;1 A;
49.5580688748779;-1.0491943359375;-0.44647216796875;2.73999999308217;275;1 A;
49.5680688748527;-1.04949951171875;-0.44427490234375;2.74999999305692;276;1 A;
49.5780688748274;-1.04949951171875;-0.443023681640625;2.75999999303167;277;1 A;
49.5880688748022;-1.04888916015625;-0.44549560546875;2.76999999300642;278;1 A;
49.5980688747769;-1.04949951171875;-0.442474365234375;2.77999999298117;279;1 A;
49.6080688747517;-1.0491943359375;-0.443267822265625;2.78999999295593;280;1 A;
49.6180688747264;-1.0491943359375;-0.44378662109375;2.79999999293068;281;1 A;
49.6280688747012;-1.04949951171875;-0.44268798828125;2.80999999290543;282;1 A;
49.6380688746759;-1.04949951171875;-0.44384765625;2.81999999288018;283;1 A;
49.6480688746507;-1.0498046875;-0.441650390625;2.82999999285494;284;1 A;
49.6580688746254;-1.04949951171875;-0.443389892578125;2.83999999282969;285;1 A;
49.6680688746002;-1.0491943359375;-0.44140625;2.84999999280444;286;1 A;
49.6780688745749;-1.0498046875;-0.444244384765625;2.85999999277919;287;1 A;
49.6880688745497;-1.04949951171875;-0.43975830078125;2.86999999275395;288;1 A;
49.6980688745244;-1.04888916015625;-0.44219970703125;2.8799999927287;289;1 A;
49.7080688744992;-1.0498046875;-0.4429931640625;2.88999999270345;290;1 A;
49.7180688744739;-1.0491943359375;-0.44281005859375;2.8999999926782;291;1 A;
49.7280688744487;-1.0498046875;-0.4444580078125;2.90999999265296;292;1 A;
49.7380688744234;-1.0491943359375;-0.4454345703125;2.91999999262771;293;1 A;
49.7480688743982;-1.04949951171875;-0.44647216796875;2.92999999260246;294;1 A;
49.758068874373;-1.0491943359375;-0.446044921875;2.93999999257721;295;1 A;
49.7680688743477;-1.04949951171875;-0.44793701171875;2.94999999255197;296;1 A;
49.7780688743225;-1.04949951171875;-0.44647216796875;2.95999999252672;297;1 A;
49.7880688742972;-1.04949951171875;-0.446258544921875;2.96999999250147;298;1 A;
49.798068874272;-1.04949951171875;-0.4483642578125;2.97999999247622;299;1 A;
49.8080688742467;-1.04949951171875;-0.44488525390625;2.98999999245098;300;1 A;
49.8180688742215;-1.0498046875;-0.44805908203125;2.99999999242573;301;1 A;
49.8280688741962;-1.0498046875;-0.444610595703125;3.00999999240048;302;1 A;
49.838068874171;-1.04949951171875;-0.446868896484375;3.01999999237523;303;1 A;
49.8480688741457;-1.0498046875;-0.445526123046875;3.02999999234999;304;1 A;
49.8580688741205;-1.04949951171875;-0.448150634765625;3.03999999232474;305;1 A;
49.8680688740952;-1.04949951171875;-0.44476318359375;3.04999999229949;306;1 A;
49.87806887407;-1.04949951171875;-0.4444580078125;3.05999999227424;307;1 A;
49.8880688740447;-1.0491943359375;-0.4478759765625;3.069999992249;308;1 A;
49.8980688740195;-1.05010986328125;-0.444488525390625;3.07999999222375;309;1 A;
49.9080688739942;-1.0491943359375;-0.446136474609375;3.0899999921985;310;1 A;
49.918068873969;-1.04949951171875;-0.445465087890625;3.09999999217325;311;1 A;
49.9280688739437;-1.0491943359375;-0.4456787109375;3.109999992148;312;1 A;
49.9380688739185;-1.0498046875;-0.445465087890625;3.11999999212276;313;1 A;
49.9480688738932;-1.0491943359375;-0.44366455078125;3.12999999209751;314;1 A;
49.958068873868;-1.04949951171875;-0.44537353515625;3.13999999207226;315;1 A;
49.9680688738428;-1.04949951171875;-0.444000244140625;3.14999999204701;316;1 A;
49.9780688738175;-1.04949951171875;-0.448272705078125;3.15999999202177;317;1 A;
49.9880688737923;-1.0498046875;-0.44268798828125;3.16999999199652;318;1 A;
49.998068873767;-1.0491943359375;-0.446380615234375;3.17999999197127;319;1 A;
50.0080688737418;-1.04949951171875;-0.44476318359375;3.18999999194602;320;1 A;
50.0180688737165;-1.0491943359375;-0.44464111328125;3.19999999192078;321;1 A;
50.0280688736913;-1.04949951171875;-0.4442138671875;3.20999999189553;322;1 A;
50.038068873666;-1.04949951171875;-0.443328857421875;3.21999999187028;323;1 A;
50.0480688736408;-1.0498046875;-0.4417724609375;3.22999999184503;324;1 A;
50.0580688736155;-1.0491943359375;-0.439117431640625;3.23999999181979;325;1 A;
50.0680688735903;-1.04949951171875;-0.441009521484375;3.24999999179454;326;1 A;
50.078068873565;-1.04949951171875;-0.437042236328125;3.25999999176929;327;1 A;
50.0880688735398;-1.0491943359375;-0.436431884765625;3.26999999174404;328;1 A;
50.0980688735145;-1.04949951171875;-0.437347412109375;3.2799999917188;329;1 A;
50.1080688734893;-1.04949951171875;-0.43267822265625;3.28999999169355;330;1 A;
50.118068873464;-1.04949951171875;-0.434967041015625;3.2999999916683;331;1 A;
50.1280688734388;-1.04949951171875;-0.429779052734375;3.30999999164305;332;1 A;
50.1380688734135;-1.04949951171875;-0.43304443359375;3.31999999161781;333;1 A;
50.1480688733883;-1.04949951171875;-0.4305419921875;3.32999999159256;334;1 A;
50.158068873363;-1.0491943359375;-0.4339599609375;3.33999999156731;335;1 A;
50.1680688733378;-1.0498046875;-0.42840576171875;3.34999999154206;336;1 A;
50.1780688733126;-1.04949951171875;-0.42926025390625;3.35999999151682;337;1 A;
50.1880688732873;-1.0498046875;-0.43243408203125;3.36999999149157;338;1 A;
50.1980688732621;-1.04949951171875;-0.429779052734375;3.37999999146632;339;1 A;
50.2080688732368;-1.05010986328125;-0.432037353515625;3.38999999144107;340;1 A;
50.2180688732116;-1.04949951171875;-0.431854248046875;3.39999999141583;341;1 A;
50.2280688731863;-1.04949951171875;-0.433380126953125;3.40999999139058;342;1 A;
50.2380688731611;-1.0498046875;-0.433349609375;3.41999999136533;343;1 A;
50.2480688731358;-1.04949951171875;-0.43328857421875;3.42999999134008;344;1 A;
50.2580688731106;-1.04949951171875;-0.434722900390625;3.43999999131483;345;1 A;
50.2680688730853;-1.04949951171875;-0.433563232421875;3.44999999128959;346;1 A;
50.2780688730601;-1.0491943359375;-0.438812255859375;3.45999999126434;347;1 A;
50.2880688730348;-1.04949951171875;-0.432891845703125;3.46999999123909;348;1 A;
50.2980688730096;-1.04949951171875;-0.4390869140625;3.47999999121384;349;1 A;
50.3080688729843;-1.04949951171875;-0.436920166015625;3.4899999911886;350;1 A;
50.3180688729591;-1.0498046875;-0.439056396484375;3.49999999116335;351;1 A;
50.3280688729338;-1.04949951171875;-0.439361572265625;3.5099999911381;352;1 A;
50.3380688729086;-1.0491943359375;-0.44097900390625;3.51999999111285;353;1 A;
50.3480688728833;-1.04949951171875;-0.43902587890625;3.52999999108761;354;1 A;
50.3580688728581;-1.0498046875;-0.43743896484375;3.53999999106236;355;1 A;
50.3680688728329;-1.04949951171875;-0.441864013671875;3.54999999103711;356;1 A;
50.3780688728076;-1.0498046875;-0.437042236328125;3.55999999101186;357;1 A;
50.3880688727824;-1.0498046875;-0.4384765625;3.56999999098662;358;1 A;
50.3980688727571;-1.0498046875;-0.440093994140625;3.57999999096137;359;1 A;
50.4080688727319;-1.05010986328125;-0.43731689453125;3.58999999093612;360;1 A;
50.4180688727066;-1.05010986328125;-0.440032958984375;3.59999999091087;361;1 A;
50.4280688726814;-1.04949951171875;-0.435821533203125;3.60999999088563;362;1 A;
50.4380688726561;-1.0491943359375;-0.43988037109375;3.61999999086038;363;1 A;
50.4480688726309;-1.04949951171875;-0.437713623046875;3.62999999083513;364;1 A;
50.4580688726056;-1.0491943359375;-0.443756103515625;3.63999999080988;365;1 A;
50.4680688725804;-1.04949951171875;-0.4368896484375;3.64999999078464;366;1 A;
50.4780688725551;-1.04949951171875;-0.44110107421875;3.65999999075939;367;1 A;
50.4880688725299;-1.04949951171875;-0.4425048828125;3.66999999073414;368;1 A;
50.4980688725046;-1.0498046875;-0.441009521484375;3.67999999070889;369;1 A;
50.5080688724794;-1.0491943359375;-0.442352294921875;3.68999999068365;370;1 A;
50.5180688724541;-1.04949951171875;-0.44158935546875;3.6999999906584;371;1 A;
50.5280688724289;-1.0491943359375;-0.44171142578125;3.70999999063315;372;1 A;
50.5380688724036;-1.04949951171875;-0.4404296875;3.7199999906079;373;1 A;
50.5480688723784;-1.0491943359375;-0.442108154296875;3.72999999058266;374;1 A;
50.5580688723531;-1.0491943359375;-0.440643310546875;3.73999999055741;375;1 A;
50.5680688723279;-1.0498046875;-0.440155029296875;3.74999999053216;376;1 A;
50.5780688723027;-1.04949951171875;-0.44329833984375;3.75999999050691;377;1 A;
50.5880688722774;-1.0498046875;-0.435394287109375;3.76999999048167;378;1 A;
50.5980688722522;-1.04949951171875;-0.4405517578125;3.77999999045642;379;1 A;
50.6080688722269;-1.04949951171875;-0.43450927734375;3.78999999043117;380;1 A;
50.6180688722017;-1.04949951171875;-0.437774658203125;3.79999999040592;381;1 A;
50.6280688721764;-1.04949951171875;-0.435882568359375;3.80999999038067;382;1 A;
50.6380688721512;-1.0491943359375;-0.439422607421875;3.81999999035543;383;1 A;
50.6480688721259;-1.0498046875;-0.435089111328125;3.82999999033018;384;1 A;
50.6580688721007;-1.04949951171875;-0.4361572265625;3.83999999030493;385;1 A;
50.6680688720754;-1.0491943359375;-0.442169189453125;3.84999999027968;386;1 A;
50.6780688720502;-1.0498046875;-0.437591552734375;3.85999999025444;387;1 A;
50.6880688720249;-1.04949951171875;-0.44073486328125;3.86999999022919;388;1 A;
50.6980688719997;-1.04949951171875;-0.440338134765625;3.87999999020394;389;1 A;
50.7080688719744;-1.04949951171875;-0.439544677734375;3.88999999017869;390;1 A;
50.7180688719492;-1.0498046875;-0.439849853515625;3.89999999015345;391;1 A;
50.7280688719239;-1.0498046875;-0.4371337890625;3.9099999901282;392;1 A;
50.7380688718987;-1.04949951171875;-0.44085693359375;3.91999999010295;393;1 A;
50.7480688718734;-1.04949951171875;-0.438507080078125;3.9299999900777;394;1 A;
50.7580688718482;-1.0498046875;-0.445343017578125;3.93999999005246;395;1 A;
50.7680688718229;-1.0491943359375;-0.4345703125;3.94999999002721;396;1 A;
50.7780688717977;-1.0498046875;-0.44036865234375;3.95999999000196;397;1 A;
50.7880688717725;-1.04949951171875;-0.437286376953125;3.96999998997671;398;1 A;
50.7980688717472;-1.0498046875;-0.4373779296875;3.97999998995147;399;1 A;
50.808068871722;-1.04949951171875;-0.4376220703125;3.98999998992622;400;1 A;
50.8180688716967;-1.04949951171875;-0.43756103515625;3.99999998990097;401;1 A;
50.8280688716715;-1.0491943359375;-0.437591552734375;4.00999998987572;402;1 A;
50.8380688716462;-1.0491943359375;-0.435577392578125;4.01999998985048;403;1 A;
50.848068871621;-1.04949951171875;-0.440704345703125;4.02999998982523;404;1 A;
50.8580688715957;-1.0491943359375;-0.43658447265625;4.03999998979998;405;1 A;
50.8680688715705;-1.04949951171875;-0.438140869140625;4.04999998977473;406;1 A;
50.8780688715452;-1.0491943359375;-0.440948486328125;4.05999998974949;407;1 A;
50.88806887152;-1.0498046875;-0.434417724609375;4.06999998972424;408;1 A;
50.8980688714947;-1.0491943359375;-0.440216064453125;4.07999998969899;409;1 A;
50.9080688714695;-1.0491943359375;-0.43310546875;4.08999998967374;410;1 A;
50.9180688714442;-1.05010986328125;-0.438568115234375;4.0999999896485;411;1 A;
50.928068871419;-1.04888916015625;-0.435516357421875;4.10999998962325;412;1 A;
50.9380688713937;-1.0498046875;-0.44189453125;4.119999989598;413;1 A;
50.9480688713685;-1.05010986328125;-0.433929443359375;4.12999998957275;414;1 A;
50.9580688713432;-1.0498046875;-0.435882568359375;4.1399999895475;415;1 A;
50.968068871318;-1.04949951171875;-0.441009521484375;4.14999998952226;416;1 A;
50.9780688712927;-1.0491943359375;-0.436737060546875;4.15999998949701;417;1 A;
50.9880688712675;-1.0498046875;-0.4405517578125;4.16999998947176;418;1 A;
50.9980688712423;-1.04949951171875;-0.43988037109375;4.17999998944651;419;1 A;
51.008068871217;-1.04949951171875;-0.4420166015625;4.18999998942127;420;1 A;
51.0180688711918;-1.0491943359375;-0.440673828125;4.19999998939602;421;1 A;
51.0280688711665;-1.0498046875;-0.438995361328125;4.20999998937077;422;1 A;
51.0380688711413;-1.04949951171875;-0.440673828125;4.21999998934552;423;1 A;
51.048068871116;-1.0498046875;-0.437408447265625;4.22999998932028;424;1 A;
51.0580688710908;-1.0498046875;-0.443450927734375;4.23999998929503;425;1 A;
51.0680688710655;-1.04949951171875;-0.43060302734375;4.24999998926978;426;1 A;
51.0780688710403;-1.05010986328125;-0.437469482421875;4.25999998924453;427;1 A;
51.088068871015;-1.0491943359375;-0.431732177734375;4.26999998921929;428;1 A;
51.0980688709898;-1.04949951171875;-0.433197021484375;4.27999998919404;429;1 A;
51.1080688709645;-1.0491943359375;-0.432159423828125;4.28999998916879;430;1 A;
51.1180688709393;-1.0498046875;-0.43212890625;4.29999998914354;431;1 A;
51.128068870914;-1.04949951171875;-0.430816650390625;4.3099999891183;432;1 A;
51.1380688708888;-1.0498046875;-0.427978515625;4.31999998909305;433;1 A;
51.1480688708635;-1.0498046875;-0.435028076171875;4.3299999890678;434;1 A;
51.1580688708383;-1.0498046875;-0.42901611328125;4.33999998904255;435;1 A;
51.168068870813;-1.04949951171875;-0.432037353515625;4.34999998901731;436;1 A;
51.1780688707878;-1.04949951171875;-0.4344482421875;4.35999998899206;437;1 A;
51.1880688707625;-1.0498046875;-0.42962646484375;4.36999998896681;438;1 A;
51.1980688707373;-1.0498046875;-0.4351806640625;4.37999998894156;439;1 A;
51.2080688707121;-1.0498046875;-0.4278564453125;4.38999998891632;440;1 A;
51.2180688706868;-1.04949951171875;-0.43450927734375;4.39999998889107;441;1 A;
51.2280688706616;-1.0491943359375;-0.430084228515625;4.40999998886582;442;1 A;
51.2380688706363;-1.0498046875;-0.4366455078125;4.41999998884057;443;1 A;
51.2480688706111;-1.05010986328125;-0.4259033203125;4.42999998881533;444;1 A;
51.2580688705858;-1.048583984375;-0.428619384765625;4.43999998879008;445;1 A;
51.2680688705606;-1.0498046875;-0.430877685546875;4.44999998876483;446;1 A;
51.2780688705353;-1.04888916015625;-0.42620849609375;4.45999998873958;447;1 A;
51.2880688705101;-1.04949951171875;-0.428192138671875;4.46999998871433;448;1 A;
51.2980688704848;-1.05010986328125;-0.425933837890625;4.47999998868909;449;1 A;
51.3080688704596;-1.0498046875;-0.42724609375;4.48999998866384;450;1 A;
51.3180688704343;-1.04949951171875;-0.424468994140625;4.49999998863859;451;1 A;
51.3280688704091;-1.05010986328125;-0.42523193359375;4.50999998861334;452;1 A;
51.3380688703838;-1.04949951171875;-0.4259033203125;4.5199999885881;453;1 A;
51.3480688703586;-1.0491943359375;-0.425262451171875;4.52999998856285;454;1 A;
51.3580688703333;-1.0491943359375;-0.432281494140625;4.5399999885376;455;1 A;
51.3680688703081;-1.0491943359375;-0.42132568359375;4.54999998851235;456;1 A;
51.3780688702828;-1.0491943359375;-0.43060302734375;4.55999998848711;457;1 A;
51.3880688702576;-1.0498046875;-0.425048828125;4.56999998846186;458;1 A;
51.3980688702324;-1.0491943359375;-0.42938232421875;4.57999998843661;459;1 A;
51.4080688702071;-1.04888916015625;-0.428985595703125;4.58999998841136;460;1 A;
51.4180688701819;-1.0498046875;-0.43206787109375;4.59999998838612;461;1 A;
51.4280688701566;-1.0498046875;-0.42791748046875;4.60999998836087;462;1 A;
51.4380688701314;-1.04949951171875;-0.428070068359375;4.61999998833562;463;1 A;
51.4480688701061;-1.0491943359375;-0.43597412109375;4.62999998831037;464;1 A;
51.4580688700809;-1.04949951171875;-0.429473876953125;4.63999998828513;465;1 A;
51.4680688700556;-1.04949951171875;-0.43450927734375;4.64999998825988;466;1 A;
51.4780688700304;-1.0498046875;-0.437225341796875;4.65999998823463;467;1 A;
51.4880688700051;-1.04949951171875;-0.436309814453125;4.66999998820938;468;1 A;
51.4980688699799;-1.0498046875;-0.44097900390625;4.67999998818414;469;1 A;
51.5080688699546;-1.0498046875;-0.43768310546875;4.68999998815889;470;1 A;
51.5180688699294;-1.04949951171875;-0.444610595703125;4.69999998813364;471;1 A;
51.5280688699041;-1.0498046875;-0.44195556640625;4.70999998810839;472;1 A;
51.5380688698789;-1.0498046875;-0.450927734375;4.71999998808315;473;1 A;
51.5480688698536;-1.04949951171875;-0.437469482421875;4.7299999880579;474;1 A;
51.5580688698284;-1.04949951171875;-0.443878173828125;4.73999998803265;475;1 A;
51.5680688698031;-1.05010986328125;-0.4427490234375;4.7499999880074;476;1 A;
51.5780688697779;-1.04949951171875;-0.4400634765625;4.75999998798216;477;1 A;
51.5880688697526;-1.04949951171875;-0.441497802734375;4.76999998795691;478;1 A;
51.5980688697274;-1.0498046875;-0.440277099609375;4.77999998793166;479;1 A;
51.6080688697022;-1.0491943359375;-0.442108154296875;4.78999998790641;480;1 A;
51.6180688696769;-1.04949951171875;-0.439117431640625;4.79999998788116;481;1 A;
51.6280688696517;-1.0498046875;-0.443389892578125;4.80999998785592;482;1 A;
51.6380688696264;-1.04949951171875;-0.44134521484375;4.81999998783067;483;1 A;
51.6480688696012;-1.04949951171875;-0.4420166015625;4.82999998780542;484;1 A;
51.6580688695759;-1.04949951171875;-0.448455810546875;4.83999998778017;485;1 A;
51.6680688695507;-1.04949951171875;-0.43780517578125;4.84999998775493;486;1 A;
51.6780688695254;-1.0498046875;-0.44720458984375;4.85999998772968;487;1 A;
51.6880688695002;-1.04949951171875;-0.439178466796875;4.86999998770443;488;1 A;
51.6980688694749;-1.04888916015625;-0.4456787109375;4.87999998767918;489;1 A;
51.7080688694497;-1.0491943359375;-0.444061279296875;4.88999998765394;490;1 A;
51.7180688694244;-1.0491943359375;-0.45050048828125;4.89999998762869;491;1 A;
51.7280688693992;-1.0491943359375;-0.443023681640625;4.90999998760344;492;1 A;
51.7380688693739;-1.0498046875;-0.44427490234375;4.91999998757819;493;1 A;
51.7480688693487;-1.05010986328125;-0.45196533203125;4.92999998755295;494;1 A;
51.7580688693234;-1.0504150390625;-0.44451904296875;4.9399999875277;495;1 A;
51.7680688692982;-1.0491943359375;-0.449127197265625;4.94999998750245;496;1 A;
51.7780688692729;-1.0498046875;-0.4490966796875;4.9599999874772;497;1 A;
51.7880688692477;-1.04949951171875;-0.450103759765625;4.96999998745196;498;1 A;
51.7980688692224;-1.0498046875;-0.450775146484375;4.97999998742671;499;1 A;
51.8080688691972;-1.0491943359375;-0.4482421875;4.98999998740146;500;1 A;
51.818068869172;-1.04949951171875;-0.452392578125;4.99999998737621;501;1 A;
51.8280688691467;-1.0491943359375;-0.449493408203125;5.00999998735097;502;1 A;
51.8380688691215;-1.0491943359375;-0.45904541015625;5.01999998732572;503;1 A;
51.8480688690962;-1.04949951171875;-0.4442138671875;5.02999998730047;504;1 A;
51.858068869071;-1.0491943359375;-0.453704833984375;5.03999998727522;505;1 A;
51.8680688690457;-1.04949951171875;-0.448333740234375;5.04999998724998;506;1 A;
51.8780688690205;-1.04949951171875;-0.44921875;5.05999998722473;507;1 A;
51.8880688689952;-1.04949951171875;-0.44873046875;5.06999998719948;508;1 A;
51.89806886897;-1.04949951171875;-0.44866943359375;5.07999998717423;509;1 A;
51.9080688689447;-1.0498046875;-0.447265625;5.08999998714899;510;1 A;
51.9180688689195;-1.0498046875;-0.44384765625;5.09999998712374;511;1 A;
51.9280688688942;-1.0498046875;-0.45147705078125;5.10999998709849;512;1 A;
51.938068868869;-1.04888916015625;-0.445068359375;5.11999998707324;513;1 A;
51.9480688688437;-1.0498046875;-0.4488525390625;5.129999987048;514;1 A;
51.9580688688185;-1.0491943359375;-0.453277587890625;5.13999998702275;515;1 A;
51.9680688687932;-1.04949951171875;-0.446533203125;5.1499999869975;516;1 A;
51.978068868768;-1.04949951171875;-0.456024169921875;5.15999998697225;517;1 A;
51.9880688687427;-1.04949951171875;-0.44732666015625;5.169999986947;518;1 A;
51.9980688687175;-1.04949951171875;-0.456329345703125;5.17999998692176;519;1 A;
52.0080688686922;-1.0498046875;-0.453155517578125;5.18999998689651;520;1 A;
52.018068868667;-1.0491943359375;-0.462738037109375;5.19999998687126;521;1 A;
52.0280688686418;-1.04949951171875;-0.452056884765625;5.20999998684601;522;1 A;
52.0380688686165;-1.0491943359375;-0.457000732421875;5.21999998682077;523;1 A;
52.0480688685913;-1.0491943359375;-0.4639892578125;5.22999998679552;524;1 A;
52.058068868566;-1.0491943359375;-0.457305908203125;5.23999998677027;525;1 A;
52.0680688685408;-1.0491943359375;-0.460693359375;5.24999998674502;526;1 A;
52.0780688685155;-1.04949951171875;-0.458160400390625;5.25999998671978;527;1 A;
52.0880688684903;-1.04949951171875;-0.460906982421875;5.26999998669453;528;1 A;
52.098068868465;-1.04949951171875;-0.456390380859375;5.27999998666928;529;1 A;
52.1080688684398;-1.04949951171875;-0.455535888671875;5.28999998664403;530;1 A;
52.1180688684145;-1.0491943359375;-0.4559326171875;5.29999998661879;531;1 A;
52.1280688683893;-1.0498046875;-0.45294189453125;5.30999998659354;532;1 A;
52.138068868364;-1.04949951171875;-0.460845947265625;5.31999998656829;533;1 A;
52.1480688683388;-1.0491943359375;-0.44451904296875;5.32999998654304;534;1 A;
52.1580688683135;-1.0491943359375;-0.45538330078125;5.3399999865178;535;1 A;
52.1680688682883;-1.0491943359375;-0.4468994140625;5.34999998649255;536;1 A;
52.178068868263;-1.04949951171875;-0.449432373046875;5.3599999864673;537;1 A;
52.1880688682378;-1.05010986328125;-0.4468994140625;5.36999998644205;538;1 A;
52.1980688682125;-1.0498046875;-0.447296142578125;5.37999998641681;539;1 A;
52.2080688681873;-1.0504150390625;-0.444671630859375;5.38999998639156;540;1 A;
52.218068868162;-1.04949951171875;-0.44061279296875;5.39999998636631;541;1 A;
52.2280688681368;-1.0498046875;-0.4501953125;5.40999998634106;542;1 A;
52.2380688681116;-1.04949951171875;-0.440765380859375;5.41999998631582;543;1 A;
52.2480688680863;-1.0491943359375;-0.445220947265625;5.42999998629057;544;1 A;
52.2580688680611;-1.0498046875;-0.448883056640625;5.43999998626532;545;1 A;
52.2680688680358;-1.04949951171875;-0.443328857421875;5.44999998624007;546;1 A;
52.2780688680106;-1.04949951171875;-0.45037841796875;5.45999998621483;547;1 A;
52.2880688679853;-1.04949951171875;-0.44256591796875;5.46999998618958;548;1 A;
52.2980688679601;-1.04888916015625;-0.45159912109375;5.47999998616433;549;1 A;
52.3080688679348;-1.0491943359375;-0.4482421875;5.48999998613908;550;1 A;
52.3180688679096;-1.04949951171875;-0.459381103515625;5.49999998611383;551;1 A;
52.3280688678843;-1.0498046875;-0.445526123046875;5.50999998608859;552;1 A;
52.3380688678591;-1.0491943359375;-0.453155517578125;5.51999998606334;553;1 A;
52.3480688678338;-1.0491943359375;-0.455291748046875;5.52999998603809;554;1 A;
52.3580688678086;-1.04949951171875;-0.45062255859375;5.53999998601284;555;1 A;
52.3680688677833;-1.04949951171875;-0.452850341796875;5.5499999859876;556;1 A;
52.3780688677581;-1.0491943359375;-0.45111083984375;5.55999998596235;557;1 A;
52.3880688677328;-1.04949951171875;-0.453033447265625;5.5699999859371;558;1 A;
52.3980688677076;-1.0491943359375;-0.449737548828125;5.57999998591185;559;1 A;
52.4080688676823;-1.05010986328125;-0.453948974609375;5.58999998588661;560;1 A;
52.4180688676571;-1.0498046875;-0.451507568359375;5.59999998586136;561;1 A;
52.4280688676319;-1.04949951171875;-0.45184326171875;5.60999998583611;562;1 A;
52.4380688676066;-1.05010986328125;-0.459808349609375;5.61999998581086;563;1 A;
52.4480688675814;-1.0498046875;-0.44622802734375;5.62999998578562;564;1 A;
52.4580688675561;-1.04949951171875;-0.45941162109375;5.63999998576037;565;1 A;
52.4680688675309;-1.0498046875;-0.45001220703125;5.64999998573512;566;1 A;
52.4780688675056;-1.0491943359375;-0.456939697265625;5.65999998570987;567;1 A;
52.4880688674804;-1.04949951171875;-0.45477294921875;5.66999998568463;568;1 A;
52.4980688674551;-1.0498046875;-0.4593505859375;5.67999998565938;569;1 A;
52.5080688674299;-1.0498046875;-0.452117919921875;5.68999998563413;570;1 A;
52.5180688674046;-1.0491943359375;-0.450408935546875;5.69999998560888;571;1 A;
52.5280688673794;-1.0491943359375;-0.460113525390625;5.70999998558364;572;1 A;
52.5380688673541;-1.04949951171875;-0.4482421875;5.71999998555839;573;1 A;
52.5480688673289;-1.0498046875;-0.452911376953125;5.72999998553314;574;1 A;
52.5580688673036;-1.05010986328125;-0.4534912109375;5.73999998550789;575;1 A;
52.5680688672784;-1.04949951171875;-0.45086669921875;5.74999998548265;576;1 A;
52.5780688672531;-1.0498046875;-0.453277587890625;5.7599999854574;577;1 A;
52.5880688672279;-1.05010986328125;-0.4471435546875;5.76999998543215;578;1 A;
52.5980688672026;-1.04949951171875;-0.453643798828125;5.7799999854069;579;1 A;
52.6080688671774;-1.04949951171875;-0.448883056640625;5.78999998538166;580;1 A;
52.6180688671521;-1.0498046875;-0.4600830078125;5.79999998535641;581;1 A;
52.6280688671269;-1.05010986328125;-0.44268798828125;5.80999998533116;582;1 A;
52.6380688671017;-1.04949951171875;-0.45416259765625;5.81999998530591;583;1 A;
52.6480688670764;-1.04949951171875;-0.45147705078125;5.82999998528066;584;1 A;
52.6580688670512;-1.04888916015625;-0.4498291015625;5.83999998525542;585;1 A;
52.6680688670259;-1.0498046875;-0.450408935546875;5.84999998523017;586;1 A;
52.6780688670007;-1.0491943359375;-0.44952392578125;5.85999998520492;587;1 A;
52.6880688669754;-1.04949951171875;-0.45050048828125;5.86999998517967;588;1 A;
52.6980688669502;-1.0498046875;-0.44622802734375;5.87999998515443;589;1 A;
52.7080688669249;-1.04949951171875;-0.453765869140625;5.88999998512918;590;1 A;
52.7180688668997;-1.0498046875;-0.448516845703125;5.89999998510393;591;1 A;
52.7280688668744;-1.04949951171875;-0.45086669921875;5.90999998507868;592;1 A;
52.7380688668492;-1.0498046875;-0.45794677734375;5.91999998505344;593;1 A;
52.7480688668239;-1.04949951171875;-0.444915771484375;5.92999998502819;594;1 A;
52.7580688667987;-1.04888916015625;-0.45770263671875;5.93999998500294;595;1 A;
52.7680688667734;-1.04949951171875;-0.44610595703125;5.94999998497769;596;1 A;
52.7780688667482;-1.0491943359375;-0.454437255859375;5.95999998495245;597;1 A;
52.7880688667229;-1.0498046875;-0.45037841796875;5.9699999849272;598;1 A;
52.7980688666977;-1.04888916015625;-0.45904541015625;5.97999998490195;599;1 A;
52.8080688666724;-1.04949951171875;-0.447509765625;5.9899999848767;600;1 A;
52.8180688666472;-1.05010986328125;-0.450286865234375;5.99999998485146;601;1 A;
52.8280688666219;-1.04949951171875;-0.458831787109375;6.00999998482621;602;1 A;
52.8380688665967;-1.0491943359375;-0.449249267578125;6.01999998480096;603;1 A;
52.8480688665715;-1.0498046875;-0.453857421875;6.02999998477571;604;1 A;
52.8580688665462;-1.0498046875;-0.45306396484375;6.03999998475047;605;1 A;
52.868068866521;-1.04888916015625;-0.45379638671875;6.04999998472522;606;1 A;
52.8780688664957;-1.0498046875;-0.45172119140625;6.05999998469997;607;1 A;
52.8880688664705;-1.0491943359375;-0.450927734375;6.06999998467472;608;1 A;
52.8980688664452;-1.04888916015625;-0.453643798828125;6.07999998464948;609;1 A;
52.90806886642;-1.04949951171875;-0.451904296875;6.08999998462423;610;1 A;
52.9180688663947;-1.04949951171875;-0.46337890625;6.09999998459898;611;1 A;
52.9280688663695;-1.04949951171875;-0.444366455078125;6.10999998457373;612;1 A;
52.9380688663442;-1.04949951171875;-0.458343505859375;6.11999998454849;613;1 A;
52.948068866319;-1.0491943359375;-0.451507568359375;6.12999998452324;614;1 A;
52.9580688662937;-1.04949951171875;-0.454254150390625;6.13999998449799;615;1 A;
52.9680688662685;-1.04949951171875;-0.453643798828125;6.14999998447274;616;1 A;
52.9780688662432;-1.0498046875;-0.455322265625;6.1599999844475;617;1 A;
52.988068866218;-1.0498046875;-0.455413818359375;6.16999998442225;618;1 A;
52.9980688661927;-1.0498046875;-0.45208740234375;6.179999984397;619;1 A;
53.0080688661675;-1.04949951171875;-0.4638671875;6.18999998437175;620;1 A;
53.0180688661422;-1.05010986328125;-0.455322265625;6.1999999843465;621;1 A;
53.028068866117;-1.04949951171875;-0.4608154296875;6.20999998432126;622;1 A;
53.0380688660917;-1.04949951171875;-0.4642333984375;6.21999998429601;623;1 A;
53.0480688660665;-1.0491943359375;-0.454742431640625;6.22999998427076;624;1 A;
53.0580688660413;-1.04949951171875;-0.463775634765625;6.23999998424551;625;1 A;
53.068068866016;-1.04949951171875;-0.450408935546875;6.24999998422027;626;1 A;
53.0780688659908;-1.0491943359375;-0.458984375;6.25999998419502;627;1 A;
53.0880688659655;-1.0504150390625;-0.45196533203125;6.26999998416977;628;1 A;
53.0980688659403;-1.0491943359375;-0.461944580078125;6.27999998414452;629;1 A;
53.108068865915;-1.0498046875;-0.446533203125;6.28999998411928;630;1 A;
53.1180688658898;-1.0491943359375;-0.451141357421875;6.29999998409403;631;1 A;
53.1280688658645;-1.0498046875;-0.457427978515625;6.30999998406878;632;1 A;
53.1380688658393;-1.04949951171875;-0.448150634765625;6.31999998404353;633;1 A;
53.148068865814;-1.0498046875;-0.451568603515625;6.32999998401829;634;1 A;
53.1580688657888;-1.04949951171875;-0.4493408203125;6.33999998399304;635;1 A;
53.1680688657635;-1.04949951171875;-0.45196533203125;6.34999998396779;636;1 A;
53.1780688657383;-1.04888916015625;-0.447357177734375;6.35999998394254;637;1 A;
53.188068865713;-1.0491943359375;-0.44891357421875;6.3699999839173;638;1 A;
53.1980688656878;-1.04949951171875;-0.44970703125;6.37999998389205;639;1 A;
53.2080688656625;-1.04949951171875;-0.448028564453125;6.3899999838668;640;1 A;
53.2180688656373;-1.04949951171875;-0.458892822265625;6.39999998384155;641;1 A;
53.228068865612;-1.04949951171875;-0.4385986328125;6.40999998381631;642;1 A;
53.2380688655868;-1.0491943359375;-0.454437255859375;6.41999998379106;643;1 A;
53.2480688655615;-1.0498046875;-0.444915771484375;6.42999998376581;644;1 A;
53.2580688655363;-1.0491943359375;-0.45062255859375;6.43999998374056;645;1 A;
53.2680688655111;-1.0491943359375;-0.448944091796875;6.44999998371532;646;1 A;
53.2780688654858;-1.0498046875;-0.452362060546875;6.45999998369007;647;1 A;
53.2880688654606;-1.04949951171875;-0.4500732421875;6.46999998366482;648;1 A;
53.2980688654353;-1.04949951171875;-0.445709228515625;6.47999998363957;649;1 A;
53.3080688654101;-1.0491943359375;-0.45947265625;6.48999998361433;650;1 A;
53.3180688653848;-1.04949951171875;-0.447998046875;6.49999998358908;651;1 A;
53.3280688653596;-1.0498046875;-0.454010009765625;6.50999998356383;652;1 A;
53.3380688653343;-1.0491943359375;-0.458160400390625;6.51999998353858;653;1 A;
53.3480688653091;-1.0498046875;-0.451812744140625;6.52999998351333;654;1 A;
53.3580688652838;-1.04949951171875;-0.46002197265625;6.53999998348809;655;1 A;
53.3680688652586;-1.0498046875;-0.45050048828125;6.54999998346284;656;1 A;
53.3780688652333;-1.0498046875;-0.460693359375;6.55999998343759;657;1 A;
53.3880688652081;-1.04949951171875;-0.45587158203125;6.56999998341234;658;1 A;
53.3980688651828;-1.0491943359375;-0.4703369140625;6.5799999833871;659;1 A;
53.4080688651576;-1.04949951171875;-0.45318603515625;6.58999998336185;660;1 A;
53.4180688651323;-1.04949951171875;-0.462249755859375;6.5999999833366;661;1 A;
53.4280688651071;-1.0491943359375;-0.4669189453125;6.60999998331135;662;1 A;
53.4380688650818;-1.05010986328125;-0.46087646484375;6.61999998328611;663;1 A;
53.4480688650566;-1.0491943359375;-0.46343994140625;6.62999998326086;664;1 A;
53.4580688650314;-1.0498046875;-0.4617919921875;6.63999998323561;665;1 A;
53.4680688650061;-1.04888916015625;-0.466217041015625;6.64999998321036;666;1 A;
53.4780688649809;-1.04949951171875;-0.46136474609375;6.65999998318512;667;1 A;
53.4880688649556;-1.05010986328125;-0.467559814453125;6.66999998315987;668;1 A;
53.4980688649304;-1.0498046875;-0.4659423828125;6.67999998313462;669;1 A;
53.5080688649051;-1.04949951171875;-0.46759033203125;6.68999998310937;670;1 A;
53.5180688648799;-1.0491943359375;-0.47747802734375;6.69999998308413;671;1 A;
53.5280688648546;-1.04949951171875;-0.458343505859375;6.70999998305888;672;1 A;
53.5380688648294;-1.0498046875;-0.474395751953125;6.71999998303363;673;1 A;
53.5480688648041;-1.04949951171875;-0.46136474609375;6.72999998300838;674;1 A;
53.5580688647789;-1.0498046875;-0.468475341796875;6.73999998298314;675;1 A;
53.5680688647536;-1.0491943359375;-0.464263916015625;6.74999998295789;676;1 A;
53.5780688647284;-1.0498046875;-0.46929931640625;6.75999998293264;677;1 A;
53.5880688647031;-1.05010986328125;-0.46038818359375;6.76999998290739;678;1 A;
53.5980688646779;-1.0491943359375;-0.456878662109375;6.77999998288215;679;1 A;
53.6080688646526;-1.0491943359375;-0.467681884765625;6.7899999828569;680;1 A;
53.6180688646274;-1.04949951171875;-0.4525146484375;6.79999998283165;681;1 A;
53.6280688646021;-1.0491943359375;-0.457000732421875;6.8099999828064;682;1 A;
53.6380688645769;-1.05010986328125;-0.45733642578125;6.81999998278116;683;1 A;
53.6480688645516;-1.04949951171875;-0.452362060546875;6.82999998275591;684;1 A;
53.6580688645264;-1.04949951171875;-0.45440673828125;6.83999998273066;685;1 A;
53.6680688645012;-1.0498046875;-0.447235107421875;6.84999998270541;686;1 A;
53.6780688644759;-1.04949951171875;-0.454315185546875;6.85999998268016;687;1 A;
53.6880688644507;-1.04949951171875;-0.449005126953125;6.86999998265492;688;1 A;
53.6980688644254;-1.0498046875;-0.46209716796875;6.87999998262967;689;1 A;
53.7080688644002;-1.0504150390625;-0.440887451171875;6.88999998260442;690;1 A;
53.7180688643749;-1.0498046875;-0.45355224609375;6.89999998257917;691;1 A;
53.7280688643497;-1.04949951171875;-0.45123291015625;6.90999998255393;692;1 A;
53.7380688643244;-1.0498046875;-0.44976806640625;6.91999998252868;693;1 A;
53.7480688642992;-1.0491943359375;-0.450103759765625;6.92999998250343;694;1 A;
53.7580688642739;-1.04888916015625;-0.450164794921875;6.93999998247818;695;1 A;
53.7680688642487;-1.0498046875;-0.45098876953125;6.94999998245294;696;1 A;
53.7780688642234;-1.0491943359375;-0.444854736328125;6.95999998242769;697;1 A;
53.7880688641982;-1.0491943359375;-0.4554443359375;6.96999998240244;698;1 A;
53.7980688641729;-1.05010986328125;-0.448516845703125;6.97999998237719;699;1 A;
53.8080688641477;-1.05010986328125;-0.453399658203125;6.98999998235195;700;1 A;
