Time (s);WE(1).Potential (V);WE(1).Current (A);Corrected time (s);Index;Current range
5.54179798600831;-0.8001708984375;-0.30743408203125;0;1;100 mA
5.55179798598306;-0.8001708984375;-0.227264404296875;0.00999999997475243;2;100 mA
5.56179798595781;-0.79925537109375;-0.1884765625;0.0199999999495049;3;100 mA
5.57179798593256;-0.79925537109375;-0.16448974609375;0.0299999999242573;4;100 mA
5.58179798590731;-0.7989501953125;-0.147796630859375;0.0399999998990097;5;100 mA
5.59179798588207;-0.7989501953125;-0.135284423828125;0.0499999998737621;6;100 mA
5.60179798585682;-0.799560546875;-0.125518798828125;0.0599999998485146;7;100 mA
5.61179798583157;-0.79833984375;-0.117584228515625;0.069999999823267;8;100 mA
5.62179798580632;-0.79864501953125;-0.110992431640625;0.0799999997980194;9;100 mA
5.63179798578108;-0.7989501953125;-0.10540771484375;0.0899999997727718;10;100 mA
5.64179798575583;-0.79925537109375;-0.1005859375;0.0999999997475243;11;100 mA
5.65179798573058;-0.799560546875;-0.096343994140625;0.109999999722277;12;100 mA
5.66179798570533;-0.799560546875;-0.092620849609375;0.119999999697029;13;100 mA
5.67179798568009;-0.799560546875;-0.08929443359375;0.129999999671782;14;100 mA
5.68179798565484;-0.79925537109375;-0.0863037109375;0.139999999646534;15;100 mA
5.69179798562959;-0.79925537109375;-0.083587646484375;0.149999999621286;16;100 mA
5.70179798560434;-0.7989501953125;-0.08111572265625;0.159999999596039;17;100 mA
5.7117979855791;-0.79864501953125;-0.078826904296875;0.169999999570791;18;100 mA
5.72179798555385;-0.79925537109375;-0.076751708984375;0.179999999545544;19;100 mA
5.7317979855286;-0.799560546875;-0.0748291015625;0.189999999520296;20;100 mA
5.74179798550335;-0.7989501953125;-0.073028564453125;0.199999999495049;21;100 mA
5.75179798547811;-0.7989501953125;-0.07135009765625;0.209999999469801;22;100 mA
5.76179798545286;-0.79925537109375;-0.069793701171875;0.219999999444553;23;100 mA
5.77179798542761;-0.7989501953125;-0.068328857421875;0.229999999419306;24;100 mA
5.78179798540236;-0.79925537109375;-0.06695556640625;0.239999999394058;25;100 mA
5.79179798537712;-0.799560546875;-0.065673828125;0.249999999368811;26;100 mA
5.80179798535187;-0.79925537109375;-0.064453125;0.259999999343563;27;100 mA
5.81179798532662;-0.79864501953125;-0.06329345703125;0.269999999318316;28;100 mA
5.82179798530137;-0.79925537109375;-0.06219482421875;0.279999999293068;29;100 mA
5.83179798527613;-0.799560546875;-0.0611572265625;0.28999999926782;30;100 mA
5.84179798525088;-0.799560546875;-0.060150146484375;0.299999999242573;31;100 mA
5.85179798522563;-0.79925537109375;-0.059234619140625;0.309999999217325;32;100 mA
5.86179798520038;-0.7989501953125;-0.05828857421875;0.319999999192078;33;100 mA
5.87179798517514;-0.799560546875;-0.05743408203125;0.32999999916683;34;100 mA
5.88179798514989;-0.79925537109375;-0.056640625;0.339999999141583;35;100 mA
5.89179798512464;-0.79925537109375;-0.05584716796875;0.349999999116335;36;100 mA
5.90179798509939;-0.7989501953125;-0.055084228515625;0.359999999091087;37;100 mA
5.91179798507414;-0.79925537109375;-0.054351806640625;0.36999999906584;38;100 mA
5.9217979850489;-0.79925537109375;-0.05364990234375;0.379999999040592;39;100 mA
5.93179798502365;-0.79864501953125;-0.052978515625;0.389999999015345;40;100 mA
5.9417979849984;-0.79925537109375;-0.05230712890625;0.399999998990097;41;100 mA
5.95179798497315;-0.79925537109375;-0.051727294921875;0.40999999896485;42;100 mA
5.96179798494791;-0.79925537109375;-0.051116943359375;0.419999998939602;43;100 mA
5.97179798492266;-0.79925537109375;-0.050537109375;0.429999998914354;44;100 mA
5.98179798489741;-0.7989501953125;-0.049957275390625;0.439999998889107;45;100 mA
5.99179798487216;-0.79925537109375;-0.049395751953125;0.449999998863859;46;100 mA
6.00179798484692;-0.79925537109375;-0.0488800048828125;0.459999998838612;47;100 mA
6.01179798482167;-0.7989501953125;-0.048358154296875;0.469999998813364;48;100 mA
6.02179798479642;-0.7989501953125;-0.047869873046875;0.479999998788116;49;100 mA
6.03179798477117;-0.7989501953125;-0.0473968505859375;0.489999998762869;50;100 mA
6.04179798474593;-0.79925537109375;-0.0469268798828125;0.499999998737621;51;100 mA
6.05179798472068;-0.7989501953125;-0.0464874267578125;0.509999998712374;52;100 mA
6.06179798469543;-0.7989501953125;-0.0460418701171875;0.519999998687126;53;100 mA
6.07179798467018;-0.79925537109375;-0.0456146240234375;0.529999998661879;54;100 mA
6.08179798464494;-0.79925537109375;-0.0452056884765625;0.539999998636631;55;100 mA
6.09179798461969;-0.79925537109375;-0.0447967529296875;0.549999998611383;56;100 mA
6.10179798459444;-0.7989501953125;-0.0444122314453125;0.559999998586136;57;100 mA
6.11179798456919;-0.799560546875;-0.0440185546875;0.569999998560888;58;100 mA
6.12179798454395;-0.79925537109375;-0.043646240234375;0.579999998535641;59;100 mA
6.1317979845187;-0.79925537109375;-0.0432891845703125;0.589999998510393;60;100 mA
6.14179798449345;-0.79925537109375;-0.0429229736328125;0.599999998485146;61;100 mA
6.1517979844682;-0.799560546875;-0.04259033203125;0.609999998459898;62;100 mA
6.16179798444296;-0.7989501953125;-0.042242431640625;0.61999999843465;63;100 mA
6.17179798441771;-0.799560546875;-0.0419219970703125;0.629999998409403;64;100 mA
6.18179798439246;-0.799560546875;-0.0415985107421875;0.639999998384155;65;100 mA
6.19179798436721;-0.79925537109375;-0.0412841796875;0.649999998358908;66;100 mA
6.20179798434197;-0.79864501953125;-0.040985107421875;0.65999999833366;67;100 mA
6.21179798431672;-0.79925537109375;-0.040673828125;0.669999998308413;68;100 mA
6.22179798429147;-0.79925537109375;-0.04039306640625;0.679999998283165;69;100 mA
6.23179798426622;-0.7989501953125;-0.040093994140625;0.689999998257917;70;100 mA
6.24179798424097;-0.79925537109375;-0.0398101806640625;0.69999999823267;71;100 mA
6.25179798421573;-0.799560546875;-0.039544677734375;0.709999998207422;72;100 mA
6.26179798419048;-0.799560546875;-0.0392669677734375;0.719999998182175;73;100 mA
6.27179798416523;-0.79925537109375;-0.039007568359375;0.729999998156927;74;100 mA
6.28179798413998;-0.799560546875;-0.0387451171875;0.73999999813168;75;100 mA
6.29179798411474;-0.79925537109375;-0.03848876953125;0.749999998106432;76;100 mA
6.30179798408949;-0.799560546875;-0.038250732421875;0.759999998081184;77;100 mA
6.31179798406424;-0.79864501953125;-0.0379913330078125;0.769999998055937;78;100 mA
6.32179798403899;-0.7989501953125;-0.037762451171875;0.779999998030689;79;100 mA
6.33179798401375;-0.799560546875;-0.0375244140625;0.789999998005442;80;100 mA
6.3417979839885;-0.79986572265625;-0.03729248046875;0.799999997980194;81;100 mA
6.35179798396325;-0.7989501953125;-0.037078857421875;0.809999997954947;82;100 mA
6.361797983938;-0.79925537109375;-0.0368438720703125;0.819999997929699;83;100 mA
6.37179798391276;-0.79925537109375;-0.036627197265625;0.829999997904451;84;100 mA
6.38179798388751;-0.7989501953125;-0.0364166259765625;0.839999997879204;85;100 mA
6.39179798386226;-0.79925537109375;-0.0362030029296875;0.849999997853956;86;100 mA
6.40179798383701;-0.7989501953125;-0.0360076904296875;0.859999997828709;87;100 mA
6.41179798381177;-0.799560546875;-0.035791015625;0.869999997803461;88;100 mA
6.42179798378652;-0.79864501953125;-0.035595703125;0.879999997778214;89;100 mA
6.43179798376127;-0.79925537109375;-0.0354034423828125;0.889999997752966;90;100 mA
6.44179798373602;-0.79925537109375;-0.035205078125;0.899999997727718;91;100 mA
6.45179798371078;-0.79925537109375;-0.0350311279296875;0.909999997702471;92;100 mA
6.46179798368553;-0.79925537109375;-0.034832763671875;0.919999997677223;93;100 mA
6.47179798366028;-0.79864501953125;-0.0346527099609375;0.929999997651976;94;100 mA
6.48179798363503;-0.79925537109375;-0.0344757080078125;0.939999997626728;95;100 mA
6.49179798360979;-0.79864501953125;-0.0342864990234375;0.949999997601481;96;100 mA
6.50179798358454;-0.79925537109375;-0.0341217041015625;0.959999997576233;97;100 mA
6.51179798355929;-0.799560546875;-0.0339447021484375;0.969999997550985;98;100 mA
6.52179798353404;-0.7989501953125;-0.0337677001953125;0.979999997525738;99;100 mA
6.5317979835088;-0.7989501953125;-0.03360595703125;0.98999999750049;100;100 mA
6.54179798348355;-0.79925537109375;-0.033441162109375;0.999999997475243;101;100 mA
6.5517979834583;-0.79925537109375;-0.0332855224609375;1.00999999745;102;100 mA
6.56179798343305;-0.7989501953125;-0.033123779296875;1.01999999742475;103;100 mA
6.57179798340781;-0.799560546875;-0.0329620361328125;1.0299999973995;104;100 mA
6.58179798338256;-0.79925537109375;-0.0328094482421875;1.03999999737425;105;100 mA
6.59179798335731;-0.79986572265625;-0.032647705078125;1.049999997349;106;100 mA
6.60179798333206;-0.79925537109375;-0.0325103759765625;1.05999999732376;107;100 mA
6.61179798330681;-0.79925537109375;-0.032342529296875;1.06999999729851;108;100 mA
6.62179798328157;-0.799560546875;-0.032196044921875;1.07999999727326;109;100 mA
6.63179798325632;-0.7989501953125;-0.0320648193359375;1.08999999724801;110;100 mA
6.64179798323107;-0.79925537109375;-0.0319091796875;1.09999999722277;111;100 mA
6.65179798320582;-0.79925537109375;-0.03177490234375;1.10999999719752;112;100 mA
6.66179798318058;-0.79925537109375;-0.031634521484375;1.11999999717227;113;100 mA
6.67179798315533;-0.79925537109375;-0.0314910888671875;1.12999999714702;114;100 mA
6.68179798313008;-0.7989501953125;-0.031365966796875;1.13999999712178;115;100 mA
6.69179798310483;-0.79925537109375;-0.031219482421875;1.14999999709653;116;100 mA
6.70179798307959;-0.79925537109375;-0.031103515625;1.15999999707128;117;100 mA
6.71179798305434;-0.79925537109375;-0.030963134765625;1.16999999704603;118;100 mA
6.72179798302909;-0.7989501953125;-0.0308349609375;1.17999999702079;119;100 mA
6.73179798300384;-0.799560546875;-0.0307098388671875;1.18999999699554;120;100 mA
6.7417979829786;-0.79925537109375;-0.0305755615234375;1.19999999697029;121;100 mA
6.75179798295335;-0.799560546875;-0.03046875;1.20999999694504;122;100 mA
6.7617979829281;-0.799560546875;-0.0303314208984375;1.2199999969198;123;100 mA
6.77179798290285;-0.79925537109375;-0.030218505859375;1.22999999689455;124;100 mA
6.78179798287761;-0.79925537109375;-0.0301025390625;1.2399999968693;125;100 mA
6.79179798285236;-0.799560546875;-0.0299713134765625;1.24999999684405;126;100 mA
6.80179798282711;-0.7989501953125;-0.029864501953125;1.25999999681881;127;100 mA
6.81179798280186;-0.79925537109375;-0.0297393798828125;1.26999999679356;128;100 mA
6.82179798277662;-0.79925537109375;-0.02962646484375;1.27999999676831;129;100 mA
6.83179798275137;-0.799560546875;-0.0295196533203125;1.28999999674306;130;100 mA
6.84179798272612;-0.79925537109375;-0.0294036865234375;1.29999999671782;131;100 mA
6.85179798270087;-0.79925537109375;-0.02930908203125;1.30999999669257;132;100 mA
6.86179798267563;-0.79925537109375;-0.029180908203125;1.31999999666732;133;100 mA
6.87179798265038;-0.79925537109375;-0.0290802001953125;1.32999999664207;134;100 mA
6.88179798262513;-0.79864501953125;-0.0289794921875;1.33999999661683;135;100 mA
6.89179798259988;-0.79925537109375;-0.0288665771484375;1.34999999659158;136;100 mA
6.90179798257464;-0.7989501953125;-0.02877197265625;1.35999999656633;137;100 mA
6.91179798254939;-0.79925537109375;-0.0286590576171875;1.36999999654108;138;100 mA
6.92179798252414;-0.799560546875;-0.028558349609375;1.37999999651583;139;100 mA
6.93179798249889;-0.79925537109375;-0.0284637451171875;1.38999999649059;140;100 mA
6.94179798247364;-0.7989501953125;-0.0283538818359375;1.39999999646534;141;100 mA
6.9517979824484;-0.7989501953125;-0.028265380859375;1.40999999644009;142;100 mA
6.96179798242315;-0.7989501953125;-0.028155517578125;1.41999999641484;143;100 mA
6.9717979823979;-0.79925537109375;-0.0280670166015625;1.4299999963896;144;100 mA
6.98179798237265;-0.799560546875;-0.0279754638671875;1.43999999636435;145;100 mA
6.99179798234741;-0.7989501953125;-0.02786865234375;1.4499999963391;146;100 mA
7.00179798232216;-0.79925537109375;-0.0277801513671875;1.45999999631385;147;100 mA
7.01179798229691;-0.7989501953125;-0.027679443359375;1.46999999628861;148;100 mA
7.02179798227166;-0.79925537109375;-0.02760009765625;1.47999999626336;149;100 mA
7.03179798224642;-0.7989501953125;-0.027508544921875;1.48999999623811;150;100 mA
7.04179798222117;-0.7989501953125;-0.027410888671875;1.49999999621286;151;100 mA
7.05179798219592;-0.799560546875;-0.02733154296875;1.50999999618762;152;100 mA
7.06179798217067;-0.7989501953125;-0.0272369384765625;1.51999999616237;153;100 mA
7.07179798214543;-0.7989501953125;-0.0271484375;1.52999999613712;154;100 mA
7.08179798212018;-0.799560546875;-0.02706298828125;1.53999999611187;155;100 mA
7.09179798209493;-0.79925537109375;-0.0269622802734375;1.54999999608663;156;100 mA
7.10179798206968;-0.7989501953125;-0.026898193359375;1.55999999606138;157;100 mA
7.11179798204444;-0.7989501953125;-0.0267913818359375;1.56999999603613;158;100 mA
7.12179798201919;-0.7989501953125;-0.02672119140625;1.57999999601088;159;100 mA
7.13179798199394;-0.79925537109375;-0.0266387939453125;1.58999999598564;160;100 mA
7.14179798196869;-0.79864501953125;-0.0265533447265625;1.59999999596039;161;100 mA
7.15179798194345;-0.7989501953125;-0.0264892578125;1.60999999593514;162;100 mA
7.1617979819182;-0.79925537109375;-0.0263916015625;1.61999999590989;163;100 mA
7.17179798189295;-0.7989501953125;-0.0263214111328125;1.62999999588465;164;100 mA
7.1817979818677;-0.79925537109375;-0.0262420654296875;1.6399999958594;165;100 mA
7.19179798184246;-0.7989501953125;-0.0261566162109375;1.64999999583415;166;100 mA
7.20179798181721;-0.799560546875;-0.026092529296875;1.6599999958089;167;100 mA
7.21179798179196;-0.79925537109375;-0.0260040283203125;1.66999999578366;168;100 mA
7.22179798176671;-0.7989501953125;-0.025933837890625;1.67999999575841;169;100 mA
7.23179798174147;-0.79925537109375;-0.025860595703125;1.68999999573316;170;100 mA
7.24179798171622;-0.79925537109375;-0.0257720947265625;1.69999999570791;171;100 mA
7.25179798169097;-0.79925537109375;-0.0257110595703125;1.70999999568267;172;100 mA
7.26179798166572;-0.79925537109375;-0.025628662109375;1.71999999565742;173;100 mA
7.27179798164047;-0.79925537109375;-0.025555419921875;1.72999999563217;174;100 mA
7.28179798161523;-0.79925537109375;-0.02548828125;1.73999999560692;175;100 mA
7.29179798158998;-0.799560546875;-0.0254180908203125;1.74999999558167;176;100 mA
7.30179798156473;-0.7989501953125;-0.02535400390625;1.75999999555643;177;100 mA
7.31179798153948;-0.79925537109375;-0.0252716064453125;1.76999999553118;178;100 mA
7.32179798151424;-0.7989501953125;-0.02520751953125;1.77999999550593;179;100 mA
7.33179798148899;-0.799560546875;-0.025140380859375;1.78999999548068;180;100 mA
7.34179798146374;-0.79925537109375;-0.025067138671875;1.79999999545544;181;100 mA
7.35179798143849;-0.7989501953125;-0.02501220703125;1.80999999543019;182;100 mA
7.36179798141325;-0.7989501953125;-0.024932861328125;1.81999999540494;183;100 mA
7.371797981388;-0.799560546875;-0.02486572265625;1.82999999537969;184;100 mA
7.38179798136275;-0.79925537109375;-0.0248016357421875;1.83999999535445;185;100 mA
7.3917979813375;-0.799560546875;-0.024725341796875;1.8499999953292;186;100 mA
7.40179798131226;-0.79864501953125;-0.0246734619140625;1.85999999530395;187;100 mA
7.41179798128701;-0.8001708984375;-0.02459716796875;1.8699999952787;188;100 mA
7.42179798126176;-0.79925537109375;-0.0245361328125;1.87999999525346;189;100 mA
7.43179798123651;-0.7989501953125;-0.0244842529296875;1.88999999522821;190;100 mA
7.44179798121127;-0.7989501953125;-0.0244110107421875;1.89999999520296;191;100 mA
7.45179798118602;-0.79925537109375;-0.0243621826171875;1.90999999517771;192;100 mA
7.46179798116077;-0.7989501953125;-0.0242889404296875;1.91999999515247;193;100 mA
7.47179798113552;-0.7989501953125;-0.02423095703125;1.92999999512722;194;100 mA
7.48179798111028;-0.79986572265625;-0.0241729736328125;1.93999999510197;195;100 mA
7.49179798108503;-0.79925537109375;-0.0241058349609375;1.94999999507672;196;100 mA
7.50179798105978;-0.79925537109375;-0.02406005859375;1.95999999505148;197;100 mA
7.51179798103453;-0.799560546875;-0.0239898681640625;1.96999999502623;198;100 mA
7.52179798100929;-0.79925537109375;-0.0239349365234375;1.97999999500098;199;100 mA
7.53179798098404;-0.79925537109375;-0.0238739013671875;1.98999999497573;200;100 mA
7.54179798095879;-0.799560546875;-0.0238128662109375;1.99999999495049;201;100 mA
7.55179798093354;-0.799560546875;-0.023760986328125;2.00999999492524;202;100 mA
7.5617979809083;-0.7989501953125;-0.0236968994140625;2.01999999489999;203;100 mA
7.57179798088305;-0.799560546875;-0.0236419677734375;2.02999999487474;204;100 mA
7.5817979808578;-0.7989501953125;-0.0235870361328125;2.0399999948495;205;100 mA
7.59179798083255;-0.79925537109375;-0.0235260009765625;2.04999999482425;206;100 mA
7.60179798080731;-0.7989501953125;-0.023480224609375;2.059999994799;207;100 mA
7.61179798078206;-0.79925537109375;-0.023419189453125;2.06999999477375;208;100 mA
7.62179798075681;-0.799560546875;-0.0233642578125;2.0799999947485;209;100 mA
7.63179798073156;-0.7989501953125;-0.023309326171875;2.08999999472326;210;100 mA
7.64179798070631;-0.79925537109375;-0.0232513427734375;2.09999999469801;211;100 mA
7.65179798068107;-0.799560546875;-0.0232086181640625;2.10999999467276;212;100 mA
7.66179798065582;-0.7989501953125;-0.0231475830078125;2.11999999464751;213;100 mA
7.67179798063057;-0.79925537109375;-0.023095703125;2.12999999462227;214;100 mA
7.68179798060532;-0.799560546875;-0.0230438232421875;2.13999999459702;215;100 mA
7.69179798058008;-0.79925537109375;-0.02298583984375;2.14999999457177;216;100 mA
7.70179798055483;-0.79925537109375;-0.02293701171875;2.15999999454652;217;100 mA
7.71179798052958;-0.79925537109375;-0.0228790283203125;2.16999999452128;218;100 mA
7.72179798050433;-0.7989501953125;-0.0228302001953125;2.17999999449603;219;100 mA
7.73179798047909;-0.799560546875;-0.0227813720703125;2.18999999447078;220;100 mA
7.74179798045384;-0.7989501953125;-0.0227264404296875;2.19999999444553;221;100 mA
7.75179798042859;-0.79925537109375;-0.022686767578125;2.20999999442029;222;100 mA
7.76179798040334;-0.7989501953125;-0.0226409912109375;2.21999999439504;223;100 mA
7.7717979803781;-0.7989501953125;-0.0225921630859375;2.22999999436979;224;100 mA
7.78179798035285;-0.79925537109375;-0.0225494384765625;2.23999999434454;225;100 mA
7.7917979803276;-0.7989501953125;-0.0224853515625;2.2499999943193;226;100 mA
7.80179798030235;-0.79925537109375;-0.02244873046875;2.25999999429405;227;100 mA
7.81179798027711;-0.79925537109375;-0.022393798828125;2.2699999942688;228;100 mA
7.82179798025186;-0.7989501953125;-0.022344970703125;2.27999999424355;229;100 mA
7.83179798022661;-0.7989501953125;-0.02230224609375;2.28999999421831;230;100 mA
7.84179798020136;-0.79864501953125;-0.0222503662109375;2.29999999419306;231;100 mA
7.85179798017612;-0.79925537109375;-0.0222076416015625;2.30999999416781;232;100 mA
7.86179798015087;-0.7989501953125;-0.0221527099609375;2.31999999414256;233;100 mA
7.87179798012562;-0.7989501953125;-0.02210693359375;2.32999999411732;234;100 mA
7.88179798010037;-0.79925537109375;-0.022064208984375;2.33999999409207;235;100 mA
7.89179798007513;-0.79925537109375;-0.02200927734375;2.34999999406682;236;100 mA
7.90179798004988;-0.79925537109375;-0.02197265625;2.35999999404157;237;100 mA
7.91179798002463;-0.79925537109375;-0.0219268798828125;2.36999999401633;238;100 mA
7.92179797999938;-0.79925537109375;-0.021881103515625;2.37999999399108;239;100 mA
7.93179797997414;-0.79925537109375;-0.0218353271484375;2.38999999396583;240;100 mA
7.94179797994889;-0.79925537109375;-0.02178955078125;2.39999999394058;241;100 mA
7.95179797992364;-0.799560546875;-0.0217559814453125;2.40999999391533;242;100 mA
7.96179797989839;-0.799560546875;-0.0217041015625;2.41999999389009;243;100 mA
7.97179797987314;-0.7989501953125;-0.021661376953125;2.42999999386484;244;100 mA
7.9817979798479;-0.79925537109375;-0.0216278076171875;2.43999999383959;245;100 mA
7.99179797982265;-0.7989501953125;-0.0215728759765625;2.44999999381434;246;100 mA
8.0017979797974;-0.79864501953125;-0.021533203125;2.4599999937891;247;100 mA
8.01179797977215;-0.79925537109375;-0.021484375;2.46999999376385;248;100 mA
8.02179797974691;-0.79925537109375;-0.0214447021484375;2.4799999937386;249;100 mA
8.03179797972166;-0.79925537109375;-0.0214080810546875;2.48999999371335;250;100 mA
8.04179797969641;-0.7989501953125;-0.021356201171875;2.49999999368811;251;100 mA
8.05179797967116;-0.79925537109375;-0.0213348388671875;2.50999999366286;252;100 mA
8.06179797964592;-0.799560546875;-0.0212738037109375;2.51999999363761;253;100 mA
8.07179797962067;-0.79925537109375;-0.021234130859375;2.52999999361236;254;100 mA
8.08179797959542;-0.799560546875;-0.02120361328125;2.53999999358712;255;100 mA
8.09179797957017;-0.79925537109375;-0.0211517333984375;2.54999999356187;256;100 mA
8.10179797954493;-0.799560546875;-0.021124267578125;2.55999999353662;257;100 mA
8.11179797951968;-0.79925537109375;-0.0210784912109375;2.56999999351137;258;100 mA
8.12179797949443;-0.799560546875;-0.0210418701171875;2.57999999348613;259;100 mA
8.13179797946918;-0.79925537109375;-0.0209991455078125;2.58999999346088;260;100 mA
8.14179797944394;-0.79925537109375;-0.020953369140625;2.59999999343563;261;100 mA
8.15179797941869;-0.799560546875;-0.0209228515625;2.60999999341038;262;100 mA
8.16179797939344;-0.7989501953125;-0.0208770751953125;2.61999999338514;263;100 mA
8.17179797936819;-0.79925537109375;-0.02083740234375;2.62999999335989;264;100 mA
8.18179797934295;-0.79925537109375;-0.0208038330078125;2.63999999333464;265;100 mA
8.1917979793177;-0.7989501953125;-0.020758056640625;2.64999999330939;266;100 mA
8.20179797929245;-0.799560546875;-0.0207244873046875;2.65999999328415;267;100 mA
8.2117979792672;-0.799560546875;-0.0206878662109375;2.6699999932589;268;100 mA
8.22179797924196;-0.79925537109375;-0.020654296875;2.67999999323365;269;100 mA
8.23179797921671;-0.7989501953125;-0.02061767578125;2.6899999932084;270;100 mA
8.24179797919146;-0.7989501953125;-0.0205718994140625;2.69999999318316;271;100 mA
8.25179797916621;-0.79864501953125;-0.0205474853515625;2.70999999315791;272;100 mA
8.26179797914097;-0.79864501953125;-0.020501708984375;2.71999999313266;273;100 mA
8.27179797911572;-0.7989501953125;-0.020465087890625;2.72999999310741;274;100 mA
8.28179797909047;-0.799560546875;-0.0204315185546875;2.73999999308217;275;100 mA
8.29179797906522;-0.79925537109375;-0.0203857421875;2.74999999305692;276;100 mA
8.30179797903997;-0.79925537109375;-0.0203643798828125;2.75999999303167;277;100 mA
8.31179797901473;-0.799560546875;-0.02032470703125;2.76999999300642;278;100 mA
8.32179797898948;-0.7989501953125;-0.0202850341796875;2.77999999298117;279;100 mA
8.33179797896423;-0.79925537109375;-0.0202545166015625;2.78999999295593;280;100 mA
8.34179797893898;-0.79925537109375;-0.0202117919921875;2.79999999293068;281;100 mA
8.35179797891374;-0.79925537109375;-0.0201934814453125;2.80999999290543;282;100 mA
8.36179797888849;-0.79864501953125;-0.0201446533203125;2.81999999288018;283;100 mA
8.37179797886324;-0.79925537109375;-0.020123291015625;2.82999999285494;284;100 mA
8.38179797883799;-0.79925537109375;-0.0200836181640625;2.83999999282969;285;100 mA
8.39179797881275;-0.79925537109375;-0.0200439453125;2.84999999280444;286;100 mA
8.4017979787875;-0.7989501953125;-0.020013427734375;2.85999999277919;287;100 mA
8.41179797876225;-0.79925537109375;-0.019976806640625;2.86999999275395;288;100 mA
8.421797978737;-0.79925537109375;-0.0199432373046875;2.8799999927287;289;100 mA
8.43179797871176;-0.7989501953125;-0.019915771484375;2.88999999270345;290;100 mA
8.44179797868651;-0.79925537109375;-0.019866943359375;2.8999999926782;291;100 mA
8.45179797866126;-0.79925537109375;-0.0198516845703125;2.90999999265296;292;100 mA
8.46179797863601;-0.79925537109375;-0.0198089599609375;2.91999999262771;293;100 mA
8.47179797861077;-0.79925537109375;-0.0197723388671875;2.92999999260246;294;100 mA
8.48179797858552;-0.79925537109375;-0.0197479248046875;2.93999999257721;295;100 mA
8.49179797856027;-0.799560546875;-0.0197113037109375;2.94999999255197;296;100 mA
8.50179797853502;-0.79925537109375;-0.019683837890625;2.95999999252672;297;100 mA
8.51179797850978;-0.799560546875;-0.0196533203125;2.96999999250147;298;100 mA
8.52179797848453;-0.79925537109375;-0.0196136474609375;2.97999999247622;299;100 mA
8.53179797845928;-0.79925537109375;-0.019586181640625;2.98999999245098;300;100 mA
8.54179797843403;-0.79864501953125;-0.0195465087890625;2.99999999242573;301;100 mA
8.55179797840879;-0.799560546875;-0.0195281982421875;3.00999999240048;302;100 mA
8.56179797838354;-0.79925537109375;-0.019488525390625;3.01999999237523;303;100 mA
8.57179797835829;-0.7989501953125;-0.019464111328125;3.02999999234999;304;100 mA
8.58179797833304;-0.79925537109375;-0.0194366455078125;3.03999999232474;305;100 mA
8.5917979783078;-0.79925537109375;-0.01939697265625;3.04999999229949;306;100 mA
8.60179797828255;-0.799560546875;-0.01937255859375;3.05999999227424;307;100 mA
8.6117979782573;-0.79986572265625;-0.0193359375;3.069999992249;308;100 mA
8.62179797823205;-0.79925537109375;-0.0193084716796875;3.07999999222375;309;100 mA
8.63179797820681;-0.7989501953125;-0.0192840576171875;3.0899999921985;310;100 mA
8.64179797818156;-0.79925537109375;-0.019244384765625;3.09999999217325;311;100 mA
8.65179797815631;-0.79925537109375;-0.0192230224609375;3.109999992148;312;100 mA
8.66179797813106;-0.799560546875;-0.0191864013671875;3.11999999212276;313;100 mA
8.67179797810581;-0.799560546875;-0.019158935546875;3.12999999209751;314;100 mA
8.68179797808057;-0.7989501953125;-0.0191375732421875;3.13999999207226;315;100 mA
8.69179797805532;-0.79925537109375;-0.019091796875;3.14999999204701;316;100 mA
8.70179797803007;-0.7989501953125;-0.0190704345703125;3.15999999202177;317;100 mA
8.71179797800482;-0.79925537109375;-0.01904296875;3.16999999199652;318;100 mA
8.72179797797958;-0.799560546875;-0.0190155029296875;3.17999999197127;319;100 mA
8.73179797795433;-0.79925537109375;-0.018988037109375;3.18999999194602;320;100 mA
8.74179797792908;-0.7989501953125;-0.018951416015625;3.19999999192078;321;100 mA
8.75179797790383;-0.79925537109375;-0.01893310546875;3.20999999189553;322;100 mA
8.76179797787859;-0.79986572265625;-0.018896484375;3.21999999187028;323;100 mA
8.77179797785334;-0.79925537109375;-0.0188720703125;3.22999999184503;324;100 mA
8.78179797782809;-0.79925537109375;-0.0188507080078125;3.23999999181979;325;100 mA
8.79179797780284;-0.799560546875;-0.0188079833984375;3.24999999179454;326;100 mA
8.8017979777776;-0.7989501953125;-0.0187896728515625;3.25999999176929;327;100 mA
8.81179797775235;-0.799560546875;-0.01876220703125;3.26999999174404;328;100 mA
8.8217979777271;-0.7989501953125;-0.0187286376953125;3.2799999917188;329;100 mA
8.83179797770185;-0.79925537109375;-0.01871337890625;3.28999999169355;330;100 mA
8.84179797767661;-0.799560546875;-0.018670654296875;3.2999999916683;331;100 mA
8.85179797765136;-0.799560546875;-0.01865234375;3.30999999164305;332;100 mA
8.86179797762611;-0.799560546875;-0.0186187744140625;3.31999999161781;333;100 mA
8.87179797760086;-0.79925537109375;-0.018597412109375;3.32999999159256;334;100 mA
8.88179797757562;-0.79925537109375;-0.0185699462890625;3.33999999156731;335;100 mA
8.89179797755037;-0.7989501953125;-0.0185394287109375;3.34999999154206;336;100 mA
8.90179797752512;-0.7989501953125;-0.01851806640625;3.35999999151682;337;100 mA
8.91179797749987;-0.79986572265625;-0.0184906005859375;3.36999999149157;338;100 mA
8.92179797747463;-0.79925537109375;-0.0184600830078125;3.37999999146632;339;100 mA
8.93179797744938;-0.79864501953125;-0.018438720703125;3.38999999144107;340;100 mA
8.94179797742413;-0.79925537109375;-0.018408203125;3.39999999141583;341;100 mA
8.95179797739888;-0.7989501953125;-0.0183868408203125;3.40999999139058;342;100 mA
8.96179797737364;-0.7989501953125;-0.0183563232421875;3.41999999136533;343;100 mA
8.97179797734839;-0.79925537109375;-0.0183258056640625;3.42999999134008;344;100 mA
8.98179797732314;-0.7989501953125;-0.0183135986328125;3.43999999131483;345;100 mA
8.99179797729789;-0.79986572265625;-0.0182769775390625;3.44999999128959;346;100 mA
9.00179797727264;-0.79925537109375;-0.018255615234375;3.45999999126434;347;100 mA
9.0117979772474;-0.7989501953125;-0.0182342529296875;3.46999999123909;348;100 mA
9.02179797722215;-0.79925537109375;-0.0182098388671875;3.47999999121384;349;100 mA
9.0317979771969;-0.7989501953125;-0.0181884765625;3.4899999911886;350;100 mA
9.04179797717165;-0.799560546875;-0.0181549072265625;3.49999999116335;351;100 mA
9.05179797714641;-0.79925537109375;-0.0181396484375;3.5099999911381;352;100 mA
9.06179797712116;-0.7989501953125;-0.018109130859375;3.51999999111285;353;100 mA
9.07179797709591;-0.7989501953125;-0.01807861328125;3.52999999108761;354;100 mA
9.08179797707066;-0.79925537109375;-0.0180633544921875;3.53999999106236;355;100 mA
9.09179797704542;-0.79925537109375;-0.0180267333984375;3.54999999103711;356;100 mA
9.10179797702017;-0.79925537109375;-0.018011474609375;3.55999999101186;357;100 mA
9.11179797699492;-0.799560546875;-0.0179840087890625;3.56999999098662;358;100 mA
9.12179797696967;-0.79864501953125;-0.01795654296875;3.57999999096137;359;100 mA
9.13179797694443;-0.799560546875;-0.017938232421875;3.58999999093612;360;100 mA
9.14179797691918;-0.79864501953125;-0.0179046630859375;3.59999999091087;361;100 mA
9.15179797689393;-0.7989501953125;-0.0178863525390625;3.60999999088563;362;100 mA
9.16179797686868;-0.79864501953125;-0.0178619384765625;3.61999999086038;363;100 mA
9.17179797684344;-0.7989501953125;-0.017840576171875;3.62999999083513;364;100 mA
9.18179797681819;-0.799560546875;-0.017828369140625;3.63999999080988;365;100 mA
9.19179797679294;-0.7989501953125;-0.017791748046875;3.64999999078464;366;100 mA
9.20179797676769;-0.799560546875;-0.017779541015625;3.65999999075939;367;100 mA
9.21179797674245;-0.799560546875;-0.0177581787109375;3.66999999073414;368;100 mA
9.2217979767172;-0.79925537109375;-0.017730712890625;3.67999999070889;369;100 mA
9.23179797669195;-0.799560546875;-0.0177154541015625;3.68999999068365;370;100 mA
9.2417979766667;-0.79925537109375;-0.017681884765625;3.6999999906584;371;100 mA
9.25179797664146;-0.7989501953125;-0.0176727294921875;3.70999999063315;372;100 mA
9.26179797661621;-0.79925537109375;-0.0176422119140625;3.7199999906079;373;100 mA
9.27179797659096;-0.79925537109375;-0.01761474609375;3.72999999058266;374;100 mA
9.28179797656571;-0.7989501953125;-0.0175994873046875;3.73999999055741;375;100 mA
9.29179797654047;-0.79925537109375;-0.01756591796875;3.74999999053216;376;100 mA
9.30179797651522;-0.79925537109375;-0.0175506591796875;3.75999999050691;377;100 mA
9.31179797648997;-0.79925537109375;-0.0175323486328125;3.76999999048167;378;100 mA
9.32179797646472;-0.7989501953125;-0.0175079345703125;3.77999999045642;379;100 mA
9.33179797643947;-0.799560546875;-0.0174957275390625;3.78999999043117;380;100 mA
9.34179797641423;-0.79925537109375;-0.0174560546875;3.79999999040592;381;100 mA
9.35179797638898;-0.7989501953125;-0.01744384765625;3.80999999038067;382;100 mA
9.36179797636373;-0.79925537109375;-0.0174224853515625;3.81999999035543;383;100 mA
9.37179797633848;-0.79925537109375;-0.0173919677734375;3.82999999033018;384;100 mA
9.38179797631324;-0.799560546875;-0.0173828125;3.83999999030493;385;100 mA
9.39179797628799;-0.799560546875;-0.0173431396484375;3.84999999027968;386;100 mA
9.40179797626274;-0.7989501953125;-0.017333984375;3.85999999025444;387;100 mA
9.41179797623749;-0.7989501953125;-0.0173095703125;3.86999999022919;388;100 mA
9.42179797621225;-0.7989501953125;-0.0172882080078125;3.87999999020394;389;100 mA
9.431797976187;-0.799560546875;-0.0172698974609375;3.88999999017869;390;100 mA
9.44179797616175;-0.79925537109375;-0.017242431640625;3.89999999015345;391;100 mA
9.4517979761365;-0.79986572265625;-0.017230224609375;3.9099999901282;392;100 mA
9.46179797611126;-0.7989501953125;-0.017205810546875;3.91999999010295;393;100 mA
9.47179797608601;-0.79925537109375;-0.0171844482421875;3.9299999900777;394;100 mA
9.48179797606076;-0.799560546875;-0.0171661376953125;3.93999999005246;395;100 mA
9.49179797603551;-0.79864501953125;-0.017138671875;3.94999999002721;396;100 mA
9.50179797601027;-0.799560546875;-0.0171234130859375;3.95999999000196;397;100 mA
9.51179797598502;-0.7989501953125;-0.017108154296875;3.96999998997671;398;100 mA
9.52179797595977;-0.7989501953125;-0.0170806884765625;3.97999998995147;399;100 mA
9.53179797593452;-0.79864501953125;-0.0170623779296875;3.98999998992622;400;100 mA
9.54179797590928;-0.79925537109375;-0.017034912109375;3.99999998990097;401;100 mA
9.55179797588403;-0.79925537109375;-0.01702880859375;4.00999998987572;402;100 mA
9.56179797585878;-0.79925537109375;-0.01700439453125;4.01999998985048;403;100 mA
9.57179797583353;-0.799560546875;-0.0169769287109375;4.02999998982523;404;100 mA
9.58179797580829;-0.79925537109375;-0.0169586181640625;4.03999998979998;405;100 mA
9.59179797578304;-0.799560546875;-0.01693115234375;4.04999998977473;406;100 mA
9.60179797575779;-0.79925537109375;-0.016912841796875;4.05999998974949;407;100 mA
9.61179797573254;-0.79925537109375;-0.0168975830078125;4.06999998972424;408;100 mA
9.6217979757073;-0.79925537109375;-0.016876220703125;4.07999998969899;409;100 mA
9.63179797568205;-0.7989501953125;-0.0168701171875;4.08999998967374;410;100 mA
9.6417979756568;-0.79925537109375;-0.01683349609375;4.0999999896485;411;100 mA
9.65179797563155;-0.79925537109375;-0.0168304443359375;4.10999998962325;412;100 mA
9.66179797560631;-0.7989501953125;-0.0167999267578125;4.119999989598;413;100 mA
9.67179797558106;-0.799560546875;-0.0167816162109375;4.12999998957275;414;100 mA
9.68179797555581;-0.799560546875;-0.0167694091796875;4.1399999895475;415;100 mA
9.69179797553056;-0.79864501953125;-0.016741943359375;4.14999998952226;416;100 mA
9.70179797550531;-0.7989501953125;-0.0167205810546875;4.15999998949701;417;100 mA
9.71179797548007;-0.7989501953125;-0.0167083740234375;4.16999998947176;418;100 mA
9.72179797545482;-0.799560546875;-0.01668701171875;4.17999998944651;419;100 mA
9.73179797542957;-0.7989501953125;-0.016668701171875;4.18999998942127;420;100 mA
9.74179797540432;-0.7989501953125;-0.016650390625;4.19999998939602;421;100 mA
9.75179797537908;-0.799560546875;-0.0166351318359375;4.20999998937077;422;100 mA
9.76179797535383;-0.799560546875;-0.0166168212890625;4.21999998934552;423;100 mA
9.77179797532858;-0.799560546875;-0.0165924072265625;4.22999998932028;424;100 mA
9.78179797530333;-0.7989501953125;-0.016583251953125;4.23999998929503;425;100 mA
9.79179797527809;-0.79925537109375;-0.0165496826171875;4.24999998926978;426;100 mA
9.80179797525284;-0.799560546875;-0.016534423828125;4.25999998924453;427;100 mA
9.81179797522759;-0.79925537109375;-0.016522216796875;4.26999998921929;428;100 mA
9.82179797520234;-0.799560546875;-0.016497802734375;4.27999998919404;429;100 mA
9.8317979751771;-0.7989501953125;-0.016485595703125;4.28999998916879;430;100 mA
9.84179797515185;-0.7989501953125;-0.016461181640625;4.29999998914354;431;100 mA
9.8517979751266;-0.799560546875;-0.016448974609375;4.3099999891183;432;100 mA
9.86179797510135;-0.799560546875;-0.0164276123046875;4.31999998909305;433;100 mA
9.87179797507611;-0.799560546875;-0.01640625;4.3299999890678;434;100 mA
9.88179797505086;-0.79864501953125;-0.0163909912109375;4.33999998904255;435;100 mA
9.89179797502561;-0.79986572265625;-0.0163665771484375;4.34999998901731;436;100 mA
9.90179797500036;-0.79925537109375;-0.0163482666015625;4.35999998899206;437;100 mA
9.91179797497512;-0.799560546875;-0.0163360595703125;4.36999998896681;438;100 mA
9.92179797494987;-0.79925537109375;-0.01632080078125;4.37999998894156;439;100 mA
9.93179797492462;-0.79925537109375;-0.01630859375;4.38999998891632;440;100 mA
9.94179797489937;-0.7989501953125;-0.0162811279296875;4.39999998889107;441;100 mA
9.95179797487413;-0.79925537109375;-0.01627197265625;4.40999998886582;442;100 mA
9.96179797484888;-0.79925537109375;-0.016253662109375;4.41999998884057;443;100 mA
9.97179797482363;-0.79864501953125;-0.0162384033203125;4.42999998881533;444;100 mA
9.98179797479838;-0.79925537109375;-0.0162200927734375;4.43999998879008;445;100 mA
9.99179797477314;-0.7989501953125;-0.016192626953125;4.44999998876483;446;100 mA
10.0017979747479;-0.799560546875;-0.016180419921875;4.45999998873958;447;100 mA
10.0117979747226;-0.7989501953125;-0.016168212890625;4.46999998871433;448;100 mA
10.0217979746974;-0.799560546875;-0.0161407470703125;4.47999998868909;449;100 mA
10.0317979746721;-0.7989501953125;-0.01612548828125;4.48999998866384;450;100 mA
10.0417979746469;-0.79925537109375;-0.016107177734375;4.49999998863859;451;100 mA
10.0517979746216;-0.799560546875;-0.016094970703125;4.50999998861334;452;100 mA
10.0617979745964;-0.79864501953125;-0.0160797119140625;4.5199999885881;453;100 mA
10.0717979745712;-0.7989501953125;-0.016064453125;4.52999998856285;454;100 mA
10.0817979745459;-0.79925537109375;-0.01605224609375;4.5399999885376;455;100 mA
10.0917979745207;-0.799560546875;-0.0160247802734375;4.54999998851235;456;100 mA
10.1017979744954;-0.799560546875;-0.016009521484375;4.55999998848711;457;100 mA
10.1117979744702;-0.79864501953125;-0.0160003662109375;4.56999998846186;458;100 mA
10.1217979744449;-0.79925537109375;-0.015985107421875;4.57999998843661;459;100 mA
10.1317979744197;-0.79925537109375;-0.0159637451171875;4.58999998841136;460;100 mA
10.1417979743944;-0.7989501953125;-0.0159454345703125;4.59999998838612;461;100 mA
10.1517979743692;-0.7989501953125;-0.01593017578125;4.60999998836087;462;100 mA
10.1617979743439;-0.799560546875;-0.015911865234375;4.61999998833562;463;100 mA
10.1717979743187;-0.799560546875;-0.0158966064453125;4.62999998831037;464;100 mA
10.1817979742934;-0.799560546875;-0.0158843994140625;4.63999998828513;465;100 mA
10.1917979742682;-0.79925537109375;-0.015863037109375;4.64999998825988;466;100 mA
10.2017979742429;-0.799560546875;-0.0158416748046875;4.65999998823463;467;100 mA
10.2117979742177;-0.79925537109375;-0.015838623046875;4.66999998820938;468;100 mA
10.2217979741924;-0.7989501953125;-0.015814208984375;4.67999998818414;469;100 mA
10.2317979741672;-0.79925537109375;-0.0158111572265625;4.68999998815889;470;100 mA
10.2417979741419;-0.7989501953125;-0.015777587890625;4.69999998813364;471;100 mA
10.2517979741167;-0.79925537109375;-0.0157745361328125;4.70999998810839;472;100 mA
10.2617979740915;-0.79925537109375;-0.015753173828125;4.71999998808315;473;100 mA
10.2717979740662;-0.79925537109375;-0.0157318115234375;4.7299999880579;474;100 mA
10.281797974041;-0.79925537109375;-0.0157196044921875;4.73999998803265;475;100 mA
10.2917979740157;-0.799560546875;-0.015692138671875;4.7499999880074;476;100 mA
10.3017979739905;-0.79833984375;-0.01568603515625;4.75999998798216;477;100 mA
10.3117979739652;-0.799560546875;-0.015673828125;4.76999998795691;478;100 mA
10.32179797394;-0.79925537109375;-0.015655517578125;4.77999998793166;479;100 mA
10.3317979739147;-0.7989501953125;-0.0156463623046875;4.78999998790641;480;100 mA
10.3417979738895;-0.79925537109375;-0.015625;4.79999998788116;481;100 mA
10.3517979738642;-0.79925537109375;-0.01561279296875;4.80999998785592;482;100 mA
10.361797973839;-0.799560546875;-0.015594482421875;4.81999998783067;483;100 mA
10.3717979738137;-0.79925537109375;-0.015576171875;4.82999998780542;484;100 mA
10.3817979737885;-0.7989501953125;-0.0155731201171875;4.83999998778017;485;100 mA
10.3917979737632;-0.79864501953125;-0.015545654296875;4.84999998775493;486;100 mA
10.401797973738;-0.799560546875;-0.0155364990234375;4.85999998772968;487;100 mA
10.4117979737127;-0.79925537109375;-0.01552734375;4.86999998770443;488;100 mA
10.4217979736875;-0.799560546875;-0.0154998779296875;4.87999998767918;489;100 mA
10.4317979736622;-0.79925537109375;-0.015496826171875;4.88999998765394;490;100 mA
10.441797973637;-0.79986572265625;-0.0154693603515625;4.89999998762869;491;100 mA
10.4517979736117;-0.799560546875;-0.015460205078125;4.90999998760344;492;100 mA
10.4617979735865;-0.7989501953125;-0.0154541015625;4.91999998757819;493;100 mA
10.4717979735613;-0.799560546875;-0.0154296875;4.92999998755295;494;100 mA
10.481797973536;-0.79925537109375;-0.0154205322265625;4.9399999875277;495;100 mA
10.4917979735108;-0.799560546875;-0.015399169921875;4.94999998750245;496;100 mA
10.5017979734855;-0.79925537109375;-0.015386962890625;4.9599999874772;497;100 mA
10.5117979734603;-0.79925537109375;-0.01536865234375;4.96999998745196;498;100 mA
10.521797973435;-0.79864501953125;-0.0153564453125;4.97999998742671;499;100 mA
10.5317979734098;-0.79864501953125;-0.0153472900390625;4.98999998740146;500;100 mA
10.5417979733845;-0.7989501953125;-0.01531982421875;4.99999998737621;501;100 mA
10.5517979733593;-0.799560546875;-0.0153167724609375;5.00999998735097;502;100 mA
10.561797973334;-0.799560546875;-0.0152984619140625;5.01999998732572;503;100 mA
10.5717979733088;-0.79925537109375;-0.015283203125;5.02999998730047;504;100 mA
10.5817979732835;-0.79925537109375;-0.015277099609375;5.03999998727522;505;100 mA
10.5917979732583;-0.79925537109375;-0.01524658203125;5.04999998724998;506;100 mA
10.601797973233;-0.79925537109375;-0.015240478515625;5.05999998722473;507;100 mA
10.6117979732078;-0.79925537109375;-0.0152313232421875;5.06999998719948;508;100 mA
10.6217979731825;-0.7989501953125;-0.015216064453125;5.07999998717423;509;100 mA
10.6317979731573;-0.79864501953125;-0.0152069091796875;5.08999998714899;510;100 mA
10.641797973132;-0.79925537109375;-0.015179443359375;5.09999998712374;511;100 mA
10.6517979731068;-0.79925537109375;-0.0151763916015625;5.10999998709849;512;100 mA
10.6617979730815;-0.79925537109375;-0.0151580810546875;5.11999998707324;513;100 mA
10.6717979730563;-0.7989501953125;-0.0151458740234375;5.129999987048;514;100 mA
10.6817979730311;-0.7989501953125;-0.0151397705078125;5.13999998702275;515;100 mA
10.6917979730058;-0.79986572265625;-0.0151153564453125;5.1499999869975;516;100 mA
10.7017979729806;-0.79925537109375;-0.01510009765625;5.15999998697225;517;100 mA
10.7117979729553;-0.79925537109375;-0.0150909423828125;5.169999986947;518;100 mA
10.7217979729301;-0.79925537109375;-0.0150726318359375;5.17999998692176;519;100 mA
10.7317979729048;-0.79925537109375;-0.0150665283203125;5.18999998689651;520;100 mA
10.7417979728796;-0.7989501953125;-0.0150390625;5.19999998687126;521;100 mA
10.7517979728543;-0.79925537109375;-0.0150390625;5.20999998684601;522;100 mA
10.7617979728291;-0.79986572265625;-0.015020751953125;5.21999998682077;523;100 mA
10.7717979728038;-0.79925537109375;-0.01500244140625;5.22999998679552;524;100 mA
10.7817979727786;-0.79925537109375;-0.0149993896484375;5.23999998677027;525;100 mA
10.7917979727533;-0.79864501953125;-0.0149749755859375;5.24999998674502;526;100 mA
10.8017979727281;-0.79925537109375;-0.0149658203125;5.25999998671978;527;100 mA
10.8117979727028;-0.799560546875;-0.0149505615234375;5.26999998669453;528;100 mA
10.8217979726776;-0.79925537109375;-0.0149383544921875;5.27999998666928;529;100 mA
10.8317979726523;-0.79925537109375;-0.0149261474609375;5.28999998664403;530;100 mA
10.8417979726271;-0.79864501953125;-0.01490478515625;5.29999998661879;531;100 mA
10.8517979726018;-0.79925537109375;-0.01490478515625;5.30999998659354;532;100 mA
10.8617979725766;-0.79925537109375;-0.014886474609375;5.31999998656829;533;100 mA
10.8717979725513;-0.79925537109375;-0.014874267578125;5.32999998654304;534;100 mA
10.8817979725261;-0.79925537109375;-0.0148712158203125;5.3399999865178;535;100 mA
10.8917979725009;-0.79925537109375;-0.0148468017578125;5.34999998649255;536;100 mA
10.9017979724756;-0.79925537109375;-0.014837646484375;5.3599999864673;537;100 mA
10.9117979724504;-0.799560546875;-0.014825439453125;5.36999998644205;538;100 mA
10.9217979724251;-0.79925537109375;-0.01480712890625;5.37999998641681;539;100 mA
10.9317979723999;-0.79864501953125;-0.014801025390625;5.38999998639156;540;100 mA
10.9417979723746;-0.79925537109375;-0.0147735595703125;5.39999998636631;541;100 mA
10.9517979723494;-0.79986572265625;-0.0147735595703125;5.40999998634106;542;100 mA
10.9617979723241;-0.7989501953125;-0.01475830078125;5.41999998631582;543;100 mA
10.9717979722989;-0.7989501953125;-0.014739990234375;5.42999998629057;544;100 mA
10.9817979722736;-0.7989501953125;-0.01473388671875;5.43999998626532;545;100 mA
10.9917979722484;-0.79925537109375;-0.0147125244140625;5.44999998624007;546;100 mA
11.0017979722231;-0.7989501953125;-0.0147064208984375;5.45999998621483;547;100 mA
11.0117979721979;-0.79925537109375;-0.0146942138671875;5.46999998618958;548;100 mA
11.0217979721726;-0.7989501953125;-0.01468505859375;5.47999998616433;549;100 mA
11.0317979721474;-0.7989501953125;-0.014666748046875;5.48999998613908;550;100 mA
11.0417979721221;-0.799560546875;-0.014654541015625;5.49999998611383;551;100 mA
11.0517979720969;-0.79925537109375;-0.0146514892578125;5.50999998608859;552;100 mA
11.0617979720716;-0.79925537109375;-0.0146392822265625;5.51999998606334;553;100 mA
11.0717979720464;-0.79925537109375;-0.0146209716796875;5.52999998603809;554;100 mA
11.0817979720211;-0.79864501953125;-0.01461181640625;5.53999998601284;555;100 mA
11.0917979719959;-0.79925537109375;-0.01458740234375;5.5499999859876;556;100 mA
11.1017979719707;-0.7989501953125;-0.0145843505859375;5.55999998596235;557;100 mA
11.1117979719454;-0.7989501953125;-0.014569091796875;5.5699999859371;558;100 mA
11.1217979719202;-0.79864501953125;-0.0145538330078125;5.57999998591185;559;100 mA
11.1317979718949;-0.79925537109375;-0.0145477294921875;5.58999998588661;560;100 mA
11.1417979718697;-0.79925537109375;-0.0145294189453125;5.59999998586136;561;100 mA
11.1517979718444;-0.7989501953125;-0.0145233154296875;5.60999998583611;562;100 mA
11.1617979718192;-0.79925537109375;-0.014508056640625;5.61999998581086;563;100 mA
11.1717979717939;-0.799560546875;-0.014501953125;5.62999998578562;564;100 mA
11.1817979717687;-0.7989501953125;-0.0144866943359375;5.63999998576037;565;100 mA
11.1917979717434;-0.799560546875;-0.014471435546875;5.64999998573512;566;100 mA
11.2017979717182;-0.79925537109375;-0.01446533203125;5.65999998570987;567;100 mA
11.2117979716929;-0.7989501953125;-0.0144500732421875;5.66999998568463;568;100 mA
11.2217979716677;-0.799560546875;-0.0144378662109375;5.67999998565938;569;100 mA
11.2317979716424;-0.79925537109375;-0.0144287109375;5.68999998563413;570;100 mA
11.2417979716172;-0.7989501953125;-0.0144134521484375;5.69999998560888;571;100 mA
11.2517979715919;-0.799560546875;-0.014404296875;5.70999998558364;572;100 mA
11.2617979715667;-0.79925537109375;-0.01439208984375;5.71999998555839;573;100 mA
11.2717979715414;-0.799560546875;-0.0143798828125;5.72999998553314;574;100 mA
11.2817979715162;-0.79925537109375;-0.0143707275390625;5.73999998550789;575;100 mA
11.291797971491;-0.799560546875;-0.014349365234375;5.74999998548265;576;100 mA
11.3017979714657;-0.7989501953125;-0.01434326171875;5.7599999854574;577;100 mA
11.3117979714405;-0.799560546875;-0.0143341064453125;5.76999998543215;578;100 mA
11.3217979714152;-0.7989501953125;-0.0143218994140625;5.7799999854069;579;100 mA
11.33179797139;-0.79925537109375;-0.0143157958984375;5.78999998538166;580;100 mA
11.3417979713647;-0.799560546875;-0.01429443359375;5.79999998535641;581;100 mA
11.3517979713395;-0.79925537109375;-0.01429443359375;5.80999998533116;582;100 mA
11.3617979713142;-0.79986572265625;-0.0142791748046875;5.81999998530591;583;100 mA
11.371797971289;-0.799560546875;-0.0142669677734375;5.82999998528066;584;100 mA
11.3817979712637;-0.799560546875;-0.0142547607421875;5.83999998525542;585;100 mA
11.3917979712385;-0.7989501953125;-0.014239501953125;5.84999998523017;586;100 mA
11.4017979712132;-0.799560546875;-0.0142364501953125;5.85999998520492;587;100 mA
11.411797971188;-0.7989501953125;-0.01422119140625;5.86999998517967;588;100 mA
11.4217979711627;-0.79864501953125;-0.014208984375;5.87999998515443;589;100 mA
11.4317979711375;-0.799560546875;-0.014202880859375;5.88999998512918;590;100 mA
11.4417979711122;-0.7989501953125;-0.0141845703125;5.89999998510393;591;100 mA
11.451797971087;-0.79925537109375;-0.0141754150390625;5.90999998507868;592;100 mA
11.4617979710617;-0.799560546875;-0.0141693115234375;5.91999998505344;593;100 mA
11.4717979710365;-0.799560546875;-0.0141510009765625;5.92999998502819;594;100 mA
11.4817979710112;-0.7989501953125;-0.014141845703125;5.93999998500294;595;100 mA
11.491797970986;-0.799560546875;-0.0141265869140625;5.94999998497769;596;100 mA
11.5017979709608;-0.79925537109375;-0.014117431640625;5.95999998495245;597;100 mA
11.5117979709355;-0.79925537109375;-0.0141082763671875;5.9699999849272;598;100 mA
11.5217979709103;-0.79925537109375;-0.0140960693359375;5.97999998490195;599;100 mA
11.531797970885;-0.7989501953125;-0.0140899658203125;5.9899999848767;600;100 mA
11.5417979708598;-0.79925537109375;-0.0140716552734375;5.99999998485146;601;100 mA
11.5517979708345;-0.7989501953125;-0.014068603515625;6.00999998482621;602;100 mA
11.5617979708093;-0.799560546875;-0.0140594482421875;6.01999998480096;603;100 mA
11.571797970784;-0.7989501953125;-0.014044189453125;6.02999998477571;604;100 mA
11.5817979707588;-0.79925537109375;-0.0140350341796875;6.03999998475047;605;100 mA
11.5917979707335;-0.799560546875;-0.014019775390625;6.04999998472522;606;100 mA
11.6017979707083;-0.79925537109375;-0.0140167236328125;6.05999998469997;607;100 mA
11.611797970683;-0.7989501953125;-0.01400146484375;6.06999998467472;608;100 mA
11.6217979706578;-0.799560546875;-0.0139862060546875;6.07999998464948;609;100 mA
11.6317979706325;-0.7989501953125;-0.0139862060546875;6.08999998462423;610;100 mA
11.6417979706073;-0.7989501953125;-0.01396484375;6.09999998459898;611;100 mA
11.651797970582;-0.79925537109375;-0.013958740234375;6.10999998457373;612;100 mA
11.6617979705568;-0.79925537109375;-0.01395263671875;6.11999998454849;613;100 mA
11.6717979705315;-0.799560546875;-0.013934326171875;6.12999998452324;614;100 mA
11.6817979705063;-0.79925537109375;-0.0139312744140625;6.13999998449799;615;100 mA
11.691797970481;-0.799560546875;-0.0139129638671875;6.14999998447274;616;100 mA
11.7017979704558;-0.79925537109375;-0.0139129638671875;6.1599999844475;617;100 mA
11.7117979704306;-0.7989501953125;-0.0138946533203125;6.16999998442225;618;100 mA
11.7217979704053;-0.79925537109375;-0.013885498046875;6.179999984397;619;100 mA
11.7317979703801;-0.79925537109375;-0.0138763427734375;6.18999998437175;620;100 mA
11.7417979703548;-0.7989501953125;-0.0138641357421875;6.1999999843465;621;100 mA
11.7517979703296;-0.79925537109375;-0.013861083984375;6.20999998432126;622;100 mA
11.7617979703043;-0.7989501953125;-0.0138519287109375;6.21999998429601;623;100 mA
11.7717979702791;-0.79864501953125;-0.0138336181640625;6.22999998427076;624;100 mA
11.7817979702538;-0.79925537109375;-0.0138275146484375;6.23999998424551;625;100 mA
11.7917979702286;-0.799560546875;-0.013812255859375;6.24999998422027;626;100 mA
11.8017979702033;-0.799560546875;-0.0138031005859375;6.25999998419502;627;100 mA
11.8117979701781;-0.7989501953125;-0.0137908935546875;6.26999998416977;628;100 mA
11.8217979701528;-0.7989501953125;-0.0137786865234375;6.27999998414452;629;100 mA
11.8317979701276;-0.79925537109375;-0.01376953125;6.28999998411928;630;100 mA
11.8417979701023;-0.799560546875;-0.013751220703125;6.29999998409403;631;100 mA
11.8517979700771;-0.79925537109375;-0.01375732421875;6.30999998406878;632;100 mA
11.8617979700518;-0.79925537109375;-0.0137420654296875;6.31999998404353;633;100 mA
11.8717979700266;-0.79925537109375;-0.01373291015625;6.32999998401829;634;100 mA
11.8817979700013;-0.79925537109375;-0.0137237548828125;6.33999998399304;635;100 mA
11.8917979699761;-0.79925537109375;-0.01370849609375;6.34999998396779;636;100 mA
11.9017979699508;-0.79925537109375;-0.013702392578125;6.35999998394254;637;100 mA
11.9117979699256;-0.799560546875;-0.0136871337890625;6.3699999839173;638;100 mA
11.9217979699004;-0.79925537109375;-0.013677978515625;6.37999998389205;639;100 mA
11.9317979698751;-0.79925537109375;-0.013677978515625;6.3899999838668;640;100 mA
11.9417979698499;-0.7989501953125;-0.013653564453125;6.39999998384155;641;100 mA
11.9517979698246;-0.7989501953125;-0.0136566162109375;6.40999998381631;642;100 mA
11.9617979697994;-0.799560546875;-0.013641357421875;6.41999998379106;643;100 mA
11.9717979697741;-0.79925537109375;-0.013629150390625;6.42999998376581;644;100 mA
11.9817979697489;-0.7989501953125;-0.013623046875;6.43999998374056;645;100 mA
11.9917979697236;-0.7989501953125;-0.0136016845703125;6.44999998371532;646;100 mA
12.0017979696984;-0.7989501953125;-0.0136016845703125;6.45999998369007;647;100 mA
12.0117979696731;-0.79925537109375;-0.0135894775390625;6.46999998366482;648;100 mA
12.0217979696479;-0.79925537109375;-0.013580322265625;6.47999998363957;649;100 mA
12.0317979696226;-0.79925537109375;-0.0135833740234375;6.48999998361433;650;100 mA
12.0417979695974;-0.7989501953125;-0.0135650634765625;6.49999998358908;651;100 mA
12.0517979695721;-0.7989501953125;-0.01356201171875;6.50999998356383;652;100 mA
12.0617979695469;-0.79986572265625;-0.0135467529296875;6.51999998353858;653;100 mA
12.0717979695216;-0.7989501953125;-0.01353759765625;6.52999998351333;654;100 mA
12.0817979694964;-0.79925537109375;-0.0135284423828125;6.53999998348809;655;100 mA
12.0917979694711;-0.799560546875;-0.0135101318359375;6.54999998346284;656;100 mA
12.1017979694459;-0.79925537109375;-0.0135101318359375;6.55999998343759;657;100 mA
12.1117979694206;-0.79864501953125;-0.01348876953125;6.56999998341234;658;100 mA
12.1217979693954;-0.79925537109375;-0.01348876953125;6.5799999833871;659;100 mA
12.1317979693702;-0.79864501953125;-0.0134765625;6.58999998336185;660;100 mA
12.1417979693449;-0.79986572265625;-0.013458251953125;6.5999999833366;661;100 mA
12.1517979693197;-0.79864501953125;-0.0134613037109375;6.60999998331135;662;100 mA
12.1617979692944;-0.7989501953125;-0.013446044921875;6.61999998328611;663;100 mA
12.1717979692692;-0.799560546875;-0.013446044921875;6.62999998326086;664;100 mA
12.1817979692439;-0.79925537109375;-0.013433837890625;6.63999998323561;665;100 mA
12.1917979692187;-0.7989501953125;-0.01341552734375;6.64999998321036;666;100 mA
12.2017979691934;-0.7989501953125;-0.0134185791015625;6.65999998318512;667;100 mA
12.2117979691682;-0.79864501953125;-0.0134033203125;6.66999998315987;668;100 mA
12.2217979691429;-0.79925537109375;-0.0133941650390625;6.67999998313462;669;100 mA
12.2317979691177;-0.799560546875;-0.013385009765625;6.68999998310937;670;100 mA
12.2417979690924;-0.79925537109375;-0.0133758544921875;6.69999998308413;671;100 mA
12.2517979690672;-0.79925537109375;-0.013372802734375;6.70999998305888;672;100 mA
12.2617979690419;-0.79925537109375;-0.013360595703125;6.71999998303363;673;100 mA
12.2717979690167;-0.79925537109375;-0.013348388671875;6.72999998300838;674;100 mA
12.2817979689914;-0.799560546875;-0.0133392333984375;6.73999998298314;675;100 mA
12.2917979689662;-0.79925537109375;-0.0133209228515625;6.74999998295789;676;100 mA
12.3017979689409;-0.7989501953125;-0.0133270263671875;6.75999998293264;677;100 mA
12.3117979689157;-0.79925537109375;-0.0133087158203125;6.76999998290739;678;100 mA
12.3217979688905;-0.79925537109375;-0.013299560546875;6.77999998288215;679;100 mA
12.3317979688652;-0.799560546875;-0.013299560546875;6.7899999828569;680;100 mA
12.34179796884;-0.79925537109375;-0.01328125;6.79999998283165;681;100 mA
12.3517979688147;-0.799560546875;-0.01328125;6.8099999828064;682;100 mA
12.3617979687895;-0.79864501953125;-0.0132659912109375;6.81999998278116;683;100 mA
12.3717979687642;-0.79925537109375;-0.0132568359375;6.82999998275591;684;100 mA
12.381797968739;-0.7989501953125;-0.013250732421875;6.83999998273066;685;100 mA
12.3917979687137;-0.79925537109375;-0.0132354736328125;6.84999998270541;686;100 mA
12.4017979686885;-0.799560546875;-0.013232421875;6.85999998268016;687;100 mA
12.4117979686632;-0.7989501953125;-0.0132171630859375;6.86999998265492;688;100 mA
12.421797968638;-0.799560546875;-0.0132110595703125;6.87999998262967;689;100 mA
12.4317979686127;-0.799560546875;-0.0132080078125;6.88999998260442;690;100 mA
12.4417979685875;-0.79925537109375;-0.013189697265625;6.89999998257917;691;100 mA
12.4517979685622;-0.79864501953125;-0.013189697265625;6.90999998255393;692;100 mA
12.461797968537;-0.79925537109375;-0.0131744384765625;6.91999998252868;693;100 mA
12.4717979685117;-0.7989501953125;-0.0131683349609375;6.92999998250343;694;100 mA
12.4817979684865;-0.7989501953125;-0.0131622314453125;6.93999998247818;695;100 mA
12.4917979684612;-0.7989501953125;-0.01314697265625;6.94999998245294;696;100 mA
12.501797968436;-0.7989501953125;-0.013153076171875;6.95999998242769;697;100 mA
12.5117979684107;-0.79925537109375;-0.013128662109375;6.96999998240244;698;100 mA
12.5217979683855;-0.79986572265625;-0.0131256103515625;6.97999998237719;699;100 mA
12.5317979683603;-0.7989501953125;-0.013116455078125;6.98999998235195;700;100 mA
12.541797968335;-0.79925537109375;-0.013104248046875;6.9999999823267;701;100 mA
12.5517979683098;-0.79864501953125;-0.01309814453125;7.00999998230145;702;100 mA
12.5617979682845;-0.7989501953125;-0.0130859375;7.0199999822762;703;100 mA
12.5717979682593;-0.7989501953125;-0.013079833984375;7.02999998225096;704;100 mA
12.581797968234;-0.799560546875;-0.0130767822265625;7.03999998222571;705;100 mA
12.5917979682088;-0.79925537109375;-0.0130584716796875;7.04999998220046;706;100 mA
12.6017979681835;-0.799560546875;-0.0130615234375;7.05999998217521;707;100 mA
12.6117979681583;-0.79925537109375;-0.013043212890625;7.06999998214997;708;100 mA
12.621797968133;-0.7989501953125;-0.0130340576171875;7.07999998212472;709;100 mA
12.6317979681078;-0.7989501953125;-0.013031005859375;7.08999998209947;710;100 mA
12.6417979680825;-0.799560546875;-0.0130157470703125;7.09999998207422;711;100 mA
12.6517979680573;-0.7989501953125;-0.013018798828125;7.10999998204898;712;100 mA
12.661797968032;-0.79925537109375;-0.013006591796875;7.11999998202373;713;100 mA
12.6717979680068;-0.799560546875;-0.0129974365234375;7.12999998199848;714;100 mA
12.6817979679815;-0.79925537109375;-0.0129913330078125;7.13999998197323;715;100 mA
12.6917979679563;-0.7989501953125;-0.012969970703125;7.14999998194799;716;100 mA
12.701797967931;-0.79925537109375;-0.0129730224609375;7.15999998192274;717;100 mA
12.7117979679058;-0.79925537109375;-0.012957763671875;7.16999998189749;718;100 mA
12.7217979678805;-0.7989501953125;-0.0129486083984375;7.17999998187224;719;100 mA
12.7317979678553;-0.799560546875;-0.0129425048828125;7.189999981847;720;100 mA
12.7417979678301;-0.79925537109375;-0.012933349609375;7.19999998182175;721;100 mA
12.7517979678048;-0.7989501953125;-0.0129302978515625;7.2099999817965;722;100 mA
12.7617979677796;-0.79925537109375;-0.0129241943359375;7.21999998177125;723;100 mA
12.7717979677543;-0.79864501953125;-0.012908935546875;7.229999981746;724;100 mA
12.7817979677291;-0.799560546875;-0.0129058837890625;7.23999998172076;725;100 mA
12.7917979677038;-0.79925537109375;-0.0128936767578125;7.24999998169551;726;100 mA
12.8017979676786;-0.7989501953125;-0.0128936767578125;7.25999998167026;727;100 mA
12.8117979676533;-0.79925537109375;-0.01287841796875;7.26999998164501;728;100 mA
12.8217979676281;-0.79864501953125;-0.0128692626953125;7.27999998161977;729;100 mA
12.8317979676028;-0.7989501953125;-0.012872314453125;7.28999998159452;730;100 mA
12.8417979675776;-0.799560546875;-0.012847900390625;7.29999998156927;731;100 mA
12.8517979675523;-0.79925537109375;-0.012847900390625;7.30999998154402;732;100 mA
12.8617979675271;-0.79925537109375;-0.0128387451171875;7.31999998151878;733;100 mA
12.8717979675018;-0.79925537109375;-0.01282958984375;7.32999998149353;734;100 mA
12.8817979674766;-0.79864501953125;-0.0128173828125;7.33999998146828;735;100 mA
12.8917979674513;-0.79925537109375;-0.0128143310546875;7.34999998144303;736;100 mA
12.9017979674261;-0.79925537109375;-0.0128082275390625;7.35999998141779;737;100 mA
12.9117979674008;-0.799560546875;-0.012799072265625;7.36999998139254;738;100 mA
12.9217979673756;-0.79925537109375;-0.0127899169921875;7.37999998136729;739;100 mA
12.9317979673503;-0.79925537109375;-0.0127838134765625;7.38999998134204;740;100 mA
12.9417979673251;-0.7989501953125;-0.0127716064453125;7.3999999813168;741;100 mA
12.9517979672999;-0.79925537109375;-0.0127685546875;7.40999998129155;742;100 mA
12.9617979672746;-0.79925537109375;-0.0127593994140625;7.4199999812663;743;100 mA
12.9717979672494;-0.799560546875;-0.0127471923828125;7.42999998124105;744;100 mA
12.9817979672241;-0.79925537109375;-0.012750244140625;7.43999998121581;745;100 mA
12.9917979671989;-0.7989501953125;-0.01273193359375;7.44999998119056;746;100 mA
13.0017979671736;-0.7989501953125;-0.0127349853515625;7.45999998116531;747;100 mA
13.0117979671484;-0.79925537109375;-0.0127227783203125;7.46999998114006;748;100 mA
13.0217979671231;-0.79925537109375;-0.0127105712890625;7.47999998111482;749;100 mA
13.0317979670979;-0.79925537109375;-0.0127105712890625;7.48999998108957;750;100 mA
13.0417979670726;-0.7989501953125;-0.0126922607421875;7.49999998106432;751;100 mA
13.0517979670474;-0.79925537109375;-0.0126922607421875;7.50999998103907;752;100 mA
13.0617979670221;-0.79925537109375;-0.0126861572265625;7.51999998101383;753;100 mA
13.0717979669969;-0.7989501953125;-0.0126739501953125;7.52999998098858;754;100 mA
13.0817979669716;-0.79925537109375;-0.0126708984375;7.53999998096333;755;100 mA
13.0917979669464;-0.7989501953125;-0.0126556396484375;7.54999998093808;756;100 mA
13.1017979669211;-0.79925537109375;-0.0126556396484375;7.55999998091283;757;100 mA
13.1117979668959;-0.799560546875;-0.012640380859375;7.56999998088759;758;100 mA
13.1217979668706;-0.7989501953125;-0.0126373291015625;7.57999998086234;759;100 mA
13.1317979668454;-0.79925537109375;-0.01263427734375;7.58999998083709;760;100 mA
13.1417979668201;-0.79925537109375;-0.012615966796875;7.59999998081184;761;100 mA
13.1517979667949;-0.799560546875;-0.0126190185546875;7.6099999807866;762;100 mA
13.1617979667697;-0.79925537109375;-0.0126068115234375;7.61999998076135;763;100 mA
13.1717979667444;-0.7989501953125;-0.0125946044921875;7.6299999807361;764;100 mA
13.1817979667192;-0.79925537109375;-0.01259765625;7.63999998071085;765;100 mA
13.1917979666939;-0.79925537109375;-0.012579345703125;7.64999998068561;766;100 mA
13.2017979666687;-0.799560546875;-0.0125823974609375;7.65999998066036;767;100 mA
13.2117979666434;-0.79925537109375;-0.0125732421875;7.66999998063511;768;100 mA
13.2217979666182;-0.7989501953125;-0.012554931640625;7.67999998060986;769;100 mA
13.2317979665929;-0.799560546875;-0.01256103515625;7.68999998058462;770;100 mA
13.2417979665677;-0.799560546875;-0.012542724609375;7.69999998055937;771;100 mA
13.2517979665424;-0.79864501953125;-0.012542724609375;7.70999998053412;772;100 mA
13.2617979665172;-0.7989501953125;-0.0125335693359375;7.71999998050887;773;100 mA
13.2717979664919;-0.79925537109375;-0.0125244140625;7.72999998048363;774;100 mA
13.2817979664667;-0.79925537109375;-0.0125244140625;7.73999998045838;775;100 mA
13.2917979664414;-0.799560546875;-0.012506103515625;7.74999998043313;776;100 mA
13.3017979664162;-0.7989501953125;-0.0125152587890625;7.75999998040788;777;100 mA
13.3117979663909;-0.7989501953125;-0.0124969482421875;7.76999998038264;778;100 mA
13.3217979663657;-0.7989501953125;-0.0124908447265625;7.77999998035739;779;100 mA
13.3317979663404;-0.79925537109375;-0.0124908447265625;7.78999998033214;780;100 mA
13.3417979663152;-0.799560546875;-0.012469482421875;7.79999998030689;781;100 mA
13.35179796629;-0.799560546875;-0.0124755859375;7.80999998028165;782;100 mA
13.3617979662647;-0.79925537109375;-0.0124603271484375;7.8199999802564;783;100 mA
13.3717979662395;-0.79925537109375;-0.0124542236328125;7.82999998023115;784;100 mA
13.3817979662142;-0.7989501953125;-0.012451171875;7.8399999802059;785;100 mA
13.391797966189;-0.79925537109375;-0.0124359130859375;7.84999998018066;786;100 mA
13.4017979661637;-0.79925537109375;-0.012445068359375;7.85999998015541;787;100 mA
13.4117979661385;-0.79925537109375;-0.0124267578125;7.86999998013016;788;100 mA
13.4217979661132;-0.79925537109375;-0.0124237060546875;7.87999998010491;789;100 mA
13.431797966088;-0.799560546875;-0.0124237060546875;7.88999998007966;790;100 mA
13.4417979660627;-0.79925537109375;-0.0123992919921875;7.89999998005442;791;100 mA
13.4517979660375;-0.7989501953125;-0.012408447265625;7.90999998002917;792;100 mA
13.4617979660122;-0.7989501953125;-0.012396240234375;7.91999998000392;793;100 mA
13.471797965987;-0.79925537109375;-0.0123931884765625;7.92999997997867;794;100 mA
13.4817979659617;-0.799560546875;-0.0123870849609375;7.93999997995343;795;100 mA
13.4917979659365;-0.79925537109375;-0.012371826171875;7.94999997992818;796;100 mA
13.5017979659112;-0.799560546875;-0.0123779296875;7.95999997990293;797;100 mA
13.511797965886;-0.7989501953125;-0.0123626708984375;7.96999997987768;798;100 mA
13.5217979658607;-0.79925537109375;-0.0123565673828125;7.97999997985244;799;100 mA
13.5317979658355;-0.79864501953125;-0.012347412109375;7.98999997982719;800;100 mA
13.5417979658102;-0.79925537109375;-0.0123321533203125;7.99999997980194;801;100 mA
13.551797965785;-0.7989501953125;-0.012335205078125;8.00999997977669;802;100 mA
13.5617979657598;-0.79925537109375;-0.012322998046875;8.01999997975145;803;100 mA
13.5717979657345;-0.79864501953125;-0.012322998046875;8.0299999797262;804;100 mA
13.5817979657093;-0.799560546875;-0.01231689453125;8.03999997970095;805;100 mA
13.591797965684;-0.79925537109375;-0.0123077392578125;8.0499999796757;806;100 mA
13.6017979656588;-0.79925537109375;-0.0123077392578125;8.05999997965046;807;100 mA
13.6117979656335;-0.79925537109375;-0.01229248046875;8.06999997962521;808;100 mA
13.6217979656083;-0.79925537109375;-0.012286376953125;8.07999997959996;809;100 mA
13.631797965583;-0.799560546875;-0.0122894287109375;8.08999997957471;810;100 mA
13.6417979655578;-0.799560546875;-0.01226806640625;8.09999997954947;811;100 mA
13.6517979655325;-0.7989501953125;-0.012274169921875;8.10999997952422;812;100 mA
13.6617979655073;-0.8001708984375;-0.012261962890625;8.11999997949897;813;100 mA
13.671797965482;-0.7989501953125;-0.012255859375;8.12999997947372;814;100 mA
13.6817979654568;-0.7989501953125;-0.0122528076171875;8.13999997944848;815;100 mA
13.6917979654315;-0.7989501953125;-0.0122406005859375;8.14999997942323;816;100 mA
13.7017979654063;-0.7989501953125;-0.0122406005859375;8.15999997939798;817;100 mA
13.711797965381;-0.799560546875;-0.0122344970703125;8.16999997937273;818;100 mA
13.7217979653558;-0.79925537109375;-0.0122222900390625;8.17999997934749;819;100 mA
13.7317979653305;-0.79864501953125;-0.01221923828125;8.18999997932224;820;100 mA
13.7417979653053;-0.79925537109375;-0.0122039794921875;8.19999997929699;821;100 mA
13.75179796528;-0.79925537109375;-0.01220703125;8.20999997927174;822;100 mA
13.7617979652548;-0.7989501953125;-0.012200927734375;8.2199999792465;823;100 mA
13.7717979652296;-0.7989501953125;-0.012188720703125;8.22999997922125;824;100 mA
13.7817979652043;-0.79925537109375;-0.012188720703125;8.239999979196;825;100 mA
13.7917979651791;-0.79925537109375;-0.012176513671875;8.24999997917075;826;100 mA
13.8017979651538;-0.799560546875;-0.0121734619140625;8.2599999791455;827;100 mA
13.8117979651286;-0.799560546875;-0.0121673583984375;8.26999997912026;828;100 mA
13.8217979651033;-0.79864501953125;-0.0121551513671875;8.27999997909501;829;100 mA
13.8317979650781;-0.799560546875;-0.0121612548828125;8.28999997906976;830;100 mA
13.8417979650528;-0.79864501953125;-0.0121429443359375;8.29999997904451;831;100 mA
13.8517979650276;-0.7989501953125;-0.01214599609375;8.30999997901927;832;100 mA
13.8617979650023;-0.79925537109375;-0.0121368408203125;8.31999997899402;833;100 mA
13.8717979649771;-0.799560546875;-0.0121337890625;8.32999997896877;834;100 mA
13.8817979649518;-0.79925537109375;-0.0121246337890625;8.33999997894352;835;100 mA
13.8917979649266;-0.79986572265625;-0.012115478515625;8.34999997891828;836;100 mA
13.9017979649013;-0.7989501953125;-0.012115478515625;8.35999997889303;837;100 mA
13.9117979648761;-0.7989501953125;-0.012109375;8.36999997886778;838;100 mA
13.9217979648508;-0.79925537109375;-0.012103271484375;8.37999997884253;839;100 mA
13.9317979648256;-0.799560546875;-0.012103271484375;8.38999997881729;840;100 mA
13.9417979648003;-0.7989501953125;-0.0120880126953125;8.39999997879204;841;100 mA
13.9517979647751;-0.799560546875;-0.0120880126953125;8.40999997876679;842;100 mA
13.9617979647498;-0.799560546875;-0.012078857421875;8.41999997874154;843;100 mA
13.9717979647246;-0.79864501953125;-0.0120697021484375;8.4299999787163;844;100 mA
13.9817979646994;-0.799560546875;-0.0120697021484375;8.43999997869105;845;100 mA
13.9917979646741;-0.7989501953125;-0.0120513916015625;8.4499999786658;846;100 mA
14.0017979646489;-0.79864501953125;-0.012054443359375;8.45999997864055;847;100 mA
14.0117979646236;-0.79925537109375;-0.01204833984375;8.46999997861531;848;100 mA
14.0217979645984;-0.79925537109375;-0.0120391845703125;8.47999997859006;849;100 mA
14.0317979645731;-0.7989501953125;-0.0120391845703125;8.48999997856481;850;100 mA
14.0417979645479;-0.7989501953125;-0.01202392578125;8.49999997853956;851;100 mA
14.0517979645226;-0.79925537109375;-0.012030029296875;8.50999997851432;852;100 mA
14.0617979644974;-0.79864501953125;-0.012017822265625;8.51999997848907;853;100 mA
14.0717979644721;-0.79925537109375;-0.0120147705078125;8.52999997846382;854;100 mA
14.0817979644469;-0.7989501953125;-0.01201171875;8.53999997843857;855;100 mA
14.0917979644216;-0.79864501953125;-0.01199951171875;8.54999997841333;856;100 mA
14.1017979643964;-0.7989501953125;-0.0119964599609375;8.55999997838808;857;100 mA
14.1117979643711;-0.7989501953125;-0.011993408203125;8.56999997836283;858;100 mA
14.1217979643459;-0.79925537109375;-0.011981201171875;8.57999997833758;859;100 mA
14.1317979643206;-0.79925537109375;-0.011981201171875;8.58999997831233;860;100 mA
14.1417979642954;-0.7989501953125;-0.011962890625;8.59999997828709;861;100 mA
14.1517979642701;-0.79925537109375;-0.0119659423828125;8.60999997826184;862;100 mA
14.1617979642449;-0.79925537109375;-0.011956787109375;8.61999997823659;863;100 mA
14.1717979642196;-0.79925537109375;-0.0119476318359375;8.62999997821134;864;100 mA
14.1817979641944;-0.7989501953125;-0.01195068359375;8.6399999781861;865;100 mA
14.1917979641692;-0.79925537109375;-0.0119415283203125;8.64999997816085;866;100 mA
14.2017979641439;-0.7989501953125;-0.0119384765625;8.6599999781356;867;100 mA
14.2117979641187;-0.79925537109375;-0.011932373046875;8.66999997811035;868;100 mA
14.2217979640934;-0.79925537109375;-0.0119232177734375;8.67999997808511;869;100 mA
14.2317979640682;-0.79925537109375;-0.0119232177734375;8.68999997805986;870;100 mA
14.2417979640429;-0.79925537109375;-0.0119049072265625;8.69999997803461;871;100 mA
14.2517979640177;-0.79925537109375;-0.011907958984375;8.70999997800936;872;100 mA
14.2617979639924;-0.79925537109375;-0.0119049072265625;8.71999997798412;873;100 mA
14.2717979639672;-0.7989501953125;-0.0118988037109375;8.72999997795887;874;100 mA
14.2817979639419;-0.799560546875;-0.0118927001953125;8.73999997793362;875;100 mA
14.2917979639167;-0.79864501953125;-0.01187744140625;8.74999997790837;876;100 mA
14.3017979638914;-0.79925537109375;-0.01187744140625;8.75999997788313;877;100 mA
14.3117979638662;-0.799560546875;-0.011871337890625;8.76999997785788;878;100 mA
14.3217979638409;-0.79925537109375;-0.011865234375;8.77999997783263;879;100 mA
14.3317979638157;-0.79864501953125;-0.0118621826171875;8.78999997780738;880;100 mA
14.3417979637904;-0.7989501953125;-0.01185302734375;8.79999997778214;881;100 mA
14.3517979637652;-0.7989501953125;-0.01185302734375;8.80999997775689;882;100 mA
14.3617979637399;-0.799560546875;-0.011846923828125;8.81999997773164;883;100 mA
14.3717979637147;-0.79925537109375;-0.0118377685546875;8.82999997770639;884;100 mA
14.3817979636895;-0.7989501953125;-0.0118408203125;8.83999997768115;885;100 mA
14.3917979636642;-0.7989501953125;-0.01182861328125;8.8499999776559;886;100 mA
14.401797963639;-0.7989501953125;-0.011822509765625;8.85999997763065;887;100 mA
14.4117979636137;-0.799560546875;-0.0118255615234375;8.8699999776054;888;100 mA
14.4217979635885;-0.7989501953125;-0.011810302734375;8.87999997758016;889;100 mA
14.4317979635632;-0.799560546875;-0.01181640625;8.88999997755491;890;100 mA
14.441797963538;-0.79864501953125;-0.011798095703125;8.89999997752966;891;100 mA
14.4517979635127;-0.79925537109375;-0.0117950439453125;8.90999997750441;892;100 mA
14.4617979634875;-0.79925537109375;-0.0117950439453125;8.91999997747916;893;100 mA
14.4717979634622;-0.799560546875;-0.0117828369140625;8.92999997745392;894;100 mA
14.481797963437;-0.79925537109375;-0.011785888671875;8.93999997742867;895;100 mA
14.4917979634117;-0.79925537109375;-0.011773681640625;8.94999997740342;896;100 mA
14.5017979633865;-0.799560546875;-0.011767578125;8.95999997737817;897;100 mA
14.5117979633612;-0.79925537109375;-0.011767578125;8.96999997735293;898;100 mA
14.521797963336;-0.79925537109375;-0.01175537109375;8.97999997732768;899;100 mA
14.5317979633107;-0.7989501953125;-0.0117584228515625;8.98999997730243;900;100 mA
14.5417979632855;-0.799560546875;-0.0117401123046875;8.99999997727718;901;100 mA
14.5517979632602;-0.79925537109375;-0.0117462158203125;9.00999997725194;902;100 mA
14.561797963235;-0.79925537109375;-0.011737060546875;9.01999997722669;903;100 mA
14.5717979632097;-0.7989501953125;-0.0117218017578125;9.02999997720144;904;100 mA
14.5817979631845;-0.7989501953125;-0.01173095703125;9.03999997717619;905;100 mA
14.5917979631593;-0.7989501953125;-0.01171875;9.04999997715095;906;100 mA
14.601797963134;-0.79925537109375;-0.0117156982421875;9.0599999771257;907;100 mA
14.6117979631088;-0.79925537109375;-0.01171875;9.06999997710045;908;100 mA
14.6217979630835;-0.79925537109375;-0.011700439453125;9.0799999770752;909;100 mA
14.6317979630583;-0.7989501953125;-0.011700439453125;9.08999997704996;910;100 mA
14.641797963033;-0.79925537109375;-0.011688232421875;9.09999997702471;911;100 mA
14.6517979630078;-0.7989501953125;-0.011688232421875;9.10999997699946;912;100 mA
14.6617979629825;-0.7989501953125;-0.0116851806640625;9.11999997697421;913;100 mA
14.6717979629573;-0.79986572265625;-0.011669921875;9.12999997694897;914;100 mA
14.681797962932;-0.79925537109375;-0.0116729736328125;9.13999997692372;915;100 mA
14.6917979629068;-0.79864501953125;-0.011663818359375;9.14999997689847;916;100 mA
14.7017979628815;-0.799560546875;-0.01165771484375;9.15999997687322;917;100 mA
14.7117979628563;-0.79925537109375;-0.0116607666015625;9.16999997684798;918;100 mA
14.721797962831;-0.79925537109375;-0.0116455078125;9.17999997682273;919;100 mA
14.7317979628058;-0.7989501953125;-0.0116455078125;9.18999997679748;920;100 mA
14.7417979627805;-0.79925537109375;-0.01163330078125;9.19999997677223;921;100 mA
14.7517979627553;-0.799560546875;-0.0116302490234375;9.20999997674699;922;100 mA
14.76179796273;-0.8001708984375;-0.011627197265625;9.21999997672174;923;100 mA
14.7717979627048;-0.79925537109375;-0.0116180419921875;9.22999997669649;924;100 mA
14.7817979626795;-0.79925537109375;-0.0116180419921875;9.23999997667124;925;100 mA
14.7917979626543;-0.7989501953125;-0.01160888671875;9.249999976646;926;100 mA
14.8017979626291;-0.79925537109375;-0.0116058349609375;9.25999997662075;927;100 mA
14.8117979626038;-0.79864501953125;-0.011602783203125;9.2699999765955;928;100 mA
14.8217979625786;-0.79925537109375;-0.011590576171875;9.27999997657025;929;100 mA
14.8317979625533;-0.79925537109375;-0.0115966796875;9.289999976545;930;100 mA
14.8417979625281;-0.799560546875;-0.0115814208984375;9.29999997651976;931;100 mA
14.8517979625028;-0.799560546875;-0.0115814208984375;9.30999997649451;932;100 mA
14.8617979624776;-0.79864501953125;-0.011578369140625;9.31999997646926;933;100 mA
14.8717979624523;-0.7989501953125;-0.0115631103515625;9.32999997644401;934;100 mA
14.8817979624271;-0.7989501953125;-0.011578369140625;9.33999997641877;935;100 mA
14.8917979624018;-0.79925537109375;-0.01156005859375;9.34999997639352;936;100 mA
14.9017979623766;-0.79925537109375;-0.0115570068359375;9.35999997636827;937;100 mA
14.9117979623513;-0.799560546875;-0.011553955078125;9.36999997634302;938;100 mA
14.9217979623261;-0.7989501953125;-0.011541748046875;9.37999997631778;939;100 mA
14.9317979623008;-0.7989501953125;-0.0115478515625;9.38999997629253;940;100 mA
14.9417979622756;-0.79925537109375;-0.011529541015625;9.39999997626728;941;100 mA
14.9517979622503;-0.799560546875;-0.01153564453125;9.40999997624203;942;100 mA
14.9617979622251;-0.7989501953125;-0.011529541015625;9.41999997621679;943;100 mA
14.9717979621998;-0.79925537109375;-0.0115081787109375;9.42999997619154;944;100 mA
14.9817979621746;-0.79925537109375;-0.011529541015625;9.43999997616629;945;100 mA
14.9917979621493;-0.79925537109375;-0.0115081787109375;9.44999997614104;946;100 mA
15.0017979621241;-0.799560546875;-0.011505126953125;9.4599999761158;947;100 mA
15.0117979620989;-0.79925537109375;-0.0115081787109375;9.46999997609055;948;100 mA
15.0217979620736;-0.7989501953125;-0.0114898681640625;9.4799999760653;949;100 mA
15.0317979620484;-0.79925537109375;-0.0114990234375;9.48999997604005;950;100 mA
15.0417979620231;-0.799560546875;-0.0114837646484375;9.49999997601481;951;100 mA
15.0517979619979;-0.7989501953125;-0.011480712890625;9.50999997598956;952;100 mA
15.0617979619726;-0.7989501953125;-0.0114776611328125;9.51999997596431;953;100 mA
15.0717979619474;-0.79925537109375;-0.0114654541015625;9.52999997593906;954;100 mA
15.0817979619221;-0.79925537109375;-0.0114715576171875;9.53999997591382;955;100 mA
15.0917979618969;-0.79925537109375;-0.0114593505859375;9.54999997588857;956;100 mA
15.1017979618716;-0.79864501953125;-0.0114593505859375;9.55999997586332;957;100 mA
15.1117979618464;-0.7989501953125;-0.0114501953125;9.56999997583807;958;100 mA
15.1217979618211;-0.79925537109375;-0.0114471435546875;9.57999997581283;959;100 mA
15.1317979617959;-0.799560546875;-0.0114501953125;9.58999997578758;960;100 mA
15.1417979617706;-0.799560546875;-0.0114288330078125;9.59999997576233;961;100 mA
15.1517979617454;-0.7989501953125;-0.01143798828125;9.60999997573708;962;100 mA
15.1617979617201;-0.799560546875;-0.0114288330078125;9.61999997571183;963;100 mA
15.1717979616949;-0.7989501953125;-0.01141357421875;9.62999997568659;964;100 mA
15.1817979616696;-0.79864501953125;-0.011419677734375;9.63999997566134;965;100 mA
15.1917979616444;-0.7989501953125;-0.0114105224609375;9.64999997563609;966;100 mA
15.2017979616191;-0.799560546875;-0.011407470703125;9.65999997561084;967;100 mA
15.2117979615939;-0.799560546875;-0.0114044189453125;9.6699999755856;968;100 mA
15.2217979615687;-0.79925537109375;-0.011395263671875;9.67999997556035;969;100 mA
15.2317979615434;-0.799560546875;-0.0113983154296875;9.6899999755351;970;100 mA
15.2417979615182;-0.79925537109375;-0.011383056640625;9.69999997550985;971;100 mA
15.2517979614929;-0.799560546875;-0.011383056640625;9.70999997548461;972;100 mA
15.2617979614677;-0.79925537109375;-0.011376953125;9.71999997545936;973;100 mA
15.2717979614424;-0.79925537109375;-0.0113677978515625;9.72999997543411;974;100 mA
15.2817979614172;-0.79864501953125;-0.0113739013671875;9.73999997540886;975;100 mA
15.2917979613919;-0.799560546875;-0.011358642578125;9.74999997538362;976;100 mA
15.3017979613667;-0.7989501953125;-0.0113555908203125;9.75999997535837;977;100 mA
15.3117979613414;-0.7989501953125;-0.0113525390625;9.76999997533312;978;100 mA
15.3217979613162;-0.79986572265625;-0.0113433837890625;9.77999997530787;979;100 mA
15.3317979612909;-0.7989501953125;-0.011346435546875;9.78999997528263;980;100 mA
15.3417979612657;-0.7989501953125;-0.0113372802734375;9.79999997525738;981;100 mA
15.3517979612404;-0.799560546875;-0.011334228515625;9.80999997523213;982;100 mA
15.3617979612152;-0.79925537109375;-0.0113311767578125;9.81999997520688;983;100 mA
15.3717979611899;-0.79925537109375;-0.011322021484375;9.82999997518164;984;100 mA
15.3817979611647;-0.799560546875;-0.011322021484375;9.83999997515639;985;100 mA
15.3917979611394;-0.79925537109375;-0.0113189697265625;9.84999997513114;986;100 mA
15.4017979611142;-0.79833984375;-0.0113037109375;9.85999997510589;987;100 mA
15.411797961089;-0.79864501953125;-0.0113067626953125;9.86999997508065;988;100 mA
15.4217979610637;-0.79925537109375;-0.0112945556640625;9.8799999750554;989;100 mA
15.4317979610385;-0.79864501953125;-0.0113006591796875;9.88999997503015;990;100 mA
15.4417979610132;-0.799560546875;-0.011285400390625;9.8999999750049;991;100 mA
15.451797960988;-0.799560546875;-0.011285400390625;9.90999997497966;992;100 mA
15.4617979609627;-0.79986572265625;-0.011285400390625;9.91999997495441;993;100 mA
15.4717979609375;-0.7989501953125;-0.0112762451171875;9.92999997492916;994;100 mA
15.4817979609122;-0.79925537109375;-0.011273193359375;9.93999997490391;995;100 mA
15.491797960887;-0.799560546875;-0.0112701416015625;9.94999997487866;996;100 mA
15.5017979608617;-0.79864501953125;-0.011260986328125;9.95999997485342;997;100 mA
15.5117979608365;-0.7989501953125;-0.011260986328125;9.96999997482817;998;100 mA
15.5217979608112;-0.79925537109375;-0.011248779296875;9.97999997480292;999;100 mA
15.531797960786;-0.79925537109375;-0.0112579345703125;9.98999997477767;1000;100 mA
