Time (s);WE(1).Potential (V);WE(1).Current (A);Corrected time (s);Index;Current range
76.3085508073394;-0.85052490234375;-0.311126708984375;0;1;100 mA
76.3185508073142;-0.849609375;-0.229888916015625;0.00999999997475243;2;100 mA
76.3285508072889;-0.849609375;-0.190582275390625;0.0199999999495049;3;100 mA
76.3385508072637;-0.849609375;-0.166229248046875;0.0299999999242573;4;100 mA
76.3485508072384;-0.849609375;-0.149322509765625;0.0399999998990097;5;100 mA
76.3585508072132;-0.84930419921875;-0.136688232421875;0.0499999998737621;6;100 mA
76.3685508071879;-0.84930419921875;-0.12677001953125;0.0599999998485146;7;100 mA
76.3785508071627;-0.849609375;-0.1187744140625;0.069999999823267;8;100 mA
76.3885508071374;-0.849609375;-0.112091064453125;0.0799999997980194;9;100 mA
76.3985508071122;-0.84930419921875;-0.106414794921875;0.0899999997727718;10;100 mA
76.408550807087;-0.849609375;-0.101531982421875;0.0999999997475243;11;100 mA
76.4185508070617;-0.849609375;-0.097259521484375;0.109999999722277;12;100 mA
76.4285508070365;-0.849609375;-0.093505859375;0.119999999697029;13;100 mA
76.4385508070112;-0.84930419921875;-0.090118408203125;0.129999999671782;14;100 mA
76.448550806986;-0.84930419921875;-0.08709716796875;0.139999999646534;15;100 mA
76.4585508069607;-0.84930419921875;-0.0843505859375;0.149999999621286;16;100 mA
76.4685508069355;-0.8489990234375;-0.08184814453125;0.159999999596039;17;100 mA
76.4785508069102;-0.84991455078125;-0.079559326171875;0.169999999570791;18;100 mA
76.488550806885;-0.849609375;-0.07745361328125;0.179999999545544;19;100 mA
76.4985508068597;-0.84991455078125;-0.07550048828125;0.189999999520296;20;100 mA
76.5085508068345;-0.849609375;-0.073699951171875;0.199999999495049;21;100 mA
76.5185508068092;-0.84930419921875;-0.071990966796875;0.209999999469801;22;100 mA
76.528550806784;-0.849609375;-0.0704345703125;0.219999999444553;23;100 mA
76.5385508067587;-0.84930419921875;-0.068939208984375;0.229999999419306;24;100 mA
76.5485508067335;-0.84930419921875;-0.06756591796875;0.239999999394058;25;100 mA
76.5585508067082;-0.849609375;-0.066253662109375;0.249999999368811;26;100 mA
76.568550806683;-0.849609375;-0.065032958984375;0.259999999343563;27;100 mA
76.5785508066577;-0.8489990234375;-0.0638427734375;0.269999999318316;28;100 mA
76.5885508066325;-0.84991455078125;-0.062744140625;0.279999999293068;29;100 mA
76.5985508066072;-0.84930419921875;-0.061676025390625;0.28999999926782;30;100 mA
76.608550806582;-0.849609375;-0.060699462890625;0.299999999242573;31;100 mA
76.6185508065568;-0.84991455078125;-0.059722900390625;0.309999999217325;32;100 mA
76.6285508065315;-0.84930419921875;-0.058837890625;0.319999999192078;33;100 mA
76.6385508065063;-0.84930419921875;-0.057952880859375;0.32999999916683;34;100 mA
76.648550806481;-0.849609375;-0.05712890625;0.339999999141583;35;100 mA
76.6585508064558;-0.84930419921875;-0.05633544921875;0.349999999116335;36;100 mA
76.6685508064305;-0.84930419921875;-0.055572509765625;0.359999999091087;37;100 mA
76.6785508064053;-0.849609375;-0.054840087890625;0.36999999906584;38;100 mA
76.68855080638;-0.84930419921875;-0.054107666015625;0.379999999040592;39;100 mA
76.6985508063548;-0.84930419921875;-0.053436279296875;0.389999999015345;40;100 mA
76.7085508063295;-0.84991455078125;-0.05279541015625;0.399999998990097;41;100 mA
76.7185508063043;-0.849609375;-0.052154541015625;0.40999999896485;42;100 mA
76.728550806279;-0.849609375;-0.051544189453125;0.419999998939602;43;100 mA
76.7385508062538;-0.849609375;-0.05096435546875;0.429999998914354;44;100 mA
76.7485508062285;-0.84930419921875;-0.050384521484375;0.439999998889107;45;100 mA
76.7585508062033;-0.84930419921875;-0.049835205078125;0.449999998863859;46;100 mA
76.768550806178;-0.849609375;-0.049285888671875;0.459999998838612;47;100 mA
76.7785508061528;-0.84930419921875;-0.0487762451171875;0.469999998813364;48;100 mA
76.7885508061275;-0.84991455078125;-0.04827880859375;0.479999998788116;49;100 mA
76.7985508061023;-0.849609375;-0.0477996826171875;0.489999998762869;50;100 mA
76.8085508060771;-0.8489990234375;-0.0473358154296875;0.499999998737621;51;100 mA
76.8185508060518;-0.84869384765625;-0.046868896484375;0.509999998712374;52;100 mA
76.8285508060266;-0.849609375;-0.046435546875;0.519999998687126;53;100 mA
76.8385508060013;-0.8489990234375;-0.0459930419921875;0.529999998661879;54;100 mA
76.8485508059761;-0.84991455078125;-0.045574951171875;0.539999998636631;55;100 mA
76.8585508059508;-0.84930419921875;-0.04517822265625;0.549999998611383;56;100 mA
76.8685508059256;-0.84930419921875;-0.044775390625;0.559999998586136;57;100 mA
76.8785508059003;-0.84930419921875;-0.04439697265625;0.569999998560888;58;100 mA
76.8885508058751;-0.84930419921875;-0.044012451171875;0.579999998535641;59;100 mA
76.8985508058498;-0.8489990234375;-0.04364013671875;0.589999998510393;60;100 mA
76.9085508058246;-0.849609375;-0.043292236328125;0.599999998485146;61;100 mA
76.9185508057993;-0.84930419921875;-0.04293212890625;0.609999998459898;62;100 mA
76.9285508057741;-0.84991455078125;-0.0426025390625;0.61999999843465;63;100 mA
76.9385508057488;-0.849609375;-0.0422637939453125;0.629999998409403;64;100 mA
76.9485508057236;-0.8489990234375;-0.041949462890625;0.639999998384155;65;100 mA
76.9585508056983;-0.84930419921875;-0.0416290283203125;0.649999998358908;66;100 mA
76.9685508056731;-0.849609375;-0.0413116455078125;0.65999999833366;67;100 mA
76.9785508056478;-0.849609375;-0.041009521484375;0.669999998308413;68;100 mA
76.9885508056226;-0.84869384765625;-0.0407135009765625;0.679999998283165;69;100 mA
76.9985508055973;-0.84991455078125;-0.040423583984375;0.689999998257917;70;100 mA
77.0085508055721;-0.849609375;-0.04014892578125;0.69999999823267;71;100 mA
77.0185508055469;-0.84930419921875;-0.039862060546875;0.709999998207422;72;100 mA
77.0285508055216;-0.849609375;-0.039599609375;0.719999998182175;73;100 mA
77.0385508054964;-0.84930419921875;-0.039324951171875;0.729999998156927;74;100 mA
77.0485508054711;-0.849609375;-0.039044189453125;0.73999999813168;75;100 mA
77.0585508054459;-0.8489990234375;-0.038800048828125;0.749999998106432;76;100 mA
77.0685508054206;-0.84930419921875;-0.03853759765625;0.759999998081184;77;100 mA
77.0785508053954;-0.84930419921875;-0.0383056640625;0.769999998055937;78;100 mA
77.0885508053701;-0.8489990234375;-0.0380584716796875;0.779999998030689;79;100 mA
77.0985508053449;-0.84930419921875;-0.0378173828125;0.789999998005442;80;100 mA
77.1085508053196;-0.84930419921875;-0.0375946044921875;0.799999997980194;81;100 mA
77.1185508052944;-0.849609375;-0.0373565673828125;0.809999997954947;82;100 mA
77.1285508052691;-0.8489990234375;-0.0371368408203125;0.819999997929699;83;100 mA
77.1385508052439;-0.849609375;-0.036907958984375;0.829999997904451;84;100 mA
77.1485508052186;-0.8489990234375;-0.0366943359375;0.839999997879204;85;100 mA
77.1585508051934;-0.84930419921875;-0.0364898681640625;0.849999997853956;86;100 mA
77.1685508051681;-0.84930419921875;-0.036273193359375;0.859999997828709;87;100 mA
77.1785508051429;-0.849609375;-0.036077880859375;0.869999997803461;88;100 mA
77.1885508051176;-0.84930419921875;-0.0358795166015625;0.879999997778214;89;100 mA
77.1985508050924;-0.849609375;-0.0356719970703125;0.889999997752966;90;100 mA
77.2085508050671;-0.849609375;-0.03548583984375;0.899999997727718;91;100 mA
77.2185508050419;-0.8489990234375;-0.0352874755859375;0.909999997702471;92;100 mA
77.2285508050167;-0.84930419921875;-0.0350982666015625;0.919999997677223;93;100 mA
77.2385508049914;-0.849609375;-0.034912109375;0.929999997651976;94;100 mA
77.2485508049662;-0.8489990234375;-0.03472900390625;0.939999997626728;95;100 mA
77.2585508049409;-0.84930419921875;-0.0345489501953125;0.949999997601481;96;100 mA
77.2685508049157;-0.84930419921875;-0.0343719482421875;0.959999997576233;97;100 mA
77.2785508048904;-0.84930419921875;-0.0341949462890625;0.969999997550985;98;100 mA
77.2885508048652;-0.84869384765625;-0.0340240478515625;0.979999997525738;99;100 mA
77.2985508048399;-0.84869384765625;-0.0338592529296875;0.98999999750049;100;100 mA
77.3085508048147;-0.84930419921875;-0.033697509765625;0.999999997475243;101;100 mA
77.3185508047894;-0.8489990234375;-0.0335174560546875;1.00999999745;102;100 mA
77.3285508047642;-0.849609375;-0.0333709716796875;1.01999999742475;103;100 mA
77.3385508047389;-0.84930419921875;-0.0332061767578125;1.0299999973995;104;100 mA
77.3485508047137;-0.8489990234375;-0.0330474853515625;1.03999999737425;105;100 mA
77.3585508046884;-0.84991455078125;-0.03289794921875;1.049999997349;106;100 mA
77.3685508046632;-0.849609375;-0.0327392578125;1.05999999732376;107;100 mA
77.3785508046379;-0.84869384765625;-0.0325958251953125;1.06999999729851;108;100 mA
77.3885508046127;-0.84869384765625;-0.032440185546875;1.07999999727326;109;100 mA
77.3985508045874;-0.84930419921875;-0.0322998046875;1.08999999724801;110;100 mA
77.4085508045622;-0.8489990234375;-0.0321502685546875;1.09999999722277;111;100 mA
77.4185508045369;-0.8489990234375;-0.0320068359375;1.10999999719752;112;100 mA
77.4285508045117;-0.849609375;-0.03187255859375;1.11999999717227;113;100 mA
77.4385508044865;-0.84930419921875;-0.0317230224609375;1.12999999714702;114;100 mA
77.4485508044612;-0.849609375;-0.031591796875;1.13999999712178;115;100 mA
77.458550804436;-0.8489990234375;-0.0314544677734375;1.14999999709653;116;100 mA
77.4685508044107;-0.84930419921875;-0.031317138671875;1.15999999707128;117;100 mA
77.4785508043855;-0.849609375;-0.031195068359375;1.16999999704603;118;100 mA
77.4885508043602;-0.84930419921875;-0.031060791015625;1.17999999702079;119;100 mA
77.498550804335;-0.8489990234375;-0.0309326171875;1.18999999699554;120;100 mA
77.5085508043097;-0.849609375;-0.030804443359375;1.19999999697029;121;100 mA
77.5185508042845;-0.84869384765625;-0.0306640625;1.20999999694504;122;100 mA
77.5285508042592;-0.8489990234375;-0.0305572509765625;1.2199999969198;123;100 mA
77.538550804234;-0.8489990234375;-0.0304229736328125;1.22999999689455;124;100 mA
77.5485508042087;-0.849609375;-0.030316162109375;1.2399999968693;125;100 mA
77.5585508041835;-0.84869384765625;-0.03018798828125;1.24999999684405;126;100 mA
77.5685508041582;-0.84930419921875;-0.03006591796875;1.25999999681881;127;100 mA
77.578550804133;-0.84930419921875;-0.029949951171875;1.26999999679356;128;100 mA
77.5885508041077;-0.8489990234375;-0.0298370361328125;1.27999999676831;129;100 mA
77.5985508040825;-0.84930419921875;-0.0297271728515625;1.28999999674306;130;100 mA
77.6085508040572;-0.849609375;-0.029608154296875;1.29999999671782;131;100 mA
77.618550804032;-0.84930419921875;-0.0295013427734375;1.30999999669257;132;100 mA
77.6285508040067;-0.84991455078125;-0.029400634765625;1.31999999666732;133;100 mA
77.6385508039815;-0.84930419921875;-0.0292877197265625;1.32999999664207;134;100 mA
77.6485508039563;-0.849609375;-0.029180908203125;1.33999999661683;135;100 mA
77.658550803931;-0.8489990234375;-0.0290771484375;1.34999999659158;136;100 mA
77.6685508039058;-0.84930419921875;-0.0289642333984375;1.35999999656633;137;100 mA
77.6785508038805;-0.849609375;-0.0288604736328125;1.36999999654108;138;100 mA
77.6885508038553;-0.84930419921875;-0.0287628173828125;1.37999999651583;139;100 mA
77.69855080383;-0.8489990234375;-0.028662109375;1.38999999649059;140;100 mA
77.7085508038048;-0.84930419921875;-0.0285552978515625;1.39999999646534;141;100 mA
77.7185508037795;-0.8489990234375;-0.02845458984375;1.40999999644009;142;100 mA
77.7285508037543;-0.84930419921875;-0.028363037109375;1.41999999641484;143;100 mA
77.738550803729;-0.84930419921875;-0.02825927734375;1.4299999963896;144;100 mA
77.7485508037038;-0.849609375;-0.028167724609375;1.43999999636435;145;100 mA
77.7585508036785;-0.84930419921875;-0.0280731201171875;1.4499999963391;146;100 mA
77.7685508036533;-0.849609375;-0.027972412109375;1.45999999631385;147;100 mA
77.778550803628;-0.84930419921875;-0.0278656005859375;1.46999999628861;148;100 mA
77.7885508036028;-0.848388671875;-0.0277862548828125;1.47999999626336;149;100 mA
77.7985508035775;-0.8489990234375;-0.027685546875;1.48999999623811;150;100 mA
77.8085508035523;-0.84930419921875;-0.0276031494140625;1.49999999621286;151;100 mA
77.818550803527;-0.84930419921875;-0.027508544921875;1.50999999618762;152;100 mA
77.8285508035018;-0.849609375;-0.0274261474609375;1.51999999616237;153;100 mA
77.8385508034766;-0.8489990234375;-0.0273345947265625;1.52999999613712;154;100 mA
77.8485508034513;-0.84869384765625;-0.02724609375;1.53999999611187;155;100 mA
77.8585508034261;-0.84930419921875;-0.027166748046875;1.54999999608663;156;100 mA
77.8685508034008;-0.84930419921875;-0.0270660400390625;1.55999999606138;157;100 mA
77.8785508033756;-0.849609375;-0.0269805908203125;1.56999999603613;158;100 mA
77.8885508033503;-0.84930419921875;-0.026910400390625;1.57999999601088;159;100 mA
77.8985508033251;-0.84930419921875;-0.026824951171875;1.58999999598564;160;100 mA
77.9085508032998;-0.849609375;-0.02674560546875;1.59999999596039;161;100 mA
77.9185508032746;-0.84930419921875;-0.0266571044921875;1.60999999593514;162;100 mA
77.9285508032493;-0.84930419921875;-0.0265838623046875;1.61999999590989;163;100 mA
77.9385508032241;-0.84930419921875;-0.0264984130859375;1.62999999588465;164;100 mA
77.9485508031988;-0.84930419921875;-0.026416015625;1.6399999958594;165;100 mA
77.9585508031736;-0.84930419921875;-0.0263427734375;1.64999999583415;166;100 mA
77.9685508031483;-0.84930419921875;-0.0262542724609375;1.6599999958089;167;100 mA
77.9785508031231;-0.8489990234375;-0.026177978515625;1.66999999578366;168;100 mA
77.9885508030978;-0.8489990234375;-0.02611083984375;1.67999999575841;169;100 mA
77.9985508030726;-0.84991455078125;-0.0260345458984375;1.68999999573316;170;100 mA
78.0085508030473;-0.849609375;-0.02596435546875;1.69999999570791;171;100 mA
78.0185508030221;-0.84930419921875;-0.0258819580078125;1.70999999568267;172;100 mA
78.0285508029968;-0.849609375;-0.025811767578125;1.71999999565742;173;100 mA
78.0385508029716;-0.8489990234375;-0.0257354736328125;1.72999999563217;174;100 mA
78.0485508029464;-0.849609375;-0.0256622314453125;1.73999999560692;175;100 mA
78.0585508029211;-0.849609375;-0.02559814453125;1.74999999558167;176;100 mA
78.0685508028959;-0.8489990234375;-0.025518798828125;1.75999999555643;177;100 mA
78.0785508028706;-0.84930419921875;-0.0254425048828125;1.76999999553118;178;100 mA
78.0885508028454;-0.8489990234375;-0.025390625;1.77999999550593;179;100 mA
78.0985508028201;-0.849609375;-0.0253082275390625;1.78999999548068;180;100 mA
78.1085508027949;-0.84930419921875;-0.0252471923828125;1.79999999545544;181;100 mA
78.1185508027696;-0.84930419921875;-0.0251739501953125;1.80999999543019;182;100 mA
78.1285508027444;-0.84930419921875;-0.0251068115234375;1.81999999540494;183;100 mA
78.1385508027191;-0.8489990234375;-0.0250396728515625;1.82999999537969;184;100 mA
78.1485508026939;-0.84869384765625;-0.02496337890625;1.83999999535445;185;100 mA
78.1585508026686;-0.8489990234375;-0.024908447265625;1.8499999953292;186;100 mA
78.1685508026434;-0.84930419921875;-0.0248382568359375;1.85999999530395;187;100 mA
78.1785508026181;-0.84930419921875;-0.024774169921875;1.8699999952787;188;100 mA
78.1885508025929;-0.84991455078125;-0.0247100830078125;1.87999999525346;189;100 mA
78.1985508025676;-0.84930419921875;-0.0246368408203125;1.88999999522821;190;100 mA
78.2085508025424;-0.84930419921875;-0.024578857421875;1.89999999520296;191;100 mA
78.2185508025171;-0.849609375;-0.0245025634765625;1.90999999517771;192;100 mA
78.2285508024919;-0.849609375;-0.024456787109375;1.91999999515247;193;100 mA
78.2385508024666;-0.84930419921875;-0.024383544921875;1.92999999512722;194;100 mA
78.2485508024414;-0.84930419921875;-0.0243255615234375;1.93999999510197;195;100 mA
78.2585508024162;-0.84930419921875;-0.024261474609375;1.94999999507672;196;100 mA
78.2685508023909;-0.84930419921875;-0.024200439453125;1.95999999505148;197;100 mA
78.2785508023657;-0.84930419921875;-0.0241302490234375;1.96999999502623;198;100 mA
78.2885508023404;-0.84930419921875;-0.0240814208984375;1.97999999500098;199;100 mA
78.2985508023152;-0.84991455078125;-0.02401123046875;1.98999999497573;200;100 mA
78.3085508022899;-0.84991455078125;-0.0239654541015625;1.99999999495049;201;100 mA
78.3185508022647;-0.8489990234375;-0.023895263671875;2.00999999492524;202;100 mA
78.3285508022394;-0.849609375;-0.023846435546875;2.01999999489999;203;100 mA
78.3385508022142;-0.8489990234375;-0.0237823486328125;2.02999999487474;204;100 mA
78.3485508021889;-0.849609375;-0.023724365234375;2.0399999948495;205;100 mA
78.3585508021637;-0.84930419921875;-0.02366943359375;2.04999999482425;206;100 mA
78.3685508021384;-0.849609375;-0.0236053466796875;2.059999994799;207;100 mA
78.3785508021132;-0.84930419921875;-0.023553466796875;2.06999999477375;208;100 mA
78.3885508020879;-0.84930419921875;-0.02349853515625;2.0799999947485;209;100 mA
78.3985508020627;-0.849609375;-0.02344970703125;2.08999999472326;210;100 mA
78.4085508020374;-0.84930419921875;-0.023394775390625;2.09999999469801;211;100 mA
78.4185508020122;-0.849609375;-0.0233306884765625;2.10999999467276;212;100 mA
78.4285508019869;-0.84930419921875;-0.023291015625;2.11999999464751;213;100 mA
78.4385508019617;-0.84930419921875;-0.02322998046875;2.12999999462227;214;100 mA
78.4485508019364;-0.84930419921875;-0.023175048828125;2.13999999459702;215;100 mA
78.4585508019112;-0.84991455078125;-0.0231231689453125;2.14999999457177;216;100 mA
78.468550801886;-0.8489990234375;-0.023065185546875;2.15999999454652;217;100 mA
78.4785508018607;-0.84930419921875;-0.023016357421875;2.16999999452128;218;100 mA
78.4885508018355;-0.8489990234375;-0.0229644775390625;2.17999999449603;219;100 mA
78.4985508018102;-0.84869384765625;-0.02291259765625;2.18999999447078;220;100 mA
78.508550801785;-0.84930419921875;-0.0228668212890625;2.19999999444553;221;100 mA
78.5185508017597;-0.84869384765625;-0.0228118896484375;2.20999999442029;222;100 mA
78.5285508017345;-0.8489990234375;-0.022772216796875;2.21999999439504;223;100 mA
78.5385508017092;-0.84930419921875;-0.0227142333984375;2.22999999436979;224;100 mA
78.548550801684;-0.84930419921875;-0.022662353515625;2.23999999434454;225;100 mA
78.5585508016587;-0.84930419921875;-0.0226165771484375;2.2499999943193;226;100 mA
78.5685508016335;-0.84930419921875;-0.02255859375;2.25999999429405;227;100 mA
78.5785508016082;-0.84930419921875;-0.0225189208984375;2.2699999942688;228;100 mA
78.588550801583;-0.8489990234375;-0.0224639892578125;2.27999999424355;229;100 mA
78.5985508015577;-0.84991455078125;-0.0224151611328125;2.28999999421831;230;100 mA
78.6085508015325;-0.84930419921875;-0.022369384765625;2.29999999419306;231;100 mA
78.6185508015072;-0.84930419921875;-0.0223114013671875;2.30999999416781;232;100 mA
78.628550801482;-0.8489990234375;-0.0222808837890625;2.31999999414256;233;100 mA
78.6385508014567;-0.84930419921875;-0.022222900390625;2.32999999411732;234;100 mA
78.6485508014315;-0.84869384765625;-0.0221832275390625;2.33999999409207;235;100 mA
78.6585508014062;-0.849609375;-0.0221435546875;2.34999999406682;236;100 mA
78.668550801381;-0.84930419921875;-0.022088623046875;2.35999999404157;237;100 mA
78.6785508013558;-0.84930419921875;-0.0220428466796875;2.36999999401633;238;100 mA
78.6885508013305;-0.84930419921875;-0.022003173828125;2.37999999399108;239;100 mA
78.6985508013053;-0.84930419921875;-0.021954345703125;2.38999999396583;240;100 mA
78.70855080128;-0.84991455078125;-0.02191162109375;2.39999999394058;241;100 mA
78.7185508012548;-0.84930419921875;-0.021856689453125;2.40999999391533;242;100 mA
78.7285508012295;-0.84930419921875;-0.021826171875;2.41999999389009;243;100 mA
78.7385508012043;-0.84869384765625;-0.021771240234375;2.42999999386484;244;100 mA
78.748550801179;-0.84930419921875;-0.021734619140625;2.43999999383959;245;100 mA
78.7585508011538;-0.84930419921875;-0.021685791015625;2.44999999381434;246;100 mA
78.7685508011285;-0.84930419921875;-0.0216461181640625;2.4599999937891;247;100 mA
78.7785508011033;-0.849609375;-0.0216033935546875;2.46999999376385;248;100 mA
78.788550801078;-0.84930419921875;-0.0215606689453125;2.4799999937386;249;100 mA
78.7985508010528;-0.84930419921875;-0.021527099609375;2.48999999371335;250;100 mA
78.8085508010275;-0.84930419921875;-0.0214874267578125;2.49999999368811;251;100 mA
78.8185508010023;-0.849609375;-0.0214324951171875;2.50999999366286;252;100 mA
78.828550800977;-0.84930419921875;-0.0214019775390625;2.51999999363761;253;100 mA
78.8385508009518;-0.849609375;-0.02135009765625;2.52999999361236;254;100 mA
78.8485508009265;-0.8489990234375;-0.0213134765625;2.53999999358712;255;100 mA
78.8585508009013;-0.8489990234375;-0.021270751953125;2.54999999356187;256;100 mA
78.8685508008761;-0.8489990234375;-0.0212249755859375;2.55999999353662;257;100 mA
78.8785508008508;-0.849609375;-0.021185302734375;2.56999999351137;258;100 mA
78.8885508008256;-0.849609375;-0.0211395263671875;2.57999999348613;259;100 mA
78.8985508008003;-0.84930419921875;-0.0211029052734375;2.58999999346088;260;100 mA
78.9085508007751;-0.84930419921875;-0.021063232421875;2.59999999343563;261;100 mA
78.9185508007498;-0.849609375;-0.0210205078125;2.60999999341038;262;100 mA
78.9285508007246;-0.849609375;-0.020989990234375;2.61999999338514;263;100 mA
78.9385508006993;-0.84991455078125;-0.0209442138671875;2.62999999335989;264;100 mA
78.9485508006741;-0.84930419921875;-0.0209075927734375;2.63999999333464;265;100 mA
78.9585508006488;-0.84930419921875;-0.0208740234375;2.64999999330939;266;100 mA
78.9685508006236;-0.84930419921875;-0.020831298828125;2.65999999328415;267;100 mA
78.9785508005983;-0.849609375;-0.020794677734375;2.6699999932589;268;100 mA
78.9885508005731;-0.84930419921875;-0.0207550048828125;2.67999999323365;269;100 mA
78.9985508005478;-0.84930419921875;-0.020721435546875;2.6899999932084;270;100 mA
79.0085508005226;-0.8489990234375;-0.020684814453125;2.69999999318316;271;100 mA
79.0185508004973;-0.849609375;-0.0206390380859375;2.70999999315791;272;100 mA
79.0285508004721;-0.84930419921875;-0.020611572265625;2.71999999313266;273;100 mA
79.0385508004468;-0.8489990234375;-0.02056884765625;2.72999999310741;274;100 mA
79.0485508004216;-0.84930419921875;-0.0205352783203125;2.73999999308217;275;100 mA
79.0585508003963;-0.849609375;-0.0204986572265625;2.74999999305692;276;100 mA
79.0685508003711;-0.849609375;-0.020452880859375;2.75999999303167;277;100 mA
79.0785508003459;-0.8489990234375;-0.020416259765625;2.76999999300642;278;100 mA
79.0885508003206;-0.8502197265625;-0.0203826904296875;2.77999999298117;279;100 mA
79.0985508002954;-0.84930419921875;-0.020355224609375;2.78999999295593;280;100 mA
79.1085508002701;-0.84930419921875;-0.0203216552734375;2.79999999293068;281;100 mA
79.1185508002449;-0.849609375;-0.02027587890625;2.80999999290543;282;100 mA
79.1285508002196;-0.84930419921875;-0.0202545166015625;2.81999999288018;283;100 mA
79.1385508001944;-0.84930419921875;-0.0202117919921875;2.82999999285494;284;100 mA
79.1485508001691;-0.84930419921875;-0.02017822265625;2.83999999282969;285;100 mA
79.1585508001439;-0.8489990234375;-0.0201446533203125;2.84999999280444;286;100 mA
79.1685508001186;-0.84930419921875;-0.02010498046875;2.85999999277919;287;100 mA
79.1785508000934;-0.84930419921875;-0.020074462890625;2.86999999275395;288;100 mA
79.1885508000681;-0.849609375;-0.020037841796875;2.8799999927287;289;100 mA
79.1985508000429;-0.84930419921875;-0.02000732421875;2.88999999270345;290;100 mA
79.2085508000176;-0.8489990234375;-0.0199798583984375;2.8999999926782;291;100 mA
79.2185507999924;-0.84869384765625;-0.0199371337890625;2.90999999265296;292;100 mA
79.2285507999671;-0.849609375;-0.01990966796875;2.91999999262771;293;100 mA
79.2385507999419;-0.84930419921875;-0.0198699951171875;2.92999999260246;294;100 mA
79.2485507999166;-0.8489990234375;-0.019842529296875;2.93999999257721;295;100 mA
79.2585507998914;-0.84930419921875;-0.019818115234375;2.94999999255197;296;100 mA
79.2685507998661;-0.849609375;-0.019775390625;2.95999999252672;297;100 mA
79.2785507998409;-0.8489990234375;-0.019744873046875;2.96999999250147;298;100 mA
79.2885507998157;-0.8489990234375;-0.0197113037109375;2.97999999247622;299;100 mA
79.2985507997904;-0.8489990234375;-0.019677734375;2.98999999245098;300;100 mA
79.3085507997652;-0.84930419921875;-0.0196502685546875;2.99999999242573;301;100 mA
79.3185507997399;-0.84930419921875;-0.019610595703125;3.00999999240048;302;100 mA
79.3285507997147;-0.849609375;-0.0195953369140625;3.01999999237523;303;100 mA
79.3385507996894;-0.849609375;-0.0195526123046875;3.02999999234999;304;100 mA
79.3485507996642;-0.8489990234375;-0.0195220947265625;3.03999999232474;305;100 mA
79.3585507996389;-0.84930419921875;-0.01949462890625;3.04999999229949;306;100 mA
79.3685507996137;-0.84930419921875;-0.0194549560546875;3.05999999227424;307;100 mA
79.3785507995884;-0.849609375;-0.019427490234375;3.069999992249;308;100 mA
79.3885507995632;-0.8489990234375;-0.01939697265625;3.07999999222375;309;100 mA
79.3985507995379;-0.8489990234375;-0.019366455078125;3.0899999921985;310;100 mA
79.4085507995127;-0.8489990234375;-0.0193450927734375;3.09999999217325;311;100 mA
79.4185507994874;-0.84930419921875;-0.0193023681640625;3.109999992148;312;100 mA
79.4285507994622;-0.8489990234375;-0.0192840576171875;3.11999999212276;313;100 mA
79.4385507994369;-0.84930419921875;-0.0192413330078125;3.12999999209751;314;100 mA
79.4485507994117;-0.84930419921875;-0.0192108154296875;3.13999999207226;315;100 mA
79.4585507993864;-0.8489990234375;-0.0191864013671875;3.14999999204701;316;100 mA
79.4685507993612;-0.8489990234375;-0.019146728515625;3.15999999202177;317;100 mA
79.4785507993359;-0.84930419921875;-0.0191192626953125;3.16999999199652;318;100 mA
79.4885507993107;-0.84930419921875;-0.0190948486328125;3.17999999197127;319;100 mA
79.4985507992855;-0.84930419921875;-0.0190643310546875;3.18999999194602;320;100 mA
79.5085507992602;-0.8489990234375;-0.0190460205078125;3.19999999192078;321;100 mA
79.518550799235;-0.8489990234375;-0.01900634765625;3.20999999189553;322;100 mA
79.5285507992097;-0.84930419921875;-0.018988037109375;3.21999999187028;323;100 mA
79.5385507991845;-0.8489990234375;-0.0189544677734375;3.22999999184503;324;100 mA
79.5485507991592;-0.84869384765625;-0.0189239501953125;3.23999999181979;325;100 mA
79.558550799134;-0.849609375;-0.018896484375;3.24999999179454;326;100 mA
79.5685507991087;-0.84930419921875;-0.018865966796875;3.25999999176929;327;100 mA
79.5785507990835;-0.849609375;-0.01883544921875;3.26999999174404;328;100 mA
79.5885507990582;-0.8489990234375;-0.0188079833984375;3.2799999917188;329;100 mA
79.598550799033;-0.849609375;-0.0187774658203125;3.28999999169355;330;100 mA
79.6085507990077;-0.84930419921875;-0.018756103515625;3.2999999916683;331;100 mA
79.6185507989825;-0.84930419921875;-0.018707275390625;3.30999999164305;332;100 mA
79.6285507989572;-0.849609375;-0.0186920166015625;3.31999999161781;333;100 mA
79.638550798932;-0.84930419921875;-0.01866455078125;3.32999999159256;334;100 mA
79.6485507989067;-0.8489990234375;-0.018634033203125;3.33999999156731;335;100 mA
79.6585507988815;-0.849609375;-0.01861572265625;3.34999999154206;336;100 mA
79.6685507988562;-0.849609375;-0.018585205078125;3.35999999151682;337;100 mA
79.678550798831;-0.84930419921875;-0.0185638427734375;3.36999999149157;338;100 mA
79.6885507988057;-0.8489990234375;-0.0185394287109375;3.37999999146632;339;100 mA
79.6985507987805;-0.8489990234375;-0.0185150146484375;3.38999999144107;340;100 mA
79.7085507987553;-0.849609375;-0.018499755859375;3.39999999141583;341;100 mA
79.71855079873;-0.8489990234375;-0.0184600830078125;3.40999999139058;342;100 mA
79.7285507987048;-0.84991455078125;-0.0184478759765625;3.41999999136533;343;100 mA
79.7385507986795;-0.84930419921875;-0.018414306640625;3.42999999134008;344;100 mA
79.7485507986543;-0.849609375;-0.018377685546875;3.43999999131483;345;100 mA
79.758550798629;-0.8489990234375;-0.0183563232421875;3.44999999128959;346;100 mA
79.7685507986038;-0.84869384765625;-0.018316650390625;3.45999999126434;347;100 mA
79.7785507985785;-0.84930419921875;-0.018292236328125;3.46999999123909;348;100 mA
79.7885507985533;-0.849609375;-0.0182647705078125;3.47999999121384;349;100 mA
79.798550798528;-0.849609375;-0.018243408203125;3.4899999911886;350;100 mA
79.8085507985028;-0.84930419921875;-0.0182281494140625;3.49999999116335;351;100 mA
79.8185507984775;-0.84991455078125;-0.0181915283203125;3.5099999911381;352;100 mA
79.8285507984523;-0.84930419921875;-0.018182373046875;3.51999999111285;353;100 mA
79.838550798427;-0.84930419921875;-0.018145751953125;3.52999999108761;354;100 mA
79.8485507984018;-0.84930419921875;-0.0181243896484375;3.53999999106236;355;100 mA
79.8585507983765;-0.84930419921875;-0.0181060791015625;3.54999999103711;356;100 mA
79.8685507983513;-0.8489990234375;-0.018072509765625;3.55999999101186;357;100 mA
79.878550798326;-0.84991455078125;-0.01805419921875;3.56999999098662;358;100 mA
79.8885507983008;-0.8489990234375;-0.018023681640625;3.57999999096137;359;100 mA
79.8985507982756;-0.8489990234375;-0.0180023193359375;3.58999999093612;360;100 mA
79.9085507982503;-0.84930419921875;-0.0179840087890625;3.59999999091087;361;100 mA
79.9185507982251;-0.84930419921875;-0.017938232421875;3.60999999088563;362;100 mA
79.9285507981998;-0.84930419921875;-0.01793212890625;3.61999999086038;363;100 mA
79.9385507981746;-0.84930419921875;-0.0179046630859375;3.62999999083513;364;100 mA
79.9485507981493;-0.84930419921875;-0.01788330078125;3.63999999080988;365;100 mA
79.9585507981241;-0.84930419921875;-0.017864990234375;3.64999999078464;366;100 mA
79.9685507980988;-0.8489990234375;-0.017828369140625;3.65999999075939;367;100 mA
79.9785507980736;-0.84930419921875;-0.017816162109375;3.66999999073414;368;100 mA
79.9885507980483;-0.84930419921875;-0.0177947998046875;3.67999999070889;369;100 mA
79.9985507980231;-0.849609375;-0.017767333984375;3.68999999068365;370;100 mA
80.0085507979978;-0.849609375;-0.017755126953125;3.6999999906584;371;100 mA
80.0185507979726;-0.84930419921875;-0.0177215576171875;3.70999999063315;372;100 mA
80.0285507979473;-0.8489990234375;-0.0177032470703125;3.7199999906079;373;100 mA
80.0385507979221;-0.84930419921875;-0.017681884765625;3.72999999058266;374;100 mA
80.0485507978968;-0.84930419921875;-0.0176483154296875;3.73999999055741;375;100 mA
80.0585507978716;-0.849609375;-0.0176300048828125;3.74999999053216;376;100 mA
80.0685507978463;-0.84930419921875;-0.017596435546875;3.75999999050691;377;100 mA
80.0785507978211;-0.849609375;-0.0175811767578125;3.76999999048167;378;100 mA
80.0885507977958;-0.84869384765625;-0.017559814453125;3.77999999045642;379;100 mA
80.0985507977706;-0.84930419921875;-0.0175384521484375;3.78999999043117;380;100 mA
80.1085507977454;-0.8489990234375;-0.01751708984375;3.79999999040592;381;100 mA
80.1185507977201;-0.84869384765625;-0.0174835205078125;3.80999999038067;382;100 mA
80.1285507976949;-0.849609375;-0.01748046875;3.81999999035543;383;100 mA
80.1385507976696;-0.84930419921875;-0.0174560546875;3.82999999033018;384;100 mA
80.1485507976444;-0.849609375;-0.0174346923828125;3.83999999030493;385;100 mA
80.1585507976191;-0.84930419921875;-0.0174102783203125;3.84999999027968;386;100 mA
80.1685507975939;-0.84930419921875;-0.0173828125;3.85999999025444;387;100 mA
80.1785507975686;-0.849609375;-0.0173675537109375;3.86999999022919;388;100 mA
80.1885507975434;-0.84930419921875;-0.01734619140625;3.87999999020394;389;100 mA
80.1985507975181;-0.8489990234375;-0.0173248291015625;3.88999999017869;390;100 mA
80.2085507974929;-0.84930419921875;-0.017303466796875;3.89999999015345;391;100 mA
80.2185507974676;-0.84930419921875;-0.01727294921875;3.9099999901282;392;100 mA
80.2285507974424;-0.849609375;-0.0172637939453125;3.91999999010295;393;100 mA
80.2385507974171;-0.849609375;-0.0172393798828125;3.9299999900777;394;100 mA
80.2485507973919;-0.84930419921875;-0.017218017578125;3.93999999005246;395;100 mA
80.2585507973666;-0.84930419921875;-0.017205810546875;3.94999999002721;396;100 mA
80.2685507973414;-0.84930419921875;-0.0171722412109375;3.95999999000196;397;100 mA
80.2785507973161;-0.849609375;-0.0171539306640625;3.96999998997671;398;100 mA
80.2885507972909;-0.84930419921875;-0.017132568359375;3.97999998995147;399;100 mA
80.2985507972656;-0.849609375;-0.0171142578125;3.98999998992622;400;100 mA
80.3085507972404;-0.8489990234375;-0.0170989990234375;3.99999998990097;401;100 mA
80.3185507972152;-0.84930419921875;-0.0170684814453125;4.00999998987572;402;100 mA
80.3285507971899;-0.84930419921875;-0.017059326171875;4.01999998985048;403;100 mA
80.3385507971647;-0.849609375;-0.0170379638671875;4.02999998982523;404;100 mA
80.3485507971394;-0.8489990234375;-0.017010498046875;4.03999998979998;405;100 mA
80.3585507971142;-0.84930419921875;-0.0170013427734375;4.04999998977473;406;100 mA
80.3685507970889;-0.84930419921875;-0.0169647216796875;4.05999998974949;407;100 mA
80.3785507970637;-0.84930419921875;-0.0169586181640625;4.06999998972424;408;100 mA
80.3885507970384;-0.84930419921875;-0.0169342041015625;4.07999998969899;409;100 mA
80.3985507970132;-0.8489990234375;-0.0169189453125;4.08999998967374;410;100 mA
80.4085507969879;-0.8489990234375;-0.01689453125;4.0999999896485;411;100 mA
80.4185507969627;-0.84930419921875;-0.0168670654296875;4.10999998962325;412;100 mA
80.4285507969374;-0.8489990234375;-0.0168548583984375;4.119999989598;413;100 mA
80.4385507969122;-0.8489990234375;-0.0168426513671875;4.12999998957275;414;100 mA
80.4485507968869;-0.84930419921875;-0.016815185546875;4.1399999895475;415;100 mA
80.4585507968617;-0.849609375;-0.0167999267578125;4.14999998952226;416;100 mA
80.4685507968364;-0.84869384765625;-0.0167755126953125;4.15999998949701;417;100 mA
80.4785507968112;-0.84869384765625;-0.01676025390625;4.16999998947176;418;100 mA
80.4885507967859;-0.849609375;-0.016741943359375;4.17999998944651;419;100 mA
80.4985507967607;-0.849609375;-0.0167236328125;4.18999998942127;420;100 mA
80.5085507967354;-0.849609375;-0.0167022705078125;4.19999998939602;421;100 mA
80.5185507967102;-0.849609375;-0.0166778564453125;4.20999998937077;422;100 mA
80.528550796685;-0.849609375;-0.0166656494140625;4.21999998934552;423;100 mA
80.5385507966597;-0.84930419921875;-0.0166473388671875;4.22999998932028;424;100 mA
80.5485507966345;-0.84930419921875;-0.016619873046875;4.23999998929503;425;100 mA
80.5585507966092;-0.849609375;-0.01661376953125;4.24999998926978;426;100 mA
80.568550796584;-0.849609375;-0.016583251953125;4.25999998924453;427;100 mA
80.5785507965587;-0.8489990234375;-0.0165740966796875;4.26999998921929;428;100 mA
80.5885507965335;-0.84930419921875;-0.0165557861328125;4.27999998919404;429;100 mA
80.5985507965082;-0.84869384765625;-0.0165313720703125;4.28999998916879;430;100 mA
80.608550796483;-0.849609375;-0.016522216796875;4.29999998914354;431;100 mA
80.6185507964577;-0.8489990234375;-0.016497802734375;4.3099999891183;432;100 mA
80.6285507964325;-0.84991455078125;-0.016485595703125;4.31999998909305;433;100 mA
80.6385507964072;-0.84930419921875;-0.0164642333984375;4.3299999890678;434;100 mA
80.648550796382;-0.849609375;-0.0164459228515625;4.33999998904255;435;100 mA
80.6585507963567;-0.84869384765625;-0.0164276123046875;4.34999998901731;436;100 mA
80.6685507963315;-0.849609375;-0.01640625;4.35999998899206;437;100 mA
80.6785507963062;-0.8489990234375;-0.0163909912109375;4.36999998896681;438;100 mA
80.688550796281;-0.84930419921875;-0.01636962890625;4.37999998894156;439;100 mA
80.6985507962557;-0.84930419921875;-0.0163543701171875;4.38999998891632;440;100 mA
80.7085507962305;-0.84930419921875;-0.0163360595703125;4.39999998889107;441;100 mA
80.7185507962052;-0.84869384765625;-0.0163116455078125;4.40999998886582;442;100 mA
80.72855079618;-0.8489990234375;-0.0163055419921875;4.41999998884057;443;100 mA
80.7385507961548;-0.849609375;-0.0162841796875;4.42999998881533;444;100 mA
80.7485507961295;-0.84930419921875;-0.0162628173828125;4.43999998879008;445;100 mA
80.7585507961043;-0.84930419921875;-0.01624755859375;4.44999998876483;446;100 mA
80.768550796079;-0.84930419921875;-0.01622314453125;4.45999998873958;447;100 mA
80.7785507960538;-0.8489990234375;-0.0162109375;4.46999998871433;448;100 mA
80.7885507960285;-0.84930419921875;-0.0161956787109375;4.47999998868909;449;100 mA
80.7985507960033;-0.84930419921875;-0.01617431640625;4.48999998866384;450;100 mA
80.808550795978;-0.84930419921875;-0.016168212890625;4.49999998863859;451;100 mA
80.8185507959528;-0.849609375;-0.0161376953125;4.50999998861334;452;100 mA
80.8285507959275;-0.849609375;-0.01612548828125;4.5199999885881;453;100 mA
80.8385507959023;-0.849609375;-0.016107177734375;4.52999998856285;454;100 mA
80.848550795877;-0.84930419921875;-0.0160888671875;4.5399999885376;455;100 mA
80.8585507958518;-0.849609375;-0.0160736083984375;4.54999998851235;456;100 mA
80.8685507958265;-0.8489990234375;-0.0160552978515625;4.55999998848711;457;100 mA
80.8785507958013;-0.849609375;-0.0160369873046875;4.56999998846186;458;100 mA
80.888550795776;-0.849609375;-0.01602783203125;4.57999998843661;459;100 mA
80.8985507957508;-0.8489990234375;-0.0160064697265625;4.58999998841136;460;100 mA
80.9085507957255;-0.84930419921875;-0.0159942626953125;4.59999998838612;461;100 mA
80.9185507957003;-0.84930419921875;-0.015966796875;4.60999998836087;462;100 mA
80.9285507956751;-0.8489990234375;-0.01595458984375;4.61999998833562;463;100 mA
80.9385507956498;-0.84930419921875;-0.0159423828125;4.62999998831037;464;100 mA
80.9485507956246;-0.8489990234375;-0.0159210205078125;4.63999998828513;465;100 mA
80.9585507955993;-0.8489990234375;-0.015911865234375;4.64999998825988;466;100 mA
80.9685507955741;-0.84930419921875;-0.0158935546875;4.65999998823463;467;100 mA
80.9785507955488;-0.849609375;-0.0158782958984375;4.66999998820938;468;100 mA
80.9885507955236;-0.84930419921875;-0.01585693359375;4.67999998818414;469;100 mA
80.9985507954983;-0.8502197265625;-0.015838623046875;4.68999998815889;470;100 mA
81.0085507954731;-0.849609375;-0.01583251953125;4.69999998813364;471;100 mA
81.0185507954478;-0.84930419921875;-0.0158050537109375;4.70999998810839;472;100 mA
81.0285507954226;-0.849609375;-0.0157989501953125;4.71999998808315;473;100 mA
81.0385507953973;-0.849609375;-0.015777587890625;4.7299999880579;474;100 mA
81.0485507953721;-0.8489990234375;-0.01575927734375;4.73999998803265;475;100 mA
81.0585507953468;-0.849609375;-0.0157501220703125;4.7499999880074;476;100 mA
81.0685507953216;-0.84930419921875;-0.0157257080078125;4.75999998798216;477;100 mA
81.0785507952963;-0.8489990234375;-0.0157196044921875;4.76999998795691;478;100 mA
81.0885507952711;-0.849609375;-0.015704345703125;4.77999998793166;479;100 mA
81.0985507952458;-0.84930419921875;-0.0156829833984375;4.78999998790641;480;100 mA
81.1085507952206;-0.849609375;-0.0156768798828125;4.79999998788116;481;100 mA
81.1185507951953;-0.8489990234375;-0.0156524658203125;4.80999998785592;482;100 mA
81.1285507951701;-0.84930419921875;-0.0156463623046875;4.81999998783067;483;100 mA
81.1385507951449;-0.84930419921875;-0.0156280517578125;4.82999998780542;484;100 mA
81.1485507951196;-0.84930419921875;-0.0156097412109375;4.83999998778017;485;100 mA
81.1585507950944;-0.84930419921875;-0.0155975341796875;4.84999998775493;486;100 mA
81.1685507950691;-0.84930419921875;-0.015570068359375;4.85999998772968;487;100 mA
81.1785507950439;-0.8489990234375;-0.0155670166015625;4.86999998770443;488;100 mA
81.1885507950186;-0.84930419921875;-0.0155487060546875;4.87999998767918;489;100 mA
81.1985507949934;-0.84991455078125;-0.0155303955078125;4.88999998765394;490;100 mA
81.2085507949681;-0.84930419921875;-0.01552734375;4.89999998762869;491;100 mA
81.2185507949429;-0.849609375;-0.015496826171875;4.90999998760344;492;100 mA
81.2285507949176;-0.84930419921875;-0.015496826171875;4.91999998757819;493;100 mA
81.2385507948924;-0.84930419921875;-0.01546630859375;4.92999998755295;494;100 mA
81.2485507948671;-0.84930419921875;-0.0154541015625;4.9399999875277;495;100 mA
81.2585507948419;-0.8489990234375;-0.015447998046875;4.94999998750245;496;100 mA
81.2685507948166;-0.84930419921875;-0.01541748046875;4.9599999874772;497;100 mA
81.2785507947914;-0.849609375;-0.0154144287109375;4.96999998745196;498;100 mA
81.2885507947661;-0.84991455078125;-0.0154022216796875;4.97999998742671;499;100 mA
81.2985507947409;-0.84930419921875;-0.0153839111328125;4.98999998740146;500;100 mA
81.3085507947156;-0.8489990234375;-0.0153778076171875;4.99999998737621;501;100 mA
81.3185507946904;-0.84930419921875;-0.0153472900390625;5.00999998735097;502;100 mA
81.3285507946651;-0.84930419921875;-0.015350341796875;5.01999998732572;503;100 mA
81.3385507946399;-0.84930419921875;-0.0153289794921875;5.02999998730047;504;100 mA
81.3485507946147;-0.84930419921875;-0.0153106689453125;5.03999998727522;505;100 mA
81.3585507945894;-0.84930419921875;-0.0153045654296875;5.04999998724998;506;100 mA
81.3685507945642;-0.849609375;-0.015277099609375;5.05999998722473;507;100 mA
81.3785507945389;-0.8489990234375;-0.01527099609375;5.06999998719948;508;100 mA
81.3885507945137;-0.849609375;-0.015252685546875;5.07999998717423;509;100 mA
81.3985507944884;-0.84930419921875;-0.0152374267578125;5.08999998714899;510;100 mA
81.4085507944632;-0.849609375;-0.0152313232421875;5.09999998712374;511;100 mA
81.4185507944379;-0.84930419921875;-0.0152069091796875;5.10999998709849;512;100 mA
81.4285507944127;-0.84991455078125;-0.015203857421875;5.11999998707324;513;100 mA
81.4385507943874;-0.84930419921875;-0.0151824951171875;5.129999987048;514;100 mA
81.4485507943622;-0.84930419921875;-0.0151702880859375;5.13999998702275;515;100 mA
81.4585507943369;-0.84930419921875;-0.0151580810546875;5.1499999869975;516;100 mA
81.4685507943117;-0.8489990234375;-0.015142822265625;5.15999998697225;517;100 mA
81.4785507942864;-0.84930419921875;-0.01513671875;5.169999986947;518;100 mA
81.4885507942612;-0.849609375;-0.0151153564453125;5.17999998692176;519;100 mA
81.4985507942359;-0.84930419921875;-0.0151031494140625;5.18999998689651;520;100 mA
81.5085507942107;-0.849609375;-0.0150848388671875;5.19999998687126;521;100 mA
81.5185507941854;-0.84930419921875;-0.0150665283203125;5.20999998684601;522;100 mA
81.5285507941602;-0.849609375;-0.0150604248046875;5.21999998682077;523;100 mA
81.5385507941349;-0.8502197265625;-0.0150421142578125;5.22999998679552;524;100 mA
81.5485507941097;-0.8489990234375;-0.015032958984375;5.23999998677027;525;100 mA
81.5585507940845;-0.84930419921875;-0.0150238037109375;5.24999998674502;526;100 mA
81.5685507940592;-0.8489990234375;-0.0150054931640625;5.25999998671978;527;100 mA
81.578550794034;-0.84930419921875;-0.014996337890625;5.26999998669453;528;100 mA
81.5885507940087;-0.8489990234375;-0.0149810791015625;5.27999998666928;529;100 mA
81.5985507939835;-0.848388671875;-0.0149658203125;5.28999998664403;530;100 mA
81.6085507939582;-0.84930419921875;-0.014959716796875;5.29999998661879;531;100 mA
81.618550793933;-0.8489990234375;-0.014935302734375;5.30999998659354;532;100 mA
81.6285507939077;-0.8489990234375;-0.0149322509765625;5.31999998656829;533;100 mA
81.6385507938825;-0.849609375;-0.014910888671875;5.32999998654304;534;100 mA
81.6485507938572;-0.84930419921875;-0.014898681640625;5.3399999865178;535;100 mA
81.658550793832;-0.849609375;-0.0148834228515625;5.34999998649255;536;100 mA
81.6685507938067;-0.8489990234375;-0.0148712158203125;5.3599999864673;537;100 mA
81.6785507937815;-0.84930419921875;-0.0148590087890625;5.36999998644205;538;100 mA
81.6885507937562;-0.849609375;-0.0148468017578125;5.37999998641681;539;100 mA
81.698550793731;-0.84930419921875;-0.0148345947265625;5.38999998639156;540;100 mA
81.7085507937057;-0.8489990234375;-0.0148284912109375;5.39999998636631;541;100 mA
81.7185507936805;-0.84930419921875;-0.0148101806640625;5.40999998634106;542;100 mA
81.7285507936552;-0.8489990234375;-0.0148040771484375;5.41999998631582;543;100 mA
81.73855079363;-0.84930419921875;-0.0147857666015625;5.42999998629057;544;100 mA
81.7485507936047;-0.84869384765625;-0.0147674560546875;5.43999998626532;545;100 mA
81.7585507935795;-0.84991455078125;-0.014764404296875;5.44999998624007;546;100 mA
81.7685507935543;-0.849609375;-0.01474609375;5.45999998621483;547;100 mA
81.778550793529;-0.849609375;-0.0147369384765625;5.46999998618958;548;100 mA
81.7885507935038;-0.8489990234375;-0.0147216796875;5.47999998616433;549;100 mA
81.7985507934785;-0.8489990234375;-0.01470947265625;5.48999998613908;550;100 mA
81.8085507934533;-0.849609375;-0.014691162109375;5.49999998611383;551;100 mA
81.818550793428;-0.84930419921875;-0.0146697998046875;5.50999998608859;552;100 mA
81.8285507934028;-0.849609375;-0.0146728515625;5.51999998606334;553;100 mA
81.8385507933775;-0.84930419921875;-0.01466064453125;5.52999998603809;554;100 mA
81.8485507933523;-0.84930419921875;-0.0146484375;5.53999998601284;555;100 mA
81.858550793327;-0.8489990234375;-0.01463623046875;5.5499999859876;556;100 mA
81.8685507933018;-0.849609375;-0.014617919921875;5.55999998596235;557;100 mA
81.8785507932765;-0.84930419921875;-0.0146148681640625;5.5699999859371;558;100 mA
81.8885507932513;-0.8489990234375;-0.014593505859375;5.57999998591185;559;100 mA
81.898550793226;-0.8489990234375;-0.01458740234375;5.58999998588661;560;100 mA
81.9085507932008;-0.8489990234375;-0.0145782470703125;5.59999998586136;561;100 mA
81.9185507931755;-0.849609375;-0.0145538330078125;5.60999998583611;562;100 mA
81.9285507931503;-0.8489990234375;-0.01455078125;5.61999998581086;563;100 mA
81.938550793125;-0.84930419921875;-0.01453857421875;5.62999998578562;564;100 mA
81.9485507930998;-0.84930419921875;-0.014520263671875;5.63999998576037;565;100 mA
81.9585507930746;-0.8489990234375;-0.01451416015625;5.64999998573512;566;100 mA
81.9685507930493;-0.84930419921875;-0.014483642578125;5.65999998570987;567;100 mA
81.9785507930241;-0.84991455078125;-0.0144805908203125;5.66999998568463;568;100 mA
81.9885507929988;-0.84930419921875;-0.0144683837890625;5.67999998565938;569;100 mA
81.9985507929736;-0.84930419921875;-0.0144622802734375;5.68999998563413;570;100 mA
82.0085507929483;-0.849609375;-0.0144500732421875;5.69999998560888;571;100 mA
82.0185507929231;-0.8489990234375;-0.0144317626953125;5.70999998558364;572;100 mA
82.0285507928978;-0.849609375;-0.0144256591796875;5.71999998555839;573;100 mA
82.0385507928726;-0.84930419921875;-0.014410400390625;5.72999998553314;574;100 mA
82.0485507928473;-0.84930419921875;-0.014398193359375;5.73999998550789;575;100 mA
82.0585507928221;-0.849609375;-0.01439208984375;5.74999998548265;576;100 mA
82.0685507927968;-0.84930419921875;-0.014373779296875;5.7599999854574;577;100 mA
82.0785507927716;-0.849609375;-0.0143585205078125;5.76999998543215;578;100 mA
82.0885507927463;-0.84930419921875;-0.014349365234375;5.7799999854069;579;100 mA
82.0985507927211;-0.8489990234375;-0.014337158203125;5.78999998538166;580;100 mA
82.1085507926958;-0.84930419921875;-0.0143310546875;5.79999998535641;581;100 mA
82.1185507926706;-0.84869384765625;-0.0143096923828125;5.80999998533116;582;100 mA
82.1285507926453;-0.84991455078125;-0.0143096923828125;5.81999998530591;583;100 mA
82.1385507926201;-0.8489990234375;-0.0142974853515625;5.82999998528066;584;100 mA
82.1485507925948;-0.84930419921875;-0.0142852783203125;5.83999998525542;585;100 mA
82.1585507925696;-0.849609375;-0.014276123046875;5.84999998523017;586;100 mA
82.1685507925444;-0.849609375;-0.0142578125;5.85999998520492;587;100 mA
82.1785507925191;-0.8489990234375;-0.014251708984375;5.86999998517967;588;100 mA
82.1885507924939;-0.84930419921875;-0.014239501953125;5.87999998515443;589;100 mA
82.1985507924686;-0.8489990234375;-0.0142242431640625;5.88999998512918;590;100 mA
82.2085507924434;-0.849609375;-0.0142242431640625;5.89999998510393;591;100 mA
82.2185507924181;-0.84930419921875;-0.0141998291015625;5.90999998507868;592;100 mA
82.2285507923929;-0.84930419921875;-0.0141998291015625;5.91999998505344;593;100 mA
82.2385507923676;-0.848388671875;-0.0141815185546875;5.92999998502819;594;100 mA
82.2485507923424;-0.84930419921875;-0.014166259765625;5.93999998500294;595;100 mA
82.2585507923171;-0.8489990234375;-0.01416015625;5.94999998497769;596;100 mA
82.2685507922919;-0.84930419921875;-0.0141357421875;5.95999998495245;597;100 mA
82.2785507922666;-0.84930419921875;-0.0141265869140625;5.9699999849272;598;100 mA
82.2885507922414;-0.8489990234375;-0.0141204833984375;5.97999998490195;599;100 mA
82.2985507922161;-0.8489990234375;-0.0141082763671875;5.9899999848767;600;100 mA
82.3085507921909;-0.84930419921875;-0.014105224609375;5.99999998485146;601;100 mA
82.3185507921656;-0.8489990234375;-0.0140869140625;6.00999998482621;602;100 mA
82.3285507921404;-0.84930419921875;-0.0140838623046875;6.01999998480096;603;100 mA
82.3385507921151;-0.8489990234375;-0.0140716552734375;6.02999998477571;604;100 mA
82.3485507920899;-0.84930419921875;-0.0140533447265625;6.03999998475047;605;100 mA
82.3585507920646;-0.84930419921875;-0.014056396484375;6.04999998472522;606;100 mA
82.3685507920394;-0.84930419921875;-0.014031982421875;6.05999998469997;607;100 mA
82.3785507920142;-0.8489990234375;-0.01402587890625;6.06999998467472;608;100 mA
82.3885507919889;-0.84930419921875;-0.014013671875;6.07999998464948;609;100 mA
82.3985507919637;-0.84930419921875;-0.0139984130859375;6.08999998462423;610;100 mA
82.4085507919384;-0.849609375;-0.013995361328125;6.09999998459898;611;100 mA
82.4185507919132;-0.849609375;-0.01396484375;6.10999998457373;612;100 mA
82.4285507918879;-0.84930419921875;-0.0139617919921875;6.11999998454849;613;100 mA
82.4385507918627;-0.84930419921875;-0.01395263671875;6.12999998452324;614;100 mA
82.4485507918374;-0.849609375;-0.0139373779296875;6.13999998449799;615;100 mA
82.4585507918122;-0.84930419921875;-0.0139434814453125;6.14999998447274;616;100 mA
82.4685507917869;-0.84991455078125;-0.0139251708984375;6.1599999844475;617;100 mA
82.4785507917617;-0.849609375;-0.013922119140625;6.16999998442225;618;100 mA
82.4885507917364;-0.84930419921875;-0.013909912109375;6.179999984397;619;100 mA
82.4985507917112;-0.84930419921875;-0.0138946533203125;6.18999998437175;620;100 mA
82.5085507916859;-0.84930419921875;-0.0138916015625;6.1999999843465;621;100 mA
82.5185507916607;-0.84930419921875;-0.0138702392578125;6.20999998432126;622;100 mA
82.5285507916354;-0.8489990234375;-0.0138702392578125;6.21999998429601;623;100 mA
82.5385507916102;-0.849609375;-0.0138580322265625;6.22999998427076;624;100 mA
82.5485507915849;-0.84930419921875;-0.01383056640625;6.23999998424551;625;100 mA
82.5585507915597;-0.849609375;-0.0138397216796875;6.24999998422027;626;100 mA
82.5685507915344;-0.84930419921875;-0.013812255859375;6.25999998419502;627;100 mA
82.5785507915092;-0.849609375;-0.013812255859375;6.26999998416977;628;100 mA
82.588550791484;-0.8489990234375;-0.0137969970703125;6.27999998414452;629;100 mA
82.5985507914587;-0.8489990234375;-0.0137908935546875;6.28999998411928;630;100 mA
82.6085507914335;-0.84930419921875;-0.0137847900390625;6.29999998409403;631;100 mA
82.6185507914082;-0.849609375;-0.01376953125;6.30999998406878;632;100 mA
82.628550791383;-0.849609375;-0.01376953125;6.31999998404353;633;100 mA
82.6385507913577;-0.84930419921875;-0.0137542724609375;6.32999998401829;634;100 mA
82.6485507913325;-0.8489990234375;-0.0137420654296875;6.33999998399304;635;100 mA
82.6585507913072;-0.849609375;-0.013739013671875;6.34999998396779;636;100 mA
82.668550791282;-0.849609375;-0.0137237548828125;6.35999998394254;637;100 mA
82.6785507912567;-0.84991455078125;-0.0137176513671875;6.3699999839173;638;100 mA
82.6885507912315;-0.8489990234375;-0.0136993408203125;6.37999998389205;639;100 mA
82.6985507912062;-0.84869384765625;-0.0136962890625;6.3899999838668;640;100 mA
82.708550791181;-0.849609375;-0.0136810302734375;6.39999998384155;641;100 mA
82.7185507911557;-0.84930419921875;-0.0136566162109375;6.40999998381631;642;100 mA
82.7285507911305;-0.849609375;-0.0136566162109375;6.41999998379106;643;100 mA
82.7385507911052;-0.8489990234375;-0.0136474609375;6.42999998376581;644;100 mA
82.74855079108;-0.8489990234375;-0.013641357421875;6.43999998374056;645;100 mA
82.7585507910547;-0.84991455078125;-0.01363525390625;6.44999998371532;646;100 mA
82.7685507910295;-0.84930419921875;-0.013616943359375;6.45999998369007;647;100 mA
82.7785507910042;-0.84930419921875;-0.01361083984375;6.46999998366482;648;100 mA
82.788550790979;-0.84930419921875;-0.0136077880859375;6.47999998363957;649;100 mA
82.7985507909538;-0.8489990234375;-0.0135986328125;6.48999998361433;650;100 mA
82.8085507909285;-0.849609375;-0.0135955810546875;6.49999998358908;651;100 mA
82.8185507909033;-0.84930419921875;-0.01357421875;6.50999998356383;652;100 mA
82.828550790878;-0.8489990234375;-0.0135711669921875;6.51999998353858;653;100 mA
82.8385507908528;-0.84869384765625;-0.0135589599609375;6.52999998351333;654;100 mA
82.8485507908275;-0.84930419921875;-0.0135498046875;6.53999998348809;655;100 mA
82.8585507908023;-0.849609375;-0.0135284423828125;6.54999998346284;656;100 mA
82.868550790777;-0.8489990234375;-0.013525390625;6.55999998343759;657;100 mA
82.8785507907518;-0.84930419921875;-0.0135101318359375;6.56999998341234;658;100 mA
82.8885507907265;-0.849609375;-0.0135009765625;6.5799999833871;659;100 mA
82.8985507907013;-0.84930419921875;-0.01348876953125;6.58999998336185;660;100 mA
82.908550790676;-0.8489990234375;-0.0134918212890625;6.5999999833366;661;100 mA
82.9185507906508;-0.849609375;-0.013470458984375;6.60999998331135;662;100 mA
82.9285507906255;-0.849609375;-0.013470458984375;6.61999998328611;663;100 mA
82.9385507906003;-0.849609375;-0.0134613037109375;6.62999998326086;664;100 mA
82.948550790575;-0.84930419921875;-0.0134490966796875;6.63999998323561;665;100 mA
82.9585507905498;-0.849609375;-0.0134429931640625;6.64999998321036;666;100 mA
82.9685507905245;-0.84930419921875;-0.013433837890625;6.65999998318512;667;100 mA
82.9785507904993;-0.84930419921875;-0.013427734375;6.66999998315987;668;100 mA
82.9885507904741;-0.84930419921875;-0.0134124755859375;6.67999998313462;669;100 mA
82.9985507904488;-0.849609375;-0.0134002685546875;6.68999998310937;670;100 mA
83.0085507904236;-0.849609375;-0.013397216796875;6.69999998308413;671;100 mA
83.0185507903983;-0.84930419921875;-0.01337890625;6.70999998305888;672;100 mA
83.0285507903731;-0.84930419921875;-0.013372802734375;6.71999998303363;673;100 mA
83.0385507903478;-0.84930419921875;-0.0133636474609375;6.72999998300838;674;100 mA
83.0485507903226;-0.84930419921875;-0.013348388671875;6.73999998298314;675;100 mA
83.0585507902973;-0.849609375;-0.013348388671875;6.74999998295789;676;100 mA
83.0685507902721;-0.84930419921875;-0.0133453369140625;6.75999998293264;677;100 mA
83.0785507902468;-0.84930419921875;-0.01334228515625;6.76999998290739;678;100 mA
83.0885507902216;-0.84930419921875;-0.013323974609375;6.77999998288215;679;100 mA
83.0985507901963;-0.849609375;-0.013311767578125;6.7899999828569;680;100 mA
83.1085507901711;-0.849609375;-0.0133087158203125;6.79999998283165;681;100 mA
83.1185507901458;-0.84930419921875;-0.01329345703125;6.8099999828064;682;100 mA
83.1285507901206;-0.84991455078125;-0.0132904052734375;6.81999998278116;683;100 mA
83.1385507900953;-0.84930419921875;-0.01328125;6.82999998275591;684;100 mA
83.1485507900701;-0.84991455078125;-0.0132720947265625;6.83999998273066;685;100 mA
83.1585507900448;-0.84930419921875;-0.013262939453125;6.84999998270541;686;100 mA
83.1685507900196;-0.849609375;-0.0132537841796875;6.85999998268016;687;100 mA
83.1785507899943;-0.84930419921875;-0.0132415771484375;6.86999998265492;688;100 mA
83.1885507899691;-0.849609375;-0.013232421875;6.87999998262967;689;100 mA
83.1985507899439;-0.8489990234375;-0.0132232666015625;6.88999998260442;690;100 mA
83.2085507899186;-0.8489990234375;-0.0132171630859375;6.89999998257917;691;100 mA
83.2185507898934;-0.849609375;-0.0132080078125;6.90999998255393;692;100 mA
83.2285507898681;-0.84930419921875;-0.0132049560546875;6.91999998252868;693;100 mA
83.2385507898429;-0.84869384765625;-0.0131988525390625;6.92999998250343;694;100 mA
83.2485507898176;-0.8489990234375;-0.01318359375;6.93999998247818;695;100 mA
83.2585507897924;-0.849609375;-0.0131805419921875;6.94999998245294;696;100 mA
83.2685507897671;-0.8489990234375;-0.0131744384765625;6.95999998242769;697;100 mA
83.2785507897419;-0.8489990234375;-0.0131622314453125;6.96999998240244;698;100 mA
83.2885507897166;-0.849609375;-0.0131591796875;6.97999998237719;699;100 mA
83.2985507896914;-0.84991455078125;-0.0131378173828125;6.98999998235195;700;100 mA
83.3085507896661;-0.84930419921875;-0.013134765625;6.9999999823267;701;100 mA
83.3185507896409;-0.84930419921875;-0.0131103515625;7.00999998230145;702;100 mA
83.3285507896156;-0.8489990234375;-0.0131072998046875;7.0199999822762;703;100 mA
83.3385507895904;-0.8489990234375;-0.013104248046875;7.02999998225096;704;100 mA
83.3485507895651;-0.84930419921875;-0.0130859375;7.03999998222571;705;100 mA
83.3585507895399;-0.8489990234375;-0.0130889892578125;7.04999998220046;706;100 mA
83.3685507895146;-0.849609375;-0.0130889892578125;7.05999998217521;707;100 mA
83.3785507894894;-0.84930419921875;-0.01307373046875;7.06999998214997;708;100 mA
83.3885507894641;-0.8489990234375;-0.0130645751953125;7.07999998212472;709;100 mA
83.3985507894389;-0.84930419921875;-0.01304931640625;7.08999998209947;710;100 mA
83.4085507894137;-0.84930419921875;-0.01304931640625;7.09999998207422;711;100 mA
83.4185507893884;-0.849609375;-0.0130340576171875;7.10999998204898;712;100 mA
83.4285507893632;-0.849609375;-0.013031005859375;7.11999998202373;713;100 mA
83.4385507893379;-0.8489990234375;-0.01302490234375;7.12999998199848;714;100 mA
83.4485507893127;-0.8489990234375;-0.0130096435546875;7.13999998197323;715;100 mA
83.4585507892874;-0.849609375;-0.01300048828125;7.14999998194799;716;100 mA
83.4685507892622;-0.849609375;-0.012994384765625;7.15999998192274;717;100 mA
83.4785507892369;-0.8489990234375;-0.0129852294921875;7.16999998189749;718;100 mA
83.4885507892117;-0.84930419921875;-0.0129791259765625;7.17999998187224;719;100 mA
83.4985507891864;-0.84930419921875;-0.0129669189453125;7.189999981847;720;100 mA
83.5085507891612;-0.84930419921875;-0.0129638671875;7.19999998182175;721;100 mA
83.5185507891359;-0.849609375;-0.012957763671875;7.2099999817965;722;100 mA
83.5285507891107;-0.849609375;-0.0129486083984375;7.21999998177125;723;100 mA
83.5385507890854;-0.8489990234375;-0.0129486083984375;7.229999981746;724;100 mA
83.5485507890602;-0.84930419921875;-0.01292724609375;7.23999998172076;725;100 mA
83.5585507890349;-0.8489990234375;-0.012933349609375;7.24999998169551;726;100 mA
83.5685507890097;-0.84869384765625;-0.012921142578125;7.25999998167026;727;100 mA
83.5785507889844;-0.8489990234375;-0.012908935546875;7.26999998164501;728;100 mA
83.5885507889592;-0.849609375;-0.0129058837890625;7.27999998161977;729;100 mA
83.5985507889339;-0.8489990234375;-0.0128875732421875;7.28999998159452;730;100 mA
83.6085507889087;-0.8489990234375;-0.0128875732421875;7.29999998156927;731;100 mA
83.6185507888835;-0.84930419921875;-0.0128662109375;7.30999998154402;732;100 mA
83.6285507888582;-0.84930419921875;-0.0128631591796875;7.31999998151878;733;100 mA
83.638550788833;-0.849609375;-0.012860107421875;7.32999998149353;734;100 mA
83.6485507888077;-0.84930419921875;-0.0128448486328125;7.33999998146828;735;100 mA
83.6585507887825;-0.8489990234375;-0.0128509521484375;7.34999998144303;736;100 mA
83.6685507887572;-0.849609375;-0.0128387451171875;7.35999998141779;737;100 mA
83.678550788732;-0.84930419921875;-0.01282958984375;7.36999998139254;738;100 mA
83.6885507887067;-0.84930419921875;-0.0128204345703125;7.37999998136729;739;100 mA
83.6985507886815;-0.84991455078125;-0.01280517578125;7.38999998134204;740;100 mA
83.7085507886562;-0.849609375;-0.012811279296875;7.3999999813168;741;100 mA
83.718550788631;-0.8489990234375;-0.01279296875;7.40999998129155;742;100 mA
83.7285507886057;-0.849609375;-0.0127899169921875;7.4199999812663;743;100 mA
83.7385507885805;-0.8489990234375;-0.0127838134765625;7.42999998124105;744;100 mA
83.7485507885552;-0.8489990234375;-0.0127716064453125;7.43999998121581;745;100 mA
83.75855078853;-0.8489990234375;-0.0127655029296875;7.44999998119056;746;100 mA
83.7685507885047;-0.849609375;-0.01275634765625;7.45999998116531;747;100 mA
83.7785507884795;-0.84930419921875;-0.0127471923828125;7.46999998114006;748;100 mA
83.7885507884542;-0.849609375;-0.0127410888671875;7.47999998111482;749;100 mA
83.798550788429;-0.849609375;-0.012725830078125;7.48999998108957;750;100 mA
83.8085507884037;-0.84930419921875;-0.01273193359375;7.49999998106432;751;100 mA
83.8185507883785;-0.8489990234375;-0.012713623046875;7.50999998103907;752;100 mA
83.8285507883533;-0.8489990234375;-0.0127197265625;7.51999998101383;753;100 mA
83.838550788328;-0.8489990234375;-0.01270751953125;7.52999998098858;754;100 mA
83.8485507883028;-0.84930419921875;-0.0126953125;7.53999998096333;755;100 mA
83.8585507882775;-0.8489990234375;-0.012701416015625;7.54999998093808;756;100 mA
83.8685507882523;-0.84930419921875;-0.0126922607421875;7.55999998091283;757;100 mA
83.878550788227;-0.8489990234375;-0.01268310546875;7.56999998088759;758;100 mA
83.8885507882018;-0.84930419921875;-0.0126708984375;7.57999998086234;759;100 mA
83.8985507881765;-0.84930419921875;-0.0126556396484375;7.58999998083709;760;100 mA
83.9085507881513;-0.849609375;-0.0126556396484375;7.59999998081184;761;100 mA
83.918550788126;-0.84930419921875;-0.01263427734375;7.6099999807866;762;100 mA
83.9285507881008;-0.8489990234375;-0.01263427734375;7.61999998076135;763;100 mA
83.9385507880755;-0.8489990234375;-0.012628173828125;7.6299999807361;764;100 mA
83.9485507880503;-0.84930419921875;-0.0126190185546875;7.63999998071085;765;100 mA
83.958550788025;-0.84930419921875;-0.0126220703125;7.64999998068561;766;100 mA
83.9685507879998;-0.8489990234375;-0.012615966796875;7.65999998066036;767;100 mA
83.9785507879745;-0.84930419921875;-0.01260986328125;7.66999998063511;768;100 mA
83.9885507879493;-0.84930419921875;-0.0125946044921875;7.67999998060986;769;100 mA
83.998550787924;-0.84930419921875;-0.0125885009765625;7.68999998058462;770;100 mA
84.0085507878988;-0.84869384765625;-0.0125885009765625;7.69999998055937;771;100 mA
84.0185507878736;-0.8489990234375;-0.012567138671875;7.70999998053412;772;100 mA
84.0285507878483;-0.8489990234375;-0.0125701904296875;7.71999998050887;773;100 mA
84.0385507878231;-0.84930419921875;-0.012554931640625;7.72999998048363;774;100 mA
84.0485507877978;-0.849609375;-0.012548828125;7.73999998045838;775;100 mA
84.0585507877726;-0.84930419921875;-0.0125457763671875;7.74999998043313;776;100 mA
84.0685507877473;-0.849609375;-0.01253662109375;7.75999998040788;777;100 mA
84.0785507877221;-0.84930419921875;-0.012530517578125;7.76999998038264;778;100 mA
84.0885507876968;-0.84930419921875;-0.012518310546875;7.77999998035739;779;100 mA
84.0985507876716;-0.849609375;-0.01251220703125;7.78999998033214;780;100 mA
84.1085507876463;-0.84930419921875;-0.0125152587890625;7.79999998030689;781;100 mA
84.1185507876211;-0.84930419921875;-0.0125;7.80999998028165;782;100 mA
84.1285507875958;-0.84930419921875;-0.0124969482421875;7.8199999802564;783;100 mA
84.1385507875706;-0.84930419921875;-0.0124847412109375;7.82999998023115;784;100 mA
84.1485507875453;-0.849609375;-0.0124786376953125;7.8399999802059;785;100 mA
84.1585507875201;-0.84930419921875;-0.0124725341796875;7.84999998018066;786;100 mA
84.1685507874948;-0.8489990234375;-0.012469482421875;7.85999998015541;787;100 mA
84.1785507874696;-0.849609375;-0.0124603271484375;7.86999998013016;788;100 mA
84.1885507874443;-0.8489990234375;-0.0124542236328125;7.87999998010491;789;100 mA
84.1985507874191;-0.84991455078125;-0.0124420166015625;7.88999998007966;790;100 mA
84.2085507873938;-0.84930419921875;-0.0124420166015625;7.89999998005442;791;100 mA
84.2185507873686;-0.849609375;-0.012420654296875;7.90999998002917;792;100 mA
84.2285507873434;-0.84930419921875;-0.0124237060546875;7.91999998000392;793;100 mA
84.2385507873181;-0.849609375;-0.01241455078125;7.92999997997867;794;100 mA
84.2485507872929;-0.84930419921875;-0.0124114990234375;7.93999997995343;795;100 mA
84.2585507872676;-0.8502197265625;-0.012408447265625;7.94999997992818;796;100 mA
84.2685507872424;-0.849609375;-0.01240234375;7.95999997990293;797;100 mA
84.2785507872171;-0.84930419921875;-0.0123931884765625;7.96999997987768;798;100 mA
84.2885507871919;-0.849609375;-0.01239013671875;7.97999997985244;799;100 mA
84.2985507871666;-0.8489990234375;-0.0123809814453125;7.98999997982719;800;100 mA
84.3085507871414;-0.84991455078125;-0.0123748779296875;7.99999997980194;801;100 mA
84.3185507871161;-0.849609375;-0.012359619140625;8.00999997977669;802;100 mA
84.3285507870909;-0.849609375;-0.012359619140625;8.01999997975145;803;100 mA
84.3385507870656;-0.8489990234375;-0.0123504638671875;8.0299999797262;804;100 mA
84.3485507870404;-0.84930419921875;-0.0123443603515625;8.03999997970095;805;100 mA
84.3585507870151;-0.849609375;-0.0123382568359375;8.0499999796757;806;100 mA
84.3685507869899;-0.84930419921875;-0.0123260498046875;8.05999997965046;807;100 mA
84.3785507869646;-0.8489990234375;-0.0123260498046875;8.06999997962521;808;100 mA
84.3885507869394;-0.84930419921875;-0.0123138427734375;8.07999997959996;809;100 mA
84.3985507869141;-0.8489990234375;-0.012310791015625;8.08999997957471;810;100 mA
84.4085507868889;-0.849609375;-0.0123077392578125;8.09999997954947;811;100 mA
84.4185507868636;-0.84930419921875;-0.0122955322265625;8.10999997952422;812;100 mA
84.4285507868384;-0.84930419921875;-0.0122894287109375;8.11999997949897;813;100 mA
84.4385507868132;-0.84930419921875;-0.0122833251953125;8.12999997947372;814;100 mA
84.4485507867879;-0.8489990234375;-0.0122711181640625;8.13999997944848;815;100 mA
84.4585507867627;-0.8489990234375;-0.012274169921875;8.14999997942323;816;100 mA
84.4685507867374;-0.84930419921875;-0.012255859375;8.15999997939798;817;100 mA
84.4785507867122;-0.84930419921875;-0.012255859375;8.16999997937273;818;100 mA
84.4885507866869;-0.84930419921875;-0.0122467041015625;8.17999997934749;819;100 mA
84.4985507866617;-0.8489990234375;-0.0122406005859375;8.18999997932224;820;100 mA
84.5085507866364;-0.8489990234375;-0.0122344970703125;8.19999997929699;821;100 mA
84.5185507866112;-0.8489990234375;-0.0122222900390625;8.20999997927174;822;100 mA
84.5285507865859;-0.8489990234375;-0.0122222900390625;8.2199999792465;823;100 mA
84.5385507865607;-0.849609375;-0.0122100830078125;8.22999997922125;824;100 mA
84.5485507865354;-0.84930419921875;-0.0122039794921875;8.239999979196;825;100 mA
84.5585507865102;-0.84930419921875;-0.01220703125;8.24999997917075;826;100 mA
84.5685507864849;-0.849609375;-0.0121917724609375;8.2599999791455;827;100 mA
84.5785507864597;-0.84930419921875;-0.012188720703125;8.26999997912026;828;100 mA
84.5885507864344;-0.849609375;-0.0121856689453125;8.27999997909501;829;100 mA
84.5985507864092;-0.84930419921875;-0.0121673583984375;8.28999997906976;830;100 mA
84.6085507863839;-0.84991455078125;-0.012176513671875;8.29999997904451;831;100 mA
84.6185507863587;-0.84991455078125;-0.012158203125;8.30999997901927;832;100 mA
84.6285507863334;-0.84930419921875;-0.012158203125;8.31999997899402;833;100 mA
84.6385507863082;-0.84930419921875;-0.0121490478515625;8.32999997896877;834;100 mA
84.648550786283;-0.849609375;-0.012139892578125;8.33999997894352;835;100 mA
84.6585507862577;-0.84930419921875;-0.0121368408203125;8.34999997891828;836;100 mA
84.6685507862325;-0.84930419921875;-0.0121246337890625;8.35999997889303;837;100 mA
84.6785507862072;-0.84930419921875;-0.01212158203125;8.36999997886778;838;100 mA
84.688550786182;-0.84930419921875;-0.0121185302734375;8.37999997884253;839;100 mA
84.6985507861567;-0.84930419921875;-0.012109375;8.38999997881729;840;100 mA
84.7085507861315;-0.84930419921875;-0.0121124267578125;8.39999997879204;841;100 mA
84.7185507861062;-0.84930419921875;-0.01209716796875;8.40999997876679;842;100 mA
84.728550786081;-0.849609375;-0.0120941162109375;8.41999997874154;843;100 mA
84.7385507860557;-0.84930419921875;-0.0120941162109375;8.4299999787163;844;100 mA
84.7485507860305;-0.84930419921875;-0.01207275390625;8.43999997869105;845;100 mA
84.7585507860052;-0.84930419921875;-0.0120819091796875;8.4499999786658;846;100 mA
84.76855078598;-0.849609375;-0.012066650390625;8.45999997864055;847;100 mA
84.7785507859547;-0.8489990234375;-0.0120635986328125;8.46999997861531;848;100 mA
84.7885507859295;-0.84991455078125;-0.012054443359375;8.47999997859006;849;100 mA
84.7985507859042;-0.849609375;-0.012042236328125;8.48999997856481;850;100 mA
84.808550785879;-0.8489990234375;-0.01204833984375;8.49999997853956;851;100 mA
84.8185507858537;-0.84869384765625;-0.0120361328125;8.50999997851432;852;100 mA
84.8285507858285;-0.849609375;-0.0120330810546875;8.51999997848907;853;100 mA
84.8385507858032;-0.849609375;-0.012030029296875;8.52999997846382;854;100 mA
84.848550785778;-0.84869384765625;-0.012017822265625;8.53999997843857;855;100 mA
84.8585507857528;-0.84930419921875;-0.01202392578125;8.54999997841333;856;100 mA
84.8685507857275;-0.849609375;-0.01199951171875;8.55999997838808;857;100 mA
84.8785507857023;-0.84930419921875;-0.0120025634765625;8.56999997836283;858;100 mA
84.888550785677;-0.8489990234375;-0.011993408203125;8.57999997833758;859;100 mA
84.8985507856518;-0.84869384765625;-0.0119842529296875;8.58999997831233;860;100 mA
84.9085507856265;-0.8502197265625;-0.011993408203125;8.59999997828709;861;100 mA
84.9185507856013;-0.8489990234375;-0.011981201171875;8.60999997826184;862;100 mA
84.928550785576;-0.84930419921875;-0.01197509765625;8.61999997823659;863;100 mA
84.9385507855508;-0.84991455078125;-0.011968994140625;8.62999997821134;864;100 mA
84.9485507855255;-0.84930419921875;-0.0119598388671875;8.6399999781861;865;100 mA
84.9585507855003;-0.8489990234375;-0.0119598388671875;8.64999997816085;866;100 mA
84.968550785475;-0.84930419921875;-0.0119415283203125;8.6599999781356;867;100 mA
84.9785507854498;-0.84930419921875;-0.0119384765625;8.66999997811035;868;100 mA
84.9885507854245;-0.84930419921875;-0.0119354248046875;8.67999997808511;869;100 mA
84.9985507853993;-0.8489990234375;-0.01192626953125;8.68999997805986;870;100 mA
85.008550785374;-0.84930419921875;-0.011932373046875;8.69999997803461;871;100 mA
85.0185507853488;-0.849609375;-0.0119171142578125;8.70999997800936;872;100 mA
85.0285507853235;-0.849609375;-0.011920166015625;8.71999997798412;873;100 mA
85.0385507852983;-0.84930419921875;-0.0119140625;8.72999997795887;874;100 mA
85.0485507852731;-0.8502197265625;-0.01190185546875;8.73999997793362;875;100 mA
85.0585507852478;-0.84930419921875;-0.0119140625;8.74999997790837;876;100 mA
85.0685507852226;-0.849609375;-0.0118896484375;8.75999997788313;877;100 mA
85.0785507851973;-0.849609375;-0.011883544921875;8.76999997785788;878;100 mA
85.0885507851721;-0.84930419921875;-0.011883544921875;8.77999997783263;879;100 mA
85.0985507851468;-0.84930419921875;-0.0118682861328125;8.78999997780738;880;100 mA
85.1085507851216;-0.84930419921875;-0.011871337890625;8.79999997778214;881;100 mA
85.1185507850963;-0.8489990234375;-0.01185302734375;8.80999997775689;882;100 mA
85.1285507850711;-0.849609375;-0.0118560791015625;8.81999997773164;883;100 mA
85.1385507850458;-0.84930419921875;-0.0118499755859375;8.82999997770639;884;100 mA
85.1485507850206;-0.8489990234375;-0.0118408203125;8.83999997768115;885;100 mA
85.1585507849953;-0.8489990234375;-0.011846923828125;8.8499999776559;886;100 mA
85.1685507849701;-0.84930419921875;-0.0118316650390625;8.85999997763065;887;100 mA
85.1785507849448;-0.84930419921875;-0.011834716796875;8.8699999776054;888;100 mA
85.1885507849196;-0.8489990234375;-0.01182861328125;8.87999997758016;889;100 mA
85.1985507848943;-0.8489990234375;-0.0118194580078125;8.88999997755491;890;100 mA
85.2085507848691;-0.8489990234375;-0.0118255615234375;8.89999997752966;891;100 mA
85.2185507848438;-0.849609375;-0.01180419921875;8.90999997750441;892;100 mA
85.2285507848186;-0.849609375;-0.01180419921875;8.91999997747916;893;100 mA
85.2385507847933;-0.849609375;-0.0117950439453125;8.92999997745392;894;100 mA
85.2485507847681;-0.84930419921875;-0.0117889404296875;8.93999997742867;895;100 mA
85.2585507847429;-0.84930419921875;-0.0117889404296875;8.94999997740342;896;100 mA
85.2685507847176;-0.849609375;-0.0117706298828125;8.95999997737817;897;100 mA
85.2785507846924;-0.849609375;-0.011773681640625;8.96999997735293;898;100 mA
85.2885507846671;-0.849609375;-0.0117645263671875;8.97999997732768;899;100 mA
85.2985507846419;-0.84991455078125;-0.011761474609375;8.98999997730243;900;100 mA
85.3085507846166;-0.84991455078125;-0.011767578125;8.99999997727718;901;100 mA
85.3185507845914;-0.84869384765625;-0.011749267578125;9.00999997725194;902;100 mA
85.3285507845661;-0.8489990234375;-0.01175537109375;9.01999997722669;903;100 mA
85.3385507845409;-0.84930419921875;-0.0117431640625;9.02999997720144;904;100 mA
85.3485507845156;-0.84930419921875;-0.0117340087890625;9.03999997717619;905;100 mA
85.3585507844904;-0.849609375;-0.0117431640625;9.04999997715095;906;100 mA
85.3685507844651;-0.849609375;-0.011724853515625;9.0599999771257;907;100 mA
85.3785507844399;-0.849609375;-0.0117218017578125;9.06999997710045;908;100 mA
85.3885507844146;-0.8489990234375;-0.011712646484375;9.0799999770752;909;100 mA
85.3985507843894;-0.8489990234375;-0.0117095947265625;9.08999997704996;910;100 mA
85.4085507843641;-0.84930419921875;-0.0117095947265625;9.09999997702471;911;100 mA
85.4185507843389;-0.84930419921875;-0.0116851806640625;9.10999997699946;912;100 mA
85.4285507843136;-0.849609375;-0.011688232421875;9.11999997697421;913;100 mA
85.4385507842884;-0.84930419921875;-0.01168212890625;9.12999997694897;914;100 mA
85.4485507842631;-0.84930419921875;-0.0116790771484375;9.13999997692372;915;100 mA
85.4585507842379;-0.849609375;-0.01168212890625;9.14999997689847;916;100 mA
85.4685507842127;-0.849609375;-0.011663818359375;9.15999997687322;917;100 mA
85.4785507841874;-0.849609375;-0.011663818359375;9.16999997684798;918;100 mA
85.4885507841622;-0.84930419921875;-0.01165771484375;9.17999997682273;919;100 mA
85.4985507841369;-0.849609375;-0.0116546630859375;9.18999997679748;920;100 mA
85.5085507841117;-0.8489990234375;-0.01165771484375;9.19999997677223;921;100 mA
85.5185507840864;-0.8489990234375;-0.0116424560546875;9.20999997674699;922;100 mA
85.5285507840612;-0.849609375;-0.0116363525390625;9.21999997672174;923;100 mA
85.5385507840359;-0.84930419921875;-0.0116302490234375;9.22999997669649;924;100 mA
85.5485507840107;-0.849609375;-0.01162109375;9.23999997667124;925;100 mA
85.5585507839854;-0.849609375;-0.0116180419921875;9.249999976646;926;100 mA
85.5685507839602;-0.84930419921875;-0.0116058349609375;9.25999997662075;927;100 mA
85.5785507839349;-0.84930419921875;-0.01160888671875;9.2699999765955;928;100 mA
85.5885507839097;-0.84930419921875;-0.0115966796875;9.27999997657025;929;100 mA
85.5985507838844;-0.84991455078125;-0.0115936279296875;9.289999976545;930;100 mA
85.6085507838592;-0.84930419921875;-0.0115966796875;9.29999997651976;931;100 mA
85.6185507838339;-0.84930419921875;-0.0115814208984375;9.30999997649451;932;100 mA
85.6285507838087;-0.84930419921875;-0.011578369140625;9.31999997646926;933;100 mA
85.6385507837834;-0.84930419921875;-0.0115753173828125;9.32999997644401;934;100 mA
85.6485507837582;-0.849609375;-0.0115692138671875;9.33999997641877;935;100 mA
85.6585507837329;-0.849609375;-0.0115753173828125;9.34999997639352;936;100 mA
85.6685507837077;-0.849609375;-0.0115570068359375;9.35999997636827;937;100 mA
85.6785507836825;-0.84991455078125;-0.011553955078125;9.36999997634302;938;100 mA
85.6885507836572;-0.84930419921875;-0.0115447998046875;9.37999997631778;939;100 mA
85.698550783632;-0.849609375;-0.0115386962890625;9.38999997629253;940;100 mA
85.7085507836067;-0.84869384765625;-0.011541748046875;9.39999997626728;941;100 mA
85.7185507835815;-0.84930419921875;-0.0115264892578125;9.40999997624203;942;100 mA
85.7285507835562;-0.849609375;-0.0115264892578125;9.41999997621679;943;100 mA
85.738550783531;-0.8489990234375;-0.0115264892578125;9.42999997619154;944;100 mA
85.7485507835057;-0.849609375;-0.0115142822265625;9.43999997616629;945;100 mA
85.7585507834805;-0.8489990234375;-0.0115203857421875;9.44999997614104;946;100 mA
85.7685507834552;-0.84930419921875;-0.0114990234375;9.4599999761158;947;100 mA
85.77855078343;-0.8489990234375;-0.0115020751953125;9.46999997609055;948;100 mA
85.7885507834047;-0.849609375;-0.0114959716796875;9.4799999760653;949;100 mA
85.7985507833795;-0.849609375;-0.0114898681640625;9.48999997604005;950;100 mA
85.8085507833542;-0.8489990234375;-0.0114898681640625;9.49999997601481;951;100 mA
85.818550783329;-0.8489990234375;-0.011480712890625;9.50999997598956;952;100 mA
85.8285507833037;-0.849609375;-0.011474609375;9.51999997596431;953;100 mA
85.8385507832785;-0.8489990234375;-0.0114715576171875;9.52999997593906;954;100 mA
85.8485507832532;-0.8489990234375;-0.01146240234375;9.53999997591382;955;100 mA
85.858550783228;-0.849609375;-0.01146240234375;9.54999997588857;956;100 mA
85.8685507832027;-0.849609375;-0.0114532470703125;9.55999997586332;957;100 mA
85.8785507831775;-0.84930419921875;-0.0114471435546875;9.56999997583807;958;100 mA
85.8885507831523;-0.84930419921875;-0.011444091796875;9.57999997581283;959;100 mA
85.898550783127;-0.8489990234375;-0.01143798828125;9.58999997578758;960;100 mA
85.9085507831018;-0.84930419921875;-0.0114410400390625;9.59999997576233;961;100 mA
85.9185507830765;-0.84991455078125;-0.01142578125;9.60999997573708;962;100 mA
85.9285507830513;-0.84991455078125;-0.0114227294921875;9.61999997571183;963;100 mA
85.938550783026;-0.8502197265625;-0.011419677734375;9.62999997568659;964;100 mA
85.9485507830008;-0.8489990234375;-0.0114105224609375;9.63999997566134;965;100 mA
85.9585507829755;-0.84930419921875;-0.0114166259765625;9.64999997563609;966;100 mA
85.9685507829503;-0.84930419921875;-0.0114044189453125;9.65999997561084;967;100 mA
85.978550782925;-0.84930419921875;-0.011395263671875;9.6699999755856;968;100 mA
85.9885507828998;-0.84869384765625;-0.0113983154296875;9.67999997556035;969;100 mA
85.9985507828745;-0.84930419921875;-0.011383056640625;9.6899999755351;970;100 mA
86.0085507828493;-0.8489990234375;-0.0113861083984375;9.69999997550985;971;100 mA
86.018550782824;-0.84991455078125;-0.011376953125;9.70999997548461;972;100 mA
86.0285507827988;-0.84930419921875;-0.0113739013671875;9.71999997545936;973;100 mA
86.0385507827735;-0.84930419921875;-0.0113739013671875;9.72999997543411;974;100 mA
86.0485507827483;-0.849609375;-0.011358642578125;9.73999997540886;975;100 mA
86.058550782723;-0.849609375;-0.01136474609375;9.74999997538362;976;100 mA
86.0685507826978;-0.84930419921875;-0.011346435546875;9.75999997535837;977;100 mA
86.0785507826726;-0.849609375;-0.011346435546875;9.76999997533312;978;100 mA
86.0885507826473;-0.84869384765625;-0.011346435546875;9.77999997530787;979;100 mA
86.0985507826221;-0.8489990234375;-0.0113372802734375;9.78999997528263;980;100 mA
86.1085507825968;-0.8489990234375;-0.01134033203125;9.79999997525738;981;100 mA
86.1185507825716;-0.84930419921875;-0.0113311767578125;9.80999997523213;982;100 mA
86.1285507825463;-0.84930419921875;-0.011322021484375;9.81999997520688;983;100 mA
86.1385507825211;-0.84930419921875;-0.0113250732421875;9.82999997518164;984;100 mA
86.1485507824958;-0.84930419921875;-0.0113067626953125;9.83999997515639;985;100 mA
86.1585507824706;-0.8489990234375;-0.01131591796875;9.84999997513114;986;100 mA
86.1685507824453;-0.84930419921875;-0.0113006591796875;9.85999997510589;987;100 mA
86.1785507824201;-0.84930419921875;-0.011297607421875;9.86999997508065;988;100 mA
86.1885507823948;-0.8489990234375;-0.011297607421875;9.8799999750554;989;100 mA
86.1985507823696;-0.849609375;-0.011285400390625;9.88999997503015;990;100 mA
86.2085507823443;-0.8489990234375;-0.011285400390625;9.8999999750049;991;100 mA
86.2185507823191;-0.84930419921875;-0.0112823486328125;9.90999997497966;992;100 mA
86.2285507822938;-0.84930419921875;-0.011273193359375;9.91999997495441;993;100 mA
86.2385507822686;-0.849609375;-0.0112762451171875;9.92999997492916;994;100 mA
86.2485507822433;-0.849609375;-0.011260986328125;9.93999997490391;995;100 mA
86.2585507822181;-0.84930419921875;-0.01126708984375;9.94999997487866;996;100 mA
86.2685507821928;-0.8489990234375;-0.0112579345703125;9.95999997485342;997;100 mA
86.2785507821676;-0.8489990234375;-0.011248779296875;9.96999997482817;998;100 mA
86.2885507821424;-0.84930419921875;-0.011248779296875;9.97999997480292;999;100 mA
86.2985507821171;-0.84930419921875;-0.0112396240234375;9.98999997477767;1000;100 mA
