Time (s);WE(1).Potential (V);WE(1).Current (A);Corrected time (s);Index;Current range
147.66974662717;-0.9002685546875;-0.312957763671875;0;1;100 mA
147.679746627144;-0.899658203125;-0.231201171875;0.00999999997475243;2;100 mA
147.689746627119;-0.899658203125;-0.191650390625;0.0199999999495049;3;100 mA
147.699746627094;-0.89935302734375;-0.167144775390625;0.0299999999242573;4;100 mA
147.709746627069;-0.899658203125;-0.150115966796875;0.0399999998990097;5;100 mA
147.719746627043;-0.89935302734375;-0.137420654296875;0.0499999998737621;6;100 mA
147.729746627018;-0.899658203125;-0.127471923828125;0.0599999998485146;7;100 mA
147.739746626993;-0.89935302734375;-0.119384765625;0.069999999823267;8;100 mA
147.749746626968;-0.89935302734375;-0.1126708984375;0.0799999997980194;9;100 mA
147.759746626943;-0.89935302734375;-0.106964111328125;0.0899999997727718;10;100 mA
147.769746626917;-0.89935302734375;-0.10205078125;0.0999999997475243;11;100 mA
147.779746626892;-0.8990478515625;-0.09771728515625;0.109999999722277;12;100 mA
147.789746626867;-0.89935302734375;-0.09393310546875;0.119999999697029;13;100 mA
147.799746626842;-0.89935302734375;-0.090545654296875;0.129999999671782;14;100 mA
147.809746626816;-0.899658203125;-0.087493896484375;0.139999999646534;15;100 mA
147.819746626791;-0.899658203125;-0.084747314453125;0.149999999621286;16;100 mA
147.829746626766;-0.89996337890625;-0.08221435546875;0.159999999596039;17;100 mA
147.839746626741;-0.89935302734375;-0.07989501953125;0.169999999570791;18;100 mA
147.849746626715;-0.899658203125;-0.077789306640625;0.179999999545544;19;100 mA
147.85974662669;-0.89935302734375;-0.075836181640625;0.189999999520296;20;100 mA
147.869746626665;-0.8990478515625;-0.074005126953125;0.199999999495049;21;100 mA
147.87974662664;-0.89935302734375;-0.072296142578125;0.209999999469801;22;100 mA
147.889746626614;-0.8990478515625;-0.07073974609375;0.219999999444553;23;100 mA
147.899746626589;-0.89935302734375;-0.069244384765625;0.229999999419306;24;100 mA
147.909746626564;-0.89935302734375;-0.067840576171875;0.239999999394058;25;100 mA
147.919746626539;-0.89935302734375;-0.0665283203125;0.249999999368811;26;100 mA
147.929746626513;-0.8990478515625;-0.065277099609375;0.259999999343563;27;100 mA
147.939746626488;-0.89935302734375;-0.064117431640625;0.269999999318316;28;100 mA
147.949746626463;-0.8990478515625;-0.063018798828125;0.279999999293068;29;100 mA
147.959746626438;-0.899658203125;-0.06195068359375;0.28999999926782;30;100 mA
147.969746626412;-0.89935302734375;-0.060943603515625;0.299999999242573;31;100 mA
147.979746626387;-0.89935302734375;-0.059967041015625;0.309999999217325;32;100 mA
147.989746626362;-0.8990478515625;-0.059051513671875;0.319999999192078;33;100 mA
147.999746626337;-0.89935302734375;-0.05816650390625;0.32999999916683;34;100 mA
148.009746626311;-0.8990478515625;-0.057342529296875;0.339999999141583;35;100 mA
148.019746626286;-0.89935302734375;-0.056549072265625;0.349999999116335;36;100 mA
148.029746626261;-0.899658203125;-0.0557861328125;0.359999999091087;37;100 mA
148.039746626236;-0.89935302734375;-0.0550537109375;0.36999999906584;38;100 mA
148.04974662621;-0.899658203125;-0.0543212890625;0.379999999040592;39;100 mA
148.059746626185;-0.899658203125;-0.053619384765625;0.389999999015345;40;100 mA
148.06974662616;-0.89874267578125;-0.053009033203125;0.399999998990097;41;100 mA
148.079746626135;-0.899658203125;-0.052337646484375;0.40999999896485;42;100 mA
148.089746626109;-0.899658203125;-0.0517578125;0.419999998939602;43;100 mA
148.099746626084;-0.899658203125;-0.0511474609375;0.429999998914354;44;100 mA
148.109746626059;-0.899658203125;-0.050567626953125;0.439999998889107;45;100 mA
148.119746626034;-0.89935302734375;-0.050048828125;0.449999998863859;46;100 mA
148.129746626008;-0.89935302734375;-0.0494842529296875;0.459999998838612;47;100 mA
148.139746625983;-0.89874267578125;-0.0489715576171875;0.469999998813364;48;100 mA
148.149746625958;-0.89935302734375;-0.04847412109375;0.479999998788116;49;100 mA
148.159746625933;-0.8990478515625;-0.04798583984375;0.489999998762869;50;100 mA
148.169746625907;-0.8990478515625;-0.047528076171875;0.499999998737621;51;100 mA
148.179746625882;-0.899658203125;-0.0470489501953125;0.509999998712374;52;100 mA
148.189746625857;-0.89935302734375;-0.0466094970703125;0.519999998687126;53;100 mA
148.199746625832;-0.89874267578125;-0.0461700439453125;0.529999998661879;54;100 mA
148.209746625806;-0.899658203125;-0.045745849609375;0.539999998636631;55;100 mA
148.219746625781;-0.89935302734375;-0.045343017578125;0.549999998611383;56;100 mA
148.229746625756;-0.89996337890625;-0.0449432373046875;0.559999998586136;57;100 mA
148.239746625731;-0.899658203125;-0.04456787109375;0.569999998560888;58;100 mA
148.249746625705;-0.89996337890625;-0.044183349609375;0.579999998535641;59;100 mA
148.25974662568;-0.89935302734375;-0.0438140869140625;0.589999998510393;60;100 mA
148.269746625655;-0.89935302734375;-0.0434539794921875;0.599999998485146;61;100 mA
148.27974662563;-0.89996337890625;-0.0430999755859375;0.609999998459898;62;100 mA
148.289746625604;-0.89935302734375;-0.04276123046875;0.61999999843465;63;100 mA
148.299746625579;-0.8990478515625;-0.042431640625;0.629999998409403;64;100 mA
148.309746625554;-0.89935302734375;-0.04210205078125;0.639999998384155;65;100 mA
148.319746625529;-0.89874267578125;-0.0417938232421875;0.649999998358908;66;100 mA
148.329746625503;-0.89935302734375;-0.041473388671875;0.65999999833366;67;100 mA
148.339746625478;-0.8990478515625;-0.04117431640625;0.669999998308413;68;100 mA
148.349746625453;-0.89935302734375;-0.0408599853515625;0.679999998283165;69;100 mA
148.359746625428;-0.899658203125;-0.0405731201171875;0.689999998257917;70;100 mA
148.369746625402;-0.899658203125;-0.0402923583984375;0.69999999823267;71;100 mA
148.379746625377;-0.89874267578125;-0.040008544921875;0.709999998207422;72;100 mA
148.389746625352;-0.899658203125;-0.039739990234375;0.719999998182175;73;100 mA
148.399746625327;-0.89935302734375;-0.039471435546875;0.729999998156927;74;100 mA
148.409746625301;-0.89996337890625;-0.039208984375;0.73999999813168;75;100 mA
148.419746625276;-0.8990478515625;-0.038970947265625;0.749999998106432;76;100 mA
148.429746625251;-0.899658203125;-0.0387054443359375;0.759999998081184;77;100 mA
148.439746625226;-0.899658203125;-0.0384613037109375;0.769999998055937;78;100 mA
148.4497466252;-0.8990478515625;-0.0382232666015625;0.779999998030689;79;100 mA
148.459746625175;-0.899658203125;-0.0379791259765625;0.789999998005442;80;100 mA
148.46974662515;-0.899658203125;-0.0377532958984375;0.799999997980194;81;100 mA
148.479746625125;-0.89935302734375;-0.037518310546875;0.809999997954947;82;100 mA
148.489746625099;-0.899658203125;-0.0372833251953125;0.819999997929699;83;100 mA
148.499746625074;-0.8990478515625;-0.037066650390625;0.829999997904451;84;100 mA
148.509746625049;-0.899658203125;-0.0368377685546875;0.839999997879204;85;100 mA
148.519746625024;-0.89935302734375;-0.03663330078125;0.849999997853956;86;100 mA
148.529746624998;-0.8990478515625;-0.0364227294921875;0.859999997828709;87;100 mA
148.539746624973;-0.89874267578125;-0.0362091064453125;0.869999997803461;88;100 mA
148.549746624948;-0.899658203125;-0.0360260009765625;0.879999997778214;89;100 mA
148.559746624923;-0.89935302734375;-0.0358184814453125;0.889999997752966;90;100 mA
148.569746624897;-0.89996337890625;-0.0356353759765625;0.899999997727718;91;100 mA
148.579746624872;-0.899658203125;-0.0354278564453125;0.909999997702471;92;100 mA
148.589746624847;-0.89935302734375;-0.03524169921875;0.919999997677223;93;100 mA
148.599746624822;-0.89935302734375;-0.0350555419921875;0.929999997651976;94;100 mA
148.609746624796;-0.899658203125;-0.034869384765625;0.939999997626728;95;100 mA
148.619746624771;-0.89935302734375;-0.034698486328125;0.949999997601481;96;100 mA
148.629746624746;-0.899658203125;-0.034515380859375;0.959999997576233;97;100 mA
148.639746624721;-0.8990478515625;-0.034332275390625;0.969999997550985;98;100 mA
148.649746624695;-0.899658203125;-0.0341583251953125;0.979999997525738;99;100 mA
148.65974662467;-0.8990478515625;-0.033990478515625;0.98999999750049;100;100 mA
148.669746624645;-0.899658203125;-0.0338226318359375;0.999999997475243;101;100 mA
148.67974662462;-0.89935302734375;-0.0336517333984375;1.00999999745;102;100 mA
148.689746624594;-0.899658203125;-0.03349609375;1.01999999742475;103;100 mA
148.699746624569;-0.8990478515625;-0.0333343505859375;1.0299999973995;104;100 mA
148.709746624544;-0.899658203125;-0.03316650390625;1.03999999737425;105;100 mA
148.719746624519;-0.89935302734375;-0.0330291748046875;1.049999997349;106;100 mA
148.729746624493;-0.8990478515625;-0.0328704833984375;1.05999999732376;107;100 mA
148.739746624468;-0.899658203125;-0.0327301025390625;1.06999999729851;108;100 mA
148.749746624443;-0.89935302734375;-0.0325714111328125;1.07999999727326;109;100 mA
148.759746624418;-0.89935302734375;-0.032427978515625;1.08999999724801;110;100 mA
148.769746624392;-0.8990478515625;-0.03228759765625;1.09999999722277;111;100 mA
148.779746624367;-0.8990478515625;-0.032135009765625;1.10999999719752;112;100 mA
148.789746624342;-0.89935302734375;-0.031988525390625;1.11999999717227;113;100 mA
148.799746624317;-0.89935302734375;-0.031854248046875;1.12999999714702;114;100 mA
148.809746624292;-0.8990478515625;-0.0317047119140625;1.13999999712178;115;100 mA
148.819746624266;-0.89935302734375;-0.0315826416015625;1.14999999709653;116;100 mA
148.829746624241;-0.89935302734375;-0.0314361572265625;1.15999999707128;117;100 mA
148.839746624216;-0.899658203125;-0.0313140869140625;1.16999999704603;118;100 mA
148.849746624191;-0.89935302734375;-0.0311798095703125;1.17999999702079;119;100 mA
148.859746624165;-0.89935302734375;-0.0310394287109375;1.18999999699554;120;100 mA
148.86974662414;-0.899658203125;-0.0309234619140625;1.19999999697029;121;100 mA
148.879746624115;-0.899658203125;-0.0307952880859375;1.20999999694504;122;100 mA
148.88974662409;-0.899658203125;-0.03067626953125;1.2199999969198;123;100 mA
148.899746624064;-0.89935302734375;-0.03055419921875;1.22999999689455;124;100 mA
148.909746624039;-0.89935302734375;-0.0304229736328125;1.2399999968693;125;100 mA
148.919746624014;-0.89935302734375;-0.0303131103515625;1.24999999684405;126;100 mA
148.929746623989;-0.89935302734375;-0.03018798828125;1.25999999681881;127;100 mA
148.939746623963;-0.899658203125;-0.0300750732421875;1.26999999679356;128;100 mA
148.949746623938;-0.89996337890625;-0.0299591064453125;1.27999999676831;129;100 mA
148.959746623913;-0.899658203125;-0.029840087890625;1.28999999674306;130;100 mA
148.969746623888;-0.89996337890625;-0.0297332763671875;1.29999999671782;131;100 mA
148.979746623862;-0.8990478515625;-0.0296112060546875;1.30999999669257;132;100 mA
148.989746623837;-0.899658203125;-0.0295135498046875;1.31999999666732;133;100 mA
148.999746623812;-0.89935302734375;-0.029400634765625;1.32999999664207;134;100 mA
149.009746623787;-0.89996337890625;-0.0292877197265625;1.33999999661683;135;100 mA
149.019746623761;-0.89935302734375;-0.0291839599609375;1.34999999659158;136;100 mA
149.029746623736;-0.89935302734375;-0.029071044921875;1.35999999656633;137;100 mA
149.039746623711;-0.89935302734375;-0.0289703369140625;1.36999999654108;138;100 mA
149.049746623686;-0.89935302734375;-0.0288665771484375;1.37999999651583;139;100 mA
149.05974662366;-0.899658203125;-0.0287628173828125;1.38999999649059;140;100 mA
149.069746623635;-0.89935302734375;-0.0286651611328125;1.39999999646534;141;100 mA
149.07974662361;-0.89935302734375;-0.028558349609375;1.40999999644009;142;100 mA
149.089746623585;-0.899658203125;-0.028460693359375;1.41999999641484;143;100 mA
149.099746623559;-0.8990478515625;-0.028369140625;1.4299999963896;144;100 mA
149.109746623534;-0.899658203125;-0.0282623291015625;1.43999999636435;145;100 mA
149.119746623509;-0.89874267578125;-0.028179931640625;1.4499999963391;146;100 mA
149.129746623484;-0.899658203125;-0.028070068359375;1.45999999631385;147;100 mA
149.139746623458;-0.899658203125;-0.027984619140625;1.46999999628861;148;100 mA
149.149746623433;-0.89935302734375;-0.0278900146484375;1.47999999626336;149;100 mA
149.159746623408;-0.8990478515625;-0.02779541015625;1.48999999623811;150;100 mA
149.169746623383;-0.89935302734375;-0.0277069091796875;1.49999999621286;151;100 mA
149.179746623357;-0.89935302734375;-0.0276092529296875;1.50999999618762;152;100 mA
149.189746623332;-0.8990478515625;-0.0275238037109375;1.51999999616237;153;100 mA
149.199746623307;-0.89996337890625;-0.027435302734375;1.52999999613712;154;100 mA
149.209746623282;-0.8990478515625;-0.0273468017578125;1.53999999611187;155;100 mA
149.219746623256;-0.8990478515625;-0.027264404296875;1.54999999608663;156;100 mA
149.229746623231;-0.8990478515625;-0.0271697998046875;1.55999999606138;157;100 mA
149.239746623206;-0.8990478515625;-0.02708740234375;1.56999999603613;158;100 mA
149.249746623181;-0.899658203125;-0.027008056640625;1.57999999601088;159;100 mA
149.259746623155;-0.89996337890625;-0.02691650390625;1.58999999598564;160;100 mA
149.26974662313;-0.899658203125;-0.0268463134765625;1.59999999596039;161;100 mA
149.279746623105;-0.899658203125;-0.0267486572265625;1.60999999593514;162;100 mA
149.28974662308;-0.89935302734375;-0.0266754150390625;1.61999999590989;163;100 mA
149.299746623054;-0.89935302734375;-0.0265960693359375;1.62999999588465;164;100 mA
149.309746623029;-0.89935302734375;-0.0265106201171875;1.6399999958594;165;100 mA
149.319746623004;-0.899658203125;-0.0264434814453125;1.64999999583415;166;100 mA
149.329746622979;-0.8990478515625;-0.0263519287109375;1.6599999958089;167;100 mA
149.339746622953;-0.8990478515625;-0.02628173828125;1.66999999578366;168;100 mA
149.349746622928;-0.89935302734375;-0.026202392578125;1.67999999575841;169;100 mA
149.359746622903;-0.89935302734375;-0.026123046875;1.68999999573316;170;100 mA
149.369746622878;-0.899658203125;-0.026055908203125;1.69999999570791;171;100 mA
149.379746622852;-0.89935302734375;-0.02596435546875;1.70999999568267;172;100 mA
149.389746622827;-0.89935302734375;-0.0259063720703125;1.71999999565742;173;100 mA
149.399746622802;-0.8990478515625;-0.0258270263671875;1.72999999563217;174;100 mA
149.409746622777;-0.89996337890625;-0.0257568359375;1.73999999560692;175;100 mA
149.419746622751;-0.8990478515625;-0.0256927490234375;1.74999999558167;176;100 mA
149.429746622726;-0.89935302734375;-0.0256072998046875;1.75999999555643;177;100 mA
149.439746622701;-0.8990478515625;-0.025543212890625;1.76999999553118;178;100 mA
149.449746622676;-0.899658203125;-0.025469970703125;1.77999999550593;179;100 mA
149.45974662265;-0.89935302734375;-0.0253997802734375;1.78999999548068;180;100 mA
149.469746622625;-0.899658203125;-0.0253387451171875;1.79999999545544;181;100 mA
149.4797466226;-0.899658203125;-0.02525634765625;1.80999999543019;182;100 mA
149.489746622575;-0.8990478515625;-0.0251983642578125;1.81999999540494;183;100 mA
149.499746622549;-0.899658203125;-0.0251220703125;1.82999999537969;184;100 mA
149.509746622524;-0.899658203125;-0.0250579833984375;1.83999999535445;185;100 mA
149.519746622499;-0.89935302734375;-0.024993896484375;1.8499999953292;186;100 mA
149.529746622474;-0.899658203125;-0.0249176025390625;1.85999999530395;187;100 mA
149.539746622448;-0.8984375;-0.0248626708984375;1.8699999952787;188;100 mA
149.549746622423;-0.89996337890625;-0.02479248046875;1.87999999525346;189;100 mA
149.559746622398;-0.89996337890625;-0.0247344970703125;1.88999999522821;190;100 mA
149.569746622373;-0.89996337890625;-0.02467041015625;1.89999999520296;191;100 mA
149.579746622347;-0.89935302734375;-0.0246002197265625;1.90999999517771;192;100 mA
149.589746622322;-0.89935302734375;-0.0245452880859375;1.91999999515247;193;100 mA
149.599746622297;-0.89935302734375;-0.0244781494140625;1.92999999512722;194;100 mA
149.609746622272;-0.89935302734375;-0.0244140625;1.93999999510197;195;100 mA
149.619746622246;-0.89935302734375;-0.0243560791015625;1.94999999507672;196;100 mA
149.629746622221;-0.89935302734375;-0.024285888671875;1.95999999505148;197;100 mA
149.639746622196;-0.89935302734375;-0.02423095703125;1.96999999502623;198;100 mA
149.649746622171;-0.89874267578125;-0.024163818359375;1.97999999500098;199;100 mA
149.659746622145;-0.89935302734375;-0.02410888671875;1.98999999497573;200;100 mA
149.66974662212;-0.899658203125;-0.0240447998046875;1.99999999495049;201;100 mA
149.679746622095;-0.89935302734375;-0.02398681640625;2.00999999492524;202;100 mA
149.68974662207;-0.89935302734375;-0.0239227294921875;2.01999999489999;203;100 mA
149.699746622044;-0.89935302734375;-0.0238677978515625;2.02999999487474;204;100 mA
149.709746622019;-0.89935302734375;-0.0238128662109375;2.0399999948495;205;100 mA
149.719746621994;-0.89935302734375;-0.0237579345703125;2.04999999482425;206;100 mA
149.729746621969;-0.8990478515625;-0.0237030029296875;2.059999994799;207;100 mA
149.739746621943;-0.89874267578125;-0.02364501953125;2.06999999477375;208;100 mA
149.749746621918;-0.8990478515625;-0.023583984375;2.0799999947485;209;100 mA
149.759746621893;-0.89935302734375;-0.02352294921875;2.08999999472326;210;100 mA
149.769746621868;-0.89935302734375;-0.02347412109375;2.09999999469801;211;100 mA
149.779746621842;-0.89935302734375;-0.0234100341796875;2.10999999467276;212;100 mA
149.789746621817;-0.89935302734375;-0.0233642578125;2.11999999464751;213;100 mA
149.799746621792;-0.89935302734375;-0.02330322265625;2.12999999462227;214;100 mA
149.809746621767;-0.89935302734375;-0.0232421875;2.13999999459702;215;100 mA
149.819746621742;-0.899658203125;-0.0231964111328125;2.14999999457177;216;100 mA
149.829746621716;-0.8990478515625;-0.0231292724609375;2.15999999454652;217;100 mA
149.839746621691;-0.89935302734375;-0.0230865478515625;2.16999999452128;218;100 mA
149.849746621666;-0.8990478515625;-0.02303466796875;2.17999999449603;219;100 mA
149.859746621641;-0.89935302734375;-0.022979736328125;2.18999999447078;220;100 mA
149.869746621615;-0.89874267578125;-0.02293701171875;2.19999999444553;221;100 mA
149.87974662159;-0.89935302734375;-0.0228729248046875;2.20999999442029;222;100 mA
149.889746621565;-0.899658203125;-0.022833251953125;2.21999999439504;223;100 mA
149.89974662154;-0.8990478515625;-0.022784423828125;2.22999999436979;224;100 mA
149.909746621514;-0.8990478515625;-0.0227325439453125;2.23999999434454;225;100 mA
149.919746621489;-0.899658203125;-0.022686767578125;2.2499999943193;226;100 mA
149.929746621464;-0.89935302734375;-0.0226287841796875;2.25999999429405;227;100 mA
149.939746621439;-0.899658203125;-0.0225860595703125;2.2699999942688;228;100 mA
149.949746621413;-0.89935302734375;-0.0225341796875;2.27999999424355;229;100 mA
149.959746621388;-0.899658203125;-0.022479248046875;2.28999999421831;230;100 mA
149.969746621363;-0.899658203125;-0.0224365234375;2.29999999419306;231;100 mA
149.979746621338;-0.8990478515625;-0.02237548828125;2.30999999416781;232;100 mA
149.989746621312;-0.89935302734375;-0.0223419189453125;2.31999999414256;233;100 mA
149.999746621287;-0.8990478515625;-0.022296142578125;2.32999999411732;234;100 mA
150.009746621262;-0.899658203125;-0.022247314453125;2.33999999409207;235;100 mA
150.019746621237;-0.899658203125;-0.02220458984375;2.34999999406682;236;100 mA
150.029746621211;-0.89935302734375;-0.02215576171875;2.35999999404157;237;100 mA
150.039746621186;-0.899658203125;-0.022113037109375;2.36999999401633;238;100 mA
150.049746621161;-0.899658203125;-0.022064208984375;2.37999999399108;239;100 mA
150.059746621136;-0.89935302734375;-0.022015380859375;2.38999999396583;240;100 mA
150.06974662111;-0.89935302734375;-0.0219757080078125;2.39999999394058;241;100 mA
150.079746621085;-0.899658203125;-0.021923828125;2.40999999391533;242;100 mA
150.08974662106;-0.899658203125;-0.0218902587890625;2.41999999389009;243;100 mA
150.099746621035;-0.8990478515625;-0.0218414306640625;2.42999999386484;244;100 mA
150.109746621009;-0.8990478515625;-0.0217864990234375;2.43999999383959;245;100 mA
150.119746620984;-0.89935302734375;-0.0217498779296875;2.44999999381434;246;100 mA
150.129746620959;-0.89996337890625;-0.0216949462890625;2.4599999937891;247;100 mA
150.139746620934;-0.89935302734375;-0.021661376953125;2.46999999376385;248;100 mA
150.149746620908;-0.89935302734375;-0.0216217041015625;2.4799999937386;249;100 mA
150.159746620883;-0.899658203125;-0.021575927734375;2.48999999371335;250;100 mA
150.169746620858;-0.899658203125;-0.02154541015625;2.49999999368811;251;100 mA
150.179746620833;-0.899658203125;-0.0214935302734375;2.50999999366286;252;100 mA
150.189746620807;-0.89935302734375;-0.0214508056640625;2.51999999363761;253;100 mA
150.199746620782;-0.89935302734375;-0.021405029296875;2.52999999361236;254;100 mA
150.209746620757;-0.89935302734375;-0.0213592529296875;2.53999999358712;255;100 mA
150.219746620732;-0.89935302734375;-0.02132568359375;2.54999999356187;256;100 mA
150.229746620706;-0.899658203125;-0.0212799072265625;2.55999999353662;257;100 mA
150.239746620681;-0.89935302734375;-0.0212432861328125;2.56999999351137;258;100 mA
150.249746620656;-0.8990478515625;-0.0212066650390625;2.57999999348613;259;100 mA
150.259746620631;-0.89935302734375;-0.021160888671875;2.58999999346088;260;100 mA
150.269746620605;-0.89935302734375;-0.0211212158203125;2.59999999343563;261;100 mA
150.27974662058;-0.899658203125;-0.021075439453125;2.60999999341038;262;100 mA
150.289746620555;-0.8990478515625;-0.0210357666015625;2.61999999338514;263;100 mA
150.29974662053;-0.89935302734375;-0.021002197265625;2.62999999335989;264;100 mA
150.309746620504;-0.8990478515625;-0.02095947265625;2.63999999333464;265;100 mA
150.319746620479;-0.8990478515625;-0.0209381103515625;2.64999999330939;266;100 mA
150.329746620454;-0.899658203125;-0.0208892822265625;2.65999999328415;267;100 mA
150.339746620429;-0.89935302734375;-0.0208526611328125;2.6699999932589;268;100 mA
150.349746620403;-0.89935302734375;-0.0208160400390625;2.67999999323365;269;100 mA
150.359746620378;-0.899658203125;-0.0207672119140625;2.6899999932084;270;100 mA
150.369746620353;-0.89935302734375;-0.0207366943359375;2.69999999318316;271;100 mA
150.379746620328;-0.8990478515625;-0.02069091796875;2.70999999315791;272;100 mA
150.389746620302;-0.89935302734375;-0.0206634521484375;2.71999999313266;273;100 mA
150.399746620277;-0.899658203125;-0.0206268310546875;2.72999999310741;274;100 mA
150.409746620252;-0.89935302734375;-0.0205780029296875;2.73999999308217;275;100 mA
150.419746620227;-0.89935302734375;-0.020550537109375;2.74999999305692;276;100 mA
150.429746620201;-0.8990478515625;-0.02049560546875;2.75999999303167;277;100 mA
150.439746620176;-0.89935302734375;-0.020465087890625;2.76999999300642;278;100 mA
150.449746620151;-0.8990478515625;-0.0204345703125;2.77999999298117;279;100 mA
150.459746620126;-0.899658203125;-0.02039794921875;2.78999999295593;280;100 mA
150.4697466201;-0.8990478515625;-0.02037353515625;2.79999999293068;281;100 mA
150.479746620075;-0.899658203125;-0.0203338623046875;2.80999999290543;282;100 mA
150.48974662005;-0.89935302734375;-0.0203033447265625;2.81999999288018;283;100 mA
150.499746620025;-0.89935302734375;-0.020263671875;2.82999999285494;284;100 mA
150.509746619999;-0.89935302734375;-0.02022705078125;2.83999999282969;285;100 mA
150.519746619974;-0.899658203125;-0.02020263671875;2.84999999280444;286;100 mA
150.529746619949;-0.89935302734375;-0.02015380859375;2.85999999277919;287;100 mA
150.539746619924;-0.899658203125;-0.02012939453125;2.86999999275395;288;100 mA
150.549746619898;-0.89935302734375;-0.020098876953125;2.8799999927287;289;100 mA
150.559746619873;-0.89935302734375;-0.02005615234375;2.88999999270345;290;100 mA
150.569746619848;-0.899658203125;-0.020025634765625;2.8999999926782;291;100 mA
150.579746619823;-0.8990478515625;-0.0199737548828125;2.90999999265296;292;100 mA
150.589746619797;-0.899658203125;-0.0199493408203125;2.91999999262771;293;100 mA
150.599746619772;-0.89935302734375;-0.019921875;2.92999999260246;294;100 mA
150.609746619747;-0.899658203125;-0.01988525390625;2.93999999257721;295;100 mA
150.619746619722;-0.89935302734375;-0.01986083984375;2.94999999255197;296;100 mA
150.629746619696;-0.8990478515625;-0.0198211669921875;2.95999999252672;297;100 mA
150.639746619671;-0.899658203125;-0.0197967529296875;2.96999999250147;298;100 mA
150.649746619646;-0.89935302734375;-0.0197601318359375;2.97999999247622;299;100 mA
150.659746619621;-0.8990478515625;-0.0197265625;2.98999999245098;300;100 mA
150.669746619595;-0.899658203125;-0.0196990966796875;2.99999999242573;301;100 mA
150.67974661957;-0.89874267578125;-0.0196563720703125;3.00999999240048;302;100 mA
150.689746619545;-0.89935302734375;-0.0196319580078125;3.01999999237523;303;100 mA
150.69974661952;-0.89935302734375;-0.0196044921875;3.02999999234999;304;100 mA
150.709746619494;-0.899658203125;-0.01956787109375;3.03999999232474;305;100 mA
150.719746619469;-0.899658203125;-0.0195404052734375;3.04999999229949;306;100 mA
150.729746619444;-0.8990478515625;-0.01949462890625;3.05999999227424;307;100 mA
150.739746619419;-0.89935302734375;-0.0194671630859375;3.069999992249;308;100 mA
150.749746619393;-0.89935302734375;-0.0194366455078125;3.07999999222375;309;100 mA
150.759746619368;-0.8990478515625;-0.019403076171875;3.0899999921985;310;100 mA
150.769746619343;-0.8990478515625;-0.019384765625;3.09999999217325;311;100 mA
150.779746619318;-0.899658203125;-0.01934814453125;3.109999992148;312;100 mA
150.789746619292;-0.8990478515625;-0.01932373046875;3.11999999212276;313;100 mA
150.799746619267;-0.899658203125;-0.01929931640625;3.12999999209751;314;100 mA
150.809746619242;-0.8990478515625;-0.019256591796875;3.13999999207226;315;100 mA
150.819746619217;-0.89935302734375;-0.0192352294921875;3.14999999204701;316;100 mA
150.829746619191;-0.89874267578125;-0.0191925048828125;3.15999999202177;317;100 mA
150.839746619166;-0.89935302734375;-0.019171142578125;3.16999999199652;318;100 mA
150.849746619141;-0.89935302734375;-0.0191375732421875;3.17999999197127;319;100 mA
150.859746619116;-0.89935302734375;-0.0191070556640625;3.18999999194602;320;100 mA
150.869746619091;-0.8990478515625;-0.0190826416015625;3.19999999192078;321;100 mA
150.879746619065;-0.899658203125;-0.0190460205078125;3.20999999189553;322;100 mA
150.88974661904;-0.89874267578125;-0.0190155029296875;3.21999999187028;323;100 mA
150.899746619015;-0.8990478515625;-0.018994140625;3.22999999184503;324;100 mA
150.90974661899;-0.89935302734375;-0.018963623046875;3.23999999181979;325;100 mA
150.919746618964;-0.89996337890625;-0.0189453125;3.24999999179454;326;100 mA
150.929746618939;-0.89874267578125;-0.018902587890625;3.25999999176929;327;100 mA
150.939746618914;-0.89935302734375;-0.0188873291015625;3.26999999174404;328;100 mA
150.949746618889;-0.8990478515625;-0.0188568115234375;3.2799999917188;329;100 mA
150.959746618863;-0.89935302734375;-0.0188262939453125;3.28999999169355;330;100 mA
150.969746618838;-0.89935302734375;-0.0188079833984375;3.2999999916683;331;100 mA
150.979746618813;-0.89935302734375;-0.0187713623046875;3.30999999164305;332;100 mA
150.989746618788;-0.899658203125;-0.018743896484375;3.31999999161781;333;100 mA
150.999746618762;-0.899658203125;-0.0187164306640625;3.32999999159256;334;100 mA
151.009746618737;-0.89935302734375;-0.0186859130859375;3.33999999156731;335;100 mA
151.019746618712;-0.89935302734375;-0.018670654296875;3.34999999154206;336;100 mA
151.029746618687;-0.899658203125;-0.018634033203125;3.35999999151682;337;100 mA
151.039746618661;-0.89935302734375;-0.018609619140625;3.36999999149157;338;100 mA
151.049746618636;-0.899658203125;-0.0185791015625;3.37999999146632;339;100 mA
151.059746618611;-0.899658203125;-0.018548583984375;3.38999999144107;340;100 mA
151.069746618586;-0.89935302734375;-0.0185302734375;3.39999999141583;341;100 mA
151.07974661856;-0.899658203125;-0.01849365234375;3.40999999139058;342;100 mA
151.089746618535;-0.89935302734375;-0.01846923828125;3.41999999136533;343;100 mA
151.09974661851;-0.89874267578125;-0.018450927734375;3.42999999134008;344;100 mA
151.109746618485;-0.89996337890625;-0.0184173583984375;3.43999999131483;345;100 mA
151.119746618459;-0.89935302734375;-0.0183990478515625;3.44999999128959;346;100 mA
151.129746618434;-0.89935302734375;-0.018365478515625;3.45999999126434;347;100 mA
151.139746618409;-0.899658203125;-0.018341064453125;3.46999999123909;348;100 mA
151.149746618384;-0.89874267578125;-0.0183197021484375;3.47999999121384;349;100 mA
151.159746618358;-0.8990478515625;-0.0182891845703125;3.4899999911886;350;100 mA
151.169746618333;-0.8990478515625;-0.0182708740234375;3.49999999116335;351;100 mA
151.179746618308;-0.899658203125;-0.0182403564453125;3.5099999911381;352;100 mA
151.189746618283;-0.89996337890625;-0.0182159423828125;3.51999999111285;353;100 mA
151.199746618257;-0.89935302734375;-0.0181884765625;3.52999999108761;354;100 mA
151.209746618232;-0.89935302734375;-0.0181610107421875;3.53999999106236;355;100 mA
151.219746618207;-0.89935302734375;-0.0181488037109375;3.54999999103711;356;100 mA
151.229746618182;-0.8990478515625;-0.018115234375;3.55999999101186;357;100 mA
151.239746618156;-0.899658203125;-0.0180908203125;3.56999999098662;358;100 mA
151.249746618131;-0.8990478515625;-0.018072509765625;3.57999999096137;359;100 mA
151.259746618106;-0.899658203125;-0.0180419921875;3.58999999093612;360;100 mA
151.269746618081;-0.89935302734375;-0.01802978515625;3.59999999091087;361;100 mA
151.279746618055;-0.89935302734375;-0.0179931640625;3.60999999088563;362;100 mA
151.28974661803;-0.89935302734375;-0.01796875;3.61999999086038;363;100 mA
151.299746618005;-0.8990478515625;-0.017950439453125;3.62999999083513;364;100 mA
151.30974661798;-0.89935302734375;-0.017919921875;3.63999999080988;365;100 mA
151.319746617954;-0.8990478515625;-0.0179046630859375;3.64999999078464;366;100 mA
151.329746617929;-0.89935302734375;-0.017877197265625;3.65999999075939;367;100 mA
151.339746617904;-0.899658203125;-0.0178497314453125;3.66999999073414;368;100 mA
151.349746617879;-0.899658203125;-0.01783447265625;3.67999999070889;369;100 mA
151.359746617853;-0.89935302734375;-0.0177978515625;3.68999999068365;370;100 mA
151.369746617828;-0.89996337890625;-0.0177886962890625;3.6999999906584;371;100 mA
151.379746617803;-0.899658203125;-0.0177490234375;3.70999999063315;372;100 mA
151.389746617778;-0.89935302734375;-0.0177337646484375;3.7199999906079;373;100 mA
151.399746617752;-0.899658203125;-0.0177215576171875;3.72999999058266;374;100 mA
151.409746617727;-0.89996337890625;-0.01768798828125;3.73999999055741;375;100 mA
151.419746617702;-0.8990478515625;-0.01767578125;3.74999999053216;376;100 mA
151.429746617677;-0.89874267578125;-0.0176422119140625;3.75999999050691;377;100 mA
151.439746617651;-0.89935302734375;-0.017620849609375;3.76999999048167;378;100 mA
151.449746617626;-0.89935302734375;-0.0176055908203125;3.77999999045642;379;100 mA
151.459746617601;-0.89935302734375;-0.017572021484375;3.78999999043117;380;100 mA
151.469746617576;-0.899658203125;-0.0175567626953125;3.79999999040592;381;100 mA
151.47974661755;-0.899658203125;-0.0175323486328125;3.80999999038067;382;100 mA
151.489746617525;-0.89935302734375;-0.0175018310546875;3.81999999035543;383;100 mA
151.4997466175;-0.899658203125;-0.0174835205078125;3.82999999033018;384;100 mA
151.509746617475;-0.8990478515625;-0.0174530029296875;3.83999999030493;385;100 mA
151.519746617449;-0.89935302734375;-0.01744384765625;3.84999999027968;386;100 mA
151.529746617424;-0.89935302734375;-0.0174163818359375;3.85999999025444;387;100 mA
151.539746617399;-0.89935302734375;-0.017401123046875;3.86999999022919;388;100 mA
151.549746617374;-0.89935302734375;-0.0173858642578125;3.87999999020394;389;100 mA
151.559746617348;-0.89935302734375;-0.017352294921875;3.88999999017869;390;100 mA
151.569746617323;-0.89935302734375;-0.0173370361328125;3.89999999015345;391;100 mA
151.579746617298;-0.89996337890625;-0.0173095703125;3.9099999901282;392;100 mA
151.589746617273;-0.899658203125;-0.017291259765625;3.91999999010295;393;100 mA
151.599746617247;-0.899658203125;-0.0172760009765625;3.9299999900777;394;100 mA
151.609746617222;-0.899658203125;-0.01724853515625;3.93999999005246;395;100 mA
151.619746617197;-0.899658203125;-0.0172332763671875;3.94999999002721;396;100 mA
151.629746617172;-0.89935302734375;-0.0172088623046875;3.95999999000196;397;100 mA
151.639746617146;-0.899658203125;-0.0171844482421875;3.96999998997671;398;100 mA
151.649746617121;-0.89935302734375;-0.0171722412109375;3.97999998995147;399;100 mA
151.659746617096;-0.89874267578125;-0.0171478271484375;3.98999998992622;400;100 mA
151.669746617071;-0.899658203125;-0.0171295166015625;3.99999998990097;401;100 mA
151.679746617045;-0.89935302734375;-0.017108154296875;4.00999998987572;402;100 mA
151.68974661702;-0.89935302734375;-0.0170867919921875;4.01999998985048;403;100 mA
151.699746616995;-0.89935302734375;-0.017071533203125;4.02999998982523;404;100 mA
151.70974661697;-0.8990478515625;-0.017041015625;4.03999998979998;405;100 mA
151.719746616944;-0.89935302734375;-0.01702880859375;4.04999998977473;406;100 mA
151.729746616919;-0.899658203125;-0.0170074462890625;4.05999998974949;407;100 mA
151.739746616894;-0.899658203125;-0.016986083984375;4.06999998972424;408;100 mA
151.749746616869;-0.899658203125;-0.0169708251953125;4.07999998969899;409;100 mA
151.759746616843;-0.8990478515625;-0.016943359375;4.08999998967374;410;100 mA
151.769746616818;-0.8990478515625;-0.0169281005859375;4.0999999896485;411;100 mA
151.779746616793;-0.8990478515625;-0.0169036865234375;4.10999998962325;412;100 mA
151.789746616768;-0.899658203125;-0.0168853759765625;4.119999989598;413;100 mA
151.799746616742;-0.89935302734375;-0.0168701171875;4.12999998957275;414;100 mA
151.809746616717;-0.89935302734375;-0.0168426513671875;4.1399999895475;415;100 mA
151.819746616692;-0.899658203125;-0.0168304443359375;4.14999998952226;416;100 mA
151.829746616667;-0.8990478515625;-0.016802978515625;4.15999998949701;417;100 mA
151.839746616641;-0.899658203125;-0.01678466796875;4.16999998947176;418;100 mA
151.849746616616;-0.899658203125;-0.0167724609375;4.17999998944651;419;100 mA
151.859746616591;-0.899658203125;-0.0167449951171875;4.18999998942127;420;100 mA
151.869746616566;-0.899658203125;-0.016729736328125;4.19999998939602;421;100 mA
151.879746616541;-0.89935302734375;-0.0167144775390625;4.20999998937077;422;100 mA
151.889746616515;-0.89935302734375;-0.0166900634765625;4.21999998934552;423;100 mA
151.89974661649;-0.8990478515625;-0.0166748046875;4.22999998932028;424;100 mA
151.909746616465;-0.899658203125;-0.0166473388671875;4.23999998929503;425;100 mA
151.91974661644;-0.89935302734375;-0.0166412353515625;4.24999998926978;426;100 mA
151.929746616414;-0.899658203125;-0.01661376953125;4.25999998924453;427;100 mA
151.939746616389;-0.89935302734375;-0.0165985107421875;4.26999998921929;428;100 mA
151.949746616364;-0.89874267578125;-0.0165802001953125;4.27999998919404;429;100 mA
151.959746616339;-0.89935302734375;-0.0165496826171875;4.28999998916879;430;100 mA
151.969746616313;-0.899658203125;-0.0165374755859375;4.29999998914354;431;100 mA
151.979746616288;-0.8990478515625;-0.0165191650390625;4.3099999891183;432;100 mA
151.989746616263;-0.899658203125;-0.016497802734375;4.31999998909305;433;100 mA
151.999746616238;-0.899658203125;-0.016485595703125;4.3299999890678;434;100 mA
152.009746616212;-0.89935302734375;-0.0164642333984375;4.33999998904255;435;100 mA
152.019746616187;-0.8990478515625;-0.016448974609375;4.34999998901731;436;100 mA
152.029746616162;-0.89935302734375;-0.0164276123046875;4.35999998899206;437;100 mA
152.039746616137;-0.89935302734375;-0.016412353515625;4.36999998896681;438;100 mA
152.049746616111;-0.899658203125;-0.0163909912109375;4.37999998894156;439;100 mA
152.059746616086;-0.89935302734375;-0.0163726806640625;4.38999998891632;440;100 mA
152.069746616061;-0.89935302734375;-0.0163543701171875;4.39999998889107;441;100 mA
152.079746616036;-0.89935302734375;-0.016339111328125;4.40999998886582;442;100 mA
152.08974661601;-0.8990478515625;-0.01632080078125;4.41999998884057;443;100 mA
152.099746615985;-0.8990478515625;-0.01630859375;4.42999998881533;444;100 mA
152.10974661596;-0.89935302734375;-0.0162811279296875;4.43999998879008;445;100 mA
152.119746615935;-0.89935302734375;-0.0162628173828125;4.44999998876483;446;100 mA
152.129746615909;-0.8990478515625;-0.016241455078125;4.45999998873958;447;100 mA
152.139746615884;-0.899658203125;-0.016229248046875;4.46999998871433;448;100 mA
152.149746615859;-0.899658203125;-0.0162139892578125;4.47999998868909;449;100 mA
152.159746615834;-0.8990478515625;-0.016192626953125;4.48999998866384;450;100 mA
152.169746615808;-0.8990478515625;-0.0161773681640625;4.49999998863859;451;100 mA
152.179746615783;-0.899658203125;-0.0161590576171875;4.50999998861334;452;100 mA
152.189746615758;-0.89935302734375;-0.0161407470703125;4.5199999885881;453;100 mA
152.199746615733;-0.89935302734375;-0.016131591796875;4.52999998856285;454;100 mA
152.209746615707;-0.8990478515625;-0.016107177734375;4.5399999885376;455;100 mA
152.219746615682;-0.8990478515625;-0.01610107421875;4.54999998851235;456;100 mA
152.229746615657;-0.89935302734375;-0.01607666015625;4.55999998848711;457;100 mA
152.239746615632;-0.8990478515625;-0.0160614013671875;4.56999998846186;458;100 mA
152.249746615606;-0.899658203125;-0.0160430908203125;4.57999998843661;459;100 mA
152.259746615581;-0.899658203125;-0.0160186767578125;4.58999998841136;460;100 mA
152.269746615556;-0.89935302734375;-0.01600341796875;4.59999998838612;461;100 mA
152.279746615531;-0.89935302734375;-0.0159881591796875;4.60999998836087;462;100 mA
152.289746615505;-0.8990478515625;-0.01597900390625;4.61999998833562;463;100 mA
152.29974661548;-0.8990478515625;-0.015960693359375;4.62999998831037;464;100 mA
152.309746615455;-0.8990478515625;-0.0159393310546875;4.63999998828513;465;100 mA
152.31974661543;-0.899658203125;-0.01593017578125;4.64999998825988;466;100 mA
152.329746615404;-0.89935302734375;-0.015911865234375;4.65999998823463;467;100 mA
152.339746615379;-0.89935302734375;-0.015887451171875;4.66999998820938;468;100 mA
152.349746615354;-0.89874267578125;-0.015875244140625;4.67999998818414;469;100 mA
152.359746615329;-0.899658203125;-0.0158538818359375;4.68999998815889;470;100 mA
152.369746615303;-0.89935302734375;-0.0158477783203125;4.69999998813364;471;100 mA
152.379746615278;-0.899658203125;-0.0158294677734375;4.70999998810839;472;100 mA
152.389746615253;-0.8990478515625;-0.015814208984375;4.71999998808315;473;100 mA
152.399746615228;-0.899658203125;-0.0157958984375;4.7299999880579;474;100 mA
152.409746615202;-0.8990478515625;-0.0157745361328125;4.73999998803265;475;100 mA
152.419746615177;-0.89935302734375;-0.0157623291015625;4.7499999880074;476;100 mA
152.429746615152;-0.899658203125;-0.0157470703125;4.75999998798216;477;100 mA
152.439746615127;-0.899658203125;-0.015728759765625;4.76999998795691;478;100 mA
152.449746615101;-0.8990478515625;-0.01572265625;4.77999998793166;479;100 mA
152.459746615076;-0.8984375;-0.0157012939453125;4.78999998790641;480;100 mA
152.469746615051;-0.8990478515625;-0.0156890869140625;4.79999998788116;481;100 mA
152.479746615026;-0.899658203125;-0.0156707763671875;4.80999998785592;482;100 mA
152.489746615;-0.899658203125;-0.015655517578125;4.81999998783067;483;100 mA
152.499746614975;-0.899658203125;-0.0156402587890625;4.82999998780542;484;100 mA
152.50974661495;-0.89935302734375;-0.015625;4.83999998778017;485;100 mA
152.519746614925;-0.89935302734375;-0.015618896484375;4.84999998775493;486;100 mA
152.529746614899;-0.89935302734375;-0.0156005859375;4.85999998772968;487;100 mA
152.539746614874;-0.89935302734375;-0.015582275390625;4.86999998770443;488;100 mA
152.549746614849;-0.89935302734375;-0.01556396484375;4.87999998767918;489;100 mA
152.559746614824;-0.89996337890625;-0.015545654296875;4.88999998765394;490;100 mA
152.569746614798;-0.89935302734375;-0.01552734375;4.89999998762869;491;100 mA
152.579746614773;-0.89935302734375;-0.0155181884765625;4.90999998760344;492;100 mA
152.589746614748;-0.899658203125;-0.0155029296875;4.91999998757819;493;100 mA
152.599746614723;-0.89935302734375;-0.01549072265625;4.92999998755295;494;100 mA
152.609746614697;-0.899658203125;-0.0154693603515625;4.9399999875277;495;100 mA
152.619746614672;-0.89935302734375;-0.0154632568359375;4.94999998750245;496;100 mA
152.629746614647;-0.899658203125;-0.01544189453125;4.9599999874772;497;100 mA
152.639746614622;-0.89935302734375;-0.015423583984375;4.96999998745196;498;100 mA
152.649746614596;-0.89935302734375;-0.0154083251953125;4.97999998742671;499;100 mA
152.659746614571;-0.8990478515625;-0.01539306640625;4.98999998740146;500;100 mA
152.669746614546;-0.89935302734375;-0.0153839111328125;4.99999998737621;501;100 mA
152.679746614521;-0.899658203125;-0.015374755859375;5.00999998735097;502;100 mA
152.689746614495;-0.89874267578125;-0.0153564453125;5.01999998732572;503;100 mA
152.69974661447;-0.899658203125;-0.0153411865234375;5.02999998730047;504;100 mA
152.709746614445;-0.8990478515625;-0.015325927734375;5.03999998727522;505;100 mA
152.71974661442;-0.899658203125;-0.01531982421875;5.04999998724998;506;100 mA
152.729746614394;-0.89935302734375;-0.01529541015625;5.05999998722473;507;100 mA
152.739746614369;-0.89935302734375;-0.0152801513671875;5.06999998719948;508;100 mA
152.749746614344;-0.8990478515625;-0.015277099609375;5.07999998717423;509;100 mA
152.759746614319;-0.899658203125;-0.015252685546875;5.08999998714899;510;100 mA
152.769746614293;-0.89935302734375;-0.0152374267578125;5.09999998712374;511;100 mA
152.779746614268;-0.8990478515625;-0.0152191162109375;5.10999998709849;512;100 mA
152.789746614243;-0.89935302734375;-0.015203857421875;5.11999998707324;513;100 mA
152.799746614218;-0.8990478515625;-0.01519775390625;5.129999987048;514;100 mA
152.809746614192;-0.8990478515625;-0.0151763916015625;5.13999998702275;515;100 mA
152.819746614167;-0.89935302734375;-0.0151763916015625;5.1499999869975;516;100 mA
152.829746614142;-0.8990478515625;-0.0151611328125;5.15999998697225;517;100 mA
152.839746614117;-0.89935302734375;-0.0151397705078125;5.169999986947;518;100 mA
152.849746614091;-0.8990478515625;-0.015130615234375;5.17999998692176;519;100 mA
152.859746614066;-0.8990478515625;-0.015106201171875;5.18999998689651;520;100 mA
152.869746614041;-0.8990478515625;-0.0150970458984375;5.19999998687126;521;100 mA
152.879746614016;-0.89874267578125;-0.0150726318359375;5.20999998684601;522;100 mA
152.88974661399;-0.89935302734375;-0.015069580078125;5.21999998682077;523;100 mA
152.899746613965;-0.89935302734375;-0.0150634765625;5.22999998679552;524;100 mA
152.90974661394;-0.8990478515625;-0.015045166015625;5.23999998677027;525;100 mA
152.919746613915;-0.89935302734375;-0.0150390625;5.24999998674502;526;100 mA
152.92974661389;-0.89935302734375;-0.0150054931640625;5.25999998671978;527;100 mA
152.939746613864;-0.89996337890625;-0.014996337890625;5.26999998669453;528;100 mA
152.949746613839;-0.89935302734375;-0.014990234375;5.27999998666928;529;100 mA
152.959746613814;-0.899658203125;-0.0149749755859375;5.28999998664403;530;100 mA
152.969746613789;-0.89935302734375;-0.0149658203125;5.29999998661879;531;100 mA
152.979746613763;-0.899658203125;-0.014947509765625;5.30999998659354;532;100 mA
152.989746613738;-0.8990478515625;-0.014935302734375;5.31999998656829;533;100 mA
152.999746613713;-0.9002685546875;-0.0149200439453125;5.32999998654304;534;100 mA
153.009746613688;-0.89935302734375;-0.0149017333984375;5.3399999865178;535;100 mA
153.019746613662;-0.89935302734375;-0.01490478515625;5.34999998649255;536;100 mA
153.029746613637;-0.89935302734375;-0.0148773193359375;5.3599999864673;537;100 mA
153.039746613612;-0.8990478515625;-0.0148651123046875;5.36999998644205;538;100 mA
153.049746613587;-0.89935302734375;-0.014862060546875;5.37999998641681;539;100 mA
153.059746613561;-0.8990478515625;-0.01484375;5.38999998639156;540;100 mA
153.069746613536;-0.899658203125;-0.014837646484375;5.39999998636631;541;100 mA
153.079746613511;-0.89935302734375;-0.0148101806640625;5.40999998634106;542;100 mA
153.089746613486;-0.899658203125;-0.01480712890625;5.41999998631582;543;100 mA
153.09974661346;-0.8990478515625;-0.014794921875;5.42999998629057;544;100 mA
153.109746613435;-0.899658203125;-0.0147796630859375;5.43999998626532;545;100 mA
153.11974661341;-0.899658203125;-0.0147735595703125;5.44999998624007;546;100 mA
153.129746613385;-0.89935302734375;-0.014752197265625;5.45999998621483;547;100 mA
153.139746613359;-0.89935302734375;-0.014739990234375;5.46999998618958;548;100 mA
153.149746613334;-0.89935302734375;-0.0147308349609375;5.47999998616433;549;100 mA
153.159746613309;-0.89935302734375;-0.01470947265625;5.48999998613908;550;100 mA
153.169746613284;-0.899658203125;-0.014703369140625;5.49999998611383;551;100 mA
153.179746613258;-0.899658203125;-0.01468505859375;5.50999998608859;552;100 mA
153.189746613233;-0.89935302734375;-0.0146820068359375;5.51999998606334;553;100 mA
153.199746613208;-0.89935302734375;-0.0146636962890625;5.52999998603809;554;100 mA
153.209746613183;-0.89935302734375;-0.0146514892578125;5.53999998601284;555;100 mA
153.219746613157;-0.899658203125;-0.0146484375;5.5499999859876;556;100 mA
153.229746613132;-0.899658203125;-0.0146240234375;5.55999998596235;557;100 mA
153.239746613107;-0.899658203125;-0.014617919921875;5.5699999859371;558;100 mA
153.249746613082;-0.899658203125;-0.014599609375;5.57999998591185;559;100 mA
153.259746613056;-0.899658203125;-0.0145843505859375;5.58999998588661;560;100 mA
153.269746613031;-0.899658203125;-0.014581298828125;5.59999998586136;561;100 mA
153.279746613006;-0.89935302734375;-0.0145599365234375;5.60999998583611;562;100 mA
153.289746612981;-0.8990478515625;-0.0145538330078125;5.61999998581086;563;100 mA
153.299746612955;-0.899658203125;-0.0145416259765625;5.62999998578562;564;100 mA
153.30974661293;-0.89935302734375;-0.0145233154296875;5.63999998576037;565;100 mA
153.319746612905;-0.899658203125;-0.0145233154296875;5.64999998573512;566;100 mA
153.32974661288;-0.89935302734375;-0.014495849609375;5.65999998570987;567;100 mA
153.339746612854;-0.8990478515625;-0.01448974609375;5.66999998568463;568;100 mA
153.349746612829;-0.89935302734375;-0.0144805908203125;5.67999998565938;569;100 mA
153.359746612804;-0.89935302734375;-0.01446533203125;5.68999998563413;570;100 mA
153.369746612779;-0.899658203125;-0.0144683837890625;5.69999998560888;571;100 mA
153.379746612753;-0.8990478515625;-0.0144378662109375;5.70999998558364;572;100 mA
153.389746612728;-0.89935302734375;-0.0144317626953125;5.71999998555839;573;100 mA
153.399746612703;-0.899658203125;-0.0144195556640625;5.72999998553314;574;100 mA
153.409746612678;-0.89935302734375;-0.014404296875;5.73999998550789;575;100 mA
153.419746612652;-0.899658203125;-0.014404296875;5.74999998548265;576;100 mA
153.429746612627;-0.89935302734375;-0.014385986328125;5.7599999854574;577;100 mA
153.439746612602;-0.8990478515625;-0.0143798828125;5.76999998543215;578;100 mA
153.449746612577;-0.89935302734375;-0.0143585205078125;5.7799999854069;579;100 mA
153.459746612551;-0.89874267578125;-0.01434326171875;5.78999998538166;580;100 mA
153.469746612526;-0.8990478515625;-0.0143341064453125;5.79999998535641;581;100 mA
153.479746612501;-0.8990478515625;-0.0143218994140625;5.80999998533116;582;100 mA
153.489746612476;-0.89935302734375;-0.0143096923828125;5.81999998530591;583;100 mA
153.49974661245;-0.89935302734375;-0.014306640625;5.82999998528066;584;100 mA
153.509746612425;-0.899658203125;-0.0142852783203125;5.83999998525542;585;100 mA
153.5197466124;-0.899658203125;-0.01429443359375;5.84999998523017;586;100 mA
153.529746612375;-0.8990478515625;-0.0142730712890625;5.85999998520492;587;100 mA
153.539746612349;-0.899658203125;-0.0142578125;5.86999998517967;588;100 mA
153.549746612324;-0.89935302734375;-0.0142425537109375;5.87999998515443;589;100 mA
153.559746612299;-0.89935302734375;-0.014227294921875;5.88999998512918;590;100 mA
153.569746612274;-0.899658203125;-0.014227294921875;5.89999998510393;591;100 mA
153.579746612248;-0.8990478515625;-0.014208984375;5.90999998507868;592;100 mA
153.589746612223;-0.89935302734375;-0.0142059326171875;5.91999998505344;593;100 mA
153.599746612198;-0.899658203125;-0.0141876220703125;5.92999998502819;594;100 mA
153.609746612173;-0.89935302734375;-0.01417236328125;5.93999998500294;595;100 mA
153.619746612147;-0.899658203125;-0.0141693115234375;5.94999998497769;596;100 mA
153.629746612122;-0.89935302734375;-0.01414794921875;5.95999998495245;597;100 mA
153.639746612097;-0.89935302734375;-0.0141387939453125;5.9699999849272;598;100 mA
153.649746612072;-0.8990478515625;-0.0141357421875;5.97999998490195;599;100 mA
153.659746612046;-0.89935302734375;-0.0141204833984375;5.9899999848767;600;100 mA
153.669746612021;-0.899658203125;-0.0141204833984375;5.99999998485146;601;100 mA
153.679746611996;-0.89935302734375;-0.0141082763671875;6.00999998482621;602;100 mA
153.689746611971;-0.899658203125;-0.0140899658203125;6.01999998480096;603;100 mA
153.699746611945;-0.899658203125;-0.0140777587890625;6.02999998477571;604;100 mA
153.70974661192;-0.8990478515625;-0.0140655517578125;6.03999998475047;605;100 mA
153.719746611895;-0.89935302734375;-0.0140625;6.04999998472522;606;100 mA
153.72974661187;-0.899658203125;-0.014044189453125;6.05999998469997;607;100 mA
153.739746611844;-0.89935302734375;-0.014031982421875;6.06999998467472;608;100 mA
153.749746611819;-0.8990478515625;-0.0140289306640625;6.07999998464948;609;100 mA
153.759746611794;-0.899658203125;-0.014007568359375;6.08999998462423;610;100 mA
153.769746611769;-0.89935302734375;-0.0140045166015625;6.09999998459898;611;100 mA
153.779746611743;-0.9002685546875;-0.0139923095703125;6.10999998457373;612;100 mA
153.789746611718;-0.899658203125;-0.013983154296875;6.11999998454849;613;100 mA
153.799746611693;-0.89996337890625;-0.0139739990234375;6.12999998452324;614;100 mA
153.809746611668;-0.89935302734375;-0.013958740234375;6.13999998449799;615;100 mA
153.819746611642;-0.89935302734375;-0.01396484375;6.14999998447274;616;100 mA
153.829746611617;-0.899658203125;-0.0139434814453125;6.1599999844475;617;100 mA
153.839746611592;-0.8990478515625;-0.01392822265625;6.16999998442225;618;100 mA
153.849746611567;-0.89935302734375;-0.013909912109375;6.179999984397;619;100 mA
153.859746611541;-0.89935302734375;-0.0138946533203125;6.18999998437175;620;100 mA
153.869746611516;-0.899658203125;-0.0138885498046875;6.1999999843465;621;100 mA
153.879746611491;-0.89935302734375;-0.0138824462890625;6.20999998432126;622;100 mA
153.889746611466;-0.899658203125;-0.0138702392578125;6.21999998429601;623;100 mA
153.89974661144;-0.8990478515625;-0.0138641357421875;6.22999998427076;624;100 mA
153.909746611415;-0.899658203125;-0.0138519287109375;6.23999998424551;625;100 mA
153.91974661139;-0.899658203125;-0.013848876953125;6.24999998422027;626;100 mA
153.929746611365;-0.89935302734375;-0.0138275146484375;6.25999998419502;627;100 mA
153.93974661134;-0.89935302734375;-0.0138214111328125;6.26999998416977;628;100 mA
153.949746611314;-0.89935302734375;-0.0138153076171875;6.27999998414452;629;100 mA
153.959746611289;-0.899658203125;-0.013800048828125;6.28999998411928;630;100 mA
153.969746611264;-0.899658203125;-0.0137969970703125;6.29999998409403;631;100 mA
153.979746611239;-0.89935302734375;-0.0137939453125;6.30999998406878;632;100 mA
153.989746611213;-0.89996337890625;-0.0137725830078125;6.31999998404353;633;100 mA
153.999746611188;-0.8990478515625;-0.013763427734375;6.32999998401829;634;100 mA
154.009746611163;-0.899658203125;-0.013739013671875;6.33999998399304;635;100 mA
154.019746611138;-0.8990478515625;-0.0137481689453125;6.34999998396779;636;100 mA
154.029746611112;-0.8990478515625;-0.0137359619140625;6.35999998394254;637;100 mA
154.039746611087;-0.89874267578125;-0.0137237548828125;6.3699999839173;638;100 mA
154.049746611062;-0.89935302734375;-0.013720703125;6.37999998389205;639;100 mA
154.059746611037;-0.89935302734375;-0.0137115478515625;6.3899999838668;640;100 mA
154.069746611011;-0.89935302734375;-0.0136932373046875;6.39999998384155;641;100 mA
154.079746610986;-0.8990478515625;-0.013690185546875;6.40999998381631;642;100 mA
154.089746610961;-0.8990478515625;-0.0136810302734375;6.41999998379106;643;100 mA
154.099746610936;-0.899658203125;-0.013677978515625;6.42999998376581;644;100 mA
154.10974661091;-0.89935302734375;-0.0136566162109375;6.43999998374056;645;100 mA
154.119746610885;-0.89935302734375;-0.01365966796875;6.44999998371532;646;100 mA
154.12974661086;-0.8990478515625;-0.0136505126953125;6.45999998369007;647;100 mA
154.139746610835;-0.89935302734375;-0.0136322021484375;6.46999998366482;648;100 mA
154.149746610809;-0.899658203125;-0.013623046875;6.47999998363957;649;100 mA
154.159746610784;-0.8990478515625;-0.0135986328125;6.48999998361433;650;100 mA
154.169746610759;-0.899658203125;-0.0135955810546875;6.49999998358908;651;100 mA
154.179746610734;-0.89874267578125;-0.013592529296875;6.50999998356383;652;100 mA
154.189746610708;-0.899658203125;-0.0135833740234375;6.51999998353858;653;100 mA
154.199746610683;-0.8990478515625;-0.0135772705078125;6.52999998351333;654;100 mA
154.209746610658;-0.8990478515625;-0.0135528564453125;6.53999998348809;655;100 mA
154.219746610633;-0.899658203125;-0.013555908203125;6.54999998346284;656;100 mA
154.229746610607;-0.89935302734375;-0.013543701171875;6.55999998343759;657;100 mA
154.239746610582;-0.89935302734375;-0.0135284423828125;6.56999998341234;658;100 mA
154.249746610557;-0.899658203125;-0.013531494140625;6.5799999833871;659;100 mA
154.259746610532;-0.8990478515625;-0.01351318359375;6.58999998336185;660;100 mA
154.269746610506;-0.89935302734375;-0.01351318359375;6.5999999833366;661;100 mA
154.279746610481;-0.899658203125;-0.0135040283203125;6.60999998331135;662;100 mA
154.289746610456;-0.89935302734375;-0.0134918212890625;6.61999998328611;663;100 mA
154.299746610431;-0.89935302734375;-0.0134796142578125;6.62999998326086;664;100 mA
154.309746610405;-0.899658203125;-0.013458251953125;6.63999998323561;665;100 mA
154.31974661038;-0.89935302734375;-0.013458251953125;6.64999998321036;666;100 mA
154.329746610355;-0.89935302734375;-0.0134521484375;6.65999998318512;667;100 mA
154.33974661033;-0.899658203125;-0.01343994140625;6.66999998315987;668;100 mA
154.349746610304;-0.899658203125;-0.01343994140625;6.67999998313462;669;100 mA
154.359746610279;-0.899658203125;-0.0134185791015625;6.68999998310937;670;100 mA
154.369746610254;-0.899658203125;-0.0134063720703125;6.69999998308413;671;100 mA
154.379746610229;-0.899658203125;-0.0134063720703125;6.70999998305888;672;100 mA
154.389746610203;-0.899658203125;-0.0133941650390625;6.71999998303363;673;100 mA
154.399746610178;-0.899658203125;-0.0133880615234375;6.72999998300838;674;100 mA
154.409746610153;-0.899658203125;-0.013372802734375;6.73999998298314;675;100 mA
154.419746610128;-0.89935302734375;-0.0133758544921875;6.74999998295789;676;100 mA
154.429746610102;-0.89996337890625;-0.013360595703125;6.75999998293264;677;100 mA
154.439746610077;-0.8990478515625;-0.0133544921875;6.76999998290739;678;100 mA
154.449746610052;-0.89935302734375;-0.0133514404296875;6.77999998288215;679;100 mA
154.459746610027;-0.899658203125;-0.013330078125;6.7899999828569;680;100 mA
154.469746610001;-0.89935302734375;-0.013323974609375;6.79999998283165;681;100 mA
154.479746609976;-0.89874267578125;-0.013323974609375;6.8099999828064;682;100 mA
154.489746609951;-0.899658203125;-0.013311767578125;6.81999998278116;683;100 mA
154.499746609926;-0.89935302734375;-0.0133026123046875;6.82999998275591;684;100 mA
154.5097466099;-0.89935302734375;-0.01328125;6.83999998273066;685;100 mA
154.519746609875;-0.89935302734375;-0.01328125;6.84999998270541;686;100 mA
154.52974660985;-0.8990478515625;-0.01326904296875;6.85999998268016;687;100 mA
154.539746609825;-0.89935302734375;-0.0132598876953125;6.86999998265492;688;100 mA
154.549746609799;-0.899658203125;-0.0132568359375;6.87999998262967;689;100 mA
154.559746609774;-0.899658203125;-0.01324462890625;6.88999998260442;690;100 mA
154.569746609749;-0.8990478515625;-0.013238525390625;6.89999998257917;691;100 mA
154.579746609724;-0.89996337890625;-0.0132293701171875;6.90999998255393;692;100 mA
154.589746609698;-0.89935302734375;-0.01322021484375;6.91999998252868;693;100 mA
154.599746609673;-0.89935302734375;-0.0132110595703125;6.92999998250343;694;100 mA
154.609746609648;-0.89935302734375;-0.01319580078125;6.93999998247818;695;100 mA
154.619746609623;-0.89935302734375;-0.01319580078125;6.94999998245294;696;100 mA
154.629746609597;-0.899658203125;-0.01318359375;6.95999998242769;697;100 mA
154.639746609572;-0.899658203125;-0.013177490234375;6.96999998240244;698;100 mA
154.649746609547;-0.899658203125;-0.01317138671875;6.97999998237719;699;100 mA
154.659746609522;-0.899658203125;-0.0131561279296875;6.98999998235195;700;100 mA
154.669746609496;-0.8990478515625;-0.0131500244140625;6.9999999823267;701;100 mA
154.679746609471;-0.89996337890625;-0.013140869140625;7.00999998230145;702;100 mA
154.689746609446;-0.899658203125;-0.0131317138671875;7.0199999822762;703;100 mA
154.699746609421;-0.89935302734375;-0.013128662109375;7.02999998225096;704;100 mA
154.709746609395;-0.899658203125;-0.013116455078125;7.03999998222571;705;100 mA
154.71974660937;-0.89935302734375;-0.013116455078125;7.04999998220046;706;100 mA
154.729746609345;-0.899658203125;-0.013104248046875;7.05999998217521;707;100 mA
154.73974660932;-0.8990478515625;-0.01309814453125;7.06999998214997;708;100 mA
154.749746609294;-0.89935302734375;-0.013092041015625;7.07999998212472;709;100 mA
154.759746609269;-0.89996337890625;-0.0130767822265625;7.08999998209947;710;100 mA
154.769746609244;-0.899658203125;-0.013067626953125;7.09999998207422;711;100 mA
154.779746609219;-0.8990478515625;-0.013067626953125;7.10999998204898;712;100 mA
154.789746609193;-0.8990478515625;-0.0130615234375;7.11999998202373;713;100 mA
154.799746609168;-0.8990478515625;-0.013055419921875;7.12999998199848;714;100 mA
154.809746609143;-0.899658203125;-0.013037109375;7.13999998197323;715;100 mA
154.819746609118;-0.899658203125;-0.0130340576171875;7.14999998194799;716;100 mA
154.829746609092;-0.899658203125;-0.013018798828125;7.15999998192274;717;100 mA
154.839746609067;-0.89996337890625;-0.0130096435546875;7.16999998189749;718;100 mA
154.849746609042;-0.89935302734375;-0.0130035400390625;7.17999998187224;719;100 mA
154.859746609017;-0.8984375;-0.01298828125;7.189999981847;720;100 mA
154.869746608991;-0.899658203125;-0.0129852294921875;7.19999998182175;721;100 mA
154.879746608966;-0.899658203125;-0.012982177734375;7.2099999817965;722;100 mA
154.889746608941;-0.899658203125;-0.01297607421875;7.21999998177125;723;100 mA
154.899746608916;-0.89935302734375;-0.012969970703125;7.229999981746;724;100 mA
154.90974660889;-0.8990478515625;-0.0129547119140625;7.23999998172076;725;100 mA
154.919746608865;-0.8990478515625;-0.0129547119140625;7.24999998169551;726;100 mA
154.92974660884;-0.8990478515625;-0.0129486083984375;7.25999998167026;727;100 mA
154.939746608815;-0.899658203125;-0.012933349609375;7.26999998164501;728;100 mA
154.949746608789;-0.8990478515625;-0.0129302978515625;7.27999998161977;729;100 mA
154.959746608764;-0.89935302734375;-0.0129119873046875;7.28999998159452;730;100 mA
154.969746608739;-0.89935302734375;-0.012908935546875;7.29999998156927;731;100 mA
154.979746608714;-0.89935302734375;-0.012896728515625;7.30999998154402;732;100 mA
154.989746608689;-0.89935302734375;-0.012884521484375;7.31999998151878;733;100 mA
154.999746608663;-0.89996337890625;-0.012884521484375;7.32999998149353;734;100 mA
155.009746608638;-0.8990478515625;-0.0128692626953125;7.33999998146828;735;100 mA
155.019746608613;-0.89935302734375;-0.0128692626953125;7.34999998144303;736;100 mA
155.029746608588;-0.89874267578125;-0.0128662109375;7.35999998141779;737;100 mA
155.039746608562;-0.8990478515625;-0.0128509521484375;7.36999998139254;738;100 mA
155.049746608537;-0.89935302734375;-0.012847900390625;7.37999998136729;739;100 mA
155.059746608512;-0.89874267578125;-0.0128387451171875;7.38999998134204;740;100 mA
155.069746608487;-0.89935302734375;-0.0128326416015625;7.3999999813168;741;100 mA
155.079746608461;-0.899658203125;-0.012823486328125;7.40999998129155;742;100 mA
155.089746608436;-0.899658203125;-0.0128173828125;7.4199999812663;743;100 mA
155.099746608411;-0.899658203125;-0.012811279296875;7.42999998124105;744;100 mA
155.109746608386;-0.8990478515625;-0.0127960205078125;7.43999998121581;745;100 mA
155.11974660836;-0.89935302734375;-0.0127960205078125;7.44999998119056;746;100 mA
155.129746608335;-0.89935302734375;-0.01278076171875;7.45999998116531;747;100 mA
155.13974660831;-0.899658203125;-0.012774658203125;7.46999998114006;748;100 mA
155.149746608285;-0.8990478515625;-0.0127716064453125;7.47999998111482;749;100 mA
155.159746608259;-0.899658203125;-0.012762451171875;7.48999998108957;750;100 mA
155.169746608234;-0.89996337890625;-0.01275634765625;7.49999998106432;751;100 mA
155.179746608209;-0.8990478515625;-0.012750244140625;7.50999998103907;752;100 mA
155.189746608184;-0.8990478515625;-0.0127410888671875;7.51999998101383;753;100 mA
155.199746608158;-0.8990478515625;-0.0127349853515625;7.52999998098858;754;100 mA
155.209746608133;-0.89935302734375;-0.012725830078125;7.53999998096333;755;100 mA
155.219746608108;-0.89996337890625;-0.012725830078125;7.54999998093808;756;100 mA
155.229746608083;-0.89935302734375;-0.0127166748046875;7.55999998091283;757;100 mA
155.239746608057;-0.899658203125;-0.0127044677734375;7.56999998088759;758;100 mA
155.249746608032;-0.89935302734375;-0.0126983642578125;7.57999998086234;759;100 mA
155.259746608007;-0.89935302734375;-0.0126861572265625;7.58999998083709;760;100 mA
155.269746607982;-0.899658203125;-0.012677001953125;7.59999998081184;761;100 mA
155.279746607956;-0.899658203125;-0.0126678466796875;7.6099999807866;762;100 mA
155.289746607931;-0.89996337890625;-0.0126556396484375;7.61999998076135;763;100 mA
155.299746607906;-0.89935302734375;-0.0126617431640625;7.6299999807361;764;100 mA
155.309746607881;-0.89935302734375;-0.012646484375;7.63999998071085;765;100 mA
155.319746607855;-0.89935302734375;-0.012640380859375;7.64999998068561;766;100 mA
155.32974660783;-0.89935302734375;-0.0126312255859375;7.65999998066036;767;100 mA
155.339746607805;-0.89874267578125;-0.0126251220703125;7.66999998063511;768;100 mA
155.34974660778;-0.899658203125;-0.0126251220703125;7.67999998060986;769;100 mA
155.359746607754;-0.8990478515625;-0.01260986328125;7.68999998058462;770;100 mA
155.369746607729;-0.8990478515625;-0.01260986328125;7.69999998055937;771;100 mA
155.379746607704;-0.9002685546875;-0.012603759765625;7.70999998053412;772;100 mA
155.389746607679;-0.89874267578125;-0.012591552734375;7.71999998050887;773;100 mA
155.399746607653;-0.899658203125;-0.012591552734375;7.72999998048363;774;100 mA
155.409746607628;-0.899658203125;-0.0125762939453125;7.73999998045838;775;100 mA
155.419746607603;-0.89935302734375;-0.012579345703125;7.74999998043313;776;100 mA
155.429746607578;-0.8990478515625;-0.0125640869140625;7.75999998040788;777;100 mA
155.439746607552;-0.8990478515625;-0.0125518798828125;7.76999998038264;778;100 mA
155.449746607527;-0.89935302734375;-0.012554931640625;7.77999998035739;779;100 mA
155.459746607502;-0.89935302734375;-0.0125396728515625;7.78999998033214;780;100 mA
155.469746607477;-0.89935302734375;-0.0125396728515625;7.79999998030689;781;100 mA
155.479746607451;-0.9002685546875;-0.0125244140625;7.80999998028165;782;100 mA
155.489746607426;-0.89935302734375;-0.0125213623046875;7.8199999802564;783;100 mA
155.499746607401;-0.89935302734375;-0.0125213623046875;7.82999998023115;784;100 mA
155.509746607376;-0.89935302734375;-0.012506103515625;7.8399999802059;785;100 mA
155.51974660735;-0.8990478515625;-0.0125091552734375;7.84999998018066;786;100 mA
155.529746607325;-0.8990478515625;-0.0124969482421875;7.85999998015541;787;100 mA
155.5397466073;-0.89935302734375;-0.0124847412109375;7.86999998013016;788;100 mA
155.549746607275;-0.89935302734375;-0.0124847412109375;7.87999998010491;789;100 mA
155.559746607249;-0.899658203125;-0.012469482421875;7.88999998007966;790;100 mA
155.569746607224;-0.899658203125;-0.012469482421875;7.89999998005442;791;100 mA
155.579746607199;-0.8990478515625;-0.0124542236328125;7.90999998002917;792;100 mA
155.589746607174;-0.89935302734375;-0.012451171875;7.91999998000392;793;100 mA
155.599746607148;-0.899658203125;-0.012445068359375;7.92999997997867;794;100 mA
155.609746607123;-0.89935302734375;-0.0124359130859375;7.93999997995343;795;100 mA
155.619746607098;-0.89935302734375;-0.0124359130859375;7.94999997992818;796;100 mA
155.629746607073;-0.8990478515625;-0.0124267578125;7.95999997990293;797;100 mA
155.639746607047;-0.899658203125;-0.0124176025390625;7.96999997987768;798;100 mA
155.649746607022;-0.89935302734375;-0.0124114990234375;7.97999997985244;799;100 mA
155.659746606997;-0.9002685546875;-0.01240234375;7.98999997982719;800;100 mA
155.669746606972;-0.899658203125;-0.012408447265625;7.99999997980194;801;100 mA
155.679746606946;-0.89935302734375;-0.0123931884765625;8.00999997977669;802;100 mA
155.689746606921;-0.89996337890625;-0.012384033203125;8.01999997975145;803;100 mA
155.699746606896;-0.89935302734375;-0.0123809814453125;8.0299999797262;804;100 mA
155.709746606871;-0.899658203125;-0.01236572265625;8.03999997970095;805;100 mA
155.719746606845;-0.89935302734375;-0.012371826171875;8.0499999796757;806;100 mA
155.72974660682;-0.899658203125;-0.012359619140625;8.05999997965046;807;100 mA
155.739746606795;-0.899658203125;-0.0123504638671875;8.06999997962521;808;100 mA
155.74974660677;-0.8990478515625;-0.012347412109375;8.07999997959996;809;100 mA
155.759746606744;-0.899658203125;-0.0123321533203125;8.08999997957471;810;100 mA
155.769746606719;-0.8990478515625;-0.0123382568359375;8.09999997954947;811;100 mA
155.779746606694;-0.899658203125;-0.0123260498046875;8.10999997952422;812;100 mA
155.789746606669;-0.899658203125;-0.0123138427734375;8.11999997949897;813;100 mA
155.799746606643;-0.89935302734375;-0.01231689453125;8.12999997947372;814;100 mA
155.809746606618;-0.8990478515625;-0.012298583984375;8.13999997944848;815;100 mA
155.819746606593;-0.899658203125;-0.0122955322265625;8.14999997942323;816;100 mA
155.829746606568;-0.899658203125;-0.0122894287109375;8.15999997939798;817;100 mA
155.839746606542;-0.89935302734375;-0.0122802734375;8.16999997937273;818;100 mA
155.849746606517;-0.89935302734375;-0.0122833251953125;8.17999997934749;819;100 mA
155.859746606492;-0.8990478515625;-0.0122650146484375;8.18999997932224;820;100 mA
155.869746606467;-0.89935302734375;-0.01226806640625;8.19999997929699;821;100 mA
155.879746606441;-0.89935302734375;-0.0122528076171875;8.20999997927174;822;100 mA
155.889746606416;-0.89935302734375;-0.0122467041015625;8.2199999792465;823;100 mA
155.899746606391;-0.89935302734375;-0.0122528076171875;8.22999997922125;824;100 mA
155.909746606366;-0.89935302734375;-0.0122314453125;8.239999979196;825;100 mA
155.91974660634;-0.89935302734375;-0.0122406005859375;8.24999997917075;826;100 mA
155.929746606315;-0.899658203125;-0.012225341796875;8.2599999791455;827;100 mA
155.93974660629;-0.89935302734375;-0.012213134765625;8.26999997912026;828;100 mA
155.949746606265;-0.899658203125;-0.012213134765625;8.27999997909501;829;100 mA
155.959746606239;-0.899658203125;-0.012200927734375;8.28999997906976;830;100 mA
155.969746606214;-0.89935302734375;-0.0121978759765625;8.29999997904451;831;100 mA
155.979746606189;-0.899658203125;-0.0121917724609375;8.30999997901927;832;100 mA
155.989746606164;-0.899658203125;-0.0121795654296875;8.31999997899402;833;100 mA
155.999746606139;-0.89935302734375;-0.0121826171875;8.32999997896877;834;100 mA
156.009746606113;-0.89935302734375;-0.012164306640625;8.33999997894352;835;100 mA
156.019746606088;-0.8990478515625;-0.0121673583984375;8.34999997891828;836;100 mA
156.029746606063;-0.899658203125;-0.0121551513671875;8.35999997889303;837;100 mA
156.039746606038;-0.8990478515625;-0.0121490478515625;8.36999997886778;838;100 mA
156.049746606012;-0.89935302734375;-0.01214599609375;8.37999997884253;839;100 mA
156.059746605987;-0.8990478515625;-0.012139892578125;8.38999997881729;840;100 mA
156.069746605962;-0.89935302734375;-0.012139892578125;8.39999997879204;841;100 mA
156.079746605937;-0.89935302734375;-0.012127685546875;8.40999997876679;842;100 mA
156.089746605911;-0.8990478515625;-0.012115478515625;8.41999997874154;843;100 mA
156.099746605886;-0.8990478515625;-0.0121063232421875;8.4299999787163;844;100 mA
156.109746605861;-0.899658203125;-0.0120941162109375;8.43999997869105;845;100 mA
156.119746605836;-0.89935302734375;-0.0120941162109375;8.4499999786658;846;100 mA
156.12974660581;-0.899658203125;-0.0120849609375;8.45999997864055;847;100 mA
156.139746605785;-0.89935302734375;-0.0120758056640625;8.46999997861531;848;100 mA
156.14974660576;-0.899658203125;-0.0120849609375;8.47999997859006;849;100 mA
156.159746605735;-0.89874267578125;-0.012066650390625;8.48999997856481;850;100 mA
156.169746605709;-0.89935302734375;-0.012066650390625;8.49999997853956;851;100 mA
156.179746605684;-0.899658203125;-0.0120574951171875;8.50999997851432;852;100 mA
156.189746605659;-0.8990478515625;-0.0120513916015625;8.51999997848907;853;100 mA
156.199746605634;-0.89874267578125;-0.0120513916015625;8.52999997846382;854;100 mA
156.209746605608;-0.899658203125;-0.0120391845703125;8.53999997843857;855;100 mA
156.219746605583;-0.899658203125;-0.0120391845703125;8.54999997841333;856;100 mA
156.229746605558;-0.899658203125;-0.0120330810546875;8.55999997838808;857;100 mA
156.239746605533;-0.89935302734375;-0.012017822265625;8.56999997836283;858;100 mA
156.249746605507;-0.899658203125;-0.0120147705078125;8.57999997833758;859;100 mA
156.259746605482;-0.8990478515625;-0.0120025634765625;8.58999997831233;860;100 mA
156.269746605457;-0.89935302734375;-0.0119964599609375;8.59999997828709;861;100 mA
156.279746605432;-0.899658203125;-0.011993408203125;8.60999997826184;862;100 mA
156.289746605406;-0.8990478515625;-0.0119842529296875;8.61999997823659;863;100 mA
156.299746605381;-0.89935302734375;-0.0119873046875;8.62999997821134;864;100 mA
156.309746605356;-0.89935302734375;-0.0119720458984375;8.6399999781861;865;100 mA
156.319746605331;-0.89935302734375;-0.0119720458984375;8.64999997816085;866;100 mA
156.329746605305;-0.89935302734375;-0.011962890625;8.6599999781356;867;100 mA
156.33974660528;-0.899658203125;-0.011956787109375;8.66999997811035;868;100 mA
156.349746605255;-0.8990478515625;-0.0119537353515625;8.67999997808511;869;100 mA
156.35974660523;-0.89935302734375;-0.011956787109375;8.68999997805986;870;100 mA
156.369746605204;-0.89935302734375;-0.011944580078125;8.69999997803461;871;100 mA
156.379746605179;-0.899658203125;-0.0119415283203125;8.70999997800936;872;100 mA
156.389746605154;-0.89935302734375;-0.01192626953125;8.71999997798412;873;100 mA
156.399746605129;-0.89996337890625;-0.01192626953125;8.72999997795887;874;100 mA
156.409746605103;-0.8990478515625;-0.011907958984375;8.73999997793362;875;100 mA
156.419746605078;-0.899658203125;-0.011907958984375;8.74999997790837;876;100 mA
156.429746605053;-0.899658203125;-0.01190185546875;8.75999997788313;877;100 mA
156.439746605028;-0.8990478515625;-0.0118927001953125;8.76999997785788;878;100 mA
156.449746605002;-0.89935302734375;-0.011895751953125;8.77999997783263;879;100 mA
156.459746604977;-0.8990478515625;-0.0118927001953125;8.78999997780738;880;100 mA
156.469746604952;-0.899658203125;-0.0118743896484375;8.79999997778214;881;100 mA
156.479746604927;-0.8990478515625;-0.01187744140625;8.80999997775689;882;100 mA
156.489746604901;-0.899658203125;-0.011865234375;8.81999997773164;883;100 mA
156.499746604876;-0.89935302734375;-0.0118682861328125;8.82999997770639;884;100 mA
156.509746604851;-0.899658203125;-0.011846923828125;8.83999997768115;885;100 mA
156.519746604826;-0.899658203125;-0.01185302734375;8.8499999776559;886;100 mA
156.5297466048;-0.89935302734375;-0.0118438720703125;8.85999997763065;887;100 mA
156.539746604775;-0.8990478515625;-0.011834716796875;8.8699999776054;888;100 mA
156.54974660475;-0.89935302734375;-0.0118377685546875;8.87999997758016;889;100 mA
156.559746604725;-0.899658203125;-0.011822509765625;8.88999997755491;890;100 mA
156.569746604699;-0.89935302734375;-0.01181640625;8.89999997752966;891;100 mA
156.579746604674;-0.89996337890625;-0.0118194580078125;8.90999997750441;892;100 mA
156.589746604649;-0.8990478515625;-0.01180419921875;8.91999997747916;893;100 mA
156.599746604624;-0.89996337890625;-0.011810302734375;8.92999997745392;894;100 mA
156.609746604598;-0.89935302734375;-0.0117950439453125;8.93999997742867;895;100 mA
156.619746604573;-0.89935302734375;-0.0117919921875;8.94999997740342;896;100 mA
156.629746604548;-0.89935302734375;-0.011798095703125;8.95999997737817;897;100 mA
156.639746604523;-0.899658203125;-0.01177978515625;8.96999997735293;898;100 mA
156.649746604497;-0.89935302734375;-0.011785888671875;8.97999997732768;899;100 mA
156.659746604472;-0.899658203125;-0.011773681640625;8.98999997730243;900;100 mA
156.669746604447;-0.899658203125;-0.0117645263671875;8.99999997727718;901;100 mA
156.679746604422;-0.89935302734375;-0.0117706298828125;9.00999997725194;902;100 mA
156.689746604396;-0.899658203125;-0.0117584228515625;9.01999997722669;903;100 mA
156.699746604371;-0.899658203125;-0.0117462158203125;9.02999997720144;904;100 mA
156.709746604346;-0.8990478515625;-0.0117340087890625;9.03999997717619;905;100 mA
156.719746604321;-0.89935302734375;-0.0117401123046875;9.04999997715095;906;100 mA
156.729746604295;-0.89996337890625;-0.0117340087890625;9.0599999771257;907;100 mA
156.73974660427;-0.8990478515625;-0.0117218017578125;9.06999997710045;908;100 mA
156.749746604245;-0.89935302734375;-0.0117218017578125;9.0799999770752;909;100 mA
156.75974660422;-0.89935302734375;-0.0117218017578125;9.08999997704996;910;100 mA
156.769746604194;-0.899658203125;-0.0117095947265625;9.09999997702471;911;100 mA
156.779746604169;-0.899658203125;-0.0117095947265625;9.10999997699946;912;100 mA
156.789746604144;-0.89935302734375;-0.011700439453125;9.11999997697421;913;100 mA
156.799746604119;-0.89935302734375;-0.011700439453125;9.12999997694897;914;100 mA
156.809746604093;-0.899658203125;-0.0116851806640625;9.13999997692372;915;100 mA
156.819746604068;-0.8990478515625;-0.0116851806640625;9.14999997689847;916;100 mA
156.829746604043;-0.899658203125;-0.01168212890625;9.15999997687322;917;100 mA
156.839746604018;-0.89935302734375;-0.011669921875;9.16999997684798;918;100 mA
156.849746603992;-0.89996337890625;-0.0116729736328125;9.17999997682273;919;100 mA
156.859746603967;-0.899658203125;-0.0116668701171875;9.18999997679748;920;100 mA
156.869746603942;-0.89874267578125;-0.011651611328125;9.19999997677223;921;100 mA
156.879746603917;-0.89935302734375;-0.011651611328125;9.20999997674699;922;100 mA
156.889746603891;-0.89874267578125;-0.0116424560546875;9.21999997672174;923;100 mA
156.899746603866;-0.89935302734375;-0.0116424560546875;9.22999997669649;924;100 mA
156.909746603841;-0.8990478515625;-0.01163330078125;9.23999997667124;925;100 mA
156.919746603816;-0.89935302734375;-0.0116302490234375;9.249999976646;926;100 mA
156.92974660379;-0.8990478515625;-0.0116180419921875;9.25999997662075;927;100 mA
156.939746603765;-0.89935302734375;-0.011614990234375;9.2699999765955;928;100 mA
156.94974660374;-0.899658203125;-0.01162109375;9.27999997657025;929;100 mA
156.959746603715;-0.8990478515625;-0.0116180419921875;9.289999976545;930;100 mA
156.969746603689;-0.8990478515625;-0.011602783203125;9.29999997651976;931;100 mA
156.979746603664;-0.89874267578125;-0.011602783203125;9.30999997649451;932;100 mA
156.989746603639;-0.899658203125;-0.011590576171875;9.31999997646926;933;100 mA
156.999746603614;-0.899658203125;-0.0115936279296875;9.32999997644401;934;100 mA
157.009746603588;-0.89996337890625;-0.0115814208984375;9.33999997641877;935;100 mA
157.019746603563;-0.89935302734375;-0.0115814208984375;9.34999997639352;936;100 mA
157.029746603538;-0.8990478515625;-0.011572265625;9.35999997636827;937;100 mA
157.039746603513;-0.899658203125;-0.01156005859375;9.36999997634302;938;100 mA
157.049746603488;-0.89935302734375;-0.0115631103515625;9.37999997631778;939;100 mA
157.059746603462;-0.899658203125;-0.0115631103515625;9.38999997629253;940;100 mA
157.069746603437;-0.89935302734375;-0.0115570068359375;9.39999997626728;941;100 mA
157.079746603412;-0.89935302734375;-0.0115447998046875;9.40999997624203;942;100 mA
157.089746603387;-0.89996337890625;-0.0115386962890625;9.41999997621679;943;100 mA
157.099746603361;-0.899658203125;-0.011541748046875;9.42999997619154;944;100 mA
157.109746603336;-0.89935302734375;-0.011529541015625;9.43999997616629;945;100 mA
157.119746603311;-0.899658203125;-0.0115264892578125;9.44999997614104;946;100 mA
157.129746603286;-0.899658203125;-0.0115234375;9.4599999761158;947;100 mA
157.13974660326;-0.89874267578125;-0.0115142822265625;9.46999997609055;948;100 mA
157.149746603235;-0.8990478515625;-0.0115142822265625;9.4799999760653;949;100 mA
157.15974660321;-0.8990478515625;-0.0115142822265625;9.48999997604005;950;100 mA
157.169746603185;-0.8990478515625;-0.0114990234375;9.49999997601481;951;100 mA
157.179746603159;-0.8990478515625;-0.011492919921875;9.50999997598956;952;100 mA
157.189746603134;-0.89874267578125;-0.01148681640625;9.51999997596431;953;100 mA
157.199746603109;-0.89935302734375;-0.01148681640625;9.52999997593906;954;100 mA
157.209746603084;-0.8990478515625;-0.011474609375;9.53999997591382;955;100 mA
157.219746603058;-0.899658203125;-0.0114715576171875;9.54999997588857;956;100 mA
157.229746603033;-0.8990478515625;-0.0114715576171875;9.55999997586332;957;100 mA
157.239746603008;-0.8990478515625;-0.011456298828125;9.56999997583807;958;100 mA
157.249746602983;-0.8990478515625;-0.01146240234375;9.57999997581283;959;100 mA
157.259746602957;-0.899658203125;-0.0114593505859375;9.58999997578758;960;100 mA
157.269746602932;-0.89935302734375;-0.0114471435546875;9.59999997576233;961;100 mA
157.279746602907;-0.89935302734375;-0.0114410400390625;9.60999997573708;962;100 mA
157.289746602882;-0.89996337890625;-0.011431884765625;9.61999997571183;963;100 mA
157.299746602856;-0.89935302734375;-0.01143798828125;9.62999997568659;964;100 mA
157.309746602831;-0.8990478515625;-0.01142578125;9.63999997566134;965;100 mA
157.319746602806;-0.89935302734375;-0.0114288330078125;9.64999997563609;966;100 mA
157.329746602781;-0.89935302734375;-0.0114166259765625;9.65999997561084;967;100 mA
157.339746602755;-0.8990478515625;-0.0114105224609375;9.6699999755856;968;100 mA
157.34974660273;-0.89874267578125;-0.0114105224609375;9.67999997556035;969;100 mA
157.359746602705;-0.89935302734375;-0.0114105224609375;9.6899999755351;970;100 mA
157.36974660268;-0.89935302734375;-0.0114044189453125;9.69999997550985;971;100 mA
157.379746602654;-0.899658203125;-0.011395263671875;9.70999997548461;972;100 mA
157.389746602629;-0.89996337890625;-0.0113861083984375;9.71999997545936;973;100 mA
157.399746602604;-0.89935302734375;-0.011383056640625;9.72999997543411;974;100 mA
157.409746602579;-0.8990478515625;-0.011376953125;9.73999997540886;975;100 mA
157.419746602553;-0.8990478515625;-0.011376953125;9.74999997538362;976;100 mA
157.429746602528;-0.89935302734375;-0.0113677978515625;9.75999997535837;977;100 mA
157.439746602503;-0.8990478515625;-0.0113616943359375;9.76999997533312;978;100 mA
157.449746602478;-0.89935302734375;-0.0113616943359375;9.77999997530787;979;100 mA
157.459746602452;-0.89935302734375;-0.0113616943359375;9.78999997528263;980;100 mA
157.469746602427;-0.899658203125;-0.0113494873046875;9.79999997525738;981;100 mA
157.479746602402;-0.89996337890625;-0.01134033203125;9.80999997523213;982;100 mA
157.489746602377;-0.89935302734375;-0.0113311767578125;9.81999997520688;983;100 mA
157.499746602351;-0.8990478515625;-0.0113372802734375;9.82999997518164;984;100 mA
157.509746602326;-0.899658203125;-0.0113250732421875;9.83999997515639;985;100 mA
157.519746602301;-0.89935302734375;-0.0113250732421875;9.84999997513114;986;100 mA
157.529746602276;-0.89935302734375;-0.0113189697265625;9.85999997510589;987;100 mA
157.53974660225;-0.899658203125;-0.0113128662109375;9.86999997508065;988;100 mA
157.549746602225;-0.8990478515625;-0.0113189697265625;9.8799999750554;989;100 mA
157.5597466022;-0.899658203125;-0.011309814453125;9.88999997503015;990;100 mA
157.569746602175;-0.8990478515625;-0.011309814453125;9.8999999750049;991;100 mA
157.579746602149;-0.89935302734375;-0.0112945556640625;9.90999997497966;992;100 mA
157.589746602124;-0.89996337890625;-0.0112884521484375;9.91999997495441;993;100 mA
157.599746602099;-0.89935302734375;-0.0112945556640625;9.92999997492916;994;100 mA
157.609746602074;-0.8990478515625;-0.011279296875;9.93999997490391;995;100 mA
157.619746602048;-0.899658203125;-0.0112762451171875;9.94999997487866;996;100 mA
157.629746602023;-0.899658203125;-0.0112701416015625;9.95999997485342;997;100 mA
157.639746601998;-0.8990478515625;-0.0112701416015625;9.96999997482817;998;100 mA
157.649746601973;-0.899658203125;-0.01126708984375;9.97999997480292;999;100 mA
157.659746601947;-0.89935302734375;-0.01126708984375;9.98999997477767;1000;100 mA
