Time (s);WE(1).Potential (V);WE(1).Current (A);Corrected time (s);Index;Current range
219.102976446818;-0.94970703125;-0.3095703125;0;1;100 mA
219.112976446793;-0.94940185546875;-0.23040771484375;0.00999999997475243;2;100 mA
219.122976446768;-0.9490966796875;-0.19146728515625;0.0199999999495049;3;100 mA
219.132976446742;-0.94879150390625;-0.167236328125;0.0299999999242573;4;100 mA
219.142976446717;-0.9490966796875;-0.15032958984375;0.0399999998990097;5;100 mA
219.152976446692;-0.94940185546875;-0.1376953125;0.0499999998737621;6;100 mA
219.162976446667;-0.94940185546875;-0.12774658203125;0.0599999998485146;7;100 mA
219.172976446641;-0.94940185546875;-0.11968994140625;0.069999999823267;8;100 mA
219.182976446616;-0.94970703125;-0.112945556640625;0.0799999997980194;9;100 mA
219.192976446591;-0.9490966796875;-0.107269287109375;0.0899999997727718;10;100 mA
219.202976446566;-0.9490966796875;-0.10235595703125;0.0999999997475243;11;100 mA
219.21297644654;-0.94970703125;-0.0980224609375;0.109999999722277;12;100 mA
219.222976446515;-0.94940185546875;-0.09423828125;0.119999999697029;13;100 mA
219.23297644649;-0.9490966796875;-0.090850830078125;0.129999999671782;14;100 mA
219.242976446465;-0.94970703125;-0.087799072265625;0.139999999646534;15;100 mA
219.252976446439;-0.94970703125;-0.08502197265625;0.149999999621286;16;100 mA
219.262976446414;-0.9490966796875;-0.082489013671875;0.159999999596039;17;100 mA
219.272976446389;-0.94940185546875;-0.080169677734375;0.169999999570791;18;100 mA
219.282976446364;-0.94940185546875;-0.07806396484375;0.179999999545544;19;100 mA
219.292976446338;-0.94940185546875;-0.07611083984375;0.189999999520296;20;100 mA
219.302976446313;-0.94970703125;-0.07427978515625;0.199999999495049;21;100 mA
219.312976446288;-0.9490966796875;-0.07257080078125;0.209999999469801;22;100 mA
219.322976446263;-0.94940185546875;-0.07098388671875;0.219999999444553;23;100 mA
219.332976446237;-0.94940185546875;-0.069488525390625;0.229999999419306;24;100 mA
219.342976446212;-0.94940185546875;-0.068084716796875;0.239999999394058;25;100 mA
219.352976446187;-0.94940185546875;-0.0667724609375;0.249999999368811;26;100 mA
219.362976446162;-0.94970703125;-0.065521240234375;0.259999999343563;27;100 mA
219.372976446136;-0.9490966796875;-0.0643310546875;0.269999999318316;28;100 mA
219.382976446111;-0.94940185546875;-0.063201904296875;0.279999999293068;29;100 mA
219.392976446086;-0.94970703125;-0.0621337890625;0.28999999926782;30;100 mA
219.402976446061;-0.94940185546875;-0.0611572265625;0.299999999242573;31;100 mA
219.412976446035;-0.94940185546875;-0.0601806640625;0.309999999217325;32;100 mA
219.42297644601;-0.9490966796875;-0.05926513671875;0.319999999192078;33;100 mA
219.432976445985;-0.94970703125;-0.058380126953125;0.32999999916683;34;100 mA
219.44297644596;-0.94940185546875;-0.05755615234375;0.339999999141583;35;100 mA
219.452976445934;-0.94879150390625;-0.0567626953125;0.349999999116335;36;100 mA
219.462976445909;-0.94940185546875;-0.05596923828125;0.359999999091087;37;100 mA
219.472976445884;-0.94940185546875;-0.05523681640625;0.36999999906584;38;100 mA
219.482976445859;-0.94940185546875;-0.05450439453125;0.379999999040592;39;100 mA
219.492976445834;-0.94879150390625;-0.0538330078125;0.389999999015345;40;100 mA
219.502976445808;-0.94940185546875;-0.053192138671875;0.399999998990097;41;100 mA
219.512976445783;-0.94940185546875;-0.05255126953125;0.40999999896485;42;100 mA
219.522976445758;-0.94970703125;-0.05194091796875;0.419999998939602;43;100 mA
219.532976445733;-0.9490966796875;-0.051361083984375;0.429999998914354;44;100 mA
219.542976445707;-0.94940185546875;-0.05078125;0.439999998889107;45;100 mA
219.552976445682;-0.94879150390625;-0.05023193359375;0.449999998863859;46;100 mA
219.562976445657;-0.94940185546875;-0.0496826171875;0.459999998838612;47;100 mA
219.572976445632;-0.9490966796875;-0.0491546630859375;0.469999998813364;48;100 mA
219.582976445606;-0.94970703125;-0.0486480712890625;0.479999998788116;49;100 mA
219.592976445581;-0.9490966796875;-0.048162841796875;0.489999998762869;50;100 mA
219.602976445556;-0.9490966796875;-0.047686767578125;0.499999998737621;51;100 mA
219.612976445531;-0.9490966796875;-0.047222900390625;0.509999998712374;52;100 mA
219.622976445505;-0.9490966796875;-0.046783447265625;0.519999998687126;53;100 mA
219.63297644548;-0.94879150390625;-0.0463409423828125;0.529999998661879;54;100 mA
219.642976445455;-0.94940185546875;-0.045928955078125;0.539999998636631;55;100 mA
219.65297644543;-0.948486328125;-0.045513916015625;0.549999998611383;56;100 mA
219.662976445404;-0.94970703125;-0.0451080322265625;0.559999998586136;57;100 mA
219.672976445379;-0.94940185546875;-0.044732666015625;0.569999998560888;58;100 mA
219.682976445354;-0.94940185546875;-0.044342041015625;0.579999998535641;59;100 mA
219.692976445329;-0.9490966796875;-0.0439727783203125;0.589999998510393;60;100 mA
219.702976445303;-0.94970703125;-0.04361572265625;0.599999998485146;61;100 mA
219.712976445278;-0.94970703125;-0.043255615234375;0.609999998459898;62;100 mA
219.722976445253;-0.9490966796875;-0.042926025390625;0.61999999843465;63;100 mA
219.732976445228;-0.94879150390625;-0.042578125;0.629999998409403;64;100 mA
219.742976445202;-0.9490966796875;-0.0422576904296875;0.639999998384155;65;100 mA
219.752976445177;-0.94970703125;-0.0419342041015625;0.649999998358908;66;100 mA
219.762976445152;-0.94940185546875;-0.04161376953125;0.65999999833366;67;100 mA
219.772976445127;-0.94940185546875;-0.041314697265625;0.669999998308413;68;100 mA
219.782976445101;-0.94970703125;-0.041015625;0.679999998283165;69;100 mA
219.792976445076;-0.94940185546875;-0.040728759765625;0.689999998257917;70;100 mA
219.802976445051;-0.9490966796875;-0.0404388427734375;0.69999999823267;71;100 mA
219.812976445026;-0.94940185546875;-0.040155029296875;0.709999998207422;72;100 mA
219.822976445;-0.94970703125;-0.0398956298828125;0.719999998182175;73;100 mA
219.832976444975;-0.94879150390625;-0.0396148681640625;0.729999998156927;74;100 mA
219.84297644495;-0.9490966796875;-0.03935546875;0.73999999813168;75;100 mA
219.852976444925;-0.9490966796875;-0.0391021728515625;0.749999998106432;76;100 mA
219.862976444899;-0.9490966796875;-0.0388427734375;0.759999998081184;77;100 mA
219.872976444874;-0.9490966796875;-0.0385986328125;0.769999998055937;78;100 mA
219.882976444849;-0.9490966796875;-0.0383453369140625;0.779999998030689;79;100 mA
219.892976444824;-0.94879150390625;-0.0381134033203125;0.789999998005442;80;100 mA
219.902976444798;-0.9490966796875;-0.03787841796875;0.799999997980194;81;100 mA
219.912976444773;-0.9490966796875;-0.0376373291015625;0.809999997954947;82;100 mA
219.922976444748;-0.94970703125;-0.03741455078125;0.819999997929699;83;100 mA
219.932976444723;-0.9490966796875;-0.0371826171875;0.829999997904451;84;100 mA
219.942976444697;-0.94940185546875;-0.036968994140625;0.839999997879204;85;100 mA
219.952976444672;-0.94970703125;-0.0367584228515625;0.849999997853956;86;100 mA
219.962976444647;-0.9490966796875;-0.0365386962890625;0.859999997828709;87;100 mA
219.972976444622;-0.9490966796875;-0.036346435546875;0.869999997803461;88;100 mA
219.982976444596;-0.94879150390625;-0.0361358642578125;0.879999997778214;89;100 mA
219.992976444571;-0.94940185546875;-0.035943603515625;0.889999997752966;90;100 mA
220.002976444546;-0.9490966796875;-0.03575439453125;0.899999997727718;91;100 mA
220.012976444521;-0.94940185546875;-0.0355438232421875;0.909999997702471;92;100 mA
220.022976444495;-0.9490966796875;-0.03536376953125;0.919999997677223;93;100 mA
220.03297644447;-0.9490966796875;-0.03516845703125;0.929999997651976;94;100 mA
220.042976444445;-0.94940185546875;-0.0349853515625;0.939999997626728;95;100 mA
220.05297644442;-0.94940185546875;-0.03480224609375;0.949999997601481;96;100 mA
220.062976444394;-0.9490966796875;-0.034625244140625;0.959999997576233;97;100 mA
220.072976444369;-0.94940185546875;-0.0344573974609375;0.969999997550985;98;100 mA
220.082976444344;-0.9490966796875;-0.03427734375;0.979999997525738;99;100 mA
220.092976444319;-0.94940185546875;-0.0341033935546875;0.98999999750049;100;100 mA
220.102976444293;-0.94879150390625;-0.0339385986328125;0.999999997475243;101;100 mA
220.112976444268;-0.94940185546875;-0.0337677001953125;1.00999999745;102;100 mA
220.122976444243;-0.94879150390625;-0.0336181640625;1.01999999742475;103;100 mA
220.132976444218;-0.94940185546875;-0.033447265625;1.0299999973995;104;100 mA
220.142976444192;-0.9490966796875;-0.033294677734375;1.03999999737425;105;100 mA
220.152976444167;-0.94970703125;-0.03314208984375;1.049999997349;106;100 mA
220.162976444142;-0.94879150390625;-0.0329833984375;1.05999999732376;107;100 mA
220.172976444117;-0.94970703125;-0.03284912109375;1.06999999729851;108;100 mA
220.182976444091;-0.94940185546875;-0.0326812744140625;1.07999999727326;109;100 mA
220.192976444066;-0.9490966796875;-0.0325347900390625;1.08999999724801;110;100 mA
220.202976444041;-0.9490966796875;-0.0323883056640625;1.09999999722277;111;100 mA
220.212976444016;-0.94879150390625;-0.032244873046875;1.10999999719752;112;100 mA
220.22297644399;-0.94940185546875;-0.0321075439453125;1.11999999717227;113;100 mA
220.232976443965;-0.9490966796875;-0.0319580078125;1.12999999714702;114;100 mA
220.24297644394;-0.9490966796875;-0.03182373046875;1.13999999712178;115;100 mA
220.252976443915;-0.94940185546875;-0.0316864013671875;1.14999999709653;116;100 mA
220.262976443889;-0.9490966796875;-0.0315460205078125;1.15999999707128;117;100 mA
220.272976443864;-0.94940185546875;-0.0314178466796875;1.16999999704603;118;100 mA
220.282976443839;-0.94940185546875;-0.0312744140625;1.17999999702079;119;100 mA
220.292976443814;-0.9490966796875;-0.0311492919921875;1.18999999699554;120;100 mA
220.302976443788;-0.9490966796875;-0.031024169921875;1.19999999697029;121;100 mA
220.312976443763;-0.9490966796875;-0.0308929443359375;1.20999999694504;122;100 mA
220.322976443738;-0.94940185546875;-0.0307861328125;1.2199999969198;123;100 mA
220.332976443713;-0.94940185546875;-0.0306427001953125;1.22999999689455;124;100 mA
220.342976443687;-0.94970703125;-0.030523681640625;1.2399999968693;125;100 mA
220.352976443662;-0.94940185546875;-0.0304046630859375;1.24999999684405;126;100 mA
220.362976443637;-0.9490966796875;-0.03028564453125;1.25999999681881;127;100 mA
220.372976443612;-0.94940185546875;-0.0301788330078125;1.26999999679356;128;100 mA
220.382976443586;-0.9490966796875;-0.0300506591796875;1.27999999676831;129;100 mA
220.392976443561;-0.94879150390625;-0.0299407958984375;1.28999999674306;130;100 mA
220.402976443536;-0.9490966796875;-0.02982177734375;1.29999999671782;131;100 mA
220.412976443511;-0.9490966796875;-0.0297088623046875;1.30999999669257;132;100 mA
220.422976443485;-0.9490966796875;-0.02960205078125;1.31999999666732;133;100 mA
220.43297644346;-0.94940185546875;-0.029486083984375;1.32999999664207;134;100 mA
220.442976443435;-0.94940185546875;-0.02938232421875;1.33999999661683;135;100 mA
220.45297644341;-0.94940185546875;-0.0292755126953125;1.34999999659158;136;100 mA
220.462976443384;-0.94970703125;-0.0291717529296875;1.35999999656633;137;100 mA
220.472976443359;-0.9490966796875;-0.0290771484375;1.36999999654108;138;100 mA
220.482976443334;-0.94940185546875;-0.02896728515625;1.37999999651583;139;100 mA
220.492976443309;-0.9490966796875;-0.028863525390625;1.38999999649059;140;100 mA
220.502976443284;-0.9490966796875;-0.028753662109375;1.39999999646534;141;100 mA
220.512976443258;-0.94970703125;-0.02864990234375;1.40999999644009;142;100 mA
220.522976443233;-0.9490966796875;-0.0285552978515625;1.41999999641484;143;100 mA
220.532976443208;-0.94970703125;-0.028448486328125;1.4299999963896;144;100 mA
220.542976443183;-0.94940185546875;-0.0283599853515625;1.43999999636435;145;100 mA
220.552976443157;-0.94970703125;-0.028265380859375;1.4499999963391;146;100 mA
220.562976443132;-0.9490966796875;-0.028167724609375;1.45999999631385;147;100 mA
220.572976443107;-0.94940185546875;-0.028076171875;1.46999999628861;148;100 mA
220.582976443082;-0.9490966796875;-0.0279754638671875;1.47999999626336;149;100 mA
220.592976443056;-0.94940185546875;-0.027880859375;1.48999999623811;150;100 mA
220.602976443031;-0.94940185546875;-0.0277984619140625;1.49999999621286;151;100 mA
220.612976443006;-0.94970703125;-0.0277008056640625;1.50999999618762;152;100 mA
220.622976442981;-0.94970703125;-0.027618408203125;1.51999999616237;153;100 mA
220.632976442955;-0.948486328125;-0.02752685546875;1.52999999613712;154;100 mA
220.64297644293;-0.9490966796875;-0.0274383544921875;1.53999999611187;155;100 mA
220.652976442905;-0.94940185546875;-0.0273468017578125;1.54999999608663;156;100 mA
220.66297644288;-0.94940185546875;-0.02725830078125;1.55999999606138;157;100 mA
220.672976442854;-0.9490966796875;-0.027178955078125;1.56999999603613;158;100 mA
220.682976442829;-0.94970703125;-0.0270843505859375;1.57999999601088;159;100 mA
220.692976442804;-0.9490966796875;-0.027001953125;1.58999999598564;160;100 mA
220.702976442779;-0.94940185546875;-0.026922607421875;1.59999999596039;161;100 mA
220.712976442753;-0.94940185546875;-0.0268341064453125;1.60999999593514;162;100 mA
220.722976442728;-0.94940185546875;-0.02677001953125;1.61999999590989;163;100 mA
220.732976442703;-0.9490966796875;-0.0266754150390625;1.62999999588465;164;100 mA
220.742976442678;-0.94940185546875;-0.02659912109375;1.6399999958594;165;100 mA
220.752976442652;-0.94940185546875;-0.026513671875;1.64999999583415;166;100 mA
220.762976442627;-0.9490966796875;-0.026434326171875;1.6599999958089;167;100 mA
220.772976442602;-0.9490966796875;-0.026373291015625;1.66999999578366;168;100 mA
220.782976442577;-0.9490966796875;-0.026287841796875;1.67999999575841;169;100 mA
220.792976442551;-0.9490966796875;-0.026214599609375;1.68999999573316;170;100 mA
220.802976442526;-0.94940185546875;-0.0261383056640625;1.69999999570791;171;100 mA
220.812976442501;-0.9490966796875;-0.0260498046875;1.70999999568267;172;100 mA
220.822976442476;-0.94970703125;-0.0259857177734375;1.71999999565742;173;100 mA
220.83297644245;-0.9490966796875;-0.0259002685546875;1.72999999563217;174;100 mA
220.842976442425;-0.94879150390625;-0.025830078125;1.73999999560692;175;100 mA
220.8529764424;-0.94970703125;-0.0257598876953125;1.74999999558167;176;100 mA
220.862976442375;-0.9490966796875;-0.0256805419921875;1.75999999555643;177;100 mA
220.872976442349;-0.94970703125;-0.02562255859375;1.76999999553118;178;100 mA
220.882976442324;-0.94940185546875;-0.025537109375;1.77999999550593;179;100 mA
220.892976442299;-0.94940185546875;-0.0254730224609375;1.78999999548068;180;100 mA
220.902976442274;-0.94940185546875;-0.0254058837890625;1.79999999545544;181;100 mA
220.912976442248;-0.9490966796875;-0.025323486328125;1.80999999543019;182;100 mA
220.922976442223;-0.94970703125;-0.0252777099609375;1.81999999540494;183;100 mA
220.932976442198;-0.9490966796875;-0.0251953125;1.82999999537969;184;100 mA
220.942976442173;-0.94940185546875;-0.0251373291015625;1.83999999535445;185;100 mA
220.952976442147;-0.94970703125;-0.025067138671875;1.8499999953292;186;100 mA
220.962976442122;-0.9490966796875;-0.024993896484375;1.85999999530395;187;100 mA
220.972976442097;-0.94879150390625;-0.0249298095703125;1.8699999952787;188;100 mA
220.982976442072;-0.94940185546875;-0.0248565673828125;1.87999999525346;189;100 mA
220.992976442046;-0.9490966796875;-0.0247894287109375;1.88999999522821;190;100 mA
221.002976442021;-0.9490966796875;-0.0247344970703125;1.89999999520296;191;100 mA
221.012976441996;-0.95001220703125;-0.024664306640625;1.90999999517771;192;100 mA
221.022976441971;-0.94940185546875;-0.024615478515625;1.91999999515247;193;100 mA
221.032976441945;-0.94970703125;-0.024542236328125;1.92999999512722;194;100 mA
221.04297644192;-0.94940185546875;-0.024481201171875;1.93999999510197;195;100 mA
221.052976441895;-0.94940185546875;-0.0244171142578125;1.94999999507672;196;100 mA
221.06297644187;-0.94940185546875;-0.024346923828125;1.95999999505148;197;100 mA
221.072976441844;-0.94970703125;-0.02430419921875;1.96999999502623;198;100 mA
221.082976441819;-0.9490966796875;-0.0242340087890625;1.97999999500098;199;100 mA
221.092976441794;-0.94879150390625;-0.024169921875;1.98999999497573;200;100 mA
221.102976441769;-0.9490966796875;-0.0241119384765625;1.99999999495049;201;100 mA
221.112976441743;-0.94940185546875;-0.024053955078125;2.00999999492524;202;100 mA
221.122976441718;-0.94940185546875;-0.0240081787109375;2.01999999489999;203;100 mA
221.132976441693;-0.9490966796875;-0.02393798828125;2.02999999487474;204;100 mA
221.142976441668;-0.94940185546875;-0.023883056640625;2.0399999948495;205;100 mA
221.152976441642;-0.94970703125;-0.023822021484375;2.04999999482425;206;100 mA
221.162976441617;-0.94940185546875;-0.0237579345703125;2.059999994799;207;100 mA
221.172976441592;-0.94970703125;-0.02371826171875;2.06999999477375;208;100 mA
221.182976441567;-0.94879150390625;-0.0236541748046875;2.0799999947485;209;100 mA
221.192976441541;-0.94940185546875;-0.02359619140625;2.08999999472326;210;100 mA
221.202976441516;-0.94879150390625;-0.0235382080078125;2.09999999469801;211;100 mA
221.212976441491;-0.94940185546875;-0.0234771728515625;2.10999999467276;212;100 mA
221.222976441466;-0.94940185546875;-0.0234344482421875;2.11999999464751;213;100 mA
221.23297644144;-0.94940185546875;-0.0233795166015625;2.12999999462227;214;100 mA
221.242976441415;-0.94879150390625;-0.0233184814453125;2.13999999459702;215;100 mA
221.25297644139;-0.94940185546875;-0.0232757568359375;2.14999999457177;216;100 mA
221.262976441365;-0.9490966796875;-0.023211669921875;2.15999999454652;217;100 mA
221.272976441339;-0.9490966796875;-0.0231719970703125;2.16999999452128;218;100 mA
221.282976441314;-0.94940185546875;-0.023114013671875;2.17999999449603;219;100 mA
221.292976441289;-0.94940185546875;-0.0230621337890625;2.18999999447078;220;100 mA
221.302976441264;-0.94970703125;-0.023016357421875;2.19999999444553;221;100 mA
221.312976441238;-0.94940185546875;-0.0229522705078125;2.20999999442029;222;100 mA
221.322976441213;-0.94940185546875;-0.0229156494140625;2.21999999439504;223;100 mA
221.332976441188;-0.9490966796875;-0.02286376953125;2.22999999436979;224;100 mA
221.342976441163;-0.94940185546875;-0.0228057861328125;2.23999999434454;225;100 mA
221.352976441137;-0.94940185546875;-0.0227569580078125;2.2499999943193;226;100 mA
221.362976441112;-0.94879150390625;-0.022698974609375;2.25999999429405;227;100 mA
221.372976441087;-0.94940185546875;-0.0226593017578125;2.2699999942688;228;100 mA
221.382976441062;-0.94879150390625;-0.022607421875;2.27999999424355;229;100 mA
221.392976441036;-0.94940185546875;-0.02255859375;2.28999999421831;230;100 mA
221.402976441011;-0.94940185546875;-0.022509765625;2.29999999419306;231;100 mA
221.412976440986;-0.9490966796875;-0.0224609375;2.30999999416781;232;100 mA
221.422976440961;-0.94940185546875;-0.0224151611328125;2.31999999414256;233;100 mA
221.432976440935;-0.94940185546875;-0.02236328125;2.32999999411732;234;100 mA
221.44297644091;-0.94940185546875;-0.0223114013671875;2.33999999409207;235;100 mA
221.452976440885;-0.94970703125;-0.0222686767578125;2.34999999406682;236;100 mA
221.46297644086;-0.9490966796875;-0.0222137451171875;2.35999999404157;237;100 mA
221.472976440834;-0.94940185546875;-0.0221832275390625;2.36999999401633;238;100 mA
221.482976440809;-0.9490966796875;-0.0221343994140625;2.37999999399108;239;100 mA
221.492976440784;-0.9490966796875;-0.0220916748046875;2.38999999396583;240;100 mA
221.502976440759;-0.94940185546875;-0.0220489501953125;2.39999999394058;241;100 mA
221.512976440733;-0.94940185546875;-0.021990966796875;2.40999999391533;242;100 mA
221.522976440708;-0.94940185546875;-0.0219482421875;2.41999999389009;243;100 mA
221.532976440683;-0.9490966796875;-0.0219024658203125;2.42999999386484;244;100 mA
221.542976440658;-0.94970703125;-0.021856689453125;2.43999999383959;245;100 mA
221.552976440633;-0.94940185546875;-0.0218231201171875;2.44999999381434;246;100 mA
221.562976440607;-0.9490966796875;-0.02176513671875;2.4599999937891;247;100 mA
221.572976440582;-0.94940185546875;-0.021734619140625;2.46999999376385;248;100 mA
221.582976440557;-0.94970703125;-0.0216949462890625;2.4799999937386;249;100 mA
221.592976440532;-0.9490966796875;-0.021649169921875;2.48999999371335;250;100 mA
221.602976440506;-0.94879150390625;-0.0216156005859375;2.49999999368811;251;100 mA
221.612976440481;-0.94970703125;-0.0215576171875;2.50999999366286;252;100 mA
221.622976440456;-0.94940185546875;-0.021527099609375;2.51999999363761;253;100 mA
221.632976440431;-0.94879150390625;-0.0214813232421875;2.52999999361236;254;100 mA
221.642976440405;-0.9490966796875;-0.0214324951171875;2.53999999358712;255;100 mA
221.65297644038;-0.94940185546875;-0.021392822265625;2.54999999356187;256;100 mA
221.662976440355;-0.94940185546875;-0.0213470458984375;2.55999999353662;257;100 mA
221.67297644033;-0.94879150390625;-0.0212982177734375;2.56999999351137;258;100 mA
221.682976440304;-0.94879150390625;-0.0212615966796875;2.57999999348613;259;100 mA
221.692976440279;-0.94879150390625;-0.0212158203125;2.58999999346088;260;100 mA
221.702976440254;-0.94940185546875;-0.0211883544921875;2.59999999343563;261;100 mA
221.712976440229;-0.9490966796875;-0.021136474609375;2.60999999341038;262;100 mA
221.722976440203;-0.94970703125;-0.0211029052734375;2.61999999338514;263;100 mA
221.732976440178;-0.9490966796875;-0.0210693359375;2.62999999335989;264;100 mA
221.742976440153;-0.94970703125;-0.021026611328125;2.63999999333464;265;100 mA
221.752976440128;-0.94879150390625;-0.0209991455078125;2.64999999330939;266;100 mA
221.762976440102;-0.94940185546875;-0.0209503173828125;2.65999999328415;267;100 mA
221.772976440077;-0.94940185546875;-0.020916748046875;2.6699999932589;268;100 mA
221.782976440052;-0.9490966796875;-0.020880126953125;2.67999999323365;269;100 mA
221.792976440027;-0.9490966796875;-0.0208343505859375;2.6899999932084;270;100 mA
221.802976440001;-0.94940185546875;-0.0207977294921875;2.69999999318316;271;100 mA
221.812976439976;-0.9490966796875;-0.0207489013671875;2.70999999315791;272;100 mA
221.822976439951;-0.94940185546875;-0.02071533203125;2.71999999313266;273;100 mA
221.832976439926;-0.9490966796875;-0.0206817626953125;2.72999999310741;274;100 mA
221.8429764399;-0.94940185546875;-0.0206390380859375;2.73999999308217;275;100 mA
221.852976439875;-0.94940185546875;-0.0206085205078125;2.74999999305692;276;100 mA
221.86297643985;-0.94970703125;-0.020562744140625;2.75999999303167;277;100 mA
221.872976439825;-0.94940185546875;-0.0205291748046875;2.76999999300642;278;100 mA
221.882976439799;-0.94940185546875;-0.0205047607421875;2.77999999298117;279;100 mA
221.892976439774;-0.9490966796875;-0.02047119140625;2.78999999295593;280;100 mA
221.902976439749;-0.94940185546875;-0.0204437255859375;2.79999999293068;281;100 mA
221.912976439724;-0.94940185546875;-0.0203948974609375;2.80999999290543;282;100 mA
221.922976439698;-0.94970703125;-0.020367431640625;2.81999999288018;283;100 mA
221.932976439673;-0.9490966796875;-0.020330810546875;2.82999999285494;284;100 mA
221.942976439648;-0.94970703125;-0.0202880859375;2.83999999282969;285;100 mA
221.952976439623;-0.9490966796875;-0.0202606201171875;2.84999999280444;286;100 mA
221.962976439597;-0.94940185546875;-0.0202056884765625;2.85999999277919;287;100 mA
221.972976439572;-0.94970703125;-0.02017822265625;2.86999999275395;288;100 mA
221.982976439547;-0.94940185546875;-0.0201416015625;2.8799999927287;289;100 mA
221.992976439522;-0.9490966796875;-0.02010498046875;2.88999999270345;290;100 mA
222.002976439496;-0.94940185546875;-0.0200775146484375;2.8999999926782;291;100 mA
222.012976439471;-0.94940185546875;-0.020037841796875;2.90999999265296;292;100 mA
222.022976439446;-0.9490966796875;-0.02000732421875;2.91999999262771;293;100 mA
222.032976439421;-0.94940185546875;-0.0199798583984375;2.92999999260246;294;100 mA
222.042976439395;-0.94970703125;-0.0199493408203125;2.93999999257721;295;100 mA
222.05297643937;-0.9490966796875;-0.0199249267578125;2.94999999255197;296;100 mA
222.062976439345;-0.94970703125;-0.019879150390625;2.95999999252672;297;100 mA
222.07297643932;-0.9490966796875;-0.0198577880859375;2.96999999250147;298;100 mA
222.082976439294;-0.94940185546875;-0.01982421875;2.97999999247622;299;100 mA
222.092976439269;-0.94879150390625;-0.01978759765625;2.98999999245098;300;100 mA
222.102976439244;-0.94940185546875;-0.0197479248046875;2.99999999242573;301;100 mA
222.112976439219;-0.94940185546875;-0.0196990966796875;3.00999999240048;302;100 mA
222.122976439193;-0.94970703125;-0.019677734375;3.01999999237523;303;100 mA
222.132976439168;-0.95001220703125;-0.01964111328125;3.02999999234999;304;100 mA
222.142976439143;-0.94970703125;-0.0196136474609375;3.03999999232474;305;100 mA
222.152976439118;-0.94940185546875;-0.0195831298828125;3.04999999229949;306;100 mA
222.162976439092;-0.94940185546875;-0.0195465087890625;3.05999999227424;307;100 mA
222.172976439067;-0.94940185546875;-0.0195281982421875;3.069999992249;308;100 mA
222.182976439042;-0.94940185546875;-0.0194915771484375;3.07999999222375;309;100 mA
222.192976439017;-0.94940185546875;-0.0194732666015625;3.0899999921985;310;100 mA
222.202976438991;-0.9490966796875;-0.0194427490234375;3.09999999217325;311;100 mA
222.212976438966;-0.94879150390625;-0.019403076171875;3.109999992148;312;100 mA
222.222976438941;-0.9490966796875;-0.019384765625;3.11999999212276;313;100 mA
222.232976438916;-0.94970703125;-0.01934814453125;3.12999999209751;314;100 mA
222.24297643889;-0.94940185546875;-0.019317626953125;3.13999999207226;315;100 mA
222.252976438865;-0.94940185546875;-0.019287109375;3.14999999204701;316;100 mA
222.26297643884;-0.94940185546875;-0.01923828125;3.15999999202177;317;100 mA
222.272976438815;-0.94940185546875;-0.0192169189453125;3.16999999199652;318;100 mA
222.282976438789;-0.94940185546875;-0.0191864013671875;3.17999999197127;319;100 mA
222.292976438764;-0.94940185546875;-0.0191558837890625;3.18999999194602;320;100 mA
222.302976438739;-0.94879150390625;-0.0191253662109375;3.19999999192078;321;100 mA
222.312976438714;-0.94940185546875;-0.0190948486328125;3.20999999189553;322;100 mA
222.322976438688;-0.94940185546875;-0.019085693359375;3.21999999187028;323;100 mA
222.332976438663;-0.94940185546875;-0.01905517578125;3.22999999184503;324;100 mA
222.342976438638;-0.94940185546875;-0.019024658203125;3.23999999181979;325;100 mA
222.352976438613;-0.94879150390625;-0.0189971923828125;3.24999999179454;326;100 mA
222.362976438587;-0.9490966796875;-0.018963623046875;3.25999999176929;327;100 mA
222.372976438562;-0.94940185546875;-0.0189453125;3.26999999174404;328;100 mA
222.382976438537;-0.94970703125;-0.018914794921875;3.2799999917188;329;100 mA
222.392976438512;-0.94970703125;-0.018878173828125;3.28999999169355;330;100 mA
222.402976438486;-0.94970703125;-0.018853759765625;3.2999999916683;331;100 mA
222.412976438461;-0.9490966796875;-0.0188201904296875;3.30999999164305;332;100 mA
222.422976438436;-0.9490966796875;-0.0187957763671875;3.31999999161781;333;100 mA
222.432976438411;-0.94970703125;-0.0187652587890625;3.32999999159256;334;100 mA
222.442976438385;-0.94940185546875;-0.0187469482421875;3.33999999156731;335;100 mA
222.45297643836;-0.9490966796875;-0.0187164306640625;3.34999999154206;336;100 mA
222.462976438335;-0.94940185546875;-0.0186798095703125;3.35999999151682;337;100 mA
222.47297643831;-0.9490966796875;-0.018658447265625;3.36999999149157;338;100 mA
222.482976438284;-0.94970703125;-0.0186279296875;3.37999999146632;339;100 mA
222.492976438259;-0.9490966796875;-0.018603515625;3.38999999144107;340;100 mA
222.502976438234;-0.94940185546875;-0.018585205078125;3.39999999141583;341;100 mA
222.512976438209;-0.94879150390625;-0.018548583984375;3.40999999139058;342;100 mA
222.522976438183;-0.9490966796875;-0.0185333251953125;3.41999999136533;343;100 mA
222.532976438158;-0.94940185546875;-0.0184967041015625;3.42999999134008;344;100 mA
222.542976438133;-0.94879150390625;-0.018475341796875;3.43999999131483;345;100 mA
222.552976438108;-0.94940185546875;-0.018450927734375;3.44999999128959;346;100 mA
222.562976438083;-0.9490966796875;-0.018414306640625;3.45999999126434;347;100 mA
222.572976438057;-0.94879150390625;-0.0183929443359375;3.46999999123909;348;100 mA
222.582976438032;-0.94970703125;-0.0183746337890625;3.47999999121384;349;100 mA
222.592976438007;-0.9490966796875;-0.01834716796875;3.4899999911886;350;100 mA
222.602976437982;-0.9490966796875;-0.0183197021484375;3.49999999116335;351;100 mA
222.612976437956;-0.948486328125;-0.0182830810546875;3.5099999911381;352;100 mA
222.622976437931;-0.94940185546875;-0.0182647705078125;3.51999999111285;353;100 mA
222.632976437906;-0.94970703125;-0.0182403564453125;3.52999999108761;354;100 mA
222.642976437881;-0.94940185546875;-0.0182159423828125;3.53999999106236;355;100 mA
222.652976437855;-0.9490966796875;-0.0181915283203125;3.54999999103711;356;100 mA
222.66297643783;-0.94940185546875;-0.0181640625;3.55999999101186;357;100 mA
222.672976437805;-0.94940185546875;-0.0181427001953125;3.56999999098662;358;100 mA
222.68297643778;-0.9490966796875;-0.018115234375;3.57999999096137;359;100 mA
222.692976437754;-0.94970703125;-0.0180908203125;3.58999999093612;360;100 mA
222.702976437729;-0.94940185546875;-0.0180694580078125;3.59999999091087;361;100 mA
222.712976437704;-0.9490966796875;-0.0180419921875;3.60999999088563;362;100 mA
222.722976437679;-0.94879150390625;-0.018017578125;3.61999999086038;363;100 mA
222.732976437653;-0.95001220703125;-0.017987060546875;3.62999999083513;364;100 mA
222.742976437628;-0.94970703125;-0.0179656982421875;3.63999999080988;365;100 mA
222.752976437603;-0.9490966796875;-0.017950439453125;3.64999999078464;366;100 mA
222.762976437578;-0.94970703125;-0.0179107666015625;3.65999999075939;367;100 mA
222.772976437552;-0.9490966796875;-0.0178985595703125;3.66999999073414;368;100 mA
222.782976437527;-0.94879150390625;-0.0178741455078125;3.67999999070889;369;100 mA
222.792976437502;-0.94970703125;-0.0178497314453125;3.68999999068365;370;100 mA
222.802976437477;-0.94940185546875;-0.0178314208984375;3.6999999906584;371;100 mA
222.812976437451;-0.9490966796875;-0.0177978515625;3.70999999063315;372;100 mA
222.822976437426;-0.94970703125;-0.01778564453125;3.7199999906079;373;100 mA
222.832976437401;-0.94940185546875;-0.0177581787109375;3.72999999058266;374;100 mA
222.842976437376;-0.9490966796875;-0.0177276611328125;3.73999999055741;375;100 mA
222.85297643735;-0.94970703125;-0.01771240234375;3.74999999053216;376;100 mA
222.862976437325;-0.9490966796875;-0.0176849365234375;3.75999999050691;377;100 mA
222.8729764373;-0.9490966796875;-0.01766357421875;3.76999999048167;378;100 mA
222.882976437275;-0.94970703125;-0.01763916015625;3.77999999045642;379;100 mA
222.892976437249;-0.94940185546875;-0.01761474609375;3.78999999043117;380;100 mA
222.902976437224;-0.94879150390625;-0.0175933837890625;3.79999999040592;381;100 mA
222.912976437199;-0.94970703125;-0.0175689697265625;3.80999999038067;382;100 mA
222.922976437174;-0.9490966796875;-0.0175537109375;3.81999999035543;383;100 mA
222.932976437148;-0.94940185546875;-0.017529296875;3.82999999033018;384;100 mA
222.942976437123;-0.94879150390625;-0.017510986328125;3.83999999030493;385;100 mA
222.952976437098;-0.948486328125;-0.0174835205078125;3.84999999027968;386;100 mA
222.962976437073;-0.9490966796875;-0.0174530029296875;3.85999999025444;387;100 mA
222.972976437047;-0.9490966796875;-0.01744384765625;3.86999999022919;388;100 mA
222.982976437022;-0.9490966796875;-0.0174224853515625;3.87999999020394;389;100 mA
222.992976436997;-0.9490966796875;-0.0173919677734375;3.88999999017869;390;100 mA
223.002976436972;-0.94940185546875;-0.0173736572265625;3.89999999015345;391;100 mA
223.012976436946;-0.94940185546875;-0.0173370361328125;3.9099999901282;392;100 mA
223.022976436921;-0.94940185546875;-0.01732177734375;3.91999999010295;393;100 mA
223.032976436896;-0.94940185546875;-0.01729736328125;3.9299999900777;394;100 mA
223.042976436871;-0.94940185546875;-0.017279052734375;3.93999999005246;395;100 mA
223.052976436845;-0.948486328125;-0.0172607421875;3.94999999002721;396;100 mA
223.06297643682;-0.94940185546875;-0.0172393798828125;3.95999999000196;397;100 mA
223.072976436795;-0.94970703125;-0.0172271728515625;3.96999998997671;398;100 mA
223.08297643677;-0.9490966796875;-0.0172119140625;3.97999998995147;399;100 mA
223.092976436744;-0.9490966796875;-0.0171875;3.98999998992622;400;100 mA
223.102976436719;-0.94940185546875;-0.017169189453125;3.99999998990097;401;100 mA
223.112976436694;-0.94940185546875;-0.017144775390625;4.00999998987572;402;100 mA
223.122976436669;-0.94940185546875;-0.01712646484375;4.01999998985048;403;100 mA
223.132976436643;-0.94879150390625;-0.017108154296875;4.02999998982523;404;100 mA
223.142976436618;-0.94940185546875;-0.01707763671875;4.03999998979998;405;100 mA
223.152976436593;-0.9490966796875;-0.0170654296875;4.04999998977473;406;100 mA
223.162976436568;-0.9490966796875;-0.0170318603515625;4.05999998974949;407;100 mA
223.172976436542;-0.9490966796875;-0.0170196533203125;4.06999998972424;408;100 mA
223.182976436517;-0.94879150390625;-0.016998291015625;4.07999998969899;409;100 mA
223.192976436492;-0.94940185546875;-0.016973876953125;4.08999998967374;410;100 mA
223.202976436467;-0.94940185546875;-0.0169586181640625;4.0999999896485;411;100 mA
223.212976436441;-0.94879150390625;-0.016937255859375;4.10999998962325;412;100 mA
223.222976436416;-0.94940185546875;-0.016925048828125;4.119999989598;413;100 mA
223.232976436391;-0.94940185546875;-0.0169097900390625;4.12999998957275;414;100 mA
223.242976436366;-0.94940185546875;-0.01688232421875;4.1399999895475;415;100 mA
223.25297643634;-0.94940185546875;-0.016864013671875;4.14999998952226;416;100 mA
223.262976436315;-0.948486328125;-0.016839599609375;4.15999998949701;417;100 mA
223.27297643629;-0.94940185546875;-0.0168212890625;4.16999998947176;418;100 mA
223.282976436265;-0.9490966796875;-0.01680908203125;4.17999998944651;419;100 mA
223.292976436239;-0.94879150390625;-0.0167816162109375;4.18999998942127;420;100 mA
223.302976436214;-0.94940185546875;-0.0167633056640625;4.19999998939602;421;100 mA
223.312976436189;-0.94879150390625;-0.016729736328125;4.20999998937077;422;100 mA
223.322976436164;-0.94940185546875;-0.0167144775390625;4.21999998934552;423;100 mA
223.332976436138;-0.94970703125;-0.0166900634765625;4.22999998932028;424;100 mA
223.342976436113;-0.95001220703125;-0.0166778564453125;4.23999998929503;425;100 mA
223.352976436088;-0.94940185546875;-0.0166656494140625;4.24999998926978;426;100 mA
223.362976436063;-0.94879150390625;-0.0166412353515625;4.25999998924453;427;100 mA
223.372976436037;-0.94970703125;-0.016632080078125;4.26999998921929;428;100 mA
223.382976436012;-0.94970703125;-0.01661376953125;4.27999998919404;429;100 mA
223.392976435987;-0.948486328125;-0.0165985107421875;4.28999998916879;430;100 mA
223.402976435962;-0.9490966796875;-0.0165802001953125;4.29999998914354;431;100 mA
223.412976435936;-0.9490966796875;-0.016552734375;4.3099999891183;432;100 mA
223.422976435911;-0.94940185546875;-0.0165435791015625;4.31999998909305;433;100 mA
223.432976435886;-0.94940185546875;-0.0165130615234375;4.3299999890678;434;100 mA
223.442976435861;-0.94879150390625;-0.0165008544921875;4.33999998904255;435;100 mA
223.452976435835;-0.94940185546875;-0.0164825439453125;4.34999998901731;436;100 mA
223.46297643581;-0.94940185546875;-0.0164520263671875;4.35999998899206;437;100 mA
223.472976435785;-0.94879150390625;-0.0164337158203125;4.36999998896681;438;100 mA
223.48297643576;-0.9490966796875;-0.01641845703125;4.37999998894156;439;100 mA
223.492976435734;-0.94970703125;-0.01640625;4.38999998891632;440;100 mA
223.502976435709;-0.94940185546875;-0.016387939453125;4.39999998889107;441;100 mA
223.512976435684;-0.94970703125;-0.016363525390625;4.40999998886582;442;100 mA
223.522976435659;-0.94879150390625;-0.0163665771484375;4.41999998884057;443;100 mA
223.532976435633;-0.9490966796875;-0.016339111328125;4.42999998881533;444;100 mA
223.542976435608;-0.9490966796875;-0.0163238525390625;4.43999998879008;445;100 mA
223.552976435583;-0.94940185546875;-0.0163116455078125;4.44999998876483;446;100 mA
223.562976435558;-0.9490966796875;-0.0162872314453125;4.45999998873958;447;100 mA
223.572976435532;-0.94879150390625;-0.0162841796875;4.46999998871433;448;100 mA
223.582976435507;-0.94879150390625;-0.0162506103515625;4.47999998868909;449;100 mA
223.592976435482;-0.94879150390625;-0.0162353515625;4.48999998866384;450;100 mA
223.602976435457;-0.95001220703125;-0.0162139892578125;4.49999998863859;451;100 mA
223.612976435432;-0.94940185546875;-0.0161834716796875;4.50999998861334;452;100 mA
223.622976435406;-0.9490966796875;-0.0161712646484375;4.5199999885881;453;100 mA
223.632976435381;-0.94940185546875;-0.016156005859375;4.52999998856285;454;100 mA
223.642976435356;-0.94940185546875;-0.0161376953125;4.5399999885376;455;100 mA
223.652976435331;-0.94940185546875;-0.01612548828125;4.54999998851235;456;100 mA
223.662976435305;-0.94970703125;-0.0161041259765625;4.55999998848711;457;100 mA
223.67297643528;-0.94970703125;-0.0160919189453125;4.56999998846186;458;100 mA
223.682976435255;-0.94970703125;-0.016082763671875;4.57999998843661;459;100 mA
223.69297643523;-0.9490966796875;-0.016058349609375;4.58999998841136;460;100 mA
223.702976435204;-0.94940185546875;-0.0160491943359375;4.59999998838612;461;100 mA
223.712976435179;-0.9490966796875;-0.016021728515625;4.60999998836087;462;100 mA
223.722976435154;-0.9490966796875;-0.0160125732421875;4.61999998833562;463;100 mA
223.732976435129;-0.94879150390625;-0.0159912109375;4.62999998831037;464;100 mA
223.742976435103;-0.948486328125;-0.0159820556640625;4.63999998828513;465;100 mA
223.752976435078;-0.9490966796875;-0.015960693359375;4.64999998825988;466;100 mA
223.762976435053;-0.94940185546875;-0.01593017578125;4.65999998823463;467;100 mA
223.772976435028;-0.94940185546875;-0.015924072265625;4.66999998820938;468;100 mA
223.782976435002;-0.94940185546875;-0.01590576171875;4.67999998818414;469;100 mA
223.792976434977;-0.9490966796875;-0.0158843994140625;4.68999998815889;470;100 mA
223.802976434952;-0.94970703125;-0.01588134765625;4.69999998813364;471;100 mA
223.812976434927;-0.948486328125;-0.0158538818359375;4.70999998810839;472;100 mA
223.822976434901;-0.9490966796875;-0.0158477783203125;4.71999998808315;473;100 mA
223.832976434876;-0.94940185546875;-0.0158355712890625;4.7299999880579;474;100 mA
223.842976434851;-0.94940185546875;-0.0158172607421875;4.73999998803265;475;100 mA
223.852976434826;-0.9490966796875;-0.01580810546875;4.7499999880074;476;100 mA
223.8629764348;-0.94879150390625;-0.0157806396484375;4.75999998798216;477;100 mA
223.872976434775;-0.9490966796875;-0.015771484375;4.76999998795691;478;100 mA
223.88297643475;-0.94940185546875;-0.015753173828125;4.77999998793166;479;100 mA
223.892976434725;-0.94970703125;-0.0157379150390625;4.78999998790641;480;100 mA
223.902976434699;-0.9490966796875;-0.015728759765625;4.79999998788116;481;100 mA
223.912976434674;-0.95001220703125;-0.0156982421875;4.80999998785592;482;100 mA
223.922976434649;-0.9490966796875;-0.01568603515625;4.81999998783067;483;100 mA
223.932976434624;-0.9490966796875;-0.015667724609375;4.82999998780542;484;100 mA
223.942976434598;-0.9490966796875;-0.0156463623046875;4.83999998778017;485;100 mA
223.952976434573;-0.94970703125;-0.015643310546875;4.84999998775493;486;100 mA
223.962976434548;-0.9490966796875;-0.015618896484375;4.85999998772968;487;100 mA
223.972976434523;-0.9490966796875;-0.01561279296875;4.86999998770443;488;100 mA
223.982976434497;-0.9490966796875;-0.015594482421875;4.87999998767918;489;100 mA
223.992976434472;-0.9490966796875;-0.01558837890625;4.88999998765394;490;100 mA
224.002976434447;-0.9490966796875;-0.0155731201171875;4.89999998762869;491;100 mA
224.012976434422;-0.9490966796875;-0.0155548095703125;4.90999998760344;492;100 mA
224.022976434396;-0.9490966796875;-0.015545654296875;4.91999998757819;493;100 mA
224.032976434371;-0.94940185546875;-0.0155242919921875;4.92999998755295;494;100 mA
224.042976434346;-0.9490966796875;-0.01551513671875;4.9399999875277;495;100 mA
224.052976434321;-0.94879150390625;-0.0155029296875;4.94999998750245;496;100 mA
224.062976434295;-0.94970703125;-0.0154754638671875;4.9599999874772;497;100 mA
224.07297643427;-0.94940185546875;-0.0154632568359375;4.96999998745196;498;100 mA
224.082976434245;-0.95001220703125;-0.015447998046875;4.97999998742671;499;100 mA
224.09297643422;-0.94940185546875;-0.0154266357421875;4.98999998740146;500;100 mA
224.102976434194;-0.9490966796875;-0.0154205322265625;4.99999998737621;501;100 mA
224.112976434169;-0.94940185546875;-0.0153961181640625;5.00999998735097;502;100 mA
224.122976434144;-0.94970703125;-0.0153900146484375;5.01999998732572;503;100 mA
224.132976434119;-0.9490966796875;-0.01536865234375;5.02999998730047;504;100 mA
224.142976434093;-0.94940185546875;-0.0153656005859375;5.03999998727522;505;100 mA
224.152976434068;-0.94940185546875;-0.0153533935546875;5.04999998724998;506;100 mA
224.162976434043;-0.9490966796875;-0.015325927734375;5.05999998722473;507;100 mA
224.172976434018;-0.9490966796875;-0.01531982421875;5.06999998719948;508;100 mA
224.182976433992;-0.94970703125;-0.0153076171875;5.07999998717423;509;100 mA
224.192976433967;-0.94940185546875;-0.01529541015625;5.08999998714899;510;100 mA
224.202976433942;-0.94940185546875;-0.0152801513671875;5.09999998712374;511;100 mA
224.212976433917;-0.94940185546875;-0.0152557373046875;5.10999998709849;512;100 mA
224.222976433891;-0.94970703125;-0.015240478515625;5.11999998707324;513;100 mA
224.232976433866;-0.94879150390625;-0.015228271484375;5.129999987048;514;100 mA
224.242976433841;-0.94940185546875;-0.0152130126953125;5.13999998702275;515;100 mA
224.252976433816;-0.9490966796875;-0.0152099609375;5.1499999869975;516;100 mA
224.26297643379;-0.94970703125;-0.0151824951171875;5.15999998697225;517;100 mA
224.272976433765;-0.9490966796875;-0.0151763916015625;5.169999986947;518;100 mA
224.28297643374;-0.94970703125;-0.0151611328125;5.17999998692176;519;100 mA
224.292976433715;-0.9490966796875;-0.01514892578125;5.18999998689651;520;100 mA
224.302976433689;-0.94940185546875;-0.01513671875;5.19999998687126;521;100 mA
224.312976433664;-0.9490966796875;-0.0151214599609375;5.20999998684601;522;100 mA
224.322976433639;-0.9490966796875;-0.0151153564453125;5.21999998682077;523;100 mA
224.332976433614;-0.94940185546875;-0.0151031494140625;5.22999998679552;524;100 mA
224.342976433588;-0.94940185546875;-0.015087890625;5.23999998677027;525;100 mA
224.352976433563;-0.94940185546875;-0.0150665283203125;5.24999998674502;526;100 mA
224.362976433538;-0.9490966796875;-0.015057373046875;5.25999998671978;527;100 mA
224.372976433513;-0.94970703125;-0.015045166015625;5.26999998669453;528;100 mA
224.382976433487;-0.94970703125;-0.0150360107421875;5.27999998666928;529;100 mA
224.392976433462;-0.94940185546875;-0.0150146484375;5.28999998664403;530;100 mA
224.402976433437;-0.94879150390625;-0.0150146484375;5.29999998661879;531;100 mA
224.412976433412;-0.94879150390625;-0.014984130859375;5.30999998659354;532;100 mA
224.422976433386;-0.95001220703125;-0.01497802734375;5.31999998656829;533;100 mA
224.432976433361;-0.94940185546875;-0.0149627685546875;5.32999998654304;534;100 mA
224.442976433336;-0.94879150390625;-0.0149444580078125;5.3399999865178;535;100 mA
224.452976433311;-0.94940185546875;-0.0149444580078125;5.34999998649255;536;100 mA
224.462976433285;-0.94879150390625;-0.0149200439453125;5.3599999864673;537;100 mA
224.47297643326;-0.9490966796875;-0.0149139404296875;5.36999998644205;538;100 mA
224.482976433235;-0.94940185546875;-0.0149017333984375;5.37999998641681;539;100 mA
224.49297643321;-0.94940185546875;-0.01488037109375;5.38999998639156;540;100 mA
224.502976433184;-0.94879150390625;-0.0148773193359375;5.39999998636631;541;100 mA
224.512976433159;-0.94940185546875;-0.01485595703125;5.40999998634106;542;100 mA
224.522976433134;-0.94940185546875;-0.014849853515625;5.41999998631582;543;100 mA
224.532976433109;-0.9490966796875;-0.0148345947265625;5.42999998629057;544;100 mA
224.542976433083;-0.9490966796875;-0.0148193359375;5.43999998626532;545;100 mA
224.552976433058;-0.94940185546875;-0.0148162841796875;5.44999998624007;546;100 mA
224.562976433033;-0.94940185546875;-0.014788818359375;5.45999998621483;547;100 mA
224.572976433008;-0.94940185546875;-0.0147857666015625;5.46999998618958;548;100 mA
224.582976432982;-0.94940185546875;-0.0147796630859375;5.47999998616433;549;100 mA
224.592976432957;-0.94940185546875;-0.0147552490234375;5.48999998613908;550;100 mA
224.602976432932;-0.94940185546875;-0.0147491455078125;5.49999998611383;551;100 mA
224.612976432907;-0.9490966796875;-0.0147247314453125;5.50999998608859;552;100 mA
224.622976432882;-0.9490966796875;-0.0147216796875;5.51999998606334;553;100 mA
224.632976432856;-0.94970703125;-0.0147125244140625;5.52999998603809;554;100 mA
224.642976432831;-0.9490966796875;-0.0146942138671875;5.53999998601284;555;100 mA
224.652976432806;-0.94879150390625;-0.0146881103515625;5.5499999859876;556;100 mA
224.662976432781;-0.94940185546875;-0.014666748046875;5.55999998596235;557;100 mA
224.672976432755;-0.94970703125;-0.0146636962890625;5.5699999859371;558;100 mA
224.68297643273;-0.94879150390625;-0.014654541015625;5.57999998591185;559;100 mA
224.692976432705;-0.9490966796875;-0.0146331787109375;5.58999998588661;560;100 mA
224.70297643268;-0.9490966796875;-0.0146270751953125;5.59999998586136;561;100 mA
224.712976432654;-0.94940185546875;-0.014605712890625;5.60999998583611;562;100 mA
224.722976432629;-0.9490966796875;-0.0146026611328125;5.61999998581086;563;100 mA
224.732976432604;-0.94940185546875;-0.0145904541015625;5.62999998578562;564;100 mA
224.742976432579;-0.94879150390625;-0.0145721435546875;5.63999998576037;565;100 mA
224.752976432553;-0.94940185546875;-0.014569091796875;5.64999998573512;566;100 mA
224.762976432528;-0.94940185546875;-0.01453857421875;5.65999998570987;567;100 mA
224.772976432503;-0.9490966796875;-0.0145416259765625;5.66999998568463;568;100 mA
224.782976432478;-0.94940185546875;-0.0145294189453125;5.67999998565938;569;100 mA
224.792976432452;-0.9490966796875;-0.0145111083984375;5.68999998563413;570;100 mA
224.802976432427;-0.94940185546875;-0.014508056640625;5.69999998560888;571;100 mA
224.812976432402;-0.9490966796875;-0.014483642578125;5.70999998558364;572;100 mA
224.822976432377;-0.9490966796875;-0.0144805908203125;5.71999998555839;573;100 mA
224.832976432351;-0.9490966796875;-0.01446533203125;5.72999998553314;574;100 mA
224.842976432326;-0.9490966796875;-0.0144561767578125;5.73999998550789;575;100 mA
224.852976432301;-0.94940185546875;-0.014447021484375;5.74999998548265;576;100 mA
224.862976432276;-0.94970703125;-0.0144287109375;5.7599999854574;577;100 mA
224.87297643225;-0.94970703125;-0.0144256591796875;5.76999998543215;578;100 mA
224.882976432225;-0.94940185546875;-0.0144134521484375;5.7799999854069;579;100 mA
224.8929764322;-0.94879150390625;-0.0143951416015625;5.78999998538166;580;100 mA
224.902976432175;-0.94879150390625;-0.01439208984375;5.79999998535641;581;100 mA
224.912976432149;-0.9490966796875;-0.0143707275390625;5.80999998533116;582;100 mA
224.922976432124;-0.94940185546875;-0.0143646240234375;5.81999998530591;583;100 mA
224.932976432099;-0.94940185546875;-0.014349365234375;5.82999998528066;584;100 mA
224.942976432074;-0.9490966796875;-0.014337158203125;5.83999998525542;585;100 mA
224.952976432048;-0.94940185546875;-0.0143280029296875;5.84999998523017;586;100 mA
224.962976432023;-0.9490966796875;-0.014306640625;5.85999998520492;587;100 mA
224.972976431998;-0.9490966796875;-0.014306640625;5.86999998517967;588;100 mA
224.982976431973;-0.94940185546875;-0.0142974853515625;5.87999998515443;589;100 mA
224.992976431947;-0.94940185546875;-0.0142852783203125;5.88999998512918;590;100 mA
225.002976431922;-0.94940185546875;-0.014276123046875;5.89999998510393;591;100 mA
225.012976431897;-0.94940185546875;-0.0142547607421875;5.90999998507868;592;100 mA
225.022976431872;-0.9490966796875;-0.014251708984375;5.91999998505344;593;100 mA
225.032976431846;-0.9490966796875;-0.0142425537109375;5.92999998502819;594;100 mA
225.042976431821;-0.94970703125;-0.014227294921875;5.93999998500294;595;100 mA
225.052976431796;-0.9490966796875;-0.0142181396484375;5.94999998497769;596;100 mA
225.062976431771;-0.94970703125;-0.014202880859375;5.95999998495245;597;100 mA
225.072976431745;-0.94940185546875;-0.0141937255859375;5.9699999849272;598;100 mA
225.08297643172;-0.94940185546875;-0.0141845703125;5.97999998490195;599;100 mA
225.092976431695;-0.9490966796875;-0.01417236328125;5.9899999848767;600;100 mA
225.10297643167;-0.94940185546875;-0.014166259765625;5.99999998485146;601;100 mA
225.112976431644;-0.94940185546875;-0.0141448974609375;6.00999998482621;602;100 mA
225.122976431619;-0.94970703125;-0.014141845703125;6.01999998480096;603;100 mA
225.132976431594;-0.94970703125;-0.0141357421875;6.02999998477571;604;100 mA
225.142976431569;-0.94940185546875;-0.0141204833984375;6.03999998475047;605;100 mA
225.152976431543;-0.94970703125;-0.014117431640625;6.04999998472522;606;100 mA
225.162976431518;-0.94879150390625;-0.01409912109375;6.05999998469997;607;100 mA
225.172976431493;-0.94879150390625;-0.0140899658203125;6.06999998467472;608;100 mA
225.182976431468;-0.94940185546875;-0.014080810546875;6.07999998464948;609;100 mA
225.192976431442;-0.9490966796875;-0.0140655517578125;6.08999998462423;610;100 mA
225.202976431417;-0.94940185546875;-0.0140655517578125;6.09999998459898;611;100 mA
225.212976431392;-0.9490966796875;-0.0140411376953125;6.10999998457373;612;100 mA
225.222976431367;-0.94940185546875;-0.0140350341796875;6.11999998454849;613;100 mA
225.232976431341;-0.94879150390625;-0.0140228271484375;6.12999998452324;614;100 mA
225.242976431316;-0.94970703125;-0.014013671875;6.13999998449799;615;100 mA
225.252976431291;-0.9490966796875;-0.014007568359375;6.14999998447274;616;100 mA
225.262976431266;-0.9503173828125;-0.0139892578125;6.1599999844475;617;100 mA
225.27297643124;-0.94879150390625;-0.0139862060546875;6.16999998442225;618;100 mA
225.282976431215;-0.94940185546875;-0.01397705078125;6.179999984397;619;100 mA
225.29297643119;-0.94940185546875;-0.0139617919921875;6.18999998437175;620;100 mA
225.302976431165;-0.94940185546875;-0.0139617919921875;6.1999999843465;621;100 mA
225.312976431139;-0.9490966796875;-0.0139404296875;6.20999998432126;622;100 mA
225.322976431114;-0.94879150390625;-0.0139373779296875;6.21999998429601;623;100 mA
225.332976431089;-0.94879150390625;-0.0139251708984375;6.22999998427076;624;100 mA
225.342976431064;-0.9490966796875;-0.013916015625;6.23999998424551;625;100 mA
225.352976431038;-0.94879150390625;-0.013909912109375;6.24999998422027;626;100 mA
225.362976431013;-0.94940185546875;-0.0138885498046875;6.25999998419502;627;100 mA
225.372976430988;-0.94940185546875;-0.0138824462890625;6.26999998416977;628;100 mA
225.382976430963;-0.94940185546875;-0.0138702392578125;6.27999998414452;629;100 mA
225.392976430937;-0.9490966796875;-0.013861083984375;6.28999998411928;630;100 mA
225.402976430912;-0.94970703125;-0.01385498046875;6.29999998409403;631;100 mA
225.412976430887;-0.94970703125;-0.0138427734375;6.30999998406878;632;100 mA
225.422976430862;-0.9490966796875;-0.01383056640625;6.31999998404353;633;100 mA
225.432976430836;-0.94879150390625;-0.013824462890625;6.32999998401829;634;100 mA
225.442976430811;-0.94940185546875;-0.013812255859375;6.33999998399304;635;100 mA
225.452976430786;-0.94940185546875;-0.0138092041015625;6.34999998396779;636;100 mA
225.462976430761;-0.94970703125;-0.0137939453125;6.35999998394254;637;100 mA
225.472976430735;-0.94970703125;-0.0137847900390625;6.3699999839173;638;100 mA
225.48297643071;-0.94940185546875;-0.0137786865234375;6.37999998389205;639;100 mA
225.492976430685;-0.94940185546875;-0.0137664794921875;6.3899999838668;640;100 mA
225.50297643066;-0.94940185546875;-0.013763427734375;6.39999998384155;641;100 mA
225.512976430634;-0.9490966796875;-0.0137451171875;6.40999998381631;642;100 mA
225.522976430609;-0.94940185546875;-0.0137420654296875;6.41999998379106;643;100 mA
225.532976430584;-0.9490966796875;-0.0137298583984375;6.42999998376581;644;100 mA
225.542976430559;-0.94940185546875;-0.013714599609375;6.43999998374056;645;100 mA
225.552976430533;-0.94940185546875;-0.013714599609375;6.44999998371532;646;100 mA
225.562976430508;-0.948486328125;-0.0136962890625;6.45999998369007;647;100 mA
225.572976430483;-0.94940185546875;-0.013690185546875;6.46999998366482;648;100 mA
225.582976430458;-0.94879150390625;-0.0136871337890625;6.47999998363957;649;100 mA
225.592976430432;-0.94940185546875;-0.0136688232421875;6.48999998361433;650;100 mA
225.602976430407;-0.9490966796875;-0.013665771484375;6.49999998358908;651;100 mA
225.612976430382;-0.94879150390625;-0.0136505126953125;6.50999998356383;652;100 mA
225.622976430357;-0.9490966796875;-0.013641357421875;6.51999998353858;653;100 mA
225.632976430331;-0.9490966796875;-0.0136322021484375;6.52999998351333;654;100 mA
225.642976430306;-0.9490966796875;-0.0136199951171875;6.53999998348809;655;100 mA
225.652976430281;-0.94940185546875;-0.013616943359375;6.54999998346284;656;100 mA
225.662976430256;-0.94940185546875;-0.0135986328125;6.55999998343759;657;100 mA
225.672976430231;-0.94970703125;-0.0135894775390625;6.56999998341234;658;100 mA
225.682976430205;-0.94940185546875;-0.01358642578125;6.5799999833871;659;100 mA
225.69297643018;-0.94970703125;-0.0135711669921875;6.58999998336185;660;100 mA
225.702976430155;-0.94970703125;-0.01357421875;6.5999999833366;661;100 mA
225.71297643013;-0.9490966796875;-0.0135498046875;6.60999998331135;662;100 mA
225.722976430104;-0.94940185546875;-0.0135498046875;6.61999998328611;663;100 mA
225.732976430079;-0.94879150390625;-0.01353759765625;6.62999998326086;664;100 mA
225.742976430054;-0.94940185546875;-0.0135284423828125;6.63999998323561;665;100 mA
225.752976430029;-0.9490966796875;-0.0135223388671875;6.64999998321036;666;100 mA
225.762976430003;-0.94940185546875;-0.013507080078125;6.65999998318512;667;100 mA
225.772976429978;-0.94970703125;-0.0134979248046875;6.66999998315987;668;100 mA
225.782976429953;-0.94940185546875;-0.0134918212890625;6.67999998313462;669;100 mA
225.792976429928;-0.94970703125;-0.0134765625;6.68999998310937;670;100 mA
225.802976429902;-0.9490966796875;-0.0134765625;6.69999998308413;671;100 mA
225.812976429877;-0.94940185546875;-0.0134552001953125;6.70999998305888;672;100 mA
225.822976429852;-0.94940185546875;-0.0134552001953125;6.71999998303363;673;100 mA
225.832976429827;-0.94940185546875;-0.0134490966796875;6.72999998300838;674;100 mA
225.842976429801;-0.94879150390625;-0.0134307861328125;6.73999998298314;675;100 mA
225.852976429776;-0.94940185546875;-0.013433837890625;6.74999998295789;676;100 mA
225.862976429751;-0.9490966796875;-0.01341552734375;6.75999998293264;677;100 mA
225.872976429726;-0.94940185546875;-0.013409423828125;6.76999998290739;678;100 mA
225.8829764297;-0.94940185546875;-0.0134002685546875;6.77999998288215;679;100 mA
225.892976429675;-0.94879150390625;-0.0133880615234375;6.7899999828569;680;100 mA
225.90297642965;-0.94879150390625;-0.0133880615234375;6.79999998283165;681;100 mA
225.912976429625;-0.94940185546875;-0.0133697509765625;6.8099999828064;682;100 mA
225.922976429599;-0.94940185546875;-0.0133636474609375;6.81999998278116;683;100 mA
225.932976429574;-0.9490966796875;-0.0133544921875;6.82999998275591;684;100 mA
225.942976429549;-0.9490966796875;-0.01334228515625;6.83999998273066;685;100 mA
225.952976429524;-0.948486328125;-0.0133453369140625;6.84999998270541;686;100 mA
225.962976429498;-0.94879150390625;-0.013323974609375;6.85999998268016;687;100 mA
225.972976429473;-0.9490966796875;-0.0133270263671875;6.86999998265492;688;100 mA
225.982976429448;-0.94970703125;-0.0133087158203125;6.87999998262967;689;100 mA
225.992976429423;-0.94940185546875;-0.013299560546875;6.88999998260442;690;100 mA
226.002976429397;-0.9490966796875;-0.013299560546875;6.89999998257917;691;100 mA
226.012976429372;-0.9490966796875;-0.01328125;6.90999998255393;692;100 mA
226.022976429347;-0.94879150390625;-0.0132781982421875;6.91999998252868;693;100 mA
226.032976429322;-0.94970703125;-0.01326904296875;6.92999998250343;694;100 mA
226.042976429296;-0.9490966796875;-0.0132598876953125;6.93999998247818;695;100 mA
226.052976429271;-0.94940185546875;-0.0132568359375;6.94999998245294;696;100 mA
226.062976429246;-0.94940185546875;-0.013238525390625;6.95999998242769;697;100 mA
226.072976429221;-0.9490966796875;-0.013232421875;6.96999998240244;698;100 mA
226.082976429195;-0.94970703125;-0.0132232666015625;6.97999998237719;699;100 mA
226.09297642917;-0.9490966796875;-0.0132171630859375;6.98999998235195;700;100 mA
226.102976429145;-0.94970703125;-0.0132080078125;6.9999999823267;701;100 mA
226.11297642912;-0.9490966796875;-0.01319580078125;7.00999998230145;702;100 mA
226.122976429094;-0.94970703125;-0.0131927490234375;7.0199999822762;703;100 mA
226.132976429069;-0.94970703125;-0.0131866455078125;7.02999998225096;704;100 mA
226.142976429044;-0.94940185546875;-0.01317138671875;7.03999998222571;705;100 mA
226.152976429019;-0.94879150390625;-0.0131622314453125;7.04999998220046;706;100 mA
226.162976428993;-0.94879150390625;-0.01314697265625;7.05999998217521;707;100 mA
226.172976428968;-0.9490966796875;-0.01314697265625;7.06999998214997;708;100 mA
226.182976428943;-0.95001220703125;-0.013140869140625;7.07999998212472;709;100 mA
226.192976428918;-0.9490966796875;-0.013128662109375;7.08999998209947;710;100 mA
226.202976428892;-0.9490966796875;-0.0131317138671875;7.09999998207422;711;100 mA
226.212976428867;-0.94970703125;-0.0131134033203125;7.10999998204898;712;100 mA
226.222976428842;-0.94940185546875;-0.0131103515625;7.11999998202373;713;100 mA
226.232976428817;-0.95001220703125;-0.0130950927734375;7.12999998199848;714;100 mA
226.242976428791;-0.94970703125;-0.0130859375;7.13999998197323;715;100 mA
226.252976428766;-0.9490966796875;-0.0130859375;7.14999998194799;716;100 mA
226.262976428741;-0.9490966796875;-0.0130645751953125;7.15999998192274;717;100 mA
226.272976428716;-0.9490966796875;-0.0130645751953125;7.16999998189749;718;100 mA
226.28297642869;-0.9490966796875;-0.0130584716796875;7.17999998187224;719;100 mA
226.292976428665;-0.94940185546875;-0.0130462646484375;7.189999981847;720;100 mA
226.30297642864;-0.95001220703125;-0.013043212890625;7.19999998182175;721;100 mA
226.312976428615;-0.94940185546875;-0.0130218505859375;7.2099999817965;722;100 mA
226.322976428589;-0.9490966796875;-0.0130218505859375;7.21999998177125;723;100 mA
226.332976428564;-0.94879150390625;-0.0130126953125;7.229999981746;724;100 mA
226.342976428539;-0.94940185546875;-0.01300048828125;7.23999998172076;725;100 mA
226.352976428514;-0.94940185546875;-0.0130035400390625;7.24999998169551;726;100 mA
226.362976428488;-0.94879150390625;-0.0129852294921875;7.25999998167026;727;100 mA
226.372976428463;-0.95001220703125;-0.012982177734375;7.26999998164501;728;100 mA
226.382976428438;-0.94940185546875;-0.01297607421875;7.27999998161977;729;100 mA
226.392976428413;-0.94940185546875;-0.0129669189453125;7.28999998159452;730;100 mA
226.402976428387;-0.9490966796875;-0.0129638671875;7.29999998156927;731;100 mA
226.412976428362;-0.94940185546875;-0.0129486083984375;7.30999998154402;732;100 mA
226.422976428337;-0.94879150390625;-0.012945556640625;7.31999998151878;733;100 mA
226.432976428312;-0.95001220703125;-0.0129364013671875;7.32999998149353;734;100 mA
226.442976428286;-0.94970703125;-0.012921142578125;7.33999998146828;735;100 mA
226.452976428261;-0.94940185546875;-0.012921142578125;7.34999998144303;736;100 mA
226.462976428236;-0.94940185546875;-0.0128997802734375;7.35999998141779;737;100 mA
226.472976428211;-0.94940185546875;-0.012896728515625;7.36999998139254;738;100 mA
226.482976428185;-0.94970703125;-0.012896728515625;7.37999998136729;739;100 mA
226.49297642816;-0.94940185546875;-0.012884521484375;7.38999998134204;740;100 mA
226.502976428135;-0.9490966796875;-0.012884521484375;7.3999999813168;741;100 mA
226.51297642811;-0.94940185546875;-0.0128692626953125;7.40999998129155;742;100 mA
226.522976428084;-0.9490966796875;-0.0128692626953125;7.4199999812663;743;100 mA
226.532976428059;-0.9490966796875;-0.0128570556640625;7.42999998124105;744;100 mA
226.542976428034;-0.9490966796875;-0.0128448486328125;7.43999998121581;745;100 mA
226.552976428009;-0.9490966796875;-0.0128448486328125;7.44999998119056;746;100 mA
226.562976427983;-0.94940185546875;-0.01282958984375;7.45999998116531;747;100 mA
226.572976427958;-0.9490966796875;-0.0128265380859375;7.46999998114006;748;100 mA
226.582976427933;-0.94940185546875;-0.0128173828125;7.47999998111482;749;100 mA
226.592976427908;-0.94940185546875;-0.0128082275390625;7.48999998108957;750;100 mA
226.602976427882;-0.94970703125;-0.01280517578125;7.49999998106432;751;100 mA
226.612976427857;-0.9490966796875;-0.012786865234375;7.50999998103907;752;100 mA
226.622976427832;-0.94970703125;-0.012774658203125;7.51999998101383;753;100 mA
226.632976427807;-0.94940185546875;-0.012774658203125;7.52999998098858;754;100 mA
226.642976427781;-0.9490966796875;-0.012762451171875;7.53999998096333;755;100 mA
226.652976427756;-0.9490966796875;-0.01275634765625;7.54999998093808;756;100 mA
226.662976427731;-0.94970703125;-0.012750244140625;7.55999998091283;757;100 mA
226.672976427706;-0.9490966796875;-0.0127532958984375;7.56999998088759;758;100 mA
226.682976427681;-0.9490966796875;-0.0127410888671875;7.57999998086234;759;100 mA
226.692976427655;-0.94940185546875;-0.0127288818359375;7.58999998083709;760;100 mA
226.70297642763;-0.94940185546875;-0.012725830078125;7.59999998081184;761;100 mA
226.712976427605;-0.9490966796875;-0.0127105712890625;7.6099999807866;762;100 mA
226.72297642758;-0.94940185546875;-0.012713623046875;7.61999998076135;763;100 mA
226.732976427554;-0.9490966796875;-0.0126983642578125;7.6299999807361;764;100 mA
226.742976427529;-0.94879150390625;-0.012689208984375;7.63999998071085;765;100 mA
226.752976427504;-0.94940185546875;-0.0126922607421875;7.64999998068561;766;100 mA
226.762976427479;-0.9490966796875;-0.0126739501953125;7.65999998066036;767;100 mA
226.772976427453;-0.94970703125;-0.0126617431640625;7.66999998063511;768;100 mA
226.782976427428;-0.9490966796875;-0.0126617431640625;7.67999998060986;769;100 mA
226.792976427403;-0.94940185546875;-0.0126495361328125;7.68999998058462;770;100 mA
226.802976427378;-0.94940185546875;-0.012652587890625;7.69999998055937;771;100 mA
226.812976427352;-0.9490966796875;-0.0126373291015625;7.70999998053412;772;100 mA
226.822976427327;-0.94970703125;-0.01263427734375;7.71999998050887;773;100 mA
226.832976427302;-0.94940185546875;-0.0126312255859375;7.72999998048363;774;100 mA
226.842976427277;-0.94940185546875;-0.0126190185546875;7.73999998045838;775;100 mA
226.852976427251;-0.94940185546875;-0.012615966796875;7.74999998043313;776;100 mA
226.862976427226;-0.94940185546875;-0.0126007080078125;7.75999998040788;777;100 mA
226.872976427201;-0.94940185546875;-0.01259765625;7.76999998038264;778;100 mA
226.882976427176;-0.94940185546875;-0.0125946044921875;7.77999998035739;779;100 mA
226.89297642715;-0.9490966796875;-0.0125885009765625;7.78999998033214;780;100 mA
226.902976427125;-0.94940185546875;-0.0125823974609375;7.79999998030689;781;100 mA
226.9129764271;-0.9490966796875;-0.012567138671875;7.80999998028165;782;100 mA
226.922976427075;-0.9490966796875;-0.0125518798828125;7.8199999802564;783;100 mA
226.932976427049;-0.94970703125;-0.0125457763671875;7.82999998023115;784;100 mA
226.942976427024;-0.94970703125;-0.0125396728515625;7.8399999802059;785;100 mA
226.952976426999;-0.94940185546875;-0.0125457763671875;7.84999998018066;786;100 mA
226.962976426974;-0.9490966796875;-0.012530517578125;7.85999998015541;787;100 mA
226.972976426948;-0.9490966796875;-0.0125244140625;7.86999998013016;788;100 mA
226.982976426923;-0.9490966796875;-0.0125244140625;7.87999998010491;789;100 mA
226.992976426898;-0.94879150390625;-0.01251220703125;7.88999998007966;790;100 mA
227.002976426873;-0.9490966796875;-0.0125152587890625;7.89999998005442;791;100 mA
227.012976426847;-0.94940185546875;-0.0125;7.90999998002917;792;100 mA
227.022976426822;-0.94940185546875;-0.012493896484375;7.91999998000392;793;100 mA
227.032976426797;-0.94940185546875;-0.0124908447265625;7.92999997997867;794;100 mA
227.042976426772;-0.94940185546875;-0.0124847412109375;7.93999997995343;795;100 mA
227.052976426746;-0.94879150390625;-0.0124786376953125;7.94999997992818;796;100 mA
227.062976426721;-0.94940185546875;-0.01246337890625;7.95999997990293;797;100 mA
227.072976426696;-0.9490966796875;-0.0124603271484375;7.96999997987768;798;100 mA
227.082976426671;-0.94970703125;-0.0124481201171875;7.97999997985244;799;100 mA
227.092976426645;-0.94940185546875;-0.0124420166015625;7.98999997982719;800;100 mA
227.10297642662;-0.9490966796875;-0.0124481201171875;7.99999997980194;801;100 mA
227.112976426595;-0.95001220703125;-0.0124267578125;8.00999997977669;802;100 mA
227.12297642657;-0.9490966796875;-0.0124298095703125;8.01999997975145;803;100 mA
227.132976426544;-0.9490966796875;-0.012420654296875;8.0299999797262;804;100 mA
227.142976426519;-0.9490966796875;-0.01241455078125;8.03999997970095;805;100 mA
227.152976426494;-0.94970703125;-0.0124114990234375;8.0499999796757;806;100 mA
227.162976426469;-0.94970703125;-0.012396240234375;8.05999997965046;807;100 mA
227.172976426443;-0.9490966796875;-0.0123992919921875;8.06999997962521;808;100 mA
227.182976426418;-0.94970703125;-0.0123870849609375;8.07999997959996;809;100 mA
227.192976426393;-0.94940185546875;-0.0123748779296875;8.08999997957471;810;100 mA
227.202976426368;-0.94940185546875;-0.0123779296875;8.09999997954947;811;100 mA
227.212976426342;-0.94940185546875;-0.0123565673828125;8.10999997952422;812;100 mA
227.222976426317;-0.94940185546875;-0.0123565673828125;8.11999997949897;813;100 mA
227.232976426292;-0.94879150390625;-0.0123504638671875;8.12999997947372;814;100 mA
227.242976426267;-0.9490966796875;-0.0123443603515625;8.13999997944848;815;100 mA
227.252976426241;-0.94879150390625;-0.0123382568359375;8.14999997942323;816;100 mA
227.262976426216;-0.94970703125;-0.0123260498046875;8.15999997939798;817;100 mA
227.272976426191;-0.94940185546875;-0.0123260498046875;8.16999997937273;818;100 mA
227.282976426166;-0.9490966796875;-0.012322998046875;8.17999997934749;819;100 mA
227.29297642614;-0.94940185546875;-0.0123138427734375;8.18999997932224;820;100 mA
227.302976426115;-0.9490966796875;-0.012310791015625;8.19999997929699;821;100 mA
227.31297642609;-0.94940185546875;-0.0122894287109375;8.20999997927174;822;100 mA
227.322976426065;-0.9490966796875;-0.0122955322265625;8.2199999792465;823;100 mA
227.332976426039;-0.94970703125;-0.012286376953125;8.22999997922125;824;100 mA
227.342976426014;-0.94940185546875;-0.0122802734375;8.239999979196;825;100 mA
227.352976425989;-0.94940185546875;-0.0122802734375;8.24999997917075;826;100 mA
227.362976425964;-0.9490966796875;-0.0122589111328125;8.2599999791455;827;100 mA
227.372976425938;-0.94940185546875;-0.012255859375;8.26999997912026;828;100 mA
227.382976425913;-0.94940185546875;-0.0122528076171875;8.27999997909501;829;100 mA
227.392976425888;-0.95001220703125;-0.01224365234375;8.28999997906976;830;100 mA
227.402976425863;-0.94940185546875;-0.0122467041015625;8.29999997904451;831;100 mA
227.412976425837;-0.9490966796875;-0.0122283935546875;8.30999997901927;832;100 mA
227.422976425812;-0.9490966796875;-0.0122283935546875;8.31999997899402;833;100 mA
227.432976425787;-0.9490966796875;-0.0122222900390625;8.32999997896877;834;100 mA
227.442976425762;-0.9490966796875;-0.0122161865234375;8.33999997894352;835;100 mA
227.452976425736;-0.94970703125;-0.012213134765625;8.34999997891828;836;100 mA
227.462976425711;-0.94940185546875;-0.0121978759765625;8.35999997889303;837;100 mA
227.472976425686;-0.94879150390625;-0.0121978759765625;8.36999997886778;838;100 mA
227.482976425661;-0.94879150390625;-0.012188720703125;8.37999997884253;839;100 mA
227.492976425635;-0.94940185546875;-0.0121826171875;8.38999997881729;840;100 mA
227.50297642561;-0.94879150390625;-0.0121856689453125;8.39999997879204;841;100 mA
227.512976425585;-0.94940185546875;-0.0121612548828125;8.40999997876679;842;100 mA
227.52297642556;-0.94940185546875;-0.0121673583984375;8.41999997874154;843;100 mA
227.532976425534;-0.94879150390625;-0.0121551513671875;8.4299999787163;844;100 mA
227.542976425509;-0.9490966796875;-0.0121490478515625;8.43999997869105;845;100 mA
227.552976425484;-0.94940185546875;-0.0121490478515625;8.4499999786658;846;100 mA
227.562976425459;-0.9490966796875;-0.012139892578125;8.45999997864055;847;100 mA
227.572976425433;-0.94940185546875;-0.0121368408203125;8.46999997861531;848;100 mA
227.582976425408;-0.94940185546875;-0.012127685546875;8.47999997859006;849;100 mA
227.592976425383;-0.94970703125;-0.0121246337890625;8.48999997856481;850;100 mA
227.602976425358;-0.9490966796875;-0.01212158203125;8.49999997853956;851;100 mA
227.612976425332;-0.9490966796875;-0.0121002197265625;8.50999997851432;852;100 mA
227.622976425307;-0.94970703125;-0.012103271484375;8.51999997848907;853;100 mA
227.632976425282;-0.9490966796875;-0.01209716796875;8.52999997846382;854;100 mA
227.642976425257;-0.94940185546875;-0.012091064453125;8.53999997843857;855;100 mA
227.652976425231;-0.9490966796875;-0.012091064453125;8.54999997841333;856;100 mA
227.662976425206;-0.94940185546875;-0.01207275390625;8.55999997838808;857;100 mA
227.672976425181;-0.94879150390625;-0.0120697021484375;8.56999997836283;858;100 mA
227.682976425156;-0.9490966796875;-0.0120635986328125;8.57999997833758;859;100 mA
227.69297642513;-0.94940185546875;-0.0120513916015625;8.58999997831233;860;100 mA
227.702976425105;-0.9490966796875;-0.0120574951171875;8.59999997828709;861;100 mA
227.71297642508;-0.9490966796875;-0.0120361328125;8.60999997826184;862;100 mA
227.722976425055;-0.9490966796875;-0.0120391845703125;8.61999997823659;863;100 mA
227.73297642503;-0.94970703125;-0.012030029296875;8.62999997821134;864;100 mA
227.742976425004;-0.9490966796875;-0.0120269775390625;8.6399999781861;865;100 mA
227.752976424979;-0.94940185546875;-0.01202392578125;8.64999997816085;866;100 mA
227.762976424954;-0.94970703125;-0.0120086669921875;8.6599999781356;867;100 mA
227.772976424929;-0.94940185546875;-0.012005615234375;8.66999997811035;868;100 mA
227.782976424903;-0.94940185546875;-0.0120025634765625;8.67999997808511;869;100 mA
227.792976424878;-0.94970703125;-0.011993408203125;8.68999997805986;870;100 mA
227.802976424853;-0.94940185546875;-0.0119964599609375;8.69999997803461;871;100 mA
227.812976424828;-0.94940185546875;-0.0119842529296875;8.70999997800936;872;100 mA
227.822976424802;-0.94879150390625;-0.011981201171875;8.71999997798412;873;100 mA
227.832976424777;-0.94940185546875;-0.0119720458984375;8.72999997795887;874;100 mA
227.842976424752;-0.9490966796875;-0.0119659423828125;8.73999997793362;875;100 mA
227.852976424727;-0.94879150390625;-0.011962890625;8.74999997790837;876;100 mA
227.862976424701;-0.94970703125;-0.0119537353515625;8.75999997788313;877;100 mA
227.872976424676;-0.95001220703125;-0.0119476318359375;8.76999997785788;878;100 mA
227.882976424651;-0.94970703125;-0.011944580078125;8.77999997783263;879;100 mA
227.892976424626;-0.9490966796875;-0.011932373046875;8.78999997780738;880;100 mA
227.9029764246;-0.9490966796875;-0.0119354248046875;8.79999997778214;881;100 mA
227.912976424575;-0.94879150390625;-0.0119232177734375;8.80999997775689;882;100 mA
227.92297642455;-0.9490966796875;-0.011920166015625;8.81999997773164;883;100 mA
227.932976424525;-0.9490966796875;-0.0119140625;8.82999997770639;884;100 mA
227.942976424499;-0.94940185546875;-0.011907958984375;8.83999997768115;885;100 mA
227.952976424474;-0.9490966796875;-0.011907958984375;8.8499999776559;886;100 mA
227.962976424449;-0.94940185546875;-0.011895751953125;8.85999997763065;887;100 mA
227.972976424424;-0.94940185546875;-0.0118896484375;8.8699999776054;888;100 mA
227.982976424398;-0.9490966796875;-0.011883544921875;8.87999997758016;889;100 mA
227.992976424373;-0.94970703125;-0.0118743896484375;8.88999997755491;890;100 mA
228.002976424348;-0.94970703125;-0.0118743896484375;8.89999997752966;891;100 mA
228.012976424323;-0.95001220703125;-0.011859130859375;8.90999997750441;892;100 mA
228.022976424297;-0.9490966796875;-0.011859130859375;8.91999997747916;893;100 mA
228.032976424272;-0.94879150390625;-0.0118560791015625;8.92999997745392;894;100 mA
228.042976424247;-0.9490966796875;-0.011846923828125;8.93999997742867;895;100 mA
228.052976424222;-0.94940185546875;-0.011846923828125;8.94999997740342;896;100 mA
228.062976424196;-0.94970703125;-0.011834716796875;8.95999997737817;897;100 mA
228.072976424171;-0.9490966796875;-0.0118316650390625;8.96999997735293;898;100 mA
228.082976424146;-0.9490966796875;-0.0118316650390625;8.97999997732768;899;100 mA
228.092976424121;-0.9490966796875;-0.0118194580078125;8.98999997730243;900;100 mA
228.102976424095;-0.9490966796875;-0.011822509765625;8.99999997727718;901;100 mA
228.11297642407;-0.94940185546875;-0.0118072509765625;9.00999997725194;902;100 mA
228.122976424045;-0.95001220703125;-0.01180419921875;9.01999997722669;903;100 mA
228.13297642402;-0.94940185546875;-0.0118011474609375;9.02999997720144;904;100 mA
228.142976423994;-0.94970703125;-0.011785888671875;9.03999997717619;905;100 mA
228.152976423969;-0.95001220703125;-0.0117889404296875;9.04999997715095;906;100 mA
228.162976423944;-0.94940185546875;-0.0117767333984375;9.0599999771257;907;100 mA
228.172976423919;-0.94970703125;-0.011773681640625;9.06999997710045;908;100 mA
228.182976423893;-0.9490966796875;-0.0117706298828125;9.0799999770752;909;100 mA
228.192976423868;-0.94940185546875;-0.0117584228515625;9.08999997704996;910;100 mA
228.202976423843;-0.9490966796875;-0.011761474609375;9.09999997702471;911;100 mA
228.212976423818;-0.9490966796875;-0.0117462158203125;9.10999997699946;912;100 mA
228.222976423792;-0.94940185546875;-0.0117401123046875;9.11999997697421;913;100 mA
228.232976423767;-0.94970703125;-0.011737060546875;9.12999997694897;914;100 mA
228.242976423742;-0.94940185546875;-0.01173095703125;9.13999997692372;915;100 mA
228.252976423717;-0.94940185546875;-0.01173095703125;9.14999997689847;916;100 mA
228.262976423691;-0.94940185546875;-0.0117156982421875;9.15999997687322;917;100 mA
228.272976423666;-0.94940185546875;-0.0117156982421875;9.16999997684798;918;100 mA
228.282976423641;-0.94970703125;-0.011712646484375;9.17999997682273;919;100 mA
228.292976423616;-0.94940185546875;-0.0117034912109375;9.18999997679748;920;100 mA
228.30297642359;-0.94940185546875;-0.0117095947265625;9.19999997677223;921;100 mA
228.312976423565;-0.94940185546875;-0.011688232421875;9.20999997674699;922;100 mA
228.32297642354;-0.94940185546875;-0.0116912841796875;9.21999997672174;923;100 mA
228.332976423515;-0.94879150390625;-0.011688232421875;9.22999997669649;924;100 mA
228.342976423489;-0.94940185546875;-0.011676025390625;9.23999997667124;925;100 mA
228.352976423464;-0.94970703125;-0.0116790771484375;9.249999976646;926;100 mA
228.362976423439;-0.9490966796875;-0.011663818359375;9.25999997662075;927;100 mA
228.372976423414;-0.94940185546875;-0.0116607666015625;9.2699999765955;928;100 mA
228.382976423388;-0.9490966796875;-0.0116607666015625;9.27999997657025;929;100 mA
228.392976423363;-0.94879150390625;-0.0116485595703125;9.289999976545;930;100 mA
228.402976423338;-0.9490966796875;-0.0116546630859375;9.29999997651976;931;100 mA
228.412976423313;-0.94970703125;-0.01163330078125;9.30999997649451;932;100 mA
228.422976423287;-0.948486328125;-0.0116302490234375;9.31999997646926;933;100 mA
228.432976423262;-0.94940185546875;-0.011627197265625;9.32999997644401;934;100 mA
228.442976423237;-0.94940185546875;-0.0116180419921875;9.33999997641877;935;100 mA
228.452976423212;-0.94970703125;-0.0116241455078125;9.34999997639352;936;100 mA
228.462976423186;-0.94940185546875;-0.0116058349609375;9.35999997636827;937;100 mA
228.472976423161;-0.94940185546875;-0.0116058349609375;9.36999997634302;938;100 mA
228.482976423136;-0.9490966796875;-0.011602783203125;9.37999997631778;939;100 mA
228.492976423111;-0.94940185546875;-0.0115936279296875;9.38999997629253;940;100 mA
228.502976423085;-0.94940185546875;-0.0115966796875;9.39999997626728;941;100 mA
228.51297642306;-0.94970703125;-0.011578369140625;9.40999997624203;942;100 mA
228.522976423035;-0.94940185546875;-0.011578369140625;9.41999997621679;943;100 mA
228.53297642301;-0.94879150390625;-0.0115753173828125;9.42999997619154;944;100 mA
228.542976422984;-0.9490966796875;-0.011566162109375;9.43999997616629;945;100 mA
228.552976422959;-0.94970703125;-0.011572265625;9.44999997614104;946;100 mA
228.562976422934;-0.9490966796875;-0.011553955078125;9.4599999761158;947;100 mA
228.572976422909;-0.9490966796875;-0.0115509033203125;9.46999997609055;948;100 mA
228.582976422883;-0.94940185546875;-0.0115478515625;9.4799999760653;949;100 mA
228.592976422858;-0.94970703125;-0.01153564453125;9.48999997604005;950;100 mA
228.602976422833;-0.9490966796875;-0.0115447998046875;9.49999997601481;951;100 mA
228.612976422808;-0.94940185546875;-0.0115264892578125;9.50999997598956;952;100 mA
228.622976422782;-0.94879150390625;-0.0115264892578125;9.51999997596431;953;100 mA
228.632976422757;-0.94940185546875;-0.0115234375;9.52999997593906;954;100 mA
228.642976422732;-0.9490966796875;-0.01151123046875;9.53999997591382;955;100 mA
228.652976422707;-0.94940185546875;-0.0115142822265625;9.54999997588857;956;100 mA
228.662976422681;-0.94940185546875;-0.0114959716796875;9.55999997586332;957;100 mA
228.672976422656;-0.94940185546875;-0.0114990234375;9.56999997583807;958;100 mA
228.682976422631;-0.9490966796875;-0.011492919921875;9.57999997581283;959;100 mA
228.692976422606;-0.9490966796875;-0.0114837646484375;9.58999997578758;960;100 mA
228.70297642258;-0.94970703125;-0.0114898681640625;9.59999997576233;961;100 mA
228.712976422555;-0.94970703125;-0.0114715576171875;9.60999997573708;962;100 mA
228.72297642253;-0.9490966796875;-0.011474609375;9.61999997571183;963;100 mA
228.732976422505;-0.9490966796875;-0.011468505859375;9.62999997568659;964;100 mA
228.74297642248;-0.9490966796875;-0.01146240234375;9.63999997566134;965;100 mA
228.752976422454;-0.94940185546875;-0.01146240234375;9.64999997563609;966;100 mA
228.762976422429;-0.9490966796875;-0.0114501953125;9.65999997561084;967;100 mA
228.772976422404;-0.94940185546875;-0.0114471435546875;9.6699999755856;968;100 mA
228.782976422379;-0.94879150390625;-0.011444091796875;9.67999997556035;969;100 mA
228.792976422353;-0.9490966796875;-0.011431884765625;9.6899999755351;970;100 mA
228.802976422328;-0.94879150390625;-0.01143798828125;9.69999997550985;971;100 mA
228.812976422303;-0.94970703125;-0.0114227294921875;9.70999997548461;972;100 mA
228.822976422278;-0.9490966796875;-0.0114227294921875;9.71999997545936;973;100 mA
228.832976422252;-0.94940185546875;-0.01141357421875;9.72999997543411;974;100 mA
228.842976422227;-0.9490966796875;-0.011407470703125;9.73999997540886;975;100 mA
228.852976422202;-0.94940185546875;-0.011407470703125;9.74999997538362;976;100 mA
228.862976422177;-0.94879150390625;-0.011395263671875;9.75999997535837;977;100 mA
228.872976422151;-0.94970703125;-0.0113922119140625;9.76999997533312;978;100 mA
228.882976422126;-0.94970703125;-0.0113922119140625;9.77999997530787;979;100 mA
228.892976422101;-0.94940185546875;-0.0113861083984375;9.78999997528263;980;100 mA
228.902976422076;-0.94940185546875;-0.0113922119140625;9.79999997525738;981;100 mA
228.91297642205;-0.94940185546875;-0.011376953125;9.80999997523213;982;100 mA
228.922976422025;-0.94940185546875;-0.011370849609375;9.81999997520688;983;100 mA
228.932976422;-0.94879150390625;-0.01136474609375;9.82999997518164;984;100 mA
228.942976421975;-0.9490966796875;-0.011358642578125;9.83999997515639;985;100 mA
228.952976421949;-0.94970703125;-0.0113616943359375;9.84999997513114;986;100 mA
228.962976421924;-0.94940185546875;-0.0113494873046875;9.85999997510589;987;100 mA
228.972976421899;-0.9490966796875;-0.01134033203125;9.86999997508065;988;100 mA
228.982976421874;-0.94940185546875;-0.0113311767578125;9.8799999750554;989;100 mA
228.992976421848;-0.94940185546875;-0.011328125;9.88999997503015;990;100 mA
229.002976421823;-0.94940185546875;-0.0113311767578125;9.8999999750049;991;100 mA
229.012976421798;-0.94970703125;-0.011322021484375;9.90999997497966;992;100 mA
229.022976421773;-0.94970703125;-0.0113128662109375;9.91999997495441;993;100 mA
229.032976421747;-0.94940185546875;-0.01131591796875;9.92999997492916;994;100 mA
229.042976421722;-0.94940185546875;-0.0113037109375;9.93999997490391;995;100 mA
229.052976421697;-0.94970703125;-0.011309814453125;9.94999997487866;996;100 mA
229.062976421672;-0.9490966796875;-0.011297607421875;9.95999997485342;997;100 mA
229.072976421646;-0.94970703125;-0.0112945556640625;9.96999997482817;998;100 mA
229.082976421621;-0.9490966796875;-0.01129150390625;9.97999997480292;999;100 mA
229.092976421596;-0.9490966796875;-0.011279296875;9.98999997477767;1000;100 mA
