Time (s);WE(1).Potential (V);WE(1).Current (A);Corrected time (s);Index;Current range
290.543785266447;-1.0003662109375;-0.31707763671875;0;1;100 mA
290.553785266422;-0.99945068359375;-0.23394775390625;0.00999999997475243;2;100 mA
290.563785266397;-1.00006103515625;-0.193817138671875;0.0199999999495049;3;100 mA
290.573785266372;-1.00006103515625;-0.169036865234375;0.0299999999242573;4;100 mA
290.583785266346;-0.999755859375;-0.15179443359375;0.0399999998990097;5;100 mA
290.593785266321;-0.99945068359375;-0.138885498046875;0.0499999998737621;6;100 mA
290.603785266296;-0.999755859375;-0.128814697265625;0.0599999998485146;7;100 mA
290.613785266271;-0.999755859375;-0.12060546875;0.069999999823267;8;100 mA
290.623785266245;-0.9991455078125;-0.113800048828125;0.0799999997980194;9;100 mA
290.63378526622;-0.99945068359375;-0.1080322265625;0.0899999997727718;10;100 mA
290.643785266195;-0.999755859375;-0.10302734375;0.0999999997475243;11;100 mA
290.65378526617;-0.99945068359375;-0.098663330078125;0.109999999722277;12;100 mA
290.663785266144;-0.99945068359375;-0.094818115234375;0.119999999697029;13;100 mA
290.673785266119;-0.999755859375;-0.09136962890625;0.129999999671782;14;100 mA
290.683785266094;-0.999755859375;-0.088287353515625;0.139999999646534;15;100 mA
290.693785266069;-0.999755859375;-0.085479736328125;0.149999999621286;16;100 mA
290.703785266043;-1.00006103515625;-0.08294677734375;0.159999999596039;17;100 mA
290.713785266018;-0.999755859375;-0.08062744140625;0.169999999570791;18;100 mA
290.723785265993;-0.99945068359375;-0.078460693359375;0.179999999545544;19;100 mA
290.733785265968;-0.99945068359375;-0.076507568359375;0.189999999520296;20;100 mA
290.743785265943;-0.9991455078125;-0.07464599609375;0.199999999495049;21;100 mA
290.753785265917;-0.999755859375;-0.07293701171875;0.209999999469801;22;100 mA
290.763785265892;-0.9991455078125;-0.07135009765625;0.219999999444553;23;100 mA
290.773785265867;-0.999755859375;-0.06982421875;0.229999999419306;24;100 mA
290.783785265842;-0.999755859375;-0.06842041015625;0.239999999394058;25;100 mA
290.793785265816;-1.00006103515625;-0.06707763671875;0.249999999368811;26;100 mA
290.803785265791;-0.9991455078125;-0.06585693359375;0.259999999343563;27;100 mA
290.813785265766;-1.00006103515625;-0.064666748046875;0.269999999318316;28;100 mA
290.823785265741;-0.99945068359375;-0.06353759765625;0.279999999293068;29;100 mA
290.833785265715;-0.9991455078125;-0.062469482421875;0.28999999926782;30;100 mA
290.84378526569;-0.9991455078125;-0.061431884765625;0.299999999242573;31;100 mA
290.853785265665;-0.9991455078125;-0.06048583984375;0.309999999217325;32;100 mA
290.86378526564;-0.999755859375;-0.0595703125;0.319999999192078;33;100 mA
290.873785265614;-0.999755859375;-0.058685302734375;0.32999999916683;34;100 mA
290.883785265589;-0.9991455078125;-0.057830810546875;0.339999999141583;35;100 mA
290.893785265564;-0.99945068359375;-0.0570068359375;0.349999999116335;36;100 mA
290.903785265539;-0.9991455078125;-0.056243896484375;0.359999999091087;37;100 mA
290.913785265513;-0.99945068359375;-0.055511474609375;0.36999999906584;38;100 mA
290.923785265488;-0.999755859375;-0.054779052734375;0.379999999040592;39;100 mA
290.933785265463;-0.9991455078125;-0.054107666015625;0.389999999015345;40;100 mA
290.943785265438;-0.9991455078125;-0.05340576171875;0.399999998990097;41;100 mA
290.953785265412;-0.999755859375;-0.05279541015625;0.40999999896485;42;100 mA
290.963785265387;-1.00006103515625;-0.05218505859375;0.419999998939602;43;100 mA
290.973785265362;-0.9991455078125;-0.05157470703125;0.429999998914354;44;100 mA
290.983785265337;-0.99945068359375;-0.050994873046875;0.439999998889107;45;100 mA
290.993785265311;-0.99945068359375;-0.0504150390625;0.449999998863859;46;100 mA
291.003785265286;-0.99945068359375;-0.049896240234375;0.459999998838612;47;100 mA
291.013785265261;-0.9991455078125;-0.049365234375;0.469999998813364;48;100 mA
291.023785265236;-0.999755859375;-0.0488616943359375;0.479999998788116;49;100 mA
291.03378526521;-0.99945068359375;-0.048382568359375;0.489999998762869;50;100 mA
291.043785265185;-0.9991455078125;-0.047894287109375;0.499999998737621;51;100 mA
291.05378526516;-0.9991455078125;-0.0474395751953125;0.509999998712374;52;100 mA
291.063785265135;-0.9991455078125;-0.04698486328125;0.519999998687126;53;100 mA
291.073785265109;-0.99945068359375;-0.046551513671875;0.529999998661879;54;100 mA
291.083785265084;-0.9991455078125;-0.046136474609375;0.539999998636631;55;100 mA
291.093785265059;-0.99945068359375;-0.0457122802734375;0.549999998611383;56;100 mA
291.103785265034;-0.9991455078125;-0.0453216552734375;0.559999998586136;57;100 mA
291.113785265008;-0.9991455078125;-0.0449310302734375;0.569999998560888;58;100 mA
291.123785264983;-0.99945068359375;-0.04454345703125;0.579999998535641;59;100 mA
291.133785264958;-0.9991455078125;-0.0441802978515625;0.589999998510393;60;100 mA
291.143785264933;-0.99945068359375;-0.0438018798828125;0.599999998485146;61;100 mA
291.153785264907;-0.9991455078125;-0.0434600830078125;0.609999998459898;62;100 mA
291.163785264882;-0.999755859375;-0.0431182861328125;0.61999999843465;63;100 mA
291.173785264857;-0.99884033203125;-0.0427734375;0.629999998409403;64;100 mA
291.183785264832;-0.99884033203125;-0.0424591064453125;0.639999998384155;65;100 mA
291.193785264806;-0.99945068359375;-0.042120361328125;0.649999998358908;66;100 mA
291.203785264781;-0.9991455078125;-0.041815185546875;0.65999999833366;67;100 mA
291.213785264756;-1.00006103515625;-0.04150390625;0.669999998308413;68;100 mA
291.223785264731;-0.99945068359375;-0.0412017822265625;0.679999998283165;69;100 mA
291.233785264705;-0.99945068359375;-0.040924072265625;0.689999998257917;70;100 mA
291.24378526468;-0.999755859375;-0.04061279296875;0.69999999823267;71;100 mA
291.253785264655;-0.9991455078125;-0.0403472900390625;0.709999998207422;72;100 mA
291.26378526463;-0.99884033203125;-0.0400634765625;0.719999998182175;73;100 mA
291.273785264604;-0.99945068359375;-0.039794921875;0.729999998156927;74;100 mA
291.283785264579;-0.999755859375;-0.03953857421875;0.73999999813168;75;100 mA
291.293785264554;-0.9991455078125;-0.039263916015625;0.749999998106432;76;100 mA
291.303785264529;-0.9991455078125;-0.0390228271484375;0.759999998081184;77;100 mA
291.313785264503;-0.99884033203125;-0.0387664794921875;0.769999998055937;78;100 mA
291.323785264478;-0.99884033203125;-0.0385223388671875;0.779999998030689;79;100 mA
291.333785264453;-0.999755859375;-0.038287353515625;0.789999998005442;80;100 mA
291.343785264428;-0.9991455078125;-0.0380279541015625;0.799999997980194;81;100 mA
291.353785264402;-0.999755859375;-0.0378204345703125;0.809999997954947;82;100 mA
291.363785264377;-0.99945068359375;-0.0375823974609375;0.819999997929699;83;100 mA
291.373785264352;-0.999755859375;-0.037359619140625;0.829999997904451;84;100 mA
291.383785264327;-0.99884033203125;-0.037152099609375;0.839999997879204;85;100 mA
291.393785264301;-0.999755859375;-0.036920166015625;0.849999997853956;86;100 mA
291.403785264276;-0.99945068359375;-0.03671875;0.859999997828709;87;100 mA
291.413785264251;-0.99945068359375;-0.036505126953125;0.869999997803461;88;100 mA
291.423785264226;-0.99884033203125;-0.036297607421875;0.879999997778214;89;100 mA
291.4337852642;-0.99945068359375;-0.0360992431640625;0.889999997752966;90;100 mA
291.443785264175;-0.9991455078125;-0.035888671875;0.899999997727718;91;100 mA
291.45378526415;-0.999755859375;-0.0357086181640625;0.909999997702471;92;100 mA
291.463785264125;-0.99945068359375;-0.0355072021484375;0.919999997677223;93;100 mA
291.473785264099;-0.999755859375;-0.0353179931640625;0.929999997651976;94;100 mA
291.483785264074;-0.99945068359375;-0.0351348876953125;0.939999997626728;95;100 mA
291.493785264049;-0.99945068359375;-0.0349395751953125;0.949999997601481;96;100 mA
291.503785264024;-0.99945068359375;-0.0347808837890625;0.959999997576233;97;100 mA
291.513785263998;-0.999755859375;-0.034588623046875;0.969999997550985;98;100 mA
291.523785263973;-0.99945068359375;-0.034423828125;0.979999997525738;99;100 mA
291.533785263948;-0.99945068359375;-0.0342498779296875;0.98999999750049;100;100 mA
291.543785263923;-0.9991455078125;-0.034075927734375;0.999999997475243;101;100 mA
291.553785263897;-0.999755859375;-0.03392333984375;1.00999999745;102;100 mA
291.563785263872;-0.99945068359375;-0.0337493896484375;1.01999999742475;103;100 mA
291.573785263847;-0.99945068359375;-0.0335906982421875;1.0299999973995;104;100 mA
291.583785263822;-0.99945068359375;-0.0334320068359375;1.03999999737425;105;100 mA
291.593785263796;-0.9991455078125;-0.0332611083984375;1.049999997349;106;100 mA
291.603785263771;-0.999755859375;-0.0331207275390625;1.05999999732376;107;100 mA
291.613785263746;-0.999755859375;-0.032958984375;1.06999999729851;108;100 mA
291.623785263721;-0.99945068359375;-0.0328125;1.07999999727326;109;100 mA
291.633785263695;-0.999755859375;-0.032666015625;1.08999999724801;110;100 mA
291.64378526367;-1.00006103515625;-0.032513427734375;1.09999999722277;111;100 mA
291.653785263645;-0.9991455078125;-0.0323760986328125;1.10999999719752;112;100 mA
291.66378526362;-0.99945068359375;-0.0322235107421875;1.11999999717227;113;100 mA
291.673785263594;-0.9991455078125;-0.0320831298828125;1.12999999714702;114;100 mA
291.683785263569;-1.00006103515625;-0.03194580078125;1.13999999712178;115;100 mA
291.693785263544;-0.99945068359375;-0.0318023681640625;1.14999999709653;116;100 mA
291.703785263519;-0.9991455078125;-0.0316741943359375;1.15999999707128;117;100 mA
291.713785263493;-0.9991455078125;-0.0315338134765625;1.16999999704603;118;100 mA
291.723785263468;-0.9991455078125;-0.0314056396484375;1.17999999702079;119;100 mA
291.733785263443;-0.99884033203125;-0.031280517578125;1.18999999699554;120;100 mA
291.743785263418;-0.99945068359375;-0.031134033203125;1.19999999697029;121;100 mA
291.753785263393;-0.99945068359375;-0.031024169921875;1.20999999694504;122;100 mA
291.763785263367;-0.999755859375;-0.030889892578125;1.2199999969198;123;100 mA
291.773785263342;-0.9991455078125;-0.0307708740234375;1.22999999689455;124;100 mA
291.783785263317;-0.99945068359375;-0.0306488037109375;1.2399999968693;125;100 mA
291.793785263292;-0.9991455078125;-0.030517578125;1.24999999684405;126;100 mA
291.803785263266;-0.99945068359375;-0.03040771484375;1.25999999681881;127;100 mA
291.813785263241;-0.999755859375;-0.03028564453125;1.26999999679356;128;100 mA
291.823785263216;-0.99945068359375;-0.030169677734375;1.27999999676831;129;100 mA
291.833785263191;-0.9991455078125;-0.0300567626953125;1.28999999674306;130;100 mA
291.843785263165;-0.9991455078125;-0.0299346923828125;1.29999999671782;131;100 mA
291.85378526314;-0.999755859375;-0.0298309326171875;1.30999999669257;132;100 mA
291.863785263115;-0.99945068359375;-0.0297119140625;1.31999999666732;133;100 mA
291.87378526309;-0.99945068359375;-0.029608154296875;1.32999999664207;134;100 mA
291.883785263064;-0.9991455078125;-0.029498291015625;1.33999999661683;135;100 mA
291.893785263039;-1.00006103515625;-0.02938232421875;1.34999999659158;136;100 mA
291.903785263014;-0.999755859375;-0.0292816162109375;1.35999999656633;137;100 mA
291.913785262989;-0.99945068359375;-0.029168701171875;1.36999999654108;138;100 mA
291.923785262963;-0.9991455078125;-0.029071044921875;1.37999999651583;139;100 mA
291.933785262938;-0.9991455078125;-0.0289642333984375;1.38999999649059;140;100 mA
291.943785262913;-1.00006103515625;-0.0288543701171875;1.39999999646534;141;100 mA
291.953785262888;-0.9991455078125;-0.028759765625;1.40999999644009;142;100 mA
291.963785262862;-0.999755859375;-0.028656005859375;1.41999999641484;143;100 mA
291.973785262837;-0.999755859375;-0.028564453125;1.4299999963896;144;100 mA
291.983785262812;-0.99945068359375;-0.028466796875;1.43999999636435;145;100 mA
291.993785262787;-0.99945068359375;-0.028363037109375;1.4499999963391;146;100 mA
292.003785262761;-0.999755859375;-0.028271484375;1.45999999631385;147;100 mA
292.013785262736;-0.9991455078125;-0.028173828125;1.46999999628861;148;100 mA
292.023785262711;-0.99945068359375;-0.028082275390625;1.47999999626336;149;100 mA
292.033785262686;-0.99945068359375;-0.0279876708984375;1.48999999623811;150;100 mA
292.04378526266;-0.999755859375;-0.0278961181640625;1.49999999621286;151;100 mA
292.053785262635;-0.999755859375;-0.0278106689453125;1.50999999618762;152;100 mA
292.06378526261;-0.99945068359375;-0.0277130126953125;1.51999999616237;153;100 mA
292.073785262585;-0.999755859375;-0.0276153564453125;1.52999999613712;154;100 mA
292.083785262559;-0.99945068359375;-0.02752685546875;1.53999999611187;155;100 mA
292.093785262534;-0.9991455078125;-0.027435302734375;1.54999999608663;156;100 mA
292.103785262509;-0.9991455078125;-0.02735595703125;1.55999999606138;157;100 mA
292.113785262484;-0.99945068359375;-0.0272674560546875;1.56999999603613;158;100 mA
292.123785262458;-0.999755859375;-0.02718505859375;1.57999999601088;159;100 mA
292.133785262433;-0.9991455078125;-0.0271026611328125;1.58999999598564;160;100 mA
292.143785262408;-0.999755859375;-0.027008056640625;1.59999999596039;161;100 mA
292.153785262383;-0.9991455078125;-0.0269317626953125;1.60999999593514;162;100 mA
292.163785262357;-0.99945068359375;-0.026849365234375;1.61999999590989;163;100 mA
292.173785262332;-0.99945068359375;-0.026763916015625;1.62999999588465;164;100 mA
292.183785262307;-0.99945068359375;-0.026690673828125;1.6399999958594;165;100 mA
292.193785262282;-0.999755859375;-0.026605224609375;1.64999999583415;166;100 mA
292.203785262256;-1.00006103515625;-0.02652587890625;1.6599999958089;167;100 mA
292.213785262231;-0.99945068359375;-0.0264556884765625;1.66999999578366;168;100 mA
292.223785262206;-0.999755859375;-0.026373291015625;1.67999999575841;169;100 mA
292.233785262181;-0.999755859375;-0.0262969970703125;1.68999999573316;170;100 mA
292.243785262155;-0.99945068359375;-0.0262176513671875;1.69999999570791;171;100 mA
292.25378526213;-0.99945068359375;-0.0261444091796875;1.70999999568267;172;100 mA
292.263785262105;-0.999755859375;-0.026068115234375;1.71999999565742;173;100 mA
292.27378526208;-0.99945068359375;-0.0259918212890625;1.72999999563217;174;100 mA
292.283785262054;-0.9991455078125;-0.0259246826171875;1.73999999560692;175;100 mA
292.293785262029;-0.999755859375;-0.02584228515625;1.74999999558167;176;100 mA
292.303785262004;-0.999755859375;-0.0257720947265625;1.75999999555643;177;100 mA
292.313785261979;-0.99945068359375;-0.0256988525390625;1.76999999553118;178;100 mA
292.323785261953;-0.9991455078125;-0.0256256103515625;1.77999999550593;179;100 mA
292.333785261928;-0.9991455078125;-0.0255615234375;1.78999999548068;180;100 mA
292.343785261903;-0.99945068359375;-0.025482177734375;1.79999999545544;181;100 mA
292.353785261878;-0.99945068359375;-0.0254180908203125;1.80999999543019;182;100 mA
292.363785261852;-0.9991455078125;-0.0253448486328125;1.81999999540494;183;100 mA
292.373785261827;-0.99945068359375;-0.025274658203125;1.82999999537969;184;100 mA
292.383785261802;-0.9991455078125;-0.0252166748046875;1.83999999535445;185;100 mA
292.393785261777;-0.99945068359375;-0.02513427734375;1.8499999953292;186;100 mA
292.403785261751;-0.99945068359375;-0.025079345703125;1.85999999530395;187;100 mA
292.413785261726;-0.999755859375;-0.02501220703125;1.8699999952787;188;100 mA
292.423785261701;-0.9991455078125;-0.024945068359375;1.87999999525346;189;100 mA
292.433785261676;-0.99945068359375;-0.0248870849609375;1.88999999522821;190;100 mA
292.44378526165;-0.999755859375;-0.0248077392578125;1.89999999520296;191;100 mA
292.453785261625;-0.99945068359375;-0.024749755859375;1.90999999517771;192;100 mA
292.4637852616;-0.99945068359375;-0.024676513671875;1.91999999515247;193;100 mA
292.473785261575;-0.999755859375;-0.024609375;1.92999999512722;194;100 mA
292.483785261549;-1.00006103515625;-0.024554443359375;1.93999999510197;195;100 mA
292.493785261524;-0.99945068359375;-0.024481201171875;1.94999999507672;196;100 mA
292.503785261499;-0.99945068359375;-0.024432373046875;1.95999999505148;197;100 mA
292.513785261474;-1.00006103515625;-0.0243682861328125;1.96999999502623;198;100 mA
292.523785261448;-0.9991455078125;-0.0243072509765625;1.97999999500098;199;100 mA
292.533785261423;-0.9991455078125;-0.024249267578125;1.98999999497573;200;100 mA
292.543785261398;-0.99945068359375;-0.02418212890625;1.99999999495049;201;100 mA
292.553785261373;-0.999755859375;-0.02413330078125;2.00999999492524;202;100 mA
292.563785261347;-0.99945068359375;-0.024072265625;2.01999999489999;203;100 mA
292.573785261322;-1.00006103515625;-0.0240142822265625;2.02999999487474;204;100 mA
292.583785261297;-0.999755859375;-0.0239654541015625;2.0399999948495;205;100 mA
292.593785261272;-1.00006103515625;-0.0238861083984375;2.04999999482425;206;100 mA
292.603785261246;-0.9991455078125;-0.0238433837890625;2.059999994799;207;100 mA
292.613785261221;-0.99945068359375;-0.0237762451171875;2.06999999477375;208;100 mA
292.623785261196;-0.999755859375;-0.0237213134765625;2.0799999947485;209;100 mA
292.633785261171;-0.999755859375;-0.023675537109375;2.08999999472326;210;100 mA
292.643785261145;-0.99945068359375;-0.023602294921875;2.09999999469801;211;100 mA
292.65378526112;-0.999755859375;-0.0235595703125;2.10999999467276;212;100 mA
292.663785261095;-0.999755859375;-0.02349853515625;2.11999999464751;213;100 mA
292.67378526107;-0.999755859375;-0.023443603515625;2.12999999462227;214;100 mA
292.683785261044;-0.9991455078125;-0.023394775390625;2.13999999459702;215;100 mA
292.693785261019;-0.99945068359375;-0.023333740234375;2.14999999457177;216;100 mA
292.703785260994;-0.999755859375;-0.0232879638671875;2.15999999454652;217;100 mA
292.713785260969;-0.9991455078125;-0.023236083984375;2.16999999452128;218;100 mA
292.723785260943;-0.99945068359375;-0.0231781005859375;2.17999999449603;219;100 mA
292.733785260918;-0.9991455078125;-0.0231353759765625;2.18999999447078;220;100 mA
292.743785260893;-0.99884033203125;-0.0230682373046875;2.19999999444553;221;100 mA
292.753785260868;-0.999755859375;-0.0230224609375;2.20999999442029;222;100 mA
292.763785260842;-0.99945068359375;-0.022967529296875;2.21999999439504;223;100 mA
292.773785260817;-0.99945068359375;-0.0229217529296875;2.22999999436979;224;100 mA
292.783785260792;-0.99945068359375;-0.0228759765625;2.23999999434454;225;100 mA
292.793785260767;-0.999755859375;-0.0228118896484375;2.2499999943193;226;100 mA
292.803785260742;-0.99945068359375;-0.0227783203125;2.25999999429405;227;100 mA
292.813785260716;-0.99945068359375;-0.02271728515625;2.2699999942688;228;100 mA
292.823785260691;-0.999755859375;-0.022662353515625;2.27999999424355;229;100 mA
292.833785260666;-0.9991455078125;-0.02261962890625;2.28999999421831;230;100 mA
292.843785260641;-0.99945068359375;-0.022564697265625;2.29999999419306;231;100 mA
292.853785260615;-0.99945068359375;-0.02252197265625;2.30999999416781;232;100 mA
292.86378526059;-0.99945068359375;-0.02247314453125;2.31999999414256;233;100 mA
292.873785260565;-0.999755859375;-0.0224212646484375;2.32999999411732;234;100 mA
292.88378526054;-0.999755859375;-0.0223876953125;2.33999999409207;235;100 mA
292.893785260514;-0.999755859375;-0.0223297119140625;2.34999999406682;236;100 mA
292.903785260489;-0.999755859375;-0.0222900390625;2.35999999404157;237;100 mA
292.913785260464;-0.999755859375;-0.0222412109375;2.36999999401633;238;100 mA
292.923785260439;-0.999755859375;-0.022198486328125;2.37999999399108;239;100 mA
292.933785260413;-0.99945068359375;-0.02215576171875;2.38999999396583;240;100 mA
292.943785260388;-0.99945068359375;-0.022100830078125;2.39999999394058;241;100 mA
292.953785260363;-0.999755859375;-0.0220611572265625;2.40999999391533;242;100 mA
292.963785260338;-0.9991455078125;-0.022015380859375;2.41999999389009;243;100 mA
292.973785260312;-0.99945068359375;-0.021966552734375;2.42999999386484;244;100 mA
292.983785260287;-1.00006103515625;-0.0219268798828125;2.43999999383959;245;100 mA
292.993785260262;-0.9991455078125;-0.0218719482421875;2.44999999381434;246;100 mA
293.003785260237;-0.99884033203125;-0.02183837890625;2.4599999937891;247;100 mA
293.013785260211;-0.999755859375;-0.0217864990234375;2.46999999376385;248;100 mA
293.023785260186;-0.999755859375;-0.021746826171875;2.4799999937386;249;100 mA
293.033785260161;-0.99945068359375;-0.021710205078125;2.48999999371335;250;100 mA
293.043785260136;-0.99945068359375;-0.021661376953125;2.49999999368811;251;100 mA
293.05378526011;-0.9991455078125;-0.0216217041015625;2.50999999366286;252;100 mA
293.063785260085;-0.99945068359375;-0.02158203125;2.51999999363761;253;100 mA
293.07378526006;-0.9991455078125;-0.0215362548828125;2.52999999361236;254;100 mA
293.083785260035;-0.99945068359375;-0.02149658203125;2.53999999358712;255;100 mA
293.093785260009;-0.9991455078125;-0.0214508056640625;2.54999999356187;256;100 mA
293.103785259984;-0.99945068359375;-0.021417236328125;2.55999999353662;257;100 mA
293.113785259959;-0.99945068359375;-0.0213714599609375;2.56999999351137;258;100 mA
293.123785259934;-0.99945068359375;-0.021331787109375;2.57999999348613;259;100 mA
293.133785259908;-0.9991455078125;-0.021295166015625;2.58999999346088;260;100 mA
293.143785259883;-0.9991455078125;-0.0212432861328125;2.59999999343563;261;100 mA
293.153785259858;-0.99945068359375;-0.021209716796875;2.60999999341038;262;100 mA
293.163785259833;-0.999755859375;-0.0211669921875;2.61999999338514;263;100 mA
293.173785259807;-0.99945068359375;-0.0211273193359375;2.62999999335989;264;100 mA
293.183785259782;-0.99884033203125;-0.0210906982421875;2.63999999333464;265;100 mA
293.193785259757;-0.999755859375;-0.021044921875;2.64999999330939;266;100 mA
293.203785259732;-0.99945068359375;-0.02100830078125;2.65999999328415;267;100 mA
293.213785259706;-0.99945068359375;-0.0209716796875;2.6699999932589;268;100 mA
293.223785259681;-0.9991455078125;-0.02093505859375;2.67999999323365;269;100 mA
293.233785259656;-0.999755859375;-0.0208984375;2.6899999932084;270;100 mA
293.243785259631;-0.99945068359375;-0.0208526611328125;2.69999999318316;271;100 mA
293.253785259605;-0.99945068359375;-0.0208221435546875;2.70999999315791;272;100 mA
293.26378525958;-0.99945068359375;-0.02078857421875;2.71999999313266;273;100 mA
293.273785259555;-0.99853515625;-0.020745849609375;2.72999999310741;274;100 mA
293.28378525953;-0.9991455078125;-0.020709228515625;2.73999999308217;275;100 mA
293.293785259504;-0.9991455078125;-0.020672607421875;2.74999999305692;276;100 mA
293.303785259479;-0.99945068359375;-0.020635986328125;2.75999999303167;277;100 mA
293.313785259454;-0.99945068359375;-0.0206024169921875;2.76999999300642;278;100 mA
293.323785259429;-0.9991455078125;-0.020562744140625;2.77999999298117;279;100 mA
293.333785259403;-0.9991455078125;-0.0205230712890625;2.78999999295593;280;100 mA
293.343785259378;-0.99945068359375;-0.0204833984375;2.79999999293068;281;100 mA
293.353785259353;-0.99945068359375;-0.020452880859375;2.80999999290543;282;100 mA
293.363785259328;-0.99945068359375;-0.020416259765625;2.81999999288018;283;100 mA
293.373785259302;-0.99945068359375;-0.020379638671875;2.82999999285494;284;100 mA
293.383785259277;-0.999755859375;-0.02034912109375;2.83999999282969;285;100 mA
293.393785259252;-0.99945068359375;-0.020306396484375;2.84999999280444;286;100 mA
293.403785259227;-0.99945068359375;-0.020281982421875;2.85999999277919;287;100 mA
293.413785259201;-0.99945068359375;-0.020245361328125;2.86999999275395;288;100 mA
293.423785259176;-0.99945068359375;-0.020208740234375;2.8799999927287;289;100 mA
293.433785259151;-0.99945068359375;-0.0201751708984375;2.88999999270345;290;100 mA
293.443785259126;-0.99945068359375;-0.020135498046875;2.8999999926782;291;100 mA
293.4537852591;-0.99884033203125;-0.0201080322265625;2.90999999265296;292;100 mA
293.463785259075;-0.999755859375;-0.02008056640625;2.91999999262771;293;100 mA
293.47378525905;-0.99945068359375;-0.02003173828125;2.92999999260246;294;100 mA
293.483785259025;-0.99945068359375;-0.02000732421875;2.93999999257721;295;100 mA
293.493785258999;-0.9991455078125;-0.019964599609375;2.94999999255197;296;100 mA
293.503785258974;-0.99945068359375;-0.0199371337890625;2.95999999252672;297;100 mA
293.513785258949;-0.999755859375;-0.0199005126953125;2.96999999250147;298;100 mA
293.523785258924;-0.99945068359375;-0.019866943359375;2.97999999247622;299;100 mA
293.533785258898;-0.99945068359375;-0.01983642578125;2.98999999245098;300;100 mA
293.543785258873;-0.99884033203125;-0.0197998046875;2.99999999242573;301;100 mA
293.553785258848;-0.9991455078125;-0.019769287109375;3.00999999240048;302;100 mA
293.563785258823;-0.9991455078125;-0.0197479248046875;3.01999999237523;303;100 mA
293.573785258797;-0.99945068359375;-0.0196990966796875;3.02999999234999;304;100 mA
293.583785258772;-0.99945068359375;-0.0196807861328125;3.03999999232474;305;100 mA
293.593785258747;-1.00006103515625;-0.01964111328125;3.04999999229949;306;100 mA
293.603785258722;-0.999755859375;-0.0196136474609375;3.05999999227424;307;100 mA
293.613785258696;-0.9991455078125;-0.01959228515625;3.069999992249;308;100 mA
293.623785258671;-0.9991455078125;-0.0195526123046875;3.07999999222375;309;100 mA
293.633785258646;-0.9991455078125;-0.0195220947265625;3.0899999921985;310;100 mA
293.643785258621;-0.9991455078125;-0.019482421875;3.09999999217325;311;100 mA
293.653785258595;-0.99945068359375;-0.0194549560546875;3.109999992148;312;100 mA
293.66378525857;-0.99945068359375;-0.0194244384765625;3.11999999212276;313;100 mA
293.673785258545;-1.00006103515625;-0.0193878173828125;3.12999999209751;314;100 mA
293.68378525852;-0.99945068359375;-0.019366455078125;3.13999999207226;315;100 mA
293.693785258494;-0.99945068359375;-0.019329833984375;3.14999999204701;316;100 mA
293.703785258469;-0.9991455078125;-0.019305419921875;3.15999999202177;317;100 mA
293.713785258444;-0.99853515625;-0.019281005859375;3.16999999199652;318;100 mA
293.723785258419;-0.99945068359375;-0.01923828125;3.17999999197127;319;100 mA
293.733785258393;-0.999755859375;-0.019219970703125;3.18999999194602;320;100 mA
293.743785258368;-0.999755859375;-0.0191741943359375;3.19999999192078;321;100 mA
293.753785258343;-0.99945068359375;-0.01915283203125;3.20999999189553;322;100 mA
293.763785258318;-0.99945068359375;-0.01912841796875;3.21999999187028;323;100 mA
293.773785258292;-0.9991455078125;-0.0190948486328125;3.22999999184503;324;100 mA
293.783785258267;-0.9991455078125;-0.019073486328125;3.23999999181979;325;100 mA
293.793785258242;-0.99945068359375;-0.0190277099609375;3.24999999179454;326;100 mA
293.803785258217;-0.99945068359375;-0.019012451171875;3.25999999176929;327;100 mA
293.813785258192;-0.999755859375;-0.0189849853515625;3.26999999174404;328;100 mA
293.823785258166;-0.999755859375;-0.0189453125;3.2799999917188;329;100 mA
293.833785258141;-0.9991455078125;-0.018927001953125;3.28999999169355;330;100 mA
293.843785258116;-0.999755859375;-0.018890380859375;3.2999999916683;331;100 mA
293.853785258091;-0.99945068359375;-0.0188690185546875;3.30999999164305;332;100 mA
293.863785258065;-0.9991455078125;-0.018841552734375;3.31999999161781;333;100 mA
293.87378525804;-0.99945068359375;-0.018804931640625;3.32999999159256;334;100 mA
293.883785258015;-0.999755859375;-0.018792724609375;3.33999999156731;335;100 mA
293.89378525799;-0.99945068359375;-0.0187408447265625;3.34999999154206;336;100 mA
293.903785257964;-0.9991455078125;-0.0187255859375;3.35999999151682;337;100 mA
293.913785257939;-0.9991455078125;-0.018695068359375;3.36999999149157;338;100 mA
293.923785257914;-0.9991455078125;-0.018670654296875;3.37999999146632;339;100 mA
293.933785257889;-0.999755859375;-0.0186492919921875;3.38999999144107;340;100 mA
293.943785257863;-0.99945068359375;-0.0186065673828125;3.39999999141583;341;100 mA
293.953785257838;-0.99945068359375;-0.018597412109375;3.40999999139058;342;100 mA
293.963785257813;-0.9991455078125;-0.0185699462890625;3.41999999136533;343;100 mA
293.973785257788;-0.999755859375;-0.01854248046875;3.42999999134008;344;100 mA
293.983785257762;-0.9991455078125;-0.01851806640625;3.43999999131483;345;100 mA
293.993785257737;-0.999755859375;-0.0184814453125;3.44999999128959;346;100 mA
294.003785257712;-0.999755859375;-0.018463134765625;3.45999999126434;347;100 mA
294.013785257687;-0.99945068359375;-0.0184417724609375;3.46999999123909;348;100 mA
294.023785257661;-0.99945068359375;-0.0184112548828125;3.47999999121384;349;100 mA
294.033785257636;-0.999755859375;-0.018389892578125;3.4899999911886;350;100 mA
294.043785257611;-1.00006103515625;-0.0183563232421875;3.49999999116335;351;100 mA
294.053785257586;-1.00006103515625;-0.0183380126953125;3.5099999911381;352;100 mA
294.06378525756;-0.99945068359375;-0.0183135986328125;3.51999999111285;353;100 mA
294.073785257535;-0.99945068359375;-0.0182769775390625;3.52999999108761;354;100 mA
294.08378525751;-0.99945068359375;-0.01826171875;3.53999999106236;355;100 mA
294.093785257485;-0.99945068359375;-0.01822509765625;3.54999999103711;356;100 mA
294.103785257459;-0.99945068359375;-0.018206787109375;3.55999999101186;357;100 mA
294.113785257434;-0.9991455078125;-0.0181854248046875;3.56999999098662;358;100 mA
294.123785257409;-0.99945068359375;-0.01815185546875;3.57999999096137;359;100 mA
294.133785257384;-0.999755859375;-0.0181365966796875;3.58999999093612;360;100 mA
294.143785257358;-0.999755859375;-0.0180999755859375;3.59999999091087;361;100 mA
294.153785257333;-0.9991455078125;-0.018084716796875;3.60999999088563;362;100 mA
294.163785257308;-0.99884033203125;-0.018060302734375;3.61999999086038;363;100 mA
294.173785257283;-0.999755859375;-0.0180328369140625;3.62999999083513;364;100 mA
294.183785257257;-0.999755859375;-0.0180145263671875;3.63999999080988;365;100 mA
294.193785257232;-0.999755859375;-0.0179840087890625;3.64999999078464;366;100 mA
294.203785257207;-1.00006103515625;-0.0179595947265625;3.65999999075939;367;100 mA
294.213785257182;-0.9991455078125;-0.0179412841796875;3.66999999073414;368;100 mA
294.223785257156;-0.999755859375;-0.017913818359375;3.67999999070889;369;100 mA
294.233785257131;-0.9991455078125;-0.0178955078125;3.68999999068365;370;100 mA
294.243785257106;-0.999755859375;-0.01785888671875;3.6999999906584;371;100 mA
294.253785257081;-0.999755859375;-0.0178497314453125;3.70999999063315;372;100 mA
294.263785257055;-0.99853515625;-0.0178192138671875;3.7199999906079;373;100 mA
294.27378525703;-0.9991455078125;-0.0177978515625;3.72999999058266;374;100 mA
294.283785257005;-0.99945068359375;-0.0177764892578125;3.73999999055741;375;100 mA
294.29378525698;-0.99945068359375;-0.0177459716796875;3.74999999053216;376;100 mA
294.303785256954;-0.999755859375;-0.017730712890625;3.75999999050691;377;100 mA
294.313785256929;-0.99945068359375;-0.0177093505859375;3.76999999048167;378;100 mA
294.323785256904;-0.999755859375;-0.0176788330078125;3.77999999045642;379;100 mA
294.333785256879;-0.999755859375;-0.0176605224609375;3.78999999043117;380;100 mA
294.343785256853;-0.9991455078125;-0.0176300048828125;3.79999999040592;381;100 mA
294.353785256828;-0.9991455078125;-0.0176177978515625;3.80999999038067;382;100 mA
294.363785256803;-0.999755859375;-0.01759033203125;3.81999999035543;383;100 mA
294.373785256778;-0.99945068359375;-0.0175689697265625;3.82999999033018;384;100 mA
294.383785256752;-0.99884033203125;-0.0175567626953125;3.83999999030493;385;100 mA
294.393785256727;-0.99945068359375;-0.0175201416015625;3.84999999027968;386;100 mA
294.403785256702;-0.99884033203125;-0.0175018310546875;3.85999999025444;387;100 mA
294.413785256677;-0.99945068359375;-0.0174835205078125;3.86999999022919;388;100 mA
294.423785256651;-0.999755859375;-0.017462158203125;3.87999999020394;389;100 mA
294.433785256626;-0.9991455078125;-0.0174468994140625;3.88999999017869;390;100 mA
294.443785256601;-0.99945068359375;-0.0174163818359375;3.89999999015345;391;100 mA
294.453785256576;-0.99945068359375;-0.017401123046875;3.9099999901282;392;100 mA
294.46378525655;-0.99945068359375;-0.0173797607421875;3.91999999010295;393;100 mA
294.473785256525;-0.9991455078125;-0.0173553466796875;3.9299999900777;394;100 mA
294.4837852565;-0.999755859375;-0.017333984375;3.93999999005246;395;100 mA
294.493785256475;-0.99945068359375;-0.0173065185546875;3.94999999002721;396;100 mA
294.503785256449;-0.9991455078125;-0.0172943115234375;3.95999999000196;397;100 mA
294.513785256424;-0.999755859375;-0.01727294921875;3.96999998997671;398;100 mA
294.523785256399;-0.99945068359375;-0.01724853515625;3.97999998995147;399;100 mA
294.533785256374;-0.999755859375;-0.017230224609375;3.98999998992622;400;100 mA
294.543785256348;-0.99884033203125;-0.017205810546875;3.99999998990097;401;100 mA
294.553785256323;-0.999755859375;-0.0171875;4.00999998987572;402;100 mA
294.563785256298;-0.99945068359375;-0.017169189453125;4.01999998985048;403;100 mA
294.573785256273;-0.9991455078125;-0.0171478271484375;4.02999998982523;404;100 mA
294.583785256247;-0.99945068359375;-0.017132568359375;4.03999998979998;405;100 mA
294.593785256222;-0.9991455078125;-0.017108154296875;4.04999998977473;406;100 mA
294.603785256197;-0.999755859375;-0.0170928955078125;4.05999998974949;407;100 mA
294.613785256172;-0.9991455078125;-0.0170684814453125;4.06999998972424;408;100 mA
294.623785256146;-0.99945068359375;-0.0170440673828125;4.07999998969899;409;100 mA
294.633785256121;-0.999755859375;-0.017034912109375;4.08999998967374;410;100 mA
294.643785256096;-0.999755859375;-0.0170013427734375;4.0999999896485;411;100 mA
294.653785256071;-0.99945068359375;-0.0169891357421875;4.10999998962325;412;100 mA
294.663785256045;-0.99945068359375;-0.0169708251953125;4.119999989598;413;100 mA
294.67378525602;-1.00006103515625;-0.016943359375;4.12999998957275;414;100 mA
294.683785255995;-0.9991455078125;-0.0169281005859375;4.1399999895475;415;100 mA
294.69378525597;-0.999755859375;-0.0169036865234375;4.14999998952226;416;100 mA
294.703785255944;-0.99945068359375;-0.016888427734375;4.15999998949701;417;100 mA
294.713785255919;-0.99945068359375;-0.0168701171875;4.16999998947176;418;100 mA
294.723785255894;-1.00006103515625;-0.0168487548828125;4.17999998944651;419;100 mA
294.733785255869;-1.00006103515625;-0.0168304443359375;4.18999998942127;420;100 mA
294.743785255843;-0.9991455078125;-0.0168060302734375;4.19999998939602;421;100 mA
294.753785255818;-0.99945068359375;-0.0167877197265625;4.20999998937077;422;100 mA
294.763785255793;-0.9991455078125;-0.0167724609375;4.21999998934552;423;100 mA
294.773785255768;-0.9991455078125;-0.016748046875;4.22999998932028;424;100 mA
294.783785255742;-0.999755859375;-0.016741943359375;4.23999998929503;425;100 mA
294.793785255717;-0.99945068359375;-0.01671142578125;4.24999998926978;426;100 mA
294.803785255692;-0.99945068359375;-0.01669921875;4.25999998924453;427;100 mA
294.813785255667;-0.99945068359375;-0.0166839599609375;4.26999998921929;428;100 mA
294.823785255641;-1.00006103515625;-0.016656494140625;4.27999998919404;429;100 mA
294.833785255616;-0.999755859375;-0.016644287109375;4.28999998916879;430;100 mA
294.843785255591;-0.99945068359375;-0.0166107177734375;4.29999998914354;431;100 mA
294.853785255566;-1.00006103515625;-0.0166015625;4.3099999891183;432;100 mA
294.863785255541;-0.99884033203125;-0.0165863037109375;4.31999998909305;433;100 mA
294.873785255515;-0.99945068359375;-0.01656494140625;4.3299999890678;434;100 mA
294.88378525549;-0.99945068359375;-0.016552734375;4.33999998904255;435;100 mA
294.893785255465;-0.99945068359375;-0.0165313720703125;4.34999998901731;436;100 mA
294.90378525544;-0.9991455078125;-0.01651611328125;4.35999998899206;437;100 mA
294.913785255414;-0.9991455078125;-0.0165069580078125;4.36999998896681;438;100 mA
294.923785255389;-0.999755859375;-0.0164794921875;4.37999998894156;439;100 mA
294.933785255364;-0.999755859375;-0.0164703369140625;4.38999998891632;440;100 mA
294.943785255339;-0.99945068359375;-0.0164398193359375;4.39999998889107;441;100 mA
294.953785255313;-0.999755859375;-0.0164306640625;4.40999998886582;442;100 mA
294.963785255288;-0.99945068359375;-0.0164154052734375;4.41999998884057;443;100 mA
294.973785255263;-0.99945068359375;-0.0163848876953125;4.42999998881533;444;100 mA
294.983785255238;-0.9991455078125;-0.0163787841796875;4.43999998879008;445;100 mA
294.993785255212;-0.99945068359375;-0.01634521484375;4.44999998876483;446;100 mA
295.003785255187;-0.9991455078125;-0.0163330078125;4.45999998873958;447;100 mA
295.013785255162;-0.99945068359375;-0.01632080078125;4.46999998871433;448;100 mA
295.023785255137;-0.999755859375;-0.0162994384765625;4.47999998868909;449;100 mA
295.033785255111;-0.99945068359375;-0.016290283203125;4.48999998866384;450;100 mA
295.043785255086;-0.9991455078125;-0.0162628173828125;4.49999998863859;451;100 mA
295.053785255061;-0.99945068359375;-0.0162567138671875;4.50999998861334;452;100 mA
295.063785255036;-0.999755859375;-0.0162353515625;4.5199999885881;453;100 mA
295.07378525501;-0.99884033203125;-0.0162139892578125;4.52999998856285;454;100 mA
295.083785254985;-0.99945068359375;-0.016204833984375;4.5399999885376;455;100 mA
295.09378525496;-0.99945068359375;-0.01617431640625;4.54999998851235;456;100 mA
295.103785254935;-0.9991455078125;-0.0161712646484375;4.55999998848711;457;100 mA
295.113785254909;-0.999755859375;-0.01614990234375;4.56999998846186;458;100 mA
295.123785254884;-0.99945068359375;-0.0161285400390625;4.57999998843661;459;100 mA
295.133785254859;-0.99945068359375;-0.0161224365234375;4.58999998841136;460;100 mA
295.143785254834;-0.9991455078125;-0.0160919189453125;4.59999998838612;461;100 mA
295.153785254808;-0.99884033203125;-0.0160858154296875;4.60999998836087;462;100 mA
295.163785254783;-0.999755859375;-0.0160675048828125;4.61999998833562;463;100 mA
295.173785254758;-0.99945068359375;-0.016046142578125;4.62999998831037;464;100 mA
295.183785254733;-0.99945068359375;-0.0160400390625;4.63999998828513;465;100 mA
295.193785254707;-1.00006103515625;-0.0160125732421875;4.64999998825988;466;100 mA
295.203785254682;-0.9991455078125;-0.0160064697265625;4.65999998823463;467;100 mA
295.213785254657;-0.9991455078125;-0.0159820556640625;4.66999998820938;468;100 mA
295.223785254632;-0.99945068359375;-0.015966796875;4.67999998818414;469;100 mA
295.233785254606;-0.99945068359375;-0.01595458984375;4.68999998815889;470;100 mA
295.243785254581;-0.99884033203125;-0.01593017578125;4.69999998813364;471;100 mA
295.253785254556;-0.99945068359375;-0.0159271240234375;4.70999998810839;472;100 mA
295.263785254531;-0.9991455078125;-0.0159027099609375;4.71999998808315;473;100 mA
295.273785254505;-1.00006103515625;-0.01588134765625;4.7299999880579;474;100 mA
295.28378525448;-0.99945068359375;-0.0158721923828125;4.73999998803265;475;100 mA
295.293785254455;-0.9991455078125;-0.0158477783203125;4.7499999880074;476;100 mA
295.30378525443;-0.99884033203125;-0.015838623046875;4.75999998798216;477;100 mA
295.313785254404;-0.99945068359375;-0.0158233642578125;4.76999998795691;478;100 mA
295.323785254379;-0.99945068359375;-0.0157989501953125;4.77999998793166;479;100 mA
295.333785254354;-0.9991455078125;-0.015789794921875;4.78999998790641;480;100 mA
295.343785254329;-0.9991455078125;-0.0157684326171875;4.79999998788116;481;100 mA
295.353785254303;-0.9991455078125;-0.01575927734375;4.80999998785592;482;100 mA
295.363785254278;-0.99945068359375;-0.0157440185546875;4.81999998783067;483;100 mA
295.373785254253;-0.9991455078125;-0.0157257080078125;4.82999998780542;484;100 mA
295.383785254228;-0.99945068359375;-0.015716552734375;4.83999998778017;485;100 mA
295.393785254202;-0.9991455078125;-0.015692138671875;4.84999998775493;486;100 mA
295.403785254177;-0.999755859375;-0.0156829833984375;4.85999998772968;487;100 mA
295.413785254152;-0.99945068359375;-0.015667724609375;4.86999998770443;488;100 mA
295.423785254127;-0.99945068359375;-0.0156524658203125;4.87999998767918;489;100 mA
295.433785254101;-0.9991455078125;-0.0156402587890625;4.88999998765394;490;100 mA
295.443785254076;-0.9991455078125;-0.015618896484375;4.89999998762869;491;100 mA
295.453785254051;-0.9991455078125;-0.01561279296875;4.90999998760344;492;100 mA
295.463785254026;-0.99884033203125;-0.015594482421875;4.91999998757819;493;100 mA
295.473785254;-0.9991455078125;-0.015576171875;4.92999998755295;494;100 mA
295.483785253975;-0.99945068359375;-0.015570068359375;4.9399999875277;495;100 mA
295.49378525395;-0.9991455078125;-0.0155426025390625;4.94999998750245;496;100 mA
295.503785253925;-0.99945068359375;-0.0155364990234375;4.9599999874772;497;100 mA
295.513785253899;-0.99945068359375;-0.0155181884765625;4.96999998745196;498;100 mA
295.523785253874;-0.999755859375;-0.0154998779296875;4.97999998742671;499;100 mA
295.533785253849;-0.9991455078125;-0.01549072265625;4.98999998740146;500;100 mA
295.543785253824;-0.999755859375;-0.0154693603515625;4.99999998737621;501;100 mA
295.553785253798;-0.999755859375;-0.0154632568359375;5.00999998735097;502;100 mA
295.563785253773;-0.9991455078125;-0.015447998046875;5.01999998732572;503;100 mA
295.573785253748;-0.9991455078125;-0.0154327392578125;5.02999998730047;504;100 mA
295.583785253723;-1.00006103515625;-0.015423583984375;5.03999998727522;505;100 mA
295.593785253697;-0.99945068359375;-0.015399169921875;5.04999998724998;506;100 mA
295.603785253672;-0.9991455078125;-0.0153900146484375;5.05999998722473;507;100 mA
295.613785253647;-0.99945068359375;-0.015374755859375;5.06999998719948;508;100 mA
295.623785253622;-0.9991455078125;-0.0153564453125;5.07999998717423;509;100 mA
295.633785253596;-0.999755859375;-0.015350341796875;5.08999998714899;510;100 mA
295.643785253571;-0.99945068359375;-0.015325927734375;5.09999998712374;511;100 mA
295.653785253546;-0.99945068359375;-0.0153228759765625;5.10999998709849;512;100 mA
295.663785253521;-0.9991455078125;-0.0153076171875;5.11999998707324;513;100 mA
295.673785253495;-0.99945068359375;-0.0152862548828125;5.129999987048;514;100 mA
295.68378525347;-0.999755859375;-0.015277099609375;5.13999998702275;515;100 mA
295.693785253445;-0.99945068359375;-0.015252685546875;5.1499999869975;516;100 mA
295.70378525342;-0.99945068359375;-0.01524658203125;5.15999998697225;517;100 mA
295.713785253394;-0.999755859375;-0.0152374267578125;5.169999986947;518;100 mA
295.723785253369;-0.99884033203125;-0.015216064453125;5.17999998692176;519;100 mA
295.733785253344;-0.999755859375;-0.0152130126953125;5.18999998689651;520;100 mA
295.743785253319;-0.99884033203125;-0.0151947021484375;5.19999998687126;521;100 mA
295.753785253293;-0.999755859375;-0.0151824951171875;5.20999998684601;522;100 mA
295.763785253268;-0.9991455078125;-0.015167236328125;5.21999998682077;523;100 mA
295.773785253243;-0.999755859375;-0.0151519775390625;5.22999998679552;524;100 mA
295.783785253218;-0.99945068359375;-0.0151458740234375;5.23999998677027;525;100 mA
295.793785253192;-0.999755859375;-0.01512451171875;5.24999998674502;526;100 mA
295.803785253167;-0.999755859375;-0.0151123046875;5.25999998671978;527;100 mA
295.813785253142;-0.99945068359375;-0.01510009765625;5.26999998669453;528;100 mA
295.823785253117;-0.999755859375;-0.01507568359375;5.27999998666928;529;100 mA
295.833785253091;-0.99945068359375;-0.015069580078125;5.28999998664403;530;100 mA
295.843785253066;-0.99945068359375;-0.0150543212890625;5.29999998661879;531;100 mA
295.853785253041;-0.99945068359375;-0.0150421142578125;5.30999998659354;532;100 mA
295.863785253016;-0.99945068359375;-0.01502685546875;5.31999998656829;533;100 mA
295.873785252991;-0.9991455078125;-0.0150115966796875;5.32999998654304;534;100 mA
295.883785252965;-0.99945068359375;-0.0150054931640625;5.3399999865178;535;100 mA
295.89378525294;-1.00006103515625;-0.014996337890625;5.34999998649255;536;100 mA
295.903785252915;-0.9991455078125;-0.014984130859375;5.3599999864673;537;100 mA
295.91378525289;-0.99945068359375;-0.0149688720703125;5.36999998644205;538;100 mA
295.923785252864;-0.9991455078125;-0.01495361328125;5.37999998641681;539;100 mA
295.933785252839;-0.99945068359375;-0.0149444580078125;5.38999998639156;540;100 mA
295.943785252814;-0.999755859375;-0.0149261474609375;5.39999998636631;541;100 mA
295.953785252789;-0.999755859375;-0.0149139404296875;5.40999998634106;542;100 mA
295.963785252763;-0.99945068359375;-0.014898681640625;5.41999998631582;543;100 mA
295.973785252738;-0.99945068359375;-0.01488037109375;5.42999998629057;544;100 mA
295.983785252713;-0.99945068359375;-0.0148773193359375;5.43999998626532;545;100 mA
295.993785252688;-0.999755859375;-0.0148529052734375;5.44999998624007;546;100 mA
296.003785252662;-0.99945068359375;-0.0148468017578125;5.45999998621483;547;100 mA
296.013785252637;-0.999755859375;-0.014837646484375;5.46999998618958;548;100 mA
296.023785252612;-0.9991455078125;-0.0148223876953125;5.47999998616433;549;100 mA
296.033785252587;-0.9991455078125;-0.0148193359375;5.48999998613908;550;100 mA
296.043785252561;-0.99945068359375;-0.014794921875;5.49999998611383;551;100 mA
296.053785252536;-0.99945068359375;-0.0147918701171875;5.50999998608859;552;100 mA
296.063785252511;-0.9991455078125;-0.014776611328125;5.51999998606334;553;100 mA
296.073785252486;-0.99945068359375;-0.014764404296875;5.52999998603809;554;100 mA
296.08378525246;-0.999755859375;-0.0147552490234375;5.53999998601284;555;100 mA
296.093785252435;-0.999755859375;-0.0147369384765625;5.5499999859876;556;100 mA
296.10378525241;-0.99945068359375;-0.0147247314453125;5.55999998596235;557;100 mA
296.113785252385;-0.9991455078125;-0.0147125244140625;5.5699999859371;558;100 mA
296.123785252359;-0.999755859375;-0.014697265625;5.57999998591185;559;100 mA
296.133785252334;-0.99945068359375;-0.0146942138671875;5.58999998588661;560;100 mA
296.143785252309;-0.999755859375;-0.0146697998046875;5.59999998586136;561;100 mA
296.153785252284;-0.999755859375;-0.0146636962890625;5.60999998583611;562;100 mA
296.163785252258;-0.99945068359375;-0.0146575927734375;5.61999998581086;563;100 mA
296.173785252233;-0.99945068359375;-0.01463623046875;5.62999998578562;564;100 mA
296.183785252208;-0.99945068359375;-0.01463623046875;5.63999998576037;565;100 mA
296.193785252183;-0.999755859375;-0.0146148681640625;5.64999998573512;566;100 mA
296.203785252157;-0.99945068359375;-0.014605712890625;5.65999998570987;567;100 mA
296.213785252132;-0.99945068359375;-0.014599609375;5.66999998568463;568;100 mA
296.223785252107;-0.999755859375;-0.014581298828125;5.67999998565938;569;100 mA
296.233785252082;-0.99945068359375;-0.0145721435546875;5.68999998563413;570;100 mA
296.243785252056;-0.99945068359375;-0.0145477294921875;5.69999998560888;571;100 mA
296.253785252031;-0.99945068359375;-0.0145477294921875;5.70999998558364;572;100 mA
296.263785252006;-0.999755859375;-0.014532470703125;5.71999998555839;573;100 mA
296.273785251981;-0.99945068359375;-0.01451416015625;5.72999998553314;574;100 mA
296.283785251955;-0.999755859375;-0.0145111083984375;5.73999998550789;575;100 mA
296.29378525193;-0.9991455078125;-0.01448974609375;5.74999998548265;576;100 mA
296.303785251905;-0.99945068359375;-0.014483642578125;5.7599999854574;577;100 mA
296.31378525188;-0.9991455078125;-0.0144744873046875;5.76999998543215;578;100 mA
296.323785251854;-0.9991455078125;-0.0144561767578125;5.7799999854069;579;100 mA
296.333785251829;-0.99945068359375;-0.0144561767578125;5.78999998538166;580;100 mA
296.343785251804;-0.99945068359375;-0.0144287109375;5.79999998535641;581;100 mA
296.353785251779;-0.9991455078125;-0.0144287109375;5.80999998533116;582;100 mA
296.363785251753;-0.999755859375;-0.01441650390625;5.81999998530591;583;100 mA
296.373785251728;-0.99945068359375;-0.0144012451171875;5.82999998528066;584;100 mA
296.383785251703;-0.99945068359375;-0.0144012451171875;5.83999998525542;585;100 mA
296.393785251678;-0.9991455078125;-0.01436767578125;5.84999998523017;586;100 mA
296.403785251652;-0.99945068359375;-0.0143707275390625;5.85999998520492;587;100 mA
296.413785251627;-0.99945068359375;-0.01435546875;5.86999998517967;588;100 mA
296.423785251602;-0.99945068359375;-0.01434326171875;5.87999998515443;589;100 mA
296.433785251577;-0.99945068359375;-0.014337158203125;5.88999998512918;590;100 mA
296.443785251551;-0.9991455078125;-0.0143157958984375;5.89999998510393;591;100 mA
296.453785251526;-0.999755859375;-0.014312744140625;5.90999998507868;592;100 mA
296.463785251501;-0.99945068359375;-0.014300537109375;5.91999998505344;593;100 mA
296.473785251476;-0.9991455078125;-0.014288330078125;5.92999998502819;594;100 mA
296.48378525145;-0.999755859375;-0.014288330078125;5.93999998500294;595;100 mA
296.493785251425;-0.999755859375;-0.0142669677734375;5.94999998497769;596;100 mA
296.5037852514;-0.999755859375;-0.014263916015625;5.95999998495245;597;100 mA
296.513785251375;-0.99945068359375;-0.0142547607421875;5.9699999849272;598;100 mA
296.523785251349;-1.0003662109375;-0.014239501953125;5.97999998490195;599;100 mA
296.533785251324;-0.99945068359375;-0.0142303466796875;5.9899999848767;600;100 mA
296.543785251299;-0.999755859375;-0.0142059326171875;5.99999998485146;601;100 mA
296.553785251274;-0.999755859375;-0.0142059326171875;6.00999998482621;602;100 mA
296.563785251248;-0.9991455078125;-0.014190673828125;6.01999998480096;603;100 mA
296.573785251223;-0.9991455078125;-0.014178466796875;6.02999998477571;604;100 mA
296.583785251198;-0.99945068359375;-0.0141693115234375;6.03999998475047;605;100 mA
296.593785251173;-0.99945068359375;-0.014154052734375;6.04999998472522;606;100 mA
296.603785251147;-0.99945068359375;-0.0141510009765625;6.05999998469997;607;100 mA
296.613785251122;-0.99945068359375;-0.0141387939453125;6.06999998467472;608;100 mA
296.623785251097;-0.99945068359375;-0.0141326904296875;6.07999998464948;609;100 mA
296.633785251072;-0.999755859375;-0.014129638671875;6.08999998462423;610;100 mA
296.643785251046;-0.99945068359375;-0.0141082763671875;6.09999998459898;611;100 mA
296.653785251021;-0.999755859375;-0.0141082763671875;6.10999998457373;612;100 mA
296.663785250996;-0.999755859375;-0.014093017578125;6.11999998454849;613;100 mA
296.673785250971;-0.9991455078125;-0.01407470703125;6.12999998452324;614;100 mA
296.683785250945;-0.99945068359375;-0.0140716552734375;6.13999998449799;615;100 mA
296.69378525092;-0.99945068359375;-0.01405029296875;6.14999998447274;616;100 mA
296.703785250895;-0.99945068359375;-0.014044189453125;6.1599999844475;617;100 mA
296.71378525087;-0.99884033203125;-0.014031982421875;6.16999998442225;618;100 mA
296.723785250844;-0.9991455078125;-0.014019775390625;6.179999984397;619;100 mA
296.733785250819;-0.99945068359375;-0.0140106201171875;6.18999998437175;620;100 mA
296.743785250794;-0.999755859375;-0.013995361328125;6.1999999843465;621;100 mA
296.753785250769;-0.999755859375;-0.0139923095703125;6.20999998432126;622;100 mA
296.763785250743;-0.99945068359375;-0.0139862060546875;6.21999998429601;623;100 mA
296.773785250718;-0.99945068359375;-0.013970947265625;6.22999998427076;624;100 mA
296.783785250693;-0.99945068359375;-0.013970947265625;6.23999998424551;625;100 mA
296.793785250668;-0.99945068359375;-0.0139556884765625;6.24999998422027;626;100 mA
296.803785250642;-0.999755859375;-0.013946533203125;6.25999998419502;627;100 mA
296.813785250617;-0.99945068359375;-0.0139373779296875;6.26999998416977;628;100 mA
296.823785250592;-0.999755859375;-0.01392822265625;6.27999998414452;629;100 mA
296.833785250567;-0.99945068359375;-0.0139190673828125;6.28999998411928;630;100 mA
296.843785250541;-0.9991455078125;-0.0139007568359375;6.29999998409403;631;100 mA
296.853785250516;-0.999755859375;-0.013885498046875;6.30999998406878;632;100 mA
296.863785250491;-0.999755859375;-0.0138885498046875;6.31999998404353;633;100 mA
296.873785250466;-0.9991455078125;-0.0138641357421875;6.32999998401829;634;100 mA
296.88378525044;-1.00006103515625;-0.013861083984375;6.33999998399304;635;100 mA
296.893785250415;-1.00006103515625;-0.013848876953125;6.34999998396779;636;100 mA
296.90378525039;-0.9991455078125;-0.0138458251953125;6.35999998394254;637;100 mA
296.913785250365;-0.99945068359375;-0.013836669921875;6.3699999839173;638;100 mA
296.92378525034;-0.99945068359375;-0.0138214111328125;6.37999998389205;639;100 mA
296.933785250314;-0.999755859375;-0.013818359375;6.3899999838668;640;100 mA
296.943785250289;-0.99945068359375;-0.013800048828125;6.39999998384155;641;100 mA
296.953785250264;-0.9991455078125;-0.013800048828125;6.40999998381631;642;100 mA
296.963785250239;-0.99945068359375;-0.0137908935546875;6.41999998379106;643;100 mA
296.973785250213;-0.999755859375;-0.0137725830078125;6.42999998376581;644;100 mA
296.983785250188;-0.99945068359375;-0.0137725830078125;6.43999998374056;645;100 mA
296.993785250163;-0.99945068359375;-0.013751220703125;6.44999998371532;646;100 mA
297.003785250138;-0.999755859375;-0.0137451171875;6.45999998369007;647;100 mA
297.013785250112;-0.99945068359375;-0.01373291015625;6.46999998366482;648;100 mA
297.023785250087;-0.99884033203125;-0.013720703125;6.47999998363957;649;100 mA
297.033785250062;-0.99945068359375;-0.0137176513671875;6.48999998361433;650;100 mA
297.043785250037;-0.999755859375;-0.0136993408203125;6.49999998358908;651;100 mA
297.053785250011;-0.9991455078125;-0.0136993408203125;6.50999998356383;652;100 mA
297.063785249986;-0.99945068359375;-0.013677978515625;6.51999998353858;653;100 mA
297.073785249961;-0.99945068359375;-0.013671875;6.52999998351333;654;100 mA
297.083785249936;-0.9991455078125;-0.0136749267578125;6.53999998348809;655;100 mA
297.09378524991;-0.99945068359375;-0.0136505126953125;6.54999998346284;656;100 mA
297.103785249885;-0.999755859375;-0.0136505126953125;6.55999998343759;657;100 mA
297.11378524986;-0.99945068359375;-0.0136383056640625;6.56999998341234;658;100 mA
297.123785249835;-0.99945068359375;-0.0136260986328125;6.5799999833871;659;100 mA
297.133785249809;-0.99945068359375;-0.0136260986328125;6.58999998336185;660;100 mA
297.143785249784;-0.99945068359375;-0.013604736328125;6.5999999833366;661;100 mA
297.153785249759;-0.9991455078125;-0.0135986328125;6.60999998331135;662;100 mA
297.163785249734;-0.9991455078125;-0.0135894775390625;6.61999998328611;663;100 mA
297.173785249708;-0.9991455078125;-0.01357421875;6.62999998326086;664;100 mA
297.183785249683;-0.99945068359375;-0.0135711669921875;6.63999998323561;665;100 mA
297.193785249658;-0.99945068359375;-0.013555908203125;6.64999998321036;666;100 mA
297.203785249633;-0.99945068359375;-0.0135528564453125;6.65999998318512;667;100 mA
297.213785249607;-0.999755859375;-0.0135498046875;6.66999998315987;668;100 mA
297.223785249582;-0.9991455078125;-0.0135345458984375;6.67999998313462;669;100 mA
297.233785249557;-0.9991455078125;-0.013531494140625;6.68999998310937;670;100 mA
297.243785249532;-0.9991455078125;-0.01351318359375;6.69999998308413;671;100 mA
297.253785249506;-0.99945068359375;-0.01351318359375;6.70999998305888;672;100 mA
297.263785249481;-0.99945068359375;-0.0135040283203125;6.71999998303363;673;100 mA
297.273785249456;-0.99945068359375;-0.013482666015625;6.72999998300838;674;100 mA
297.283785249431;-0.9991455078125;-0.0134857177734375;6.73999998298314;675;100 mA
297.293785249405;-0.9991455078125;-0.01346435546875;6.74999998295789;676;100 mA
297.30378524938;-0.9991455078125;-0.013458251953125;6.75999998293264;677;100 mA
297.313785249355;-0.9991455078125;-0.0134490966796875;6.76999998290739;678;100 mA
297.32378524933;-0.999755859375;-0.0134368896484375;6.77999998288215;679;100 mA
297.333785249304;-0.99945068359375;-0.0134368896484375;6.7899999828569;680;100 mA
297.343785249279;-0.99945068359375;-0.0134185791015625;6.79999998283165;681;100 mA
297.353785249254;-0.999755859375;-0.01341552734375;6.8099999828064;682;100 mA
297.363785249229;-0.999755859375;-0.013409423828125;6.81999998278116;683;100 mA
297.373785249203;-0.99945068359375;-0.01339111328125;6.82999998275591;684;100 mA
297.383785249178;-0.999755859375;-0.0134002685546875;6.83999998273066;685;100 mA
297.393785249153;-0.999755859375;-0.0133758544921875;6.84999998270541;686;100 mA
297.403785249128;-0.99945068359375;-0.0133758544921875;6.85999998268016;687;100 mA
297.413785249102;-0.9991455078125;-0.0133636474609375;6.86999998265492;688;100 mA
297.423785249077;-0.9991455078125;-0.0133514404296875;6.87999998262967;689;100 mA
297.433785249052;-0.999755859375;-0.013348388671875;6.88999998260442;690;100 mA
297.443785249027;-0.99945068359375;-0.013330078125;6.89999998257917;691;100 mA
297.453785249001;-0.9991455078125;-0.0133270263671875;6.90999998255393;692;100 mA
297.463785248976;-1.00006103515625;-0.0133209228515625;6.91999998252868;693;100 mA
297.473785248951;-0.9991455078125;-0.0133056640625;6.92999998250343;694;100 mA
297.483785248926;-0.99945068359375;-0.0133087158203125;6.93999998247818;695;100 mA
297.4937852489;-0.999755859375;-0.013287353515625;6.94999998245294;696;100 mA
297.503785248875;-0.9991455078125;-0.013287353515625;6.95999998242769;697;100 mA
297.51378524885;-0.99884033203125;-0.0132781982421875;6.96999998240244;698;100 mA
297.523785248825;-0.9991455078125;-0.01326904296875;6.97999998237719;699;100 mA
297.533785248799;-0.99884033203125;-0.0132659912109375;6.98999998235195;700;100 mA
297.543785248774;-0.9991455078125;-0.013238525390625;6.9999999823267;701;100 mA
297.553785248749;-0.99884033203125;-0.01324462890625;7.00999998230145;702;100 mA
297.563785248724;-0.99945068359375;-0.013232421875;7.0199999822762;703;100 mA
297.573785248698;-0.999755859375;-0.0132232666015625;7.02999998225096;704;100 mA
297.583785248673;-0.999755859375;-0.01322021484375;7.03999998222571;705;100 mA
297.593785248648;-0.99945068359375;-0.0131988525390625;7.04999998220046;706;100 mA
297.603785248623;-0.99945068359375;-0.0132049560546875;7.05999998217521;707;100 mA
297.613785248597;-0.999755859375;-0.013189697265625;7.06999998214997;708;100 mA
297.623785248572;-0.999755859375;-0.013177490234375;7.07999998212472;709;100 mA
297.633785248547;-0.99945068359375;-0.013177490234375;7.08999998209947;710;100 mA
297.643785248522;-1.00006103515625;-0.0131561279296875;7.09999998207422;711;100 mA
297.653785248496;-0.9991455078125;-0.0131591796875;7.10999998204898;712;100 mA
297.663785248471;-0.99884033203125;-0.01314697265625;7.11999998202373;713;100 mA
297.673785248446;-0.9991455078125;-0.0131378173828125;7.12999998199848;714;100 mA
297.683785248421;-0.99884033203125;-0.013134765625;7.13999998197323;715;100 mA
297.693785248395;-0.99945068359375;-0.0131134033203125;7.14999998194799;716;100 mA
297.70378524837;-0.99884033203125;-0.013116455078125;7.15999998192274;717;100 mA
297.713785248345;-0.99945068359375;-0.01309814453125;7.16999998189749;718;100 mA
297.72378524832;-0.9991455078125;-0.013092041015625;7.17999998187224;719;100 mA
297.733785248294;-0.99945068359375;-0.0130889892578125;7.189999981847;720;100 mA
297.743785248269;-0.99945068359375;-0.0130706787109375;7.19999998182175;721;100 mA
297.753785248244;-0.999755859375;-0.0130706787109375;7.2099999817965;722;100 mA
297.763785248219;-0.999755859375;-0.0130615234375;7.21999998177125;723;100 mA
297.773785248193;-0.99945068359375;-0.01304931640625;7.229999981746;724;100 mA
297.783785248168;-0.9991455078125;-0.0130462646484375;7.23999998172076;725;100 mA
297.793785248143;-0.99945068359375;-0.0130218505859375;7.24999998169551;726;100 mA
297.803785248118;-0.999755859375;-0.013031005859375;7.25999998167026;727;100 mA
297.813785248092;-0.99884033203125;-0.013018798828125;7.26999998164501;728;100 mA
297.823785248067;-0.9991455078125;-0.013006591796875;7.27999998161977;729;100 mA
297.833785248042;-0.9991455078125;-0.013006591796875;7.28999998159452;730;100 mA
297.843785248017;-0.9991455078125;-0.0129852294921875;7.29999998156927;731;100 mA
297.853785247991;-1.00006103515625;-0.01298828125;7.30999998154402;732;100 mA
297.863785247966;-1.00006103515625;-0.01297607421875;7.31999998151878;733;100 mA
297.873785247941;-0.999755859375;-0.012969970703125;7.32999998149353;734;100 mA
297.883785247916;-0.99945068359375;-0.012969970703125;7.33999998146828;735;100 mA
297.89378524789;-0.999755859375;-0.0129547119140625;7.34999998144303;736;100 mA
297.903785247865;-0.99945068359375;-0.01295166015625;7.35999998141779;737;100 mA
297.91378524784;-0.9991455078125;-0.0129364013671875;7.36999998139254;738;100 mA
297.923785247815;-0.99945068359375;-0.012933349609375;7.37999998136729;739;100 mA
297.93378524779;-0.99945068359375;-0.0129241943359375;7.38999998134204;740;100 mA
297.943785247764;-0.99945068359375;-0.012908935546875;7.3999999813168;741;100 mA
297.953785247739;-1.00006103515625;-0.012908935546875;7.40999998129155;742;100 mA
297.963785247714;-0.99945068359375;-0.0128997802734375;7.4199999812663;743;100 mA
297.973785247689;-0.999755859375;-0.012890625;7.42999998124105;744;100 mA
297.983785247663;-0.99884033203125;-0.012890625;7.43999998121581;745;100 mA
297.993785247638;-0.99945068359375;-0.0128753662109375;7.44999998119056;746;100 mA
298.003785247613;-0.9991455078125;-0.012872314453125;7.45999998116531;747;100 mA
298.013785247588;-0.99945068359375;-0.0128631591796875;7.46999998114006;748;100 mA
298.023785247562;-0.9991455078125;-0.012847900390625;7.47999998111482;749;100 mA
298.033785247537;-0.9991455078125;-0.0128509521484375;7.48999998108957;750;100 mA
298.043785247512;-0.99884033203125;-0.012835693359375;7.49999998106432;751;100 mA
298.053785247487;-0.999755859375;-0.0128265380859375;7.50999998103907;752;100 mA
298.063785247461;-0.99945068359375;-0.012823486328125;7.51999998101383;753;100 mA
298.073785247436;-0.999755859375;-0.012811279296875;7.52999998098858;754;100 mA
298.083785247411;-0.9991455078125;-0.0128143310546875;7.53999998096333;755;100 mA
298.093785247386;-0.99945068359375;-0.01279296875;7.54999998093808;756;100 mA
298.10378524736;-0.99945068359375;-0.0127899169921875;7.55999998091283;757;100 mA
298.113785247335;-0.99945068359375;-0.0127838134765625;7.56999998088759;758;100 mA
298.12378524731;-0.99945068359375;-0.012774658203125;7.57999998086234;759;100 mA
298.133785247285;-0.999755859375;-0.0127716064453125;7.58999998083709;760;100 mA
298.143785247259;-0.99945068359375;-0.0127593994140625;7.59999998081184;761;100 mA
298.153785247234;-0.999755859375;-0.0127532958984375;7.6099999807866;762;100 mA
298.163785247209;-0.9991455078125;-0.0127532958984375;7.61999998076135;763;100 mA
298.173785247184;-0.99945068359375;-0.0127349853515625;7.6299999807361;764;100 mA
298.183785247158;-0.999755859375;-0.012738037109375;7.63999998071085;765;100 mA
298.193785247133;-0.9991455078125;-0.0127166748046875;7.64999998068561;766;100 mA
298.203785247108;-0.999755859375;-0.0127197265625;7.65999998066036;767;100 mA
298.213785247083;-0.999755859375;-0.0127044677734375;7.66999998063511;768;100 mA
298.223785247057;-0.999755859375;-0.012701416015625;7.67999998060986;769;100 mA
298.233785247032;-0.9991455078125;-0.0126983642578125;7.68999998058462;770;100 mA
298.243785247007;-0.99945068359375;-0.0126800537109375;7.69999998055937;771;100 mA
298.253785246982;-0.999755859375;-0.012677001953125;7.70999998053412;772;100 mA
298.263785246956;-0.99945068359375;-0.0126739501953125;7.71999998050887;773;100 mA
298.273785246931;-0.99945068359375;-0.0126617431640625;7.72999998048363;774;100 mA
298.283785246906;-0.999755859375;-0.012664794921875;7.73999998045838;775;100 mA
298.293785246881;-0.9991455078125;-0.012646484375;7.74999998043313;776;100 mA
298.303785246855;-0.99945068359375;-0.0126434326171875;7.75999998040788;777;100 mA
298.31378524683;-0.9991455078125;-0.0126373291015625;7.76999998038264;778;100 mA
298.323785246805;-0.99945068359375;-0.0126251220703125;7.77999998035739;779;100 mA
298.33378524678;-0.999755859375;-0.0126251220703125;7.78999998033214;780;100 mA
298.343785246754;-0.9991455078125;-0.0126068115234375;7.79999998030689;781;100 mA
298.353785246729;-0.99945068359375;-0.012603759765625;7.80999998028165;782;100 mA
298.363785246704;-0.99945068359375;-0.012603759765625;7.8199999802564;783;100 mA
298.373785246679;-0.999755859375;-0.0125885009765625;7.82999998023115;784;100 mA
298.383785246653;-0.9991455078125;-0.0125946044921875;7.8399999802059;785;100 mA
298.393785246628;-0.99945068359375;-0.0125762939453125;7.84999998018066;786;100 mA
298.403785246603;-0.9991455078125;-0.0125701904296875;7.85999998015541;787;100 mA
298.413785246578;-0.99884033203125;-0.0125701904296875;7.86999998013016;788;100 mA
298.423785246552;-0.99945068359375;-0.0125518798828125;7.87999998010491;789;100 mA
298.433785246527;-0.999755859375;-0.012554931640625;7.88999998007966;790;100 mA
298.443785246502;-1.00006103515625;-0.0125396728515625;7.89999998005442;791;100 mA
298.453785246477;-0.9991455078125;-0.01253662109375;7.90999998002917;792;100 mA
298.463785246451;-0.99945068359375;-0.0125244140625;7.91999998000392;793;100 mA
298.473785246426;-0.99945068359375;-0.0125213623046875;7.92999997997867;794;100 mA
298.483785246401;-0.99945068359375;-0.0125244140625;7.93999997995343;795;100 mA
298.493785246376;-0.999755859375;-0.0125030517578125;7.94999997992818;796;100 mA
298.50378524635;-0.99945068359375;-0.0125;7.95999997990293;797;100 mA
298.513785246325;-1.0003662109375;-0.0125;7.96999997987768;798;100 mA
298.5237852463;-0.99945068359375;-0.0124847412109375;7.97999997985244;799;100 mA
298.533785246275;-0.999755859375;-0.0124847412109375;7.98999997982719;800;100 mA
298.543785246249;-1.00006103515625;-0.012469482421875;7.99999997980194;801;100 mA
298.553785246224;-0.999755859375;-0.0124664306640625;8.00999997977669;802;100 mA
298.563785246199;-0.9991455078125;-0.012457275390625;8.01999997975145;803;100 mA
298.573785246174;-0.99945068359375;-0.012451171875;8.0299999797262;804;100 mA
298.583785246148;-0.9991455078125;-0.012451171875;8.03999997970095;805;100 mA
298.593785246123;-0.999755859375;-0.0124359130859375;8.0499999796757;806;100 mA
298.603785246098;-0.999755859375;-0.012432861328125;8.05999997965046;807;100 mA
298.613785246073;-1.00006103515625;-0.0124267578125;8.06999997962521;808;100 mA
298.623785246047;-0.99945068359375;-0.0124176025390625;8.07999997959996;809;100 mA
298.633785246022;-0.9991455078125;-0.0124176025390625;8.08999997957471;810;100 mA
298.643785245997;-0.99945068359375;-0.01240234375;8.09999997954947;811;100 mA
298.653785245972;-0.99945068359375;-0.0123992919921875;8.10999997952422;812;100 mA
298.663785245946;-0.99945068359375;-0.0123992919921875;8.11999997949897;813;100 mA
298.673785245921;-0.9991455078125;-0.012384033203125;8.12999997947372;814;100 mA
298.683785245896;-0.99884033203125;-0.0123870849609375;8.13999997944848;815;100 mA
298.693785245871;-0.99945068359375;-0.012371826171875;8.14999997942323;816;100 mA
298.703785245845;-0.99945068359375;-0.01236572265625;8.15999997939798;817;100 mA
298.71378524582;-0.99945068359375;-0.0123626708984375;8.16999997937273;818;100 mA
298.723785245795;-0.999755859375;-0.0123443603515625;8.17999997934749;819;100 mA
298.73378524577;-0.99945068359375;-0.01234130859375;8.18999997932224;820;100 mA
298.743785245744;-0.99945068359375;-0.0123321533203125;8.19999997929699;821;100 mA
298.753785245719;-0.9991455078125;-0.0123291015625;8.20999997927174;822;100 mA
298.763785245694;-0.999755859375;-0.0123291015625;8.2199999792465;823;100 mA
298.773785245669;-0.99945068359375;-0.0123138427734375;8.22999997922125;824;100 mA
298.783785245643;-0.99945068359375;-0.012322998046875;8.239999979196;825;100 mA
298.793785245618;-0.99945068359375;-0.0123046875;8.24999997917075;826;100 mA
298.803785245593;-0.99945068359375;-0.0123046875;8.2599999791455;827;100 mA
298.813785245568;-0.99945068359375;-0.012298583984375;8.26999997912026;828;100 mA
298.823785245542;-0.999755859375;-0.0122833251953125;8.27999997909501;829;100 mA
298.833785245517;-0.99945068359375;-0.0122833251953125;8.28999997906976;830;100 mA
298.843785245492;-0.99945068359375;-0.01226806640625;8.29999997904451;831;100 mA
298.853785245467;-0.9991455078125;-0.0122589111328125;8.30999997901927;832;100 mA
298.863785245441;-0.999755859375;-0.012261962890625;8.31999997899402;833;100 mA
298.873785245416;-0.99945068359375;-0.012237548828125;8.32999997896877;834;100 mA
298.883785245391;-0.99945068359375;-0.01224365234375;8.33999997894352;835;100 mA
298.893785245366;-0.99945068359375;-0.012225341796875;8.34999997891828;836;100 mA
298.90378524534;-0.999755859375;-0.0122283935546875;8.35999997889303;837;100 mA
298.913785245315;-0.99945068359375;-0.012225341796875;8.36999997886778;838;100 mA
298.92378524529;-0.999755859375;-0.01221923828125;8.37999997884253;839;100 mA
298.933785245265;-0.99945068359375;-0.0122222900390625;8.38999997881729;840;100 mA
298.943785245239;-0.99945068359375;-0.012200927734375;8.39999997879204;841;100 mA
298.953785245214;-0.999755859375;-0.0122039794921875;8.40999997876679;842;100 mA
298.963785245189;-0.99945068359375;-0.01219482421875;8.41999997874154;843;100 mA
298.973785245164;-0.99945068359375;-0.0121795654296875;8.4299999787163;844;100 mA
298.983785245139;-0.99945068359375;-0.0121856689453125;8.43999997869105;845;100 mA
298.993785245113;-0.99945068359375;-0.01217041015625;8.4499999786658;846;100 mA
299.003785245088;-0.99945068359375;-0.012164306640625;8.45999997864055;847;100 mA
299.013785245063;-0.999755859375;-0.0121551513671875;8.46999997861531;848;100 mA
299.023785245038;-0.99945068359375;-0.0121368408203125;8.47999997859006;849;100 mA
299.033785245012;-0.999755859375;-0.01214599609375;8.48999997856481;850;100 mA
299.043785244987;-0.9991455078125;-0.012127685546875;8.49999997853956;851;100 mA
299.053785244962;-0.99945068359375;-0.0121337890625;8.50999997851432;852;100 mA
299.063785244937;-0.99945068359375;-0.0121246337890625;8.51999997848907;853;100 mA
299.073785244911;-0.9991455078125;-0.0121185302734375;8.52999997846382;854;100 mA
299.083785244886;-0.99945068359375;-0.01212158203125;8.53999997843857;855;100 mA
299.093785244861;-0.99945068359375;-0.012103271484375;8.54999997841333;856;100 mA
299.103785244836;-0.9991455078125;-0.012103271484375;8.55999997838808;857;100 mA
299.11378524481;-0.99884033203125;-0.01209716796875;8.56999997836283;858;100 mA
299.123785244785;-0.9991455078125;-0.012091064453125;8.57999997833758;859;100 mA
299.13378524476;-0.99945068359375;-0.01209716796875;8.58999997831233;860;100 mA
299.143785244735;-0.9991455078125;-0.01207275390625;8.59999997828709;861;100 mA
299.153785244709;-0.9991455078125;-0.0120697021484375;8.60999997826184;862;100 mA
299.163785244684;-0.99945068359375;-0.012054443359375;8.61999997823659;863;100 mA
299.173785244659;-0.9991455078125;-0.01204833984375;8.62999997821134;864;100 mA
299.183785244634;-0.9991455078125;-0.012054443359375;8.6399999781861;865;100 mA
299.193785244608;-0.99945068359375;-0.0120330810546875;8.64999997816085;866;100 mA
299.203785244583;-0.99945068359375;-0.0120361328125;8.6599999781356;867;100 mA
299.213785244558;-0.99945068359375;-0.0120269775390625;8.66999997811035;868;100 mA
299.223785244533;-0.999755859375;-0.0120208740234375;8.67999997808511;869;100 mA
299.233785244507;-0.99945068359375;-0.0120208740234375;8.68999997805986;870;100 mA
299.243785244482;-0.99945068359375;-0.012017822265625;8.69999997803461;871;100 mA
299.253785244457;-0.99945068359375;-0.01201171875;8.70999997800936;872;100 mA
299.263785244432;-0.99945068359375;-0.0120086669921875;8.71999997798412;873;100 mA
299.273785244406;-0.9991455078125;-0.0119964599609375;8.72999997795887;874;100 mA
299.283785244381;-0.999755859375;-0.01199951171875;8.73999997793362;875;100 mA
299.293785244356;-0.99945068359375;-0.011981201171875;8.74999997790837;876;100 mA
299.303785244331;-0.99945068359375;-0.01197509765625;8.75999997788313;877;100 mA
299.313785244305;-0.999755859375;-0.011968994140625;8.76999997785788;878;100 mA
299.32378524428;-0.999755859375;-0.011962890625;8.77999997783263;879;100 mA
299.333785244255;-1.00006103515625;-0.0119598388671875;8.78999997780738;880;100 mA
299.34378524423;-0.9991455078125;-0.01195068359375;8.79999997778214;881;100 mA
299.353785244204;-0.99945068359375;-0.011944580078125;8.80999997775689;882;100 mA
299.363785244179;-0.99945068359375;-0.0119384765625;8.81999997773164;883;100 mA
299.373785244154;-0.99945068359375;-0.0119354248046875;8.82999997770639;884;100 mA
299.383785244129;-0.999755859375;-0.0119384765625;8.83999997768115;885;100 mA
299.393785244103;-0.99945068359375;-0.0119293212890625;8.8499999776559;886;100 mA
299.403785244078;-0.99945068359375;-0.0119232177734375;8.85999997763065;887;100 mA
299.413785244053;-0.9991455078125;-0.011920166015625;8.8699999776054;888;100 mA
299.423785244028;-0.9991455078125;-0.0119110107421875;8.87999997758016;889;100 mA
299.433785244002;-0.9991455078125;-0.0119110107421875;8.88999997755491;890;100 mA
299.443785243977;-0.99945068359375;-0.011895751953125;8.89999997752966;891;100 mA
299.453785243952;-0.99945068359375;-0.0118865966796875;8.90999997750441;892;100 mA
299.463785243927;-0.9991455078125;-0.01187744140625;8.91999997747916;893;100 mA
299.473785243901;-0.99884033203125;-0.0118682861328125;8.92999997745392;894;100 mA
299.483785243876;-0.9991455078125;-0.011871337890625;8.93999997742867;895;100 mA
299.493785243851;-0.9991455078125;-0.0118621826171875;8.94999997740342;896;100 mA
299.503785243826;-0.999755859375;-0.011859130859375;8.95999997737817;897;100 mA
299.5137852438;-0.99945068359375;-0.0118560791015625;8.96999997735293;898;100 mA
299.523785243775;-0.99884033203125;-0.0118438720703125;8.97999997732768;899;100 mA
299.53378524375;-0.999755859375;-0.0118438720703125;8.98999997730243;900;100 mA
299.543785243725;-1.00006103515625;-0.0118408203125;8.99999997727718;901;100 mA
299.553785243699;-0.999755859375;-0.011834716796875;9.00999997725194;902;100 mA
299.563785243674;-0.999755859375;-0.01182861328125;9.01999997722669;903;100 mA
299.573785243649;-0.99945068359375;-0.0118194580078125;9.02999997720144;904;100 mA
299.583785243624;-0.99945068359375;-0.0118194580078125;9.03999997717619;905;100 mA
299.593785243598;-0.9991455078125;-0.0118072509765625;9.04999997715095;906;100 mA
299.603785243573;-0.99945068359375;-0.0118011474609375;9.0599999771257;907;100 mA
299.613785243548;-0.999755859375;-0.0117950439453125;9.06999997710045;908;100 mA
299.623785243523;-0.999755859375;-0.01177978515625;9.0799999770752;909;100 mA
299.633785243497;-0.9991455078125;-0.0117767333984375;9.08999997704996;910;100 mA
299.643785243472;-0.999755859375;-0.0117706298828125;9.09999997702471;911;100 mA
299.653785243447;-0.999755859375;-0.011767578125;9.10999997699946;912;100 mA
299.663785243422;-0.999755859375;-0.011767578125;9.11999997697421;913;100 mA
299.673785243396;-0.999755859375;-0.01175537109375;9.12999997694897;914;100 mA
299.683785243371;-0.99945068359375;-0.011761474609375;9.13999997692372;915;100 mA
299.693785243346;-1.00006103515625;-0.01175537109375;9.14999997689847;916;100 mA
299.703785243321;-0.999755859375;-0.0117462158203125;9.15999997687322;917;100 mA
299.713785243295;-0.99945068359375;-0.0117462158203125;9.16999997684798;918;100 mA
299.72378524327;-0.99884033203125;-0.0117340087890625;9.17999997682273;919;100 mA
299.733785243245;-0.9991455078125;-0.0117340087890625;9.18999997679748;920;100 mA
299.74378524322;-1.00006103515625;-0.0117279052734375;9.19999997677223;921;100 mA
299.753785243194;-0.9991455078125;-0.0117156982421875;9.20999997674699;922;100 mA
299.763785243169;-1.00006103515625;-0.011712646484375;9.21999997672174;923;100 mA
299.773785243144;-1.00006103515625;-0.011700439453125;9.22999997669649;924;100 mA
299.783785243119;-0.9991455078125;-0.011700439453125;9.23999997667124;925;100 mA
299.793785243093;-0.999755859375;-0.0116912841796875;9.249999976646;926;100 mA
299.803785243068;-0.99945068359375;-0.01168212890625;9.25999997662075;927;100 mA
299.813785243043;-0.99945068359375;-0.01168212890625;9.2699999765955;928;100 mA
299.823785243018;-0.99945068359375;-0.011676025390625;9.27999997657025;929;100 mA
299.833785242992;-1.00006103515625;-0.011676025390625;9.289999976545;930;100 mA
299.843785242967;-0.99945068359375;-0.01165771484375;9.29999997651976;931;100 mA
299.853785242942;-0.9991455078125;-0.01165771484375;9.30999997649451;932;100 mA
299.863785242917;-0.99884033203125;-0.0116607666015625;9.31999997646926;933;100 mA
299.873785242891;-0.99945068359375;-0.0116424560546875;9.32999997644401;934;100 mA
299.883785242866;-0.99945068359375;-0.0116485595703125;9.33999997641877;935;100 mA
299.893785242841;-0.99945068359375;-0.0116363525390625;9.34999997639352;936;100 mA
299.903785242816;-0.9991455078125;-0.0116302490234375;9.35999997636827;937;100 mA
299.91378524279;-0.99945068359375;-0.011627197265625;9.36999997634302;938;100 mA
299.923785242765;-0.9991455078125;-0.01160888671875;9.37999997631778;939;100 mA
299.93378524274;-0.99945068359375;-0.0116119384765625;9.38999997629253;940;100 mA
299.943785242715;-0.9991455078125;-0.0115966796875;9.39999997626728;941;100 mA
299.953785242689;-0.999755859375;-0.0115966796875;9.40999997624203;942;100 mA
299.963785242664;-0.99884033203125;-0.0115997314453125;9.41999997621679;943;100 mA
299.973785242639;-1.00006103515625;-0.011590576171875;9.42999997619154;944;100 mA
299.983785242614;-0.999755859375;-0.0115997314453125;9.43999997616629;945;100 mA
299.993785242589;-0.999755859375;-0.01158447265625;9.44999997614104;946;100 mA
300.003785242563;-0.99945068359375;-0.0115814208984375;9.4599999761158;947;100 mA
300.013785242538;-0.99945068359375;-0.011578369140625;9.46999997609055;948;100 mA
300.023785242513;-0.99945068359375;-0.011572265625;9.4799999760653;949;100 mA
300.033785242488;-0.99945068359375;-0.0115692138671875;9.48999997604005;950;100 mA
300.043785242462;-0.99853515625;-0.0115570068359375;9.49999997601481;951;100 mA
300.053785242437;-0.9991455078125;-0.0115447998046875;9.50999997598956;952;100 mA
300.063785242412;-0.99945068359375;-0.0115478515625;9.51999997596431;953;100 mA
300.073785242387;-0.999755859375;-0.0115325927734375;9.52999997593906;954;100 mA
300.083785242361;-0.99945068359375;-0.011541748046875;9.53999997591382;955;100 mA
300.093785242336;-0.9991455078125;-0.0115203857421875;9.54999997588857;956;100 mA
300.103785242311;-0.99945068359375;-0.0115203857421875;9.55999997586332;957;100 mA
300.113785242286;-0.999755859375;-0.0115203857421875;9.56999997583807;958;100 mA
300.12378524226;-0.9991455078125;-0.011505126953125;9.57999997581283;959;100 mA
300.133785242235;-0.999755859375;-0.01151123046875;9.58999997578758;960;100 mA
300.14378524221;-0.99945068359375;-0.0115020751953125;9.59999997576233;961;100 mA
300.153785242185;-0.9991455078125;-0.0114990234375;9.60999997573708;962;100 mA
300.163785242159;-0.999755859375;-0.0115020751953125;9.61999997571183;963;100 mA
300.173785242134;-1.00006103515625;-0.01148681640625;9.62999997568659;964;100 mA
300.183785242109;-0.999755859375;-0.011492919921875;9.63999997566134;965;100 mA
300.193785242084;-0.999755859375;-0.0114776611328125;9.64999997563609;966;100 mA
300.203785242058;-0.9991455078125;-0.0114715576171875;9.65999997561084;967;100 mA
300.213785242033;-0.99945068359375;-0.011468505859375;9.6699999755856;968;100 mA
300.223785242008;-0.9991455078125;-0.0114501953125;9.67999997556035;969;100 mA
300.233785241983;-0.9991455078125;-0.01146240234375;9.6899999755351;970;100 mA
300.243785241957;-0.99945068359375;-0.0114471435546875;9.69999997550985;971;100 mA
300.253785241932;-0.99945068359375;-0.0114501953125;9.70999997548461;972;100 mA
300.263785241907;-0.999755859375;-0.011444091796875;9.71999997545936;973;100 mA
300.273785241882;-0.9991455078125;-0.0114288330078125;9.72999997543411;974;100 mA
300.283785241856;-0.99884033203125;-0.0114410400390625;9.73999997540886;975;100 mA
300.293785241831;-0.99945068359375;-0.0114288330078125;9.74999997538362;976;100 mA
300.303785241806;-0.999755859375;-0.0114288330078125;9.75999997535837;977;100 mA
300.313785241781;-0.9991455078125;-0.011419677734375;9.76999997533312;978;100 mA
300.323785241755;-0.9991455078125;-0.0114105224609375;9.77999997530787;979;100 mA
300.33378524173;-0.999755859375;-0.0114105224609375;9.78999997528263;980;100 mA
300.343785241705;-0.999755859375;-0.011395263671875;9.79999997525738;981;100 mA
300.35378524168;-0.9991455078125;-0.0113983154296875;9.80999997523213;982;100 mA
300.363785241654;-0.99945068359375;-0.0113861083984375;9.81999997520688;983;100 mA
300.373785241629;-0.99945068359375;-0.0113800048828125;9.82999997518164;984;100 mA
300.383785241604;-0.999755859375;-0.011383056640625;9.83999997515639;985;100 mA
300.393785241579;-0.999755859375;-0.0113739013671875;9.84999997513114;986;100 mA
300.403785241553;-0.999755859375;-0.01136474609375;9.85999997510589;987;100 mA
300.413785241528;-0.999755859375;-0.01136474609375;9.86999997508065;988;100 mA
300.423785241503;-1.00006103515625;-0.0113525390625;9.8799999750554;989;100 mA
300.433785241478;-0.9991455078125;-0.01136474609375;9.88999997503015;990;100 mA
300.443785241452;-0.99945068359375;-0.0113525390625;9.8999999750049;991;100 mA
300.453785241427;-0.999755859375;-0.0113494873046875;9.90999997497966;992;100 mA
300.463785241402;-0.9991455078125;-0.011346435546875;9.91999997495441;993;100 mA
300.473785241377;-0.999755859375;-0.0113372802734375;9.92999997492916;994;100 mA
300.483785241351;-1.00006103515625;-0.0113433837890625;9.93999997490391;995;100 mA
300.493785241326;-0.99945068359375;-0.011322021484375;9.94999997487866;996;100 mA
300.503785241301;-0.999755859375;-0.011322021484375;9.95999997485342;997;100 mA
300.513785241276;-1.00006103515625;-0.01131591796875;9.96999997482817;998;100 mA
300.52378524125;-0.99945068359375;-0.0113037109375;9.97999997480292;999;100 mA
300.533785241225;-0.99945068359375;-0.0113067626953125;9.98999997477767;1000;100 mA
