Time (s);WE(1).Potential (V);WE(1).Current (A);Corrected time (s);Index;Current range
0.531226998658781;-0.3997802734375;-0.0186981201171875;0;1;1 A
0.541226998633533;-0.399810791015625;-0.015765380859375;0.00999999997475243;2;1 A
0.551226998608286;-0.39984130859375;-0.0138427734375;0.0199999999495049;3;1 A
0.561226998583038;-0.3997802734375;-0.0125213623046875;0.0299999999242573;4;1 A
0.57122699855779;-0.399749755859375;-0.011505126953125;0.0399999998990097;5;1 A
0.581226998532543;-0.39971923828125;-0.0107208251953125;0.0499999998737621;6;1 A
0.591226998507295;-0.3997802734375;-0.0100616455078125;0.0599999998485146;7;1 A
0.601226998482048;-0.3997802734375;-0.00950012207031251;0.069999999823267;8;1 A
0.6112269984568;-0.399810791015625;-0.0090484619140625;0.0799999997980194;9;1 A
0.621226998431553;-0.39971923828125;-0.00864257812499999;0.0899999997727718;10;1 A
0.631226998406305;-0.39971923828125;-0.00828857421875;0.0999999997475243;11;1 A
0.641226998381057;-0.399749755859375;-0.007977294921875;0.109999999722277;12;1 A
0.65122699835581;-0.399688720703125;-0.00769653320312499;0.119999999697029;13;1 A
0.661226998330562;-0.399749755859375;-0.00745544433593751;0.129999999671782;14;1 A
0.671226998305315;-0.39971923828125;-0.0072296142578125;0.139999999646534;15;1 A
0.681226998280067;-0.399749755859375;-0.0070220947265625;0.149999999621286;16;1 A
0.69122699825482;-0.399749755859375;-0.00684204101562499;0.159999999596039;17;1 A
0.701226998229572;-0.399749755859375;-0.0066650390625;0.169999999570791;18;1 A
0.711226998204324;-0.3997802734375;-0.006512451171875;0.179999999545544;19;1 A
0.721226998179077;-0.3997802734375;-0.0063629150390625;0.189999999520296;20;1 A
0.731226998153829;-0.399688720703125;-0.0062225341796875;0.199999999495049;21;1 A
0.741226998128582;-0.399749755859375;-0.006103515625;0.209999999469801;22;1 A
0.751226998103334;-0.399749755859375;-0.0059783935546875;0.219999999444553;23;1 A
0.761226998078087;-0.3997802734375;-0.00587158203125;0.229999999419306;24;1 A
0.771226998052839;-0.39971923828125;-0.0057708740234375;0.239999999394058;25;1 A
0.781226998027591;-0.39971923828125;-0.0056732177734375;0.249999999368811;26;1 A
0.791226998002344;-0.399749755859375;-0.0055877685546875;0.259999999343563;27;1 A
0.801226997977096;-0.399688720703125;-0.0054962158203125;0.269999999318316;28;1 A
0.811226997951849;-0.399749755859375;-0.00542602539062501;0.279999999293068;29;1 A
0.821226997926601;-0.3997802734375;-0.00534667968749999;0.28999999926782;30;1 A
0.831226997901354;-0.39971923828125;-0.0052764892578125;0.299999999242573;31;1 A
0.841226997876106;-0.399749755859375;-0.0052154541015625;0.309999999217325;32;1 A
0.851226997850858;-0.399749755859375;-0.005145263671875;0.319999999192078;33;1 A
0.861226997825611;-0.3997802734375;-0.00509033203125001;0.32999999916683;34;1 A
0.871226997800363;-0.39971923828125;-0.0050323486328125;0.339999999141583;35;1 A
0.881226997775116;-0.399749755859375;-0.00498046874999999;0.349999999116335;36;1 A
0.891226997749868;-0.399749755859375;-0.00493469238281249;0.359999999091087;37;1 A
0.901226997724621;-0.3997802734375;-0.00487365722656249;0.36999999906584;38;1 A
0.911226997699373;-0.399749755859375;-0.0048370361328125;0.379999999040592;39;1 A
0.921226997674125;-0.399749755859375;-0.004791259765625;0.389999999015345;40;1 A
0.931226997648878;-0.399749755859375;-0.004742431640625;0.399999998990097;41;1 A
0.94122699762363;-0.399749755859375;-0.0047119140625;0.40999999896485;42;1 A
0.951226997598383;-0.3997802734375;-0.0046661376953125;0.419999998939602;43;1 A
0.961226997573135;-0.3997802734375;-0.0046356201171875;0.429999998914354;44;1 A
0.971226997547888;-0.399749755859375;-0.0046051025390625;0.439999998889107;45;1 A
0.98122699752264;-0.3997802734375;-0.0045623779296875;0.449999998863859;46;1 A
0.991226997497392;-0.399749755859375;-0.00453796386718749;0.459999998838612;47;1 A
1.00122699747214;-0.39971923828125;-0.0045013427734375;0.469999998813364;48;1 A
1.0112269974469;-0.3997802734375;-0.00447998046875001;0.479999998788116;49;1 A
1.02122699742165;-0.399749755859375;-0.0044525146484375;0.489999998762869;50;1 A
1.0312269973964;-0.399749755859375;-0.00441894531250001;0.499999998737621;51;1 A
1.04122699737115;-0.399749755859375;-0.00440063476562499;0.509999998712374;52;1 A
1.05122699734591;-0.3997802734375;-0.00437316894531251;0.519999998687126;53;1 A
1.06122699732066;-0.399810791015625;-0.00435791015625001;0.529999998661879;54;1 A
1.07122699729541;-0.39971923828125;-0.00433349609375;0.539999998636631;55;1 A
1.08122699727016;-0.399688720703125;-0.0043060302734375;0.549999998611383;56;1 A
1.09122699724492;-0.399749755859375;-0.00429382324218749;0.559999998586136;57;1 A
1.10122699721967;-0.399749755859375;-0.00426635742187501;0.569999998560888;58;1 A
1.11122699719442;-0.39971923828125;-0.00426025390625;0.579999998535641;59;1 A
1.12122699716917;-0.3997802734375;-0.0042388916015625;0.589999998510393;60;1 A
1.13122699714393;-0.399749755859375;-0.0042236328125;0.599999998485146;61;1 A
1.14122699711868;-0.399749755859375;-0.00421142578125;0.609999998459898;62;1 A
1.15122699709343;-0.3997802734375;-0.00418701171874999;0.61999999843465;63;1 A
1.16122699706818;-0.39971923828125;-0.004180908203125;0.629999998409403;64;1 A
1.17122699704294;-0.3997802734375;-0.00416259765625;0.639999998384155;65;1 A
1.18122699701769;-0.3997802734375;-0.0041473388671875;0.649999998358908;66;1 A
1.19122699699244;-0.399749755859375;-0.00414123535156249;0.65999999833366;67;1 A
1.20122699696719;-0.399688720703125;-0.0041229248046875;0.669999998308413;68;1 A
1.21122699694195;-0.399749755859375;-0.00411376953125001;0.679999998283165;69;1 A
1.2212269969167;-0.399749755859375;-0.0041015625;0.689999998257917;70;1 A
1.23122699689145;-0.39971923828125;-0.0040863037109375;0.69999999823267;71;1 A
1.2412269968662;-0.399810791015625;-0.0040771484375;0.709999998207422;72;1 A
1.25122699684096;-0.39971923828125;-0.004058837890625;0.719999998182175;73;1 A
1.26122699681571;-0.39971923828125;-0.004058837890625;0.729999998156927;74;1 A
1.27122699679046;-0.39971923828125;-0.00404968261718749;0.73999999813168;75;1 A
1.28122699676521;-0.39971923828125;-0.00403442382812499;0.749999998106432;76;1 A
1.29122699673997;-0.399749755859375;-0.0040283203125;0.759999998081184;77;1 A
1.30122699671472;-0.3997802734375;-0.00401611328125;0.769999998055937;78;1 A
1.31122699668947;-0.399688720703125;-0.00401916503906249;0.779999998030689;79;1 A
1.32122699666422;-0.3997802734375;-0.00400390624999999;0.789999998005442;80;1 A
1.33122699663897;-0.39971923828125;-0.00398864746093749;0.799999997980194;81;1 A
1.34122699661373;-0.39971923828125;-0.0039825439453125;0.809999997954947;82;1 A
1.35122699658848;-0.3997802734375;-0.0039703369140625;0.819999997929699;83;1 A
1.36122699656323;-0.3997802734375;-0.0039703369140625;0.829999997904451;84;1 A
1.37122699653798;-0.399749755859375;-0.00396118164062501;0.839999997879204;85;1 A
1.38122699651274;-0.39971923828125;-0.003948974609375;0.849999997853956;86;1 A
1.39122699648749;-0.399749755859375;-0.003948974609375;0.859999997828709;87;1 A
1.40122699646224;-0.3997802734375;-0.0039398193359375;0.869999997803461;88;1 A
1.41122699643699;-0.399688720703125;-0.0039398193359375;0.879999997778214;89;1 A
1.42122699641175;-0.399749755859375;-0.003936767578125;0.889999997752966;90;1 A
1.4312269963865;-0.39971923828125;-0.003924560546875;0.899999997727718;91;1 A
1.44122699636125;-0.399749755859375;-0.0039215087890625;0.909999997702471;92;1 A
1.451226996336;-0.399749755859375;-0.00390625;0.919999997677223;93;1 A
1.46122699631076;-0.399749755859375;-0.00390625;0.929999997651976;94;1 A
1.47122699628551;-0.39971923828125;-0.0039031982421875;0.939999997626728;95;1 A
1.48122699626026;-0.39971923828125;-0.003887939453125;0.949999997601481;96;1 A
1.49122699623501;-0.39971923828125;-0.003887939453125;0.959999997576233;97;1 A
1.50122699620977;-0.39971923828125;-0.003875732421875;0.969999997550985;98;1 A
1.51122699618452;-0.39971923828125;-0.0038787841796875;0.979999997525738;99;1 A
1.52122699615927;-0.39971923828125;-0.0038787841796875;0.98999999750049;100;1 A
1.53122699613402;-0.39971923828125;-0.00386657714843749;0.999999997475243;101;1 A
1.54122699610878;-0.399688720703125;-0.00386962890625001;1.00999999745;102;1 A
1.55122699608353;-0.39984130859375;-0.003863525390625;1.01999999742475;103;1 A
1.56122699605828;-0.39971923828125;-0.003863525390625;1.0299999973995;104;1 A
1.57122699603303;-0.399749755859375;-0.003857421875;1.03999999737425;105;1 A
1.58122699600779;-0.39971923828125;-0.00385131835937499;1.049999997349;106;1 A
1.59122699598254;-0.399749755859375;-0.00385131835937499;1.05999999732376;107;1 A
1.60122699595729;-0.3997802734375;-0.0038421630859375;1.06999999729851;108;1 A
1.61122699593204;-0.399749755859375;-0.0038482666015625;1.07999999727326;109;1 A
1.6212269959068;-0.399688720703125;-0.0038482666015625;1.08999999724801;110;1 A
1.63122699588155;-0.399749755859375;-0.0038421630859375;1.09999999722277;111;1 A
1.6412269958563;-0.399749755859375;-0.0038482666015625;1.10999999719752;112;1 A
1.65122699583105;-0.3997802734375;-0.00383911132812501;1.11999999717227;113;1 A
1.66122699580581;-0.3997802734375;-0.00384521484375;1.12999999714702;114;1 A
1.67122699578056;-0.39971923828125;-0.00384521484375;1.13999999712178;115;1 A
1.68122699575531;-0.399688720703125;-0.00383605957031249;1.14999999709653;116;1 A
1.69122699573006;-0.399749755859375;-0.0038421630859375;1.15999999707128;117;1 A
1.70122699570481;-0.39971923828125;-0.00383911132812501;1.16999999704603;118;1 A
1.71122699567957;-0.39971923828125;-0.00384521484375;1.17999999702079;119;1 A
1.72122699565432;-0.399749755859375;-0.0038421630859375;1.18999999699554;120;1 A
1.73122699562907;-0.399749755859375;-0.00383911132812501;1.19999999697029;121;1 A
1.74122699560382;-0.399749755859375;-0.0038482666015625;1.20999999694504;122;1 A
1.75122699557858;-0.399749755859375;-0.00384521484375;1.2199999969198;123;1 A
1.76122699555333;-0.3997802734375;-0.00385437011718751;1.22999999689455;124;1 A
1.77122699552808;-0.39971923828125;-0.00385437011718751;1.2399999968693;125;1 A
1.78122699550283;-0.399688720703125;-0.00385437011718751;1.24999999684405;126;1 A
1.79122699547759;-0.399749755859375;-0.00386657714843749;1.25999999681881;127;1 A
1.80122699545234;-0.399749755859375;-0.003863525390625;1.26999999679356;128;1 A
1.81122699542709;-0.39971923828125;-0.00386657714843749;1.27999999676831;129;1 A
1.82122699540184;-0.39971923828125;-0.0038726806640625;1.28999999674306;130;1 A
1.8312269953766;-0.399658203125;-0.00386657714843749;1.29999999671782;131;1 A
1.84122699535135;-0.399749755859375;-0.0038726806640625;1.30999999669257;132;1 A
1.8512269953261;-0.39971923828125;-0.00386657714843749;1.31999999666732;133;1 A
1.86122699530085;-0.399810791015625;-0.003875732421875;1.32999999664207;134;1 A
1.87122699527561;-0.39971923828125;-0.003875732421875;1.33999999661683;135;1 A
1.88122699525036;-0.399749755859375;-0.0038726806640625;1.34999999659158;136;1 A
1.89122699522511;-0.399688720703125;-0.0038726806640625;1.35999999656633;137;1 A
1.90122699519986;-0.39971923828125;-0.003875732421875;1.36999999654108;138;1 A
1.91122699517462;-0.399749755859375;-0.00388488769531251;1.37999999651583;139;1 A
1.92122699514937;-0.399749755859375;-0.00388488769531251;1.38999999649059;140;1 A
1.93122699512412;-0.399749755859375;-0.0038787841796875;1.39999999646534;141;1 A
1.94122699509887;-0.399810791015625;-0.003887939453125;1.40999999644009;142;1 A
1.95122699507363;-0.399688720703125;-0.00388183593749999;1.41999999641484;143;1 A
1.96122699504838;-0.399749755859375;-0.003887939453125;1.4299999963896;144;1 A
1.97122699502313;-0.399749755859375;-0.003887939453125;1.43999999636435;145;1 A
1.98122699499788;-0.399688720703125;-0.00388183593749999;1.4499999963391;146;1 A
1.99122699497264;-0.3997802734375;-0.003887939453125;1.45999999631385;147;1 A
2.00122699494739;-0.39971923828125;-0.003887939453125;1.46999999628861;148;1 A
2.01122699492214;-0.399688720703125;-0.00389709472656249;1.47999999626336;149;1 A
2.02122699489689;-0.399627685546875;-0.00390014648437501;1.48999999623811;150;1 A
2.03122699487164;-0.399749755859375;-0.00389709472656249;1.49999999621286;151;1 A
2.0412269948464;-0.399749755859375;-0.0039031982421875;1.50999999618762;152;1 A
2.05122699482115;-0.39971923828125;-0.00389709472656249;1.51999999616237;153;1 A
2.0612269947959;-0.39971923828125;-0.0039031982421875;1.52999999613712;154;1 A
2.07122699477065;-0.39971923828125;-0.00390014648437501;1.53999999611187;155;1 A
2.08122699474541;-0.399749755859375;-0.00389404296875;1.54999999608663;156;1 A
2.09122699472016;-0.3997802734375;-0.00390014648437501;1.55999999606138;157;1 A
2.10122699469491;-0.399749755859375;-0.00389404296875;1.56999999603613;158;1 A
2.11122699466966;-0.39971923828125;-0.00389709472656249;1.57999999601088;159;1 A
2.12122699464442;-0.39971923828125;-0.00389709472656249;1.58999999598564;160;1 A
2.13122699461917;-0.399749755859375;-0.00389404296875;1.59999999596039;161;1 A
2.14122699459392;-0.39971923828125;-0.00389709472656249;1.60999999593514;162;1 A
2.15122699456867;-0.399688720703125;-0.0038909912109375;1.61999999590989;163;1 A
2.16122699454343;-0.39971923828125;-0.00390014648437501;1.62999999588465;164;1 A
2.17122699451818;-0.399688720703125;-0.00390014648437501;1.6399999958594;165;1 A
2.18122699449293;-0.39971923828125;-0.00389404296875;1.64999999583415;166;1 A
2.19122699446768;-0.39971923828125;-0.00389404296875;1.6599999958089;167;1 A
2.20122699444244;-0.3997802734375;-0.003887939453125;1.66999999578366;168;1 A
2.21122699441719;-0.399688720703125;-0.0038909912109375;1.67999999575841;169;1 A
2.22122699439194;-0.39971923828125;-0.00389404296875;1.68999999573316;170;1 A
2.23122699436669;-0.399749755859375;-0.003887939453125;1.69999999570791;171;1 A
2.24122699434145;-0.3997802734375;-0.00389404296875;1.70999999568267;172;1 A
2.2512269943162;-0.3997802734375;-0.00388183593749999;1.71999999565742;173;1 A
2.26122699429095;-0.39971923828125;-0.00388183593749999;1.72999999563217;174;1 A
2.2712269942657;-0.399688720703125;-0.0038787841796875;1.73999999560692;175;1 A
2.28122699424046;-0.39971923828125;-0.003875732421875;1.74999999558167;176;1 A
2.29122699421521;-0.39971923828125;-0.00386962890625001;1.75999999555643;177;1 A
2.30122699418996;-0.399749755859375;-0.0038604736328125;1.76999999553118;178;1 A
2.31122699416471;-0.39971923828125;-0.00385437011718751;1.77999999550593;179;1 A
2.32122699413947;-0.399749755859375;-0.00385131835937499;1.78999999548068;180;1 A
2.33122699411422;-0.3997802734375;-0.00383911132812501;1.79999999545544;181;1 A
2.34122699408897;-0.399810791015625;-0.00383911132812501;1.80999999543019;182;1 A
2.35122699406372;-0.39971923828125;-0.00382080078124999;1.81999999540494;183;1 A
2.36122699403847;-0.399749755859375;-0.003826904296875;1.82999999537969;184;1 A
2.37122699401323;-0.399688720703125;-0.0038116455078125;1.83999999535445;185;1 A
2.38122699398798;-0.399688720703125;-0.003802490234375;1.8499999953292;186;1 A
2.39122699396273;-0.3997802734375;-0.003802490234375;1.85999999530395;187;1 A
2.40122699393748;-0.399688720703125;-0.00379028320312499;1.8699999952787;188;1 A
2.41122699391224;-0.399749755859375;-0.0037872314453125;1.87999999525346;189;1 A
2.42122699388699;-0.3997802734375;-0.00377807617187501;1.88999999522821;190;1 A
2.43122699386174;-0.39971923828125;-0.003765869140625;1.89999999520296;191;1 A
2.44122699383649;-0.399810791015625;-0.003765869140625;1.90999999517771;192;1 A
2.45122699381125;-0.39971923828125;-0.0037567138671875;1.91999999515247;193;1 A
2.461226993786;-0.399749755859375;-0.0037567138671875;1.92999999512722;194;1 A
2.47122699376075;-0.39971923828125;-0.003753662109375;1.93999999510197;195;1 A
2.4812269937355;-0.39971923828125;-0.003741455078125;1.94999999507672;196;1 A
2.49122699371026;-0.3997802734375;-0.0037384033203125;1.95999999505148;197;1 A
2.50122699368501;-0.39984130859375;-0.0037261962890625;1.96999999502623;198;1 A
2.51122699365976;-0.3997802734375;-0.00372924804687499;1.97999999500098;199;1 A
2.52122699363451;-0.39971923828125;-0.0037200927734375;1.98999999497573;200;1 A
2.53122699360927;-0.399749755859375;-0.0037078857421875;1.99999999495049;201;1 A
2.54122699358402;-0.399749755859375;-0.003704833984375;2.00999999492524;202;1 A
2.55122699355877;-0.399688720703125;-0.003692626953125;2.01999999489999;203;1 A
2.56122699353352;-0.399749755859375;-0.003692626953125;2.02999999487474;204;1 A
2.57122699350828;-0.39971923828125;-0.00368652343750001;2.0399999948495;205;1 A
2.58122699348303;-0.399688720703125;-0.00367431640625;2.04999999482425;206;1 A
2.59122699345778;-0.399749755859375;-0.00367431640625;2.059999994799;207;1 A
2.60122699343253;-0.39971923828125;-0.0036651611328125;2.06999999477375;208;1 A
2.61122699340729;-0.399749755859375;-0.003662109375;2.0799999947485;209;1 A
2.62122699338204;-0.399688720703125;-0.00365600585937501;2.08999999472326;210;1 A
2.63122699335679;-0.39971923828125;-0.0036468505859375;2.09999999469801;211;1 A
2.64122699333154;-0.3997802734375;-0.0036468505859375;2.10999999467276;212;1 A
2.6512269933063;-0.399749755859375;-0.0036346435546875;2.11999999464751;213;1 A
2.66122699328105;-0.399749755859375;-0.0036346435546875;2.12999999462227;214;1 A
2.6712269932558;-0.399749755859375;-0.0036285400390625;2.13999999459702;215;1 A
2.68122699323055;-0.399749755859375;-0.00362548828125001;2.14999999457177;216;1 A
2.69122699320531;-0.3997802734375;-0.00362243652343749;2.15999999454652;217;1 A
2.70122699318006;-0.3997802734375;-0.00361022949218751;2.16999999452128;218;1 A
2.71122699315481;-0.39971923828125;-0.00361328125;2.17999999449603;219;1 A
2.72122699312956;-0.39971923828125;-0.00360717773437499;2.18999999447078;220;1 A
2.73122699310431;-0.399749755859375;-0.00359497070312501;2.19999999444553;221;1 A
2.74122699307907;-0.399749755859375;-0.00359497070312501;2.20999999442029;222;1 A
2.75122699305382;-0.3997802734375;-0.003582763671875;2.21999999439504;223;1 A
2.76122699302857;-0.399688720703125;-0.003582763671875;2.22999999436979;224;1 A
2.77122699300332;-0.39971923828125;-0.0035736083984375;2.23999999434454;225;1 A
2.78122699297808;-0.3997802734375;-0.00356445312500001;2.2499999943193;226;1 A
2.79122699295283;-0.3997802734375;-0.003558349609375;2.25999999429405;227;1 A
2.80122699292758;-0.39984130859375;-0.00354919433593751;2.2699999942688;228;1 A
2.81122699290233;-0.3997802734375;-0.00354614257812499;2.27999999424355;229;1 A
2.82122699287709;-0.399749755859375;-0.0035400390625;2.28999999421831;230;1 A
2.83122699285184;-0.399688720703125;-0.00353088378906249;2.29999999419306;231;1 A
2.84122699282659;-0.3997802734375;-0.00353088378906249;2.30999999416781;232;1 A
2.85122699280134;-0.39971923828125;-0.00351562499999999;2.31999999414256;233;1 A
2.8612269927761;-0.39971923828125;-0.00351867675781251;2.32999999411732;234;1 A
2.87122699275085;-0.39971923828125;-0.003509521484375;2.33999999409207;235;1 A
2.8812269927256;-0.3997802734375;-0.00350341796875001;2.34999999406682;236;1 A
2.89122699270035;-0.399749755859375;-0.003497314453125;2.35999999404157;237;1 A
2.90122699267511;-0.399749755859375;-0.00348510742187499;2.36999999401633;238;1 A
2.91122699264986;-0.399688720703125;-0.00348815917968751;2.37999999399108;239;1 A
2.92122699262461;-0.399749755859375;-0.00347900390625;2.38999999396583;240;1 A
2.93122699259936;-0.399810791015625;-0.0034637451171875;2.39999999394058;241;1 A
2.94122699257412;-0.39971923828125;-0.003460693359375;2.40999999391533;242;1 A
2.95122699254887;-0.39971923828125;-0.003448486328125;2.41999999389009;243;1 A
2.96122699252362;-0.3997802734375;-0.0034515380859375;2.42999999386484;244;1 A
2.97122699249837;-0.3997802734375;-0.003448486328125;2.43999999383959;245;1 A
2.98122699247313;-0.399658203125;-0.00343933105468749;2.44999999381434;246;1 A
2.99122699244788;-0.399749755859375;-0.00343933105468749;2.4599999937891;247;1 A
3.00122699242263;-0.39971923828125;-0.00342712402343751;2.46999999376385;248;1 A
3.01122699239738;-0.39971923828125;-0.00342712402343751;2.4799999937386;249;1 A
3.02122699237214;-0.399810791015625;-0.0034210205078125;2.48999999371335;250;1 A
3.03122699234689;-0.399749755859375;-0.0034149169921875;2.49999999368811;251;1 A
3.04122699232164;-0.3997802734375;-0.00341186523437501;2.50999999366286;252;1 A
3.05122699229639;-0.399688720703125;-0.00340881347656249;2.51999999363761;253;1 A
3.06122699227114;-0.39971923828125;-0.00340881347656249;2.52999999361236;254;1 A
3.0712269922459;-0.399749755859375;-0.00340576171875;2.53999999358712;255;1 A
3.08122699222065;-0.399749755859375;-0.0034027099609375;2.54999999356187;256;1 A
3.0912269921954;-0.3997802734375;-0.00340576171875;2.55999999353662;257;1 A
3.10122699217015;-0.3997802734375;-0.0034027099609375;2.56999999351137;258;1 A
3.11122699214491;-0.399688720703125;-0.00341186523437501;2.57999999348613;259;1 A
3.12122699211966;-0.3997802734375;-0.00341186523437501;2.58999999346088;260;1 A
3.13122699209441;-0.3997802734375;-0.00340881347656249;2.59999999343563;261;1 A
3.14122699206916;-0.3997802734375;-0.0034149169921875;2.60999999341038;262;1 A
3.15122699204392;-0.399749755859375;-0.00341186523437501;2.61999999338514;263;1 A
3.16122699201867;-0.39971923828125;-0.0034149169921875;2.62999999335989;264;1 A
3.17122699199342;-0.399749755859375;-0.0034149169921875;2.63999999333464;265;1 A
3.18122699196817;-0.3997802734375;-0.00340881347656249;2.64999999330939;266;1 A
3.19122699194293;-0.399688720703125;-0.00341796875;2.65999999328415;267;1 A
3.20122699191768;-0.3997802734375;-0.0034149169921875;2.6699999932589;268;1 A
3.21122699189243;-0.399688720703125;-0.0034210205078125;2.67999999323365;269;1 A
3.22122699186718;-0.39971923828125;-0.0034210205078125;2.6899999932084;270;1 A
3.23122699184194;-0.399749755859375;-0.00341796875;2.69999999318316;271;1 A
3.24122699181669;-0.3997802734375;-0.0034210205078125;2.70999999315791;272;1 A
3.25122699179144;-0.399688720703125;-0.00341796875;2.71999999313266;273;1 A
3.26122699176619;-0.39971923828125;-0.00343017578125;2.72999999310741;274;1 A
3.27122699174095;-0.399749755859375;-0.00343017578125;2.73999999308217;275;1 A
3.2812269917157;-0.3997802734375;-0.00343017578125;2.74999999305692;276;1 A
3.29122699169045;-0.399749755859375;-0.003436279296875;2.75999999303167;277;1 A
3.3012269916652;-0.399688720703125;-0.00343933105468749;2.76999999300642;278;1 A
3.31122699163996;-0.3997802734375;-0.0034515380859375;2.77999999298117;279;1 A
3.32122699161471;-0.399749755859375;-0.00345764160156251;2.78999999295593;280;1 A
3.33122699158946;-0.3997802734375;-0.003460693359375;2.79999999293068;281;1 A
3.34122699156421;-0.39971923828125;-0.0034759521484375;2.80999999290543;282;1 A
3.35122699153897;-0.399749755859375;-0.00347290039062501;2.81999999288018;283;1 A
3.36122699151372;-0.399749755859375;-0.0034912109375;2.82999999285494;284;1 A
3.37122699148847;-0.399749755859375;-0.0034912109375;2.83999999282969;285;1 A
3.38122699146322;-0.3997802734375;-0.0034912109375;2.84999999280444;286;1 A
3.39122699143797;-0.39971923828125;-0.00350036621093749;2.85999999277919;287;1 A
3.40122699141273;-0.39971923828125;-0.00350341796875001;2.86999999275395;288;1 A
3.41122699138748;-0.399688720703125;-0.0035125732421875;2.8799999927287;289;1 A
3.42122699136223;-0.399749755859375;-0.0035125732421875;2.88999999270345;290;1 A
3.43122699133698;-0.399749755859375;-0.0035125732421875;2.8999999926782;291;1 A
3.44122699131174;-0.399688720703125;-0.00351867675781251;2.90999999265296;292;1 A
3.45122699128649;-0.399749755859375;-0.003509521484375;2.91999999262771;293;1 A
3.46122699126124;-0.3997802734375;-0.00351562499999999;2.92999999260246;294;1 A
3.47122699123599;-0.399749755859375;-0.00351562499999999;2.93999999257721;295;1 A
3.48122699121075;-0.399749755859375;-0.0035125732421875;2.94999999255197;296;1 A
3.4912269911855;-0.39971923828125;-0.0035125732421875;2.95999999252672;297;1 A
3.50122699116025;-0.3997802734375;-0.003509521484375;2.96999999250147;298;1 A
3.511226991135;-0.399749755859375;-0.00351562499999999;2.97999999247622;299;1 A
3.52122699110976;-0.399688720703125;-0.003509521484375;2.98999999245098;300;1 A
3.53122699108451;-0.399749755859375;-0.0035064697265625;2.99999999242573;301;1 A
3.54122699105926;-0.3997802734375;-0.0035125732421875;3.00999999240048;302;1 A
3.55122699103401;-0.39971923828125;-0.00350341796875001;3.01999999237523;303;1 A
3.56122699100877;-0.39971923828125;-0.0035125732421875;3.02999999234999;304;1 A
3.57122699098352;-0.3997802734375;-0.0035125732421875;3.03999999232474;305;1 A
3.58122699095827;-0.399749755859375;-0.0035125732421875;3.04999999229949;306;1 A
3.59122699093302;-0.399810791015625;-0.00351562499999999;3.05999999227424;307;1 A
3.60122699090778;-0.399749755859375;-0.0035064697265625;3.069999992249;308;1 A
3.61122699088253;-0.399749755859375;-0.0035125732421875;3.07999999222375;309;1 A
3.62122699085728;-0.399749755859375;-0.0035125732421875;3.0899999921985;310;1 A
3.63122699083203;-0.399749755859375;-0.00350341796875001;3.09999999217325;311;1 A
3.64122699080679;-0.399749755859375;-0.00350341796875001;3.109999992148;312;1 A
3.65122699078154;-0.399688720703125;-0.00350036621093749;3.11999999212276;313;1 A
3.66122699075629;-0.399749755859375;-0.0035064697265625;3.12999999209751;314;1 A
3.67122699073104;-0.39971923828125;-0.00350341796875001;3.13999999207226;315;1 A
3.6812269907058;-0.399749755859375;-0.00350036621093749;3.14999999204701;316;1 A
3.69122699068055;-0.39971923828125;-0.00350036621093749;3.15999999202177;317;1 A
3.7012269906553;-0.39971923828125;-0.00350036621093749;3.16999999199652;318;1 A
3.71122699063005;-0.39971923828125;-0.0035064697265625;3.17999999197127;319;1 A
3.7212269906048;-0.399749755859375;-0.003509521484375;3.18999999194602;320;1 A
3.73122699057956;-0.3997802734375;-0.0035064697265625;3.19999999192078;321;1 A
3.74122699055431;-0.3997802734375;-0.003509521484375;3.20999999189553;322;1 A
3.75122699052906;-0.399688720703125;-0.003497314453125;3.21999999187028;323;1 A
3.76122699050381;-0.399749755859375;-0.00350341796875001;3.22999999184503;324;1 A
3.77122699047857;-0.399749755859375;-0.003497314453125;3.23999999181979;325;1 A
3.78122699045332;-0.39971923828125;-0.0034942626953125;3.24999999179454;326;1 A
3.79122699042807;-0.39971923828125;-0.00350036621093749;3.25999999176929;327;1 A
3.80122699040282;-0.399749755859375;-0.00350036621093749;3.26999999174404;328;1 A
3.81122699037758;-0.39971923828125;-0.00350036621093749;3.2799999917188;329;1 A
3.82122699035233;-0.39971923828125;-0.003497314453125;3.28999999169355;330;1 A
3.83122699032708;-0.399810791015625;-0.0034942626953125;3.2999999916683;331;1 A
3.84122699030183;-0.399749755859375;-0.003497314453125;3.30999999164305;332;1 A
3.85122699027659;-0.399688720703125;-0.0034912109375;3.31999999161781;333;1 A
3.86122699025134;-0.399749755859375;-0.003497314453125;3.32999999159256;334;1 A
3.87122699022609;-0.39971923828125;-0.0034912109375;3.33999999156731;335;1 A
3.88122699020084;-0.399810791015625;-0.00348815917968751;3.34999999154206;336;1 A
3.8912269901756;-0.399688720703125;-0.0034942626953125;3.35999999151682;337;1 A
3.90122699015035;-0.399749755859375;-0.00348815917968751;3.36999999149157;338;1 A
3.9112269901251;-0.399749755859375;-0.0034942626953125;3.37999999146632;339;1 A
3.92122699009985;-0.399749755859375;-0.0034942626953125;3.38999999144107;340;1 A
3.93122699007461;-0.399749755859375;-0.00348815917968751;3.39999999141583;341;1 A
3.94122699004936;-0.39971923828125;-0.0034942626953125;3.40999999139058;342;1 A
3.95122699002411;-0.399749755859375;-0.00348815917968751;3.41999999136533;343;1 A
3.96122698999886;-0.39971923828125;-0.0034942626953125;3.42999999134008;344;1 A
3.97122698997362;-0.399749755859375;-0.00348815917968751;3.43999999131483;345;1 A
3.98122698994837;-0.399749755859375;-0.0034820556640625;3.44999999128959;346;1 A
3.99122698992312;-0.39971923828125;-0.0034820556640625;3.45999999126434;347;1 A
4.00122698989787;-0.3997802734375;-0.0034759521484375;3.46999999123909;348;1 A
4.01122698987263;-0.399749755859375;-0.0034820556640625;3.47999999121384;349;1 A
4.02122698984738;-0.399749755859375;-0.00347900390625;3.4899999911886;350;1 A
4.03122698982213;-0.3997802734375;-0.0034759521484375;3.49999999116335;351;1 A
4.04122698979688;-0.399688720703125;-0.0034759521484375;3.5099999911381;352;1 A
4.05122698977164;-0.3997802734375;-0.00346984863281249;3.51999999111285;353;1 A
4.06122698974639;-0.399688720703125;-0.0034759521484375;3.52999999108761;354;1 A
4.07122698972114;-0.399749755859375;-0.00347290039062501;3.53999999106236;355;1 A
4.08122698969589;-0.399749755859375;-0.00346984863281249;3.54999999103711;356;1 A
4.09122698967064;-0.399688720703125;-0.00346984863281249;3.55999999101186;357;1 A
4.1012269896454;-0.3997802734375;-0.00345764160156251;3.56999999098662;358;1 A
4.11122698962015;-0.399749755859375;-0.0034637451171875;3.57999999096137;359;1 A
4.1212269895949;-0.39971923828125;-0.00345764160156251;3.58999999093612;360;1 A
4.13122698956965;-0.3997802734375;-0.0034515380859375;3.59999999091087;361;1 A
4.14122698954441;-0.39971923828125;-0.0034515380859375;3.60999999088563;362;1 A
4.15122698951916;-0.39971923828125;-0.003448486328125;3.61999999086038;363;1 A
4.16122698949391;-0.399749755859375;-0.0034515380859375;3.62999999083513;364;1 A
4.17122698946866;-0.399749755859375;-0.0034454345703125;3.63999999080988;365;1 A
4.18122698944342;-0.39971923828125;-0.0034454345703125;3.64999999078464;366;1 A
4.19122698941817;-0.39971923828125;-0.0034454345703125;3.65999999075939;367;1 A
4.20122698939292;-0.39971923828125;-0.00344238281250001;3.66999999073414;368;1 A
4.21122698936767;-0.399810791015625;-0.0034454345703125;3.67999999070889;369;1 A
4.22122698934243;-0.399749755859375;-0.00343933105468749;3.68999999068365;370;1 A
4.23122698931718;-0.399688720703125;-0.0034332275390625;3.6999999906584;371;1 A
4.24122698929193;-0.399749755859375;-0.003436279296875;3.70999999063315;372;1 A
4.25122698926668;-0.399749755859375;-0.0034332275390625;3.7199999906079;373;1 A
4.26122698924144;-0.399810791015625;-0.003436279296875;3.72999999058266;374;1 A
4.27122698921619;-0.3997802734375;-0.003436279296875;3.73999999055741;375;1 A
4.28122698919094;-0.399688720703125;-0.0034332275390625;3.74999999053216;376;1 A
4.29122698916569;-0.399749755859375;-0.00343933105468749;3.75999999050691;377;1 A
4.30122698914045;-0.39971923828125;-0.00343933105468749;3.76999999048167;378;1 A
4.3112269891152;-0.399749755859375;-0.003448486328125;3.77999999045642;379;1 A
4.32122698908995;-0.39971923828125;-0.0034454345703125;3.78999999043117;380;1 A
4.3312269890647;-0.3997802734375;-0.0034454345703125;3.79999999040592;381;1 A
4.34122698903946;-0.39971923828125;-0.003448486328125;3.80999999038067;382;1 A
4.35122698901421;-0.399749755859375;-0.003448486328125;3.81999999035543;383;1 A
4.36122698898896;-0.399749755859375;-0.00345458984374999;3.82999999033018;384;1 A
4.37122698896371;-0.3997802734375;-0.0034515380859375;3.83999999030493;385;1 A
4.38122698893847;-0.399749755859375;-0.0034454345703125;3.84999999027968;386;1 A
4.39122698891322;-0.3997802734375;-0.0034515380859375;3.85999999025444;387;1 A
4.40122698888797;-0.3997802734375;-0.003448486328125;3.86999999022919;388;1 A
4.41122698886272;-0.399749755859375;-0.003448486328125;3.87999999020394;389;1 A
4.42122698883747;-0.3997802734375;-0.0034515380859375;3.88999999017869;390;1 A
4.43122698881223;-0.399749755859375;-0.003448486328125;3.89999999015345;391;1 A
4.44122698878698;-0.399749755859375;-0.00345764160156251;3.9099999901282;392;1 A
4.45122698876173;-0.399749755859375;-0.0034515380859375;3.91999999010295;393;1 A
4.46122698873648;-0.399810791015625;-0.00345458984374999;3.9299999900777;394;1 A
4.47122698871124;-0.399749755859375;-0.00345458984374999;3.93999999005246;395;1 A
4.48122698868599;-0.399810791015625;-0.00345764160156251;3.94999999002721;396;1 A
4.49122698866074;-0.399749755859375;-0.003460693359375;3.95999999000196;397;1 A
4.50122698863549;-0.399658203125;-0.003460693359375;3.96999998997671;398;1 A
4.51122698861025;-0.39971923828125;-0.003466796875;3.97999998995147;399;1 A
4.521226988585;-0.3997802734375;-0.003466796875;3.98999998992622;400;1 A
4.53122698855975;-0.39971923828125;-0.0034637451171875;3.99999998990097;401;1 A
4.5412269885345;-0.399749755859375;-0.00347290039062501;4.00999998987572;402;1 A
4.55122698850926;-0.399658203125;-0.0034759521484375;4.01999998985048;403;1 A
4.56122698848401;-0.3997802734375;-0.00348815917968751;4.02999998982523;404;1 A
4.57122698845876;-0.399749755859375;-0.00347900390625;4.03999998979998;405;1 A
4.58122698843351;-0.3997802734375;-0.0034820556640625;4.04999998977473;406;1 A
4.59122698840827;-0.39971923828125;-0.0034912109375;4.05999998974949;407;1 A
4.60122698838302;-0.399749755859375;-0.00348815917968751;4.06999998972424;408;1 A
4.61122698835777;-0.39971923828125;-0.00350036621093749;4.07999998969899;409;1 A
4.62122698833252;-0.3997802734375;-0.00350036621093749;4.08999998967374;410;1 A
4.63122698830728;-0.3997802734375;-0.00350036621093749;4.0999999896485;411;1 A
4.64122698828203;-0.399810791015625;-0.003509521484375;4.10999998962325;412;1 A
4.65122698825678;-0.3997802734375;-0.0035064697265625;4.119999989598;413;1 A
4.66122698823153;-0.3997802734375;-0.00351867675781251;4.12999998957275;414;1 A
4.67122698820629;-0.399749755859375;-0.003521728515625;4.1399999895475;415;1 A
4.68122698818104;-0.39971923828125;-0.0035247802734375;4.14999998952226;416;1 A
4.69122698815579;-0.39971923828125;-0.00353088378906249;4.15999998949701;417;1 A
4.70122698813054;-0.3997802734375;-0.00352783203125;4.16999998947176;418;1 A
4.7112269881053;-0.3997802734375;-0.0035369873046875;4.17999998944651;419;1 A
4.72122698808005;-0.399688720703125;-0.00353393554687501;4.18999998942127;420;1 A
4.7312269880548;-0.3997802734375;-0.0035400390625;4.19999998939602;421;1 A
4.74122698802955;-0.3997802734375;-0.00354614257812499;4.20999998937077;422;1 A
4.7512269880043;-0.399810791015625;-0.00354919433593751;4.21999998934552;423;1 A
4.76122698797906;-0.399688720703125;-0.00356445312500001;4.22999998932028;424;1 A
4.77122698795381;-0.399749755859375;-0.00356445312500001;4.23999998929503;425;1 A
4.78122698792856;-0.3997802734375;-0.0035736083984375;4.24999998926978;426;1 A
4.79122698790331;-0.399688720703125;-0.0035858154296875;4.25999998924453;427;1 A
4.80122698787807;-0.399749755859375;-0.0035888671875;4.26999998921929;428;1 A
4.81122698785282;-0.399810791015625;-0.0036041259765625;4.27999998919404;429;1 A
4.82122698782757;-0.399688720703125;-0.0036041259765625;4.28999998916879;430;1 A
4.83122698780232;-0.3997802734375;-0.00361328125;4.29999998914354;431;1 A
4.84122698777708;-0.399688720703125;-0.003619384765625;4.3099999891183;432;1 A
4.85122698775183;-0.39971923828125;-0.00362243652343749;4.31999998909305;433;1 A
4.86122698772658;-0.399749755859375;-0.00363769531249999;4.3299999890678;434;1 A
4.87122698770133;-0.3997802734375;-0.0036346435546875;4.33999998904255;435;1 A
4.88122698767609;-0.39971923828125;-0.003643798828125;4.34999998901731;436;1 A
4.89122698765084;-0.3997802734375;-0.00365295410156249;4.35999998899206;437;1 A
4.90122698762559;-0.399688720703125;-0.00365600585937501;4.36999998896681;438;1 A
4.91122698760034;-0.399749755859375;-0.00367126464843751;4.37999998894156;439;1 A
4.9212269875751;-0.39971923828125;-0.00367126464843751;4.38999998891632;440;1 A
4.93122698754985;-0.39971923828125;-0.00367126464843751;4.39999998889107;441;1 A
4.9412269875246;-0.399810791015625;-0.0036773681640625;4.40999998886582;442;1 A
4.95122698749935;-0.399749755859375;-0.00367431640625;4.41999998884057;443;1 A
4.96122698747411;-0.3997802734375;-0.003680419921875;4.42999998881533;444;1 A
4.97122698744886;-0.399810791015625;-0.003680419921875;4.43999998879008;445;1 A
4.98122698742361;-0.39971923828125;-0.003680419921875;4.44999998876483;446;1 A
4.99122698739836;-0.3997802734375;-0.0036895751953125;4.45999998873958;447;1 A
5.00122698737312;-0.39971923828125;-0.003692626953125;4.46999998871433;448;1 A
5.01122698734787;-0.399749755859375;-0.00370178222656251;4.47999998868909;449;1 A
5.02122698732262;-0.3997802734375;-0.0036956787109375;4.48999998866384;450;1 A
5.03122698729737;-0.39971923828125;-0.00369873046874999;4.49999998863859;451;1 A
5.04122698727213;-0.39971923828125;-0.003704833984375;4.50999998861334;452;1 A
5.05122698724688;-0.39971923828125;-0.00370178222656251;4.5199999885881;453;1 A
5.06122698722163;-0.39971923828125;-0.003704833984375;4.52999998856285;454;1 A
5.07122698719638;-0.399658203125;-0.00369873046874999;4.5399999885376;455;1 A
5.08122698717114;-0.399749755859375;-0.0036956787109375;4.54999998851235;456;1 A
5.09122698714589;-0.3997802734375;-0.0036956787109375;4.55999998848711;457;1 A
5.10122698712064;-0.399749755859375;-0.003692626953125;4.56999998846186;458;1 A
5.11122698709539;-0.399749755859375;-0.00369873046874999;4.57999998843661;459;1 A
5.12122698707014;-0.399749755859375;-0.0036956787109375;4.58999998841136;460;1 A
5.1312269870449;-0.39971923828125;-0.003692626953125;4.59999998838612;461;1 A
5.14122698701965;-0.399688720703125;-0.00369873046874999;4.60999998836087;462;1 A
5.1512269869944;-0.399749755859375;-0.003692626953125;4.61999998833562;463;1 A
5.16122698696915;-0.399810791015625;-0.00370178222656251;4.62999998831037;464;1 A
5.17122698694391;-0.39971923828125;-0.0036956787109375;4.63999998828513;465;1 A
5.18122698691866;-0.3997802734375;-0.003692626953125;4.64999998825988;466;1 A
5.19122698689341;-0.3997802734375;-0.0036956787109375;4.65999998823463;467;1 A
5.20122698686816;-0.399749755859375;-0.0036895751953125;4.66999998820938;468;1 A
5.21122698684292;-0.399749755859375;-0.003692626953125;4.67999998818414;469;1 A
5.22122698681767;-0.399749755859375;-0.003692626953125;4.68999998815889;470;1 A
5.23122698679242;-0.3997802734375;-0.00368652343750001;4.69999998813364;471;1 A
5.24122698676717;-0.39971923828125;-0.0036956787109375;4.70999998810839;472;1 A
5.25122698674193;-0.399749755859375;-0.0036895751953125;4.71999998808315;473;1 A
5.26122698671668;-0.399749755859375;-0.00369873046874999;4.7299999880579;474;1 A
5.27122698669143;-0.399688720703125;-0.0036956787109375;4.73999998803265;475;1 A
5.28122698666618;-0.39971923828125;-0.00368652343750001;4.7499999880074;476;1 A
5.29122698664094;-0.3997802734375;-0.0036895751953125;4.75999998798216;477;1 A
5.30122698661569;-0.39971923828125;-0.00368347167968749;4.76999998795691;478;1 A
5.31122698659044;-0.3997802734375;-0.0036895751953125;4.77999998793166;479;1 A
5.32122698656519;-0.39971923828125;-0.00368347167968749;4.78999998790641;480;1 A
5.33122698653995;-0.39971923828125;-0.0036773681640625;4.79999998788116;481;1 A
5.3412269865147;-0.399688720703125;-0.0036773681640625;4.80999998785592;482;1 A
5.35122698648945;-0.399749755859375;-0.0036773681640625;4.81999998783067;483;1 A
5.3612269864642;-0.39971923828125;-0.00368347167968749;4.82999998780542;484;1 A
5.37122698643896;-0.399749755859375;-0.00367431640625;4.83999998778017;485;1 A
5.38122698641371;-0.39971923828125;-0.00367431640625;4.84999998775493;486;1 A
5.39122698638846;-0.3997802734375;-0.00367431640625;4.85999998772968;487;1 A
5.40122698636321;-0.399810791015625;-0.003662109375;4.86999998770443;488;1 A
5.41122698633797;-0.39971923828125;-0.003662109375;4.87999998767918;489;1 A
5.42122698631272;-0.39971923828125;-0.00365295410156249;4.88999998765394;490;1 A
5.43122698628747;-0.399749755859375;-0.00365295410156249;4.89999998762869;491;1 A
5.44122698626222;-0.399749755859375;-0.0036468505859375;4.90999998760344;492;1 A
5.45122698623697;-0.399810791015625;-0.00363769531249999;4.91999998757819;493;1 A
5.46122698621173;-0.399749755859375;-0.00364074707031251;4.92999998755295;494;1 A
5.47122698618648;-0.39971923828125;-0.0036346435546875;4.9399999875277;495;1 A
5.48122698616123;-0.399688720703125;-0.003631591796875;4.94999998750245;496;1 A
5.49122698613598;-0.39971923828125;-0.003631591796875;4.9599999874772;497;1 A
5.50122698611074;-0.399749755859375;-0.00362548828125001;4.96999998745196;498;1 A
5.51122698608549;-0.399810791015625;-0.0036346435546875;4.97999998742671;499;1 A
5.52122698606024;-0.399627685546875;-0.00362548828125001;4.98999998740146;500;1 A
5.53122698603499;-0.39971923828125;-0.00362243652343749;4.99999998737621;501;1 A
5.54122698600975;-0.399749755859375;-0.00362548828125001;5.00999998735097;502;1 A
5.5512269859845;-0.399688720703125;-0.003619384765625;5.01999998732572;503;1 A
5.56122698595925;-0.399749755859375;-0.0036285400390625;5.02999998730047;504;1 A
5.571226985934;-0.399749755859375;-0.00362548828125001;5.03999998727522;505;1 A
5.58122698590876;-0.39971923828125;-0.003631591796875;5.04999998724998;506;1 A
5.59122698588351;-0.39971923828125;-0.00364074707031251;5.05999998722473;507;1 A
5.60122698585826;-0.3997802734375;-0.00364074707031251;5.06999998719948;508;1 A
5.61122698583301;-0.399810791015625;-0.003643798828125;5.07999998717423;509;1 A
5.62122698580777;-0.39971923828125;-0.0036468505859375;5.08999998714899;510;1 A
5.63122698578252;-0.399749755859375;-0.0036468505859375;5.09999998712374;511;1 A
5.64122698575727;-0.39971923828125;-0.0036590576171875;5.10999998709849;512;1 A
5.65122698573202;-0.399749755859375;-0.00365600585937501;5.11999998707324;513;1 A
5.66122698570678;-0.39971923828125;-0.0036651611328125;5.129999987048;514;1 A
5.67122698568153;-0.399749755859375;-0.0036590576171875;5.13999998702275;515;1 A
5.68122698565628;-0.39984130859375;-0.0036590576171875;5.1499999869975;516;1 A
5.69122698563103;-0.39971923828125;-0.003662109375;5.15999998697225;517;1 A
5.70122698560579;-0.399810791015625;-0.003662109375;5.169999986947;518;1 A
5.71122698558054;-0.399749755859375;-0.00366821289062499;5.17999998692176;519;1 A
5.72122698555529;-0.399810791015625;-0.00366821289062499;5.18999998689651;520;1 A
5.73122698553004;-0.3997802734375;-0.00366821289062499;5.19999998687126;521;1 A
5.7412269855048;-0.399688720703125;-0.00367431640625;5.20999998684601;522;1 A
5.75122698547955;-0.399749755859375;-0.00367431640625;5.21999998682077;523;1 A
5.7612269854543;-0.39971923828125;-0.003680419921875;5.22999998679552;524;1 A
5.77122698542905;-0.3997802734375;-0.00366821289062499;5.23999998677027;525;1 A
5.7812269854038;-0.399688720703125;-0.00366821289062499;5.24999998674502;526;1 A
5.79122698537856;-0.399688720703125;-0.00367431640625;5.25999998671978;527;1 A
5.80122698535331;-0.39971923828125;-0.00367126464843751;5.26999998669453;528;1 A
5.81122698532806;-0.399749755859375;-0.00367431640625;5.27999998666928;529;1 A
5.82122698530281;-0.399688720703125;-0.00367126464843751;5.28999998664403;530;1 A
5.83122698527757;-0.39971923828125;-0.00367431640625;5.29999998661879;531;1 A
5.84122698525232;-0.39971923828125;-0.00368347167968749;5.30999998659354;532;1 A
5.85122698522707;-0.399810791015625;-0.0036773681640625;5.31999998656829;533;1 A
5.86122698520182;-0.399810791015625;-0.00368652343750001;5.32999998654304;534;1 A
5.87122698517658;-0.399688720703125;-0.0036773681640625;5.3399999865178;535;1 A
5.88122698515133;-0.399749755859375;-0.003680419921875;5.34999998649255;536;1 A
5.89122698512608;-0.3997802734375;-0.00368347167968749;5.3599999864673;537;1 A
5.90122698510083;-0.399749755859375;-0.00367431640625;5.36999998644205;538;1 A
5.91122698507559;-0.399749755859375;-0.00367431640625;5.37999998641681;539;1 A
5.92122698505034;-0.39971923828125;-0.0036651611328125;5.38999998639156;540;1 A
5.93122698502509;-0.399688720703125;-0.0036651611328125;5.39999998636631;541;1 A
5.94122698499984;-0.39971923828125;-0.0036651611328125;5.40999998634106;542;1 A
5.9512269849746;-0.39971923828125;-0.003662109375;5.41999998631582;543;1 A
5.96122698494935;-0.399688720703125;-0.003662109375;5.42999998629057;544;1 A
5.9712269849241;-0.399749755859375;-0.00365295410156249;5.43999998626532;545;1 A
5.98122698489885;-0.399749755859375;-0.0036468505859375;5.44999998624007;546;1 A
5.99122698487361;-0.3997802734375;-0.00364990234375;5.45999998621483;547;1 A
6.00122698484836;-0.3997802734375;-0.00364074707031251;5.46999998618958;548;1 A
6.01122698482311;-0.39971923828125;-0.00364074707031251;5.47999998616433;549;1 A
6.02122698479786;-0.39971923828125;-0.0036285400390625;5.48999998613908;550;1 A
6.03122698477262;-0.3997802734375;-0.00362548828125001;5.49999998611383;551;1 A
6.04122698474737;-0.39971923828125;-0.0036285400390625;5.50999998608859;552;1 A
6.05122698472212;-0.3997802734375;-0.00362243652343749;5.51999998606334;553;1 A
6.06122698469687;-0.399688720703125;-0.00362243652343749;5.52999998603809;554;1 A
6.07122698467163;-0.399749755859375;-0.0036163330078125;5.53999998601284;555;1 A
6.08122698464638;-0.399688720703125;-0.00361328125;5.5499999859876;556;1 A
6.09122698462113;-0.3997802734375;-0.0036163330078125;5.55999998596235;557;1 A
6.10122698459588;-0.399749755859375;-0.00361022949218751;5.5699999859371;558;1 A
6.11122698457064;-0.399688720703125;-0.00361328125;5.57999998591185;559;1 A
6.12122698454539;-0.39971923828125;-0.0036041259765625;5.58999998588661;560;1 A
6.13122698452014;-0.399688720703125;-0.0035980224609375;5.59999998586136;561;1 A
6.14122698449489;-0.399749755859375;-0.00360107421875;5.60999998583611;562;1 A
6.15122698446964;-0.399749755859375;-0.00359191894531249;5.61999998581086;563;1 A
6.1612269844444;-0.39971923828125;-0.0035888671875;5.62999998578562;564;1 A
6.17122698441915;-0.39971923828125;-0.00357971191406251;5.63999998576037;565;1 A
6.1812269843939;-0.3997802734375;-0.00357971191406251;5.64999998573512;566;1 A
6.19122698436865;-0.399810791015625;-0.003582763671875;5.65999998570987;567;1 A
6.20122698434341;-0.399749755859375;-0.00357971191406251;5.66999998568463;568;1 A
6.21122698431816;-0.3997802734375;-0.00357971191406251;5.67999998565938;569;1 A
6.22122698429291;-0.39971923828125;-0.0035675048828125;5.68999998563413;570;1 A
6.23122698426766;-0.39971923828125;-0.0035675048828125;5.69999998560888;571;1 A
6.24122698424242;-0.399749755859375;-0.0035675048828125;5.70999998558364;572;1 A
6.25122698421717;-0.39971923828125;-0.00356445312500001;5.71999998555839;573;1 A
6.26122698419192;-0.3997802734375;-0.00356140136718749;5.72999998553314;574;1 A
6.27122698416667;-0.39971923828125;-0.00355224609375;5.73999998550789;575;1 A
6.28122698414143;-0.39971923828125;-0.00355224609375;5.74999998548265;576;1 A
6.29122698411618;-0.39971923828125;-0.00354919433593751;5.7599999854574;577;1 A
6.30122698409093;-0.399749755859375;-0.0035430908203125;5.76999998543215;578;1 A
6.31122698406568;-0.399688720703125;-0.00354614257812499;5.7799999854069;579;1 A
6.32122698404044;-0.3997802734375;-0.0035400390625;5.78999998538166;580;1 A
6.33122698401519;-0.399749755859375;-0.0035400390625;5.79999998535641;581;1 A
6.34122698398994;-0.399749755859375;-0.0035400390625;5.80999998533116;582;1 A
6.35122698396469;-0.39971923828125;-0.00353088378906249;5.81999998530591;583;1 A
6.36122698393945;-0.399658203125;-0.00353088378906249;5.82999998528066;584;1 A
6.3712269839142;-0.399688720703125;-0.003521728515625;5.83999998525542;585;1 A
6.38122698388895;-0.3997802734375;-0.00351562499999999;5.84999998523017;586;1 A
6.3912269838637;-0.39971923828125;-0.0035125732421875;5.85999998520492;587;1 A
6.40122698383846;-0.399810791015625;-0.00350341796875001;5.86999998517967;588;1 A
6.41122698381321;-0.39971923828125;-0.00350341796875001;5.87999998515443;589;1 A
6.42122698378796;-0.3997802734375;-0.00350036621093749;5.88999998512918;590;1 A
6.43122698376271;-0.39984130859375;-0.00350036621093749;5.89999998510393;591;1 A
6.44122698373747;-0.399749755859375;-0.00350341796875001;5.90999998507868;592;1 A
6.45122698371222;-0.39971923828125;-0.003497314453125;5.91999998505344;593;1 A
6.46122698368697;-0.399688720703125;-0.0035064697265625;5.92999998502819;594;1 A
6.47122698366172;-0.399627685546875;-0.00350036621093749;5.93999998500294;595;1 A
6.48122698363647;-0.399749755859375;-0.00350341796875001;5.94999998497769;596;1 A
6.49122698361123;-0.3997802734375;-0.003509521484375;5.95999998495245;597;1 A
6.50122698358598;-0.399749755859375;-0.0035064697265625;5.9699999849272;598;1 A
6.51122698356073;-0.3997802734375;-0.0035125732421875;5.97999998490195;599;1 A
6.52122698353548;-0.399749755859375;-0.0035064697265625;5.9899999848767;600;1 A
6.53122698351024;-0.3997802734375;-0.0035064697265625;5.99999998485146;601;1 A
6.54122698348499;-0.399688720703125;-0.00351867675781251;6.00999998482621;602;1 A
6.55122698345974;-0.39971923828125;-0.00351867675781251;6.01999998480096;603;1 A
6.56122698343449;-0.399658203125;-0.0035247802734375;6.02999998477571;604;1 A
6.57122698340925;-0.399688720703125;-0.00351867675781251;6.03999998475047;605;1 A
6.581226983384;-0.399749755859375;-0.0035247802734375;6.04999998472522;606;1 A
6.59122698335875;-0.399810791015625;-0.00353393554687501;6.05999998469997;607;1 A
6.6012269833335;-0.399688720703125;-0.00353088378906249;6.06999998467472;608;1 A
6.61122698330826;-0.39971923828125;-0.00353393554687501;6.07999998464948;609;1 A
6.62122698328301;-0.399749755859375;-0.00353088378906249;6.08999998462423;610;1 A
6.63122698325776;-0.399749755859375;-0.0035369873046875;6.09999998459898;611;1 A
6.64122698323251;-0.399688720703125;-0.0035430908203125;6.10999998457373;612;1 A
6.65122698320727;-0.39971923828125;-0.0035369873046875;6.11999998454849;613;1 A
6.66122698318202;-0.399749755859375;-0.0035430908203125;6.12999998452324;614;1 A
6.67122698315677;-0.39971923828125;-0.0035369873046875;6.13999998449799;615;1 A
6.68122698313152;-0.3997802734375;-0.0035430908203125;6.14999998447274;616;1 A
6.69122698310628;-0.39971923828125;-0.0035430908203125;6.1599999844475;617;1 A
6.70122698308103;-0.399749755859375;-0.0035369873046875;6.16999998442225;618;1 A
6.71122698305578;-0.39971923828125;-0.0035430908203125;6.179999984397;619;1 A
6.72122698303053;-0.399749755859375;-0.00353088378906249;6.18999998437175;620;1 A
6.73122698300529;-0.3997802734375;-0.00352783203125;6.1999999843465;621;1 A
6.74122698298004;-0.39971923828125;-0.00353088378906249;6.20999998432126;622;1 A
6.75122698295479;-0.399749755859375;-0.00353393554687501;6.21999998429601;623;1 A
6.76122698292954;-0.39971923828125;-0.0035369873046875;6.22999998427076;624;1 A
6.7712269829043;-0.3997802734375;-0.00353088378906249;6.23999998424551;625;1 A
6.78122698287905;-0.3997802734375;-0.0035400390625;6.24999998422027;626;1 A
6.7912269828538;-0.39971923828125;-0.0035430908203125;6.25999998419502;627;1 A
6.80122698282855;-0.399749755859375;-0.0035430908203125;6.26999998416977;628;1 A
6.8112269828033;-0.39971923828125;-0.00354614257812499;6.27999998414452;629;1 A
6.82122698277806;-0.39971923828125;-0.00354614257812499;6.28999998411928;630;1 A
6.83122698275281;-0.399749755859375;-0.003558349609375;6.29999998409403;631;1 A
6.84122698272756;-0.39971923828125;-0.00356140136718749;6.30999998406878;632;1 A
6.85122698270231;-0.39971923828125;-0.00356140136718749;6.31999998404353;633;1 A
6.86122698267707;-0.399688720703125;-0.0035736083984375;6.32999998401829;634;1 A
6.87122698265182;-0.3997802734375;-0.003570556640625;6.33999998399304;635;1 A
6.88122698262657;-0.399688720703125;-0.0035736083984375;6.34999998396779;636;1 A
6.89122698260132;-0.39971923828125;-0.00357666015624999;6.35999998394254;637;1 A
6.90122698257608;-0.39971923828125;-0.00357666015624999;6.3699999839173;638;1 A
6.91122698255083;-0.399749755859375;-0.0035888671875;6.37999998389205;639;1 A
6.92122698252558;-0.399749755859375;-0.0035888671875;6.3899999838668;640;1 A
6.93122698250033;-0.39971923828125;-0.00359191894531249;6.39999998384155;641;1 A
6.94122698247509;-0.3997802734375;-0.00359497070312501;6.40999998381631;642;1 A
6.95122698244984;-0.39971923828125;-0.0035980224609375;6.41999998379106;643;1 A
6.96122698242459;-0.399749755859375;-0.00360717773437499;6.42999998376581;644;1 A
6.97122698239934;-0.399688720703125;-0.0036041259765625;6.43999998374056;645;1 A
6.9812269823741;-0.399749755859375;-0.00360717773437499;6.44999998371532;646;1 A
6.99122698234885;-0.399749755859375;-0.00361328125;6.45999998369007;647;1 A
7.0012269823236;-0.39971923828125;-0.00361022949218751;6.46999998366482;648;1 A
7.01122698229835;-0.39971923828125;-0.00362548828125001;6.47999998363957;649;1 A
7.02122698227311;-0.399810791015625;-0.00362243652343749;6.48999998361433;650;1 A
7.03122698224786;-0.399749755859375;-0.00362243652343749;6.49999998358908;651;1 A
7.04122698222261;-0.3997802734375;-0.0036285400390625;6.50999998356383;652;1 A
7.05122698219736;-0.39971923828125;-0.00362243652343749;6.51999998353858;653;1 A
7.06122698217212;-0.399688720703125;-0.003631591796875;6.52999998351333;654;1 A
7.07122698214687;-0.399749755859375;-0.003631591796875;6.53999998348809;655;1 A
7.08122698212162;-0.3997802734375;-0.0036285400390625;6.54999998346284;656;1 A
7.09122698209637;-0.399627685546875;-0.003631591796875;6.55999998343759;657;1 A
7.10122698207113;-0.3997802734375;-0.003631591796875;6.56999998341234;658;1 A
7.11122698204588;-0.399749755859375;-0.003631591796875;6.5799999833871;659;1 A
7.12122698202063;-0.399810791015625;-0.0036285400390625;6.58999998336185;660;1 A
7.13122698199538;-0.39971923828125;-0.00362243652343749;6.5999999833366;661;1 A
7.14122698197014;-0.399688720703125;-0.00362548828125001;6.60999998331135;662;1 A
7.15122698194489;-0.399749755859375;-0.00362548828125001;6.61999998328611;663;1 A
7.16122698191964;-0.39971923828125;-0.0036285400390625;6.62999998326086;664;1 A
7.17122698189439;-0.399749755859375;-0.003619384765625;6.63999998323561;665;1 A
7.18122698186914;-0.39971923828125;-0.00362243652343749;6.64999998321036;666;1 A
7.1912269818439;-0.3997802734375;-0.00362243652343749;6.65999998318512;667;1 A
7.20122698181865;-0.39971923828125;-0.003619384765625;6.66999998315987;668;1 A
7.2112269817934;-0.39971923828125;-0.00362243652343749;6.67999998313462;669;1 A
7.22122698176815;-0.3997802734375;-0.00361328125;6.68999998310937;670;1 A
7.23122698174291;-0.39971923828125;-0.0036163330078125;6.69999998308413;671;1 A
7.24122698171766;-0.399749755859375;-0.00361328125;6.70999998305888;672;1 A
7.25122698169241;-0.3997802734375;-0.00361328125;6.71999998303363;673;1 A
7.26122698166716;-0.39971923828125;-0.00362243652343749;6.72999998300838;674;1 A
7.27122698164192;-0.399749755859375;-0.00361328125;6.73999998298314;675;1 A
7.28122698161667;-0.399688720703125;-0.003619384765625;6.74999998295789;676;1 A
7.29122698159142;-0.39971923828125;-0.0036285400390625;6.75999998293264;677;1 A
7.30122698156617;-0.399749755859375;-0.00362548828125001;6.76999998290739;678;1 A
7.31122698154093;-0.399749755859375;-0.003631591796875;6.77999998288215;679;1 A
7.32122698151568;-0.399749755859375;-0.003631591796875;6.7899999828569;680;1 A
7.33122698149043;-0.3997802734375;-0.003631591796875;6.79999998283165;681;1 A
7.34122698146518;-0.3997802734375;-0.0036346435546875;6.8099999828064;682;1 A
7.35122698143994;-0.399749755859375;-0.0036346435546875;6.81999998278116;683;1 A
7.36122698141469;-0.399749755859375;-0.00364074707031251;6.82999998275591;684;1 A
7.37122698138944;-0.399810791015625;-0.00363769531249999;6.83999998273066;685;1 A
7.38122698136419;-0.39971923828125;-0.0036468505859375;6.84999998270541;686;1 A
7.39122698133895;-0.39971923828125;-0.0036468505859375;6.85999998268016;687;1 A
7.4012269813137;-0.399749755859375;-0.0036468505859375;6.86999998265492;688;1 A
7.41122698128845;-0.3997802734375;-0.003643798828125;6.87999998262967;689;1 A
7.4212269812632;-0.399749755859375;-0.00364074707031251;6.88999998260442;690;1 A
7.43122698123796;-0.39971923828125;-0.003643798828125;6.89999998257917;691;1 A
7.44122698121271;-0.399688720703125;-0.00364074707031251;6.90999998255393;692;1 A
7.45122698118746;-0.39984130859375;-0.0036346435546875;6.91999998252868;693;1 A
7.46122698116221;-0.39971923828125;-0.00363769531249999;6.92999998250343;694;1 A
7.47122698113697;-0.399749755859375;-0.003631591796875;6.93999998247818;695;1 A
7.48122698111172;-0.399688720703125;-0.0036285400390625;6.94999998245294;696;1 A
7.49122698108647;-0.3997802734375;-0.003631591796875;6.95999998242769;697;1 A
7.50122698106122;-0.399749755859375;-0.003631591796875;6.96999998240244;698;1 A
7.51122698103597;-0.3997802734375;-0.00363769531249999;6.97999998237719;699;1 A
7.52122698101073;-0.399688720703125;-0.00363769531249999;6.98999998235195;700;1 A
7.53122698098548;-0.399810791015625;-0.00364074707031251;6.9999999823267;701;1 A
7.54122698096023;-0.399749755859375;-0.003643798828125;7.00999998230145;702;1 A
7.55122698093498;-0.399749755859375;-0.003643798828125;7.0199999822762;703;1 A
7.56122698090974;-0.3997802734375;-0.00364990234375;7.02999998225096;704;1 A
7.57122698088449;-0.3997802734375;-0.0036468505859375;7.03999998222571;705;1 A
7.58122698085924;-0.3997802734375;-0.00364990234375;7.04999998220046;706;1 A
7.59122698083399;-0.39971923828125;-0.00365295410156249;7.05999998217521;707;1 A
7.60122698080875;-0.399749755859375;-0.00364990234375;7.06999998214997;708;1 A
7.6112269807835;-0.3997802734375;-0.00365600585937501;7.07999998212472;709;1 A
7.62122698075825;-0.39971923828125;-0.00365295410156249;7.08999998209947;710;1 A
7.631226980733;-0.39971923828125;-0.0036590576171875;7.09999998207422;711;1 A
7.64122698070776;-0.39971923828125;-0.0036651611328125;7.10999998204898;712;1 A
7.65122698068251;-0.3997802734375;-0.0036590576171875;7.11999998202373;713;1 A
7.66122698065726;-0.3997802734375;-0.00366821289062499;7.12999998199848;714;1 A
7.67122698063201;-0.399810791015625;-0.003662109375;7.13999998197323;715;1 A
7.68122698060677;-0.399688720703125;-0.0036651611328125;7.14999998194799;716;1 A
7.69122698058152;-0.3997802734375;-0.00367126464843751;7.15999998192274;717;1 A
7.70122698055627;-0.399749755859375;-0.0036651611328125;7.16999998189749;718;1 A
7.71122698053102;-0.3997802734375;-0.0036651611328125;7.17999998187224;719;1 A
7.72122698050578;-0.39971923828125;-0.0036590576171875;7.189999981847;720;1 A
7.73122698048053;-0.399749755859375;-0.003662109375;7.19999998182175;721;1 A
7.74122698045528;-0.399749755859375;-0.00366821289062499;7.2099999817965;722;1 A
7.75122698043003;-0.399810791015625;-0.00366821289062499;7.21999998177125;723;1 A
7.76122698040479;-0.399810791015625;-0.00367431640625;7.229999981746;724;1 A
7.77122698037954;-0.39971923828125;-0.00367126464843751;7.23999998172076;725;1 A
7.78122698035429;-0.399810791015625;-0.003680419921875;7.24999998169551;726;1 A
7.79122698032904;-0.3997802734375;-0.0036895751953125;7.25999998167026;727;1 A
7.8012269803038;-0.3997802734375;-0.00368652343750001;7.26999998164501;728;1 A
7.81122698027855;-0.39971923828125;-0.0036956787109375;7.27999998161977;729;1 A
7.8212269802533;-0.39971923828125;-0.0036895751953125;7.28999998159452;730;1 A
7.83122698022805;-0.3997802734375;-0.0036956787109375;7.29999998156927;731;1 A
7.8412269802028;-0.399749755859375;-0.00369873046874999;7.30999998154402;732;1 A
7.85122698017756;-0.399749755859375;-0.00369873046874999;7.31999998151878;733;1 A
7.86122698015231;-0.399749755859375;-0.003704833984375;7.32999998149353;734;1 A
7.87122698012706;-0.399749755859375;-0.00370178222656251;7.33999998146828;735;1 A
7.88122698010181;-0.39971923828125;-0.003704833984375;7.34999998144303;736;1 A
7.89122698007657;-0.399749755859375;-0.003704833984375;7.35999998141779;737;1 A
7.90122698005132;-0.39971923828125;-0.0037078857421875;7.36999998139254;738;1 A
7.91122698002607;-0.399749755859375;-0.0037109375;7.37999998136729;739;1 A
7.92122698000082;-0.39971923828125;-0.00369873046874999;7.38999998134204;740;1 A
7.93122697997558;-0.3997802734375;-0.0036956787109375;7.3999999813168;741;1 A
7.94122697995033;-0.399749755859375;-0.0036956787109375;7.40999998129155;742;1 A
7.95122697992508;-0.39971923828125;-0.0036895751953125;7.4199999812663;743;1 A
7.96122697989983;-0.3997802734375;-0.0036895751953125;7.42999998124105;744;1 A
7.97122697987459;-0.39971923828125;-0.003680419921875;7.43999998121581;745;1 A
7.98122697984934;-0.39971923828125;-0.003680419921875;7.44999998119056;746;1 A
7.99122697982409;-0.3997802734375;-0.00368652343750001;7.45999998116531;747;1 A
8.00122697979884;-0.399749755859375;-0.0036773681640625;7.46999998114006;748;1 A
8.0112269797736;-0.39971923828125;-0.003680419921875;7.47999998111482;749;1 A
8.02122697974835;-0.399749755859375;-0.003680419921875;7.48999998108957;750;1 A
8.0312269797231;-0.39971923828125;-0.00368347167968749;7.49999998106432;751;1 A
8.04122697969785;-0.399749755859375;-0.00368652343750001;7.50999998103907;752;1 A
8.05122697967261;-0.3997802734375;-0.00368347167968749;7.51999998101383;753;1 A
8.06122697964736;-0.399810791015625;-0.0036895751953125;7.52999998098858;754;1 A
8.07122697962211;-0.39971923828125;-0.003680419921875;7.53999998096333;755;1 A
8.08122697959686;-0.399749755859375;-0.003680419921875;7.54999998093808;756;1 A
8.09122697957162;-0.399749755859375;-0.003680419921875;7.55999998091283;757;1 A
8.10122697954637;-0.3997802734375;-0.0036773681640625;7.56999998088759;758;1 A
8.11122697952112;-0.399658203125;-0.00368347167968749;7.57999998086234;759;1 A
8.12122697949587;-0.39971923828125;-0.0036773681640625;7.58999998083709;760;1 A
8.13122697947063;-0.3997802734375;-0.0036773681640625;7.59999998081184;761;1 A
8.14122697944538;-0.399749755859375;-0.0036773681640625;7.6099999807866;762;1 A
8.15122697942013;-0.399749755859375;-0.00366821289062499;7.61999998076135;763;1 A
8.16122697939488;-0.399749755859375;-0.00367431640625;7.6299999807361;764;1 A
8.17122697936964;-0.39971923828125;-0.003662109375;7.63999998071085;765;1 A
8.18122697934439;-0.399749755859375;-0.0036590576171875;7.64999998068561;766;1 A
8.19122697931914;-0.399749755859375;-0.0036590576171875;7.65999998066036;767;1 A
8.20122697929389;-0.3997802734375;-0.00365295410156249;7.66999998063511;768;1 A
8.21122697926864;-0.39971923828125;-0.00364990234375;7.67999998060986;769;1 A
8.2212269792434;-0.399688720703125;-0.003643798828125;7.68999998058462;770;1 A
8.23122697921815;-0.39971923828125;-0.003643798828125;7.69999998055937;771;1 A
8.2412269791929;-0.39971923828125;-0.00363769531249999;7.70999998053412;772;1 A
8.25122697916765;-0.3997802734375;-0.003631591796875;7.71999998050887;773;1 A
8.26122697914241;-0.399749755859375;-0.003631591796875;7.72999998048363;774;1 A
8.27122697911716;-0.399688720703125;-0.0036285400390625;7.73999998045838;775;1 A
8.28122697909191;-0.399749755859375;-0.003631591796875;7.74999998043313;776;1 A
8.29122697906666;-0.399749755859375;-0.0036285400390625;7.75999998040788;777;1 A
8.30122697904142;-0.399749755859375;-0.003619384765625;7.76999998038264;778;1 A
8.31122697901617;-0.399658203125;-0.0036163330078125;7.77999998035739;779;1 A
8.32122697899092;-0.399749755859375;-0.00361022949218751;7.78999998033214;780;1 A
8.33122697896567;-0.3997802734375;-0.00361328125;7.79999998030689;781;1 A
8.34122697894043;-0.39971923828125;-0.00361328125;7.80999998028165;782;1 A
8.35122697891518;-0.399810791015625;-0.00360717773437499;7.8199999802564;783;1 A
8.36122697888993;-0.39971923828125;-0.00361328125;7.82999998023115;784;1 A
8.37122697886468;-0.39971923828125;-0.00360717773437499;7.8399999802059;785;1 A
8.38122697883944;-0.3997802734375;-0.00360717773437499;7.84999998018066;786;1 A
8.39122697881419;-0.399688720703125;-0.00360107421875;7.85999998015541;787;1 A
8.40122697878894;-0.3997802734375;-0.0035980224609375;7.86999998013016;788;1 A
8.41122697876369;-0.399688720703125;-0.00359497070312501;7.87999998010491;789;1 A
8.42122697873845;-0.399688720703125;-0.0035858154296875;7.88999998007966;790;1 A
8.4312269787132;-0.399749755859375;-0.0035858154296875;7.89999998005442;791;1 A
8.44122697868795;-0.3997802734375;-0.003582763671875;7.90999998002917;792;1 A
8.4512269786627;-0.39971923828125;-0.0035736083984375;7.91999998000392;793;1 A
8.46122697863746;-0.399810791015625;-0.0035736083984375;7.92999997997867;794;1 A
8.47122697861221;-0.399688720703125;-0.00356445312500001;7.93999997995343;795;1 A
8.48122697858696;-0.399749755859375;-0.00356445312500001;7.94999997992818;796;1 A
8.49122697856171;-0.39971923828125;-0.0035675048828125;7.95999997990293;797;1 A
8.50122697853647;-0.39971923828125;-0.00356140136718749;7.96999997987768;798;1 A
8.51122697851122;-0.3997802734375;-0.003558349609375;7.97999997985244;799;1 A
8.52122697848597;-0.399749755859375;-0.0035552978515625;7.98999997982719;800;1 A
8.53122697846072;-0.399749755859375;-0.00355224609375;7.99999997980194;801;1 A
8.54122697843547;-0.39971923828125;-0.00354919433593751;8.00999997977669;802;1 A
8.55122697841023;-0.399749755859375;-0.00354614257812499;8.01999997975145;803;1 A
8.56122697838498;-0.39971923828125;-0.00354614257812499;8.0299999797262;804;1 A
8.57122697835973;-0.399749755859375;-0.00354614257812499;8.03999997970095;805;1 A
8.58122697833448;-0.3997802734375;-0.00354919433593751;8.0499999796757;806;1 A
8.59122697830924;-0.3997802734375;-0.0035552978515625;8.05999997965046;807;1 A
8.60122697828399;-0.3997802734375;-0.0035552978515625;8.06999997962521;808;1 A
8.61122697825874;-0.3997802734375;-0.00356445312500001;8.07999997959996;809;1 A
8.62122697823349;-0.3997802734375;-0.00356445312500001;8.08999997957471;810;1 A
8.63122697820825;-0.399688720703125;-0.0035736083984375;8.09999997954947;811;1 A
8.641226978183;-0.399749755859375;-0.00357971191406251;8.10999997952422;812;1 A
8.65122697815775;-0.3997802734375;-0.00357971191406251;8.11999997949897;813;1 A
8.6612269781325;-0.3997802734375;-0.003582763671875;8.12999997947372;814;1 A
8.67122697810726;-0.399749755859375;-0.00357971191406251;8.13999997944848;815;1 A
8.68122697808201;-0.3997802734375;-0.003582763671875;8.14999997942323;816;1 A
8.69122697805676;-0.399749755859375;-0.003582763671875;8.15999997939798;817;1 A
8.70122697803151;-0.399749755859375;-0.00357971191406251;8.16999997937273;818;1 A
8.71122697800627;-0.399749755859375;-0.0035858154296875;8.17999997934749;819;1 A
8.72122697798102;-0.3997802734375;-0.003582763671875;8.18999997932224;820;1 A
8.73122697795577;-0.3997802734375;-0.003582763671875;8.19999997929699;821;1 A
8.74122697793052;-0.399688720703125;-0.0035888671875;8.20999997927174;822;1 A
8.75122697790528;-0.3997802734375;-0.00357666015624999;8.2199999792465;823;1 A
8.76122697788003;-0.399749755859375;-0.003582763671875;8.22999997922125;824;1 A
8.77122697785478;-0.39971923828125;-0.00357666015624999;8.239999979196;825;1 A
8.78122697782953;-0.399749755859375;-0.00357666015624999;8.24999997917075;826;1 A
8.79122697780429;-0.399688720703125;-0.00357666015624999;8.2599999791455;827;1 A
8.80122697777904;-0.39971923828125;-0.00356445312500001;8.26999997912026;828;1 A
8.81122697775379;-0.399749755859375;-0.0035675048828125;8.27999997909501;829;1 A
8.82122697772854;-0.399688720703125;-0.00356140136718749;8.28999997906976;830;1 A
8.8312269777033;-0.399749755859375;-0.0035675048828125;8.29999997904451;831;1 A
8.84122697767805;-0.39971923828125;-0.00356445312500001;8.30999997901927;832;1 A
8.8512269776528;-0.3997802734375;-0.00356140136718749;8.31999997899402;833;1 A
8.86122697762755;-0.3997802734375;-0.00356445312500001;8.32999997896877;834;1 A
8.8712269776023;-0.39971923828125;-0.00356140136718749;8.33999997894352;835;1 A
8.88122697757706;-0.399688720703125;-0.0035675048828125;8.34999997891828;836;1 A
8.89122697755181;-0.3997802734375;-0.0035675048828125;8.35999997889303;837;1 A
8.90122697752656;-0.399749755859375;-0.00356140136718749;8.36999997886778;838;1 A
8.91122697750131;-0.39971923828125;-0.003558349609375;8.37999997884253;839;1 A
8.92122697747607;-0.399749755859375;-0.003558349609375;8.38999997881729;840;1 A
8.93122697745082;-0.3997802734375;-0.00356140136718749;8.39999997879204;841;1 A
8.94122697742557;-0.39971923828125;-0.003558349609375;8.40999997876679;842;1 A
8.95122697740032;-0.399749755859375;-0.00355224609375;8.41999997874154;843;1 A
8.96122697737508;-0.3997802734375;-0.0035552978515625;8.4299999787163;844;1 A
8.97122697734983;-0.3997802734375;-0.00354614257812499;8.43999997869105;845;1 A
8.98122697732458;-0.399688720703125;-0.00355224609375;8.4499999786658;846;1 A
8.99122697729933;-0.399749755859375;-0.00354919433593751;8.45999997864055;847;1 A
9.00122697727409;-0.3997802734375;-0.0035400390625;8.46999997861531;848;1 A
9.01122697724884;-0.3997802734375;-0.0035369873046875;8.47999997859006;849;1 A
9.02122697722359;-0.399688720703125;-0.00352783203125;8.48999997856481;850;1 A
9.03122697719834;-0.3997802734375;-0.003521728515625;8.49999997853956;851;1 A
9.0412269771731;-0.399749755859375;-0.00351562499999999;8.50999997851432;852;1 A
9.05122697714785;-0.39971923828125;-0.0035064697265625;8.51999997848907;853;1 A
9.0612269771226;-0.399810791015625;-0.00350341796875001;8.52999997846382;854;1 A
9.07122697709735;-0.399749755859375;-0.0034942626953125;8.53999997843857;855;1 A
9.08122697707211;-0.399749755859375;-0.0034942626953125;8.54999997841333;856;1 A
9.09122697704686;-0.39971923828125;-0.0034942626953125;8.55999997838808;857;1 A
9.10122697702161;-0.39971923828125;-0.00348510742187499;8.56999997836283;858;1 A
9.11122697699636;-0.399688720703125;-0.00348815917968751;8.57999997833758;859;1 A
9.12122697697112;-0.399749755859375;-0.0034759521484375;8.58999997831233;860;1 A
9.13122697694587;-0.39971923828125;-0.0034820556640625;8.59999997828709;861;1 A
9.14122697692062;-0.399810791015625;-0.0034759521484375;8.60999997826184;862;1 A
9.15122697689537;-0.399810791015625;-0.003466796875;8.61999997823659;863;1 A
9.16122697687013;-0.39971923828125;-0.003466796875;8.62999997821134;864;1 A
9.17122697684488;-0.399810791015625;-0.00345764160156251;8.6399999781861;865;1 A
9.18122697681963;-0.39971923828125;-0.00345764160156251;8.64999997816085;866;1 A
9.19122697679438;-0.3997802734375;-0.00345764160156251;8.6599999781356;867;1 A
9.20122697676914;-0.399688720703125;-0.003448486328125;8.66999997811035;868;1 A
9.21122697674389;-0.399749755859375;-0.00345458984374999;8.67999997808511;869;1 A
9.22122697671864;-0.3997802734375;-0.003448486328125;8.68999997805986;870;1 A
9.23122697669339;-0.399749755859375;-0.00345458984374999;8.69999997803461;871;1 A
9.24122697666814;-0.399688720703125;-0.00345458984374999;8.70999997800936;872;1 A
9.2512269766429;-0.399749755859375;-0.0034515380859375;8.71999997798412;873;1 A
9.26122697661765;-0.39971923828125;-0.00345458984374999;8.72999997795887;874;1 A
9.2712269765924;-0.39971923828125;-0.0034454345703125;8.73999997793362;875;1 A
9.28122697656715;-0.399749755859375;-0.0034515380859375;8.74999997790837;876;1 A
9.29122697654191;-0.3997802734375;-0.0034515380859375;8.75999997788313;877;1 A
9.30122697651666;-0.399749755859375;-0.0034454345703125;8.76999997785788;878;1 A
9.31122697649141;-0.3997802734375;-0.003448486328125;8.77999997783263;879;1 A
9.32122697646616;-0.39984130859375;-0.003436279296875;8.78999997780738;880;1 A
9.33122697644092;-0.399749755859375;-0.003436279296875;8.79999997778214;881;1 A
9.34122697641567;-0.399749755859375;-0.003436279296875;8.80999997775689;882;1 A
9.35122697639042;-0.399749755859375;-0.00342712402343751;8.81999997773164;883;1 A
9.36122697636517;-0.399749755859375;-0.00342407226562499;8.82999997770639;884;1 A
9.37122697633993;-0.3997802734375;-0.0034149169921875;8.83999997768115;885;1 A
9.38122697631468;-0.399688720703125;-0.0034149169921875;8.8499999776559;886;1 A
9.39122697628943;-0.399749755859375;-0.00340576171875;8.85999997763065;887;1 A
9.40122697626418;-0.3997802734375;-0.00339660644531251;8.8699999776054;888;1 A
9.41122697623894;-0.39971923828125;-0.003399658203125;8.87999997758016;889;1 A
9.42122697621369;-0.399749755859375;-0.003387451171875;8.88999997755491;890;1 A
9.43122697618844;-0.3997802734375;-0.003399658203125;8.89999997752966;891;1 A
9.44122697616319;-0.399688720703125;-0.00339660644531251;8.90999997750441;892;1 A
9.45122697613795;-0.3997802734375;-0.00339660644531251;8.91999997747916;893;1 A
9.4612269761127;-0.39971923828125;-0.00339660644531251;8.92999997745392;894;1 A
9.47122697608745;-0.399749755859375;-0.00339660644531251;8.93999997742867;895;1 A
9.4812269760622;-0.39971923828125;-0.0034027099609375;8.94999997740342;896;1 A
9.49122697603696;-0.39971923828125;-0.003399658203125;8.95999997737817;897;1 A
9.50122697601171;-0.39971923828125;-0.00339660644531251;8.96999997735293;898;1 A
9.51122697598646;-0.399749755859375;-0.00339660644531251;8.97999997732768;899;1 A
9.52122697596121;-0.399749755859375;-0.0033905029296875;8.98999997730243;900;1 A
9.53122697593597;-0.39971923828125;-0.00339355468749999;8.99999997727718;901;1 A
9.54122697591072;-0.3997802734375;-0.00339355468749999;9.00999997725194;902;1 A
9.55122697588547;-0.399749755859375;-0.00339355468749999;9.01999997722669;903;1 A
9.56122697586022;-0.3997802734375;-0.00339355468749999;9.02999997720144;904;1 A
9.57122697583497;-0.3997802734375;-0.0033905029296875;9.03999997717619;905;1 A
9.58122697580973;-0.399749755859375;-0.00339660644531251;9.04999997715095;906;1 A
9.59122697578448;-0.39971923828125;-0.00339355468749999;9.0599999771257;907;1 A
9.60122697575923;-0.399688720703125;-0.00339660644531251;9.06999997710045;908;1 A
9.61122697573398;-0.3997802734375;-0.0034027099609375;9.0799999770752;909;1 A
9.62122697570874;-0.399749755859375;-0.00339355468749999;9.08999997704996;910;1 A
9.63122697568349;-0.39971923828125;-0.003399658203125;9.09999997702471;911;1 A
9.64122697565824;-0.39971923828125;-0.0034027099609375;9.10999997699946;912;1 A
9.65122697563299;-0.399749755859375;-0.00339660644531251;9.11999997697421;913;1 A
9.66122697560775;-0.3997802734375;-0.00340881347656249;9.12999997694897;914;1 A
9.6712269755825;-0.399810791015625;-0.00340881347656249;9.13999997692372;915;1 A
9.68122697555725;-0.399749755859375;-0.00341796875;9.14999997689847;916;1 A
9.691226975532;-0.399749755859375;-0.0034210205078125;9.15999997687322;917;1 A
9.70122697550676;-0.39971923828125;-0.00341796875;9.16999997684798;918;1 A
9.71122697548151;-0.3997802734375;-0.00342407226562499;9.17999997682273;919;1 A
9.72122697545626;-0.39971923828125;-0.00342407226562499;9.18999997679748;920;1 A
9.73122697543101;-0.399749755859375;-0.00342407226562499;9.19999997677223;921;1 A
9.74122697540577;-0.3997802734375;-0.00342407226562499;9.20999997674699;922;1 A
9.75122697538052;-0.399749755859375;-0.00342407226562499;9.21999997672174;923;1 A
9.76122697535527;-0.39971923828125;-0.00342712402343751;9.22999997669649;924;1 A
9.77122697533002;-0.399749755859375;-0.00342712402343751;9.23999997667124;925;1 A
9.78122697530478;-0.3997802734375;-0.0034332275390625;9.249999976646;926;1 A
9.79122697527953;-0.399658203125;-0.00344238281250001;9.25999997662075;927;1 A
9.80122697525428;-0.399749755859375;-0.0034332275390625;9.2699999765955;928;1 A
9.81122697522903;-0.39971923828125;-0.00343933105468749;9.27999997657025;929;1 A
9.82122697520379;-0.399749755859375;-0.00343933105468749;9.289999976545;930;1 A
9.83122697517854;-0.399749755859375;-0.003448486328125;9.29999997651976;931;1 A
9.84122697515329;-0.399749755859375;-0.0034515380859375;9.30999997649451;932;1 A
9.85122697512804;-0.39971923828125;-0.003448486328125;9.31999997646926;933;1 A
9.8612269751028;-0.3997802734375;-0.0034515380859375;9.32999997644401;934;1 A
9.87122697507755;-0.39971923828125;-0.0034454345703125;9.33999997641877;935;1 A
9.8812269750523;-0.399749755859375;-0.00345458984374999;9.34999997639352;936;1 A
9.89122697502705;-0.3997802734375;-0.00345764160156251;9.35999997636827;937;1 A
9.9012269750018;-0.3997802734375;-0.00345764160156251;9.36999997634302;938;1 A
9.91122697497656;-0.399749755859375;-0.003460693359375;9.37999997631778;939;1 A
9.92122697495131;-0.39971923828125;-0.00345458984374999;9.38999997629253;940;1 A
9.93122697492606;-0.399749755859375;-0.00345764160156251;9.39999997626728;941;1 A
9.94122697490081;-0.399749755859375;-0.00345458984374999;9.40999997624203;942;1 A
9.95122697487557;-0.399688720703125;-0.0034454345703125;9.41999997621679;943;1 A
9.96122697485032;-0.399749755859375;-0.0034515380859375;9.42999997619154;944;1 A
9.97122697482507;-0.399749755859375;-0.00344238281250001;9.43999997616629;945;1 A
9.98122697479982;-0.399749755859375;-0.00344238281250001;9.44999997614104;946;1 A
9.99122697477458;-0.399810791015625;-0.00343933105468749;9.4599999761158;947;1 A
10.0012269747493;-0.399749755859375;-0.00343017578125;9.46999997609055;948;1 A
10.0112269747241;-0.399749755859375;-0.00343017578125;9.4799999760653;949;1 A
10.0212269746988;-0.39971923828125;-0.0034210205078125;9.48999997604005;950;1 A
10.0312269746736;-0.39971923828125;-0.00342407226562499;9.49999997601481;951;1 A
10.0412269746483;-0.39971923828125;-0.0034210205078125;9.50999997598956;952;1 A
10.0512269746231;-0.3997802734375;-0.0034149169921875;9.51999997596431;953;1 A
10.0612269745978;-0.399749755859375;-0.0034149169921875;9.52999997593906;954;1 A
10.0712269745726;-0.399688720703125;-0.00340881347656249;9.53999997591382;955;1 A
10.0812269745473;-0.3997802734375;-0.00341186523437501;9.54999997588857;956;1 A
10.0912269745221;-0.3997802734375;-0.00340576171875;9.55999997586332;957;1 A
10.1012269744969;-0.399749755859375;-0.003399658203125;9.56999997583807;958;1 A
10.1112269744716;-0.39971923828125;-0.00339355468749999;9.57999997581283;959;1 A
10.1212269744464;-0.399749755859375;-0.0033905029296875;9.58999997578758;960;1 A
10.1312269744211;-0.399749755859375;-0.00339355468749999;9.59999997576233;961;1 A
10.1412269743959;-0.39971923828125;-0.0033905029296875;9.60999997573708;962;1 A
10.1512269743706;-0.39971923828125;-0.0033843994140625;9.61999997571183;963;1 A
10.1612269743454;-0.3997802734375;-0.0033905029296875;9.62999997568659;964;1 A
10.1712269743201;-0.399749755859375;-0.00338134765625001;9.63999997566134;965;1 A
10.1812269742949;-0.3997802734375;-0.00338134765625001;9.64999997563609;966;1 A
10.1912269742696;-0.3997802734375;-0.00337829589843749;9.65999997561084;967;1 A
10.2012269742444;-0.399688720703125;-0.00336608886718751;9.6699999755856;968;1 A
10.2112269742191;-0.3997802734375;-0.003369140625;9.67999997556035;969;1 A
10.2212269741939;-0.399749755859375;-0.0033599853515625;9.6899999755351;970;1 A
10.2312269741686;-0.399810791015625;-0.0033599853515625;9.69999997550985;971;1 A
10.2412269741434;-0.399810791015625;-0.0033538818359375;9.70999997548461;972;1 A
10.2512269741181;-0.3997802734375;-0.0033447265625;9.71999997545936;973;1 A
10.2612269740929;-0.399658203125;-0.00334777832031249;9.72999997543411;974;1 A
10.2712269740676;-0.3997802734375;-0.00334777832031249;9.73999997540886;975;1 A
10.2812269740424;-0.399810791015625;-0.0033538818359375;9.74999997538362;976;1 A
10.2912269740171;-0.39971923828125;-0.00335693359375;9.75999997535837;977;1 A
10.3012269739919;-0.399688720703125;-0.0033538818359375;9.76999997533312;978;1 A
10.3112269739667;-0.39971923828125;-0.0033599853515625;9.77999997530787;979;1 A
10.3212269739414;-0.39971923828125;-0.00335693359375;9.78999997528263;980;1 A
10.3312269739162;-0.399749755859375;-0.00336303710937499;9.79999997525738;981;1 A
10.3412269738909;-0.39971923828125;-0.00336303710937499;9.80999997523213;982;1 A
10.3512269738657;-0.39971923828125;-0.0033599853515625;9.81999997520688;983;1 A
10.3612269738404;-0.399688720703125;-0.00336303710937499;9.82999997518164;984;1 A
10.3712269738152;-0.39971923828125;-0.00335693359375;9.83999997515639;985;1 A
10.3812269737899;-0.3997802734375;-0.00336303710937499;9.84999997513114;986;1 A
10.3912269737647;-0.399749755859375;-0.00336303710937499;9.85999997510589;987;1 A
10.4012269737394;-0.399749755859375;-0.00336303710937499;9.86999997508065;988;1 A
10.4112269737142;-0.39971923828125;-0.003369140625;9.8799999750554;989;1 A
10.4212269736889;-0.399688720703125;-0.00336303710937499;9.88999997503015;990;1 A
10.4312269736637;-0.399749755859375;-0.0033721923828125;9.8999999750049;991;1 A
10.4412269736384;-0.399749755859375;-0.0033721923828125;9.90999997497966;992;1 A
10.4512269736132;-0.399749755859375;-0.003369140625;9.91999997495441;993;1 A
10.4612269735879;-0.399749755859375;-0.003369140625;9.92999997492916;994;1 A
10.4712269735627;-0.399749755859375;-0.0033599853515625;9.93999997490391;995;1 A
10.4812269735374;-0.399749755859375;-0.00336608886718751;9.94999997487866;996;1 A
10.4912269735122;-0.399749755859375;-0.0033599853515625;9.95999997485342;997;1 A
10.501226973487;-0.39971923828125;-0.00336303710937499;9.96999997482817;998;1 A
10.5112269734617;-0.399688720703125;-0.003369140625;9.97999997480292;999;1 A
10.5212269734365;-0.399688720703125;-0.00336608886718751;9.98999997477767;1000;1 A
