Time (s);WE(1).Potential (V);WE(1).Current (A);Corrected time (s);Index;Current range
11.1164239719337;-0.499786376953125;-0.004608154296875;0;1;1 A
11.1264239719085;-0.499755859375;-0.00421142578125;0.00999999997475243;2;1 A
11.1364239718832;-0.499847412109375;-0.0040252685546875;0.0199999999495049;3;1 A
11.146423971858;-0.499847412109375;-0.00391235351562499;0.0299999999242573;4;1 A
11.1564239718327;-0.499786376953125;-0.0038421630859375;0.0399999998990097;5;1 A
11.1664239718075;-0.499786376953125;-0.00379028320312499;0.0499999998737621;6;1 A
11.1764239717822;-0.499847412109375;-0.00374450683593749;0.0599999998485146;7;1 A
11.186423971757;-0.499786376953125;-0.0037200927734375;0.069999999823267;8;1 A
11.1964239717317;-0.49981689453125;-0.0036895751953125;0.0799999997980194;9;1 A
11.2064239717065;-0.499755859375;-0.003680419921875;0.0899999997727718;10;1 A
11.2164239716813;-0.499786376953125;-0.003662109375;0.0999999997475243;11;1 A
11.226423971656;-0.499755859375;-0.003643798828125;0.109999999722277;12;1 A
11.2364239716308;-0.499847412109375;-0.0036285400390625;0.119999999697029;13;1 A
11.2464239716055;-0.49981689453125;-0.00361328125;0.129999999671782;14;1 A
11.2564239715803;-0.49981689453125;-0.00361328125;0.139999999646534;15;1 A
11.266423971555;-0.49981689453125;-0.00360717773437499;0.149999999621286;16;1 A
11.2764239715298;-0.49981689453125;-0.0035888671875;0.159999999596039;17;1 A
11.2864239715045;-0.499847412109375;-0.00359497070312501;0.169999999570791;18;1 A
11.2964239714793;-0.49981689453125;-0.0035858154296875;0.179999999545544;19;1 A
11.306423971454;-0.499786376953125;-0.0035888671875;0.189999999520296;20;1 A
11.3164239714288;-0.499755859375;-0.00357971191406251;0.199999999495049;21;1 A
11.3264239714035;-0.49981689453125;-0.0035736083984375;0.209999999469801;22;1 A
11.3364239713783;-0.499847412109375;-0.00357971191406251;0.219999999444553;23;1 A
11.346423971353;-0.4998779296875;-0.0035675048828125;0.229999999419306;24;1 A
11.3564239713278;-0.499786376953125;-0.003570556640625;0.239999999394058;25;1 A
11.3664239713025;-0.49981689453125;-0.0035675048828125;0.249999999368811;26;1 A
11.3764239712773;-0.499755859375;-0.003558349609375;0.259999999343563;27;1 A
11.386423971252;-0.499725341796875;-0.0035675048828125;0.269999999318316;28;1 A
11.3964239712268;-0.499847412109375;-0.0035552978515625;0.279999999293068;29;1 A
11.4064239712015;-0.49981689453125;-0.0035675048828125;0.28999999926782;30;1 A
11.4164239711763;-0.499755859375;-0.003558349609375;0.299999999242573;31;1 A
11.4264239711511;-0.49969482421875;-0.00355224609375;0.309999999217325;32;1 A
11.4364239711258;-0.49981689453125;-0.0035552978515625;0.319999999192078;33;1 A
11.4464239711006;-0.499786376953125;-0.00354919433593751;0.32999999916683;34;1 A
11.4564239710753;-0.499847412109375;-0.00356140136718749;0.339999999141583;35;1 A
11.4664239710501;-0.499755859375;-0.003558349609375;0.349999999116335;36;1 A
11.4764239710248;-0.499755859375;-0.00354919433593751;0.359999999091087;37;1 A
11.4864239709996;-0.49981689453125;-0.0035552978515625;0.36999999906584;38;1 A
11.4964239709743;-0.49981689453125;-0.00354614257812499;0.379999999040592;39;1 A
11.5064239709491;-0.499786376953125;-0.003558349609375;0.389999999015345;40;1 A
11.5164239709238;-0.49981689453125;-0.00354614257812499;0.399999998990097;41;1 A
11.5264239708986;-0.499786376953125;-0.00354614257812499;0.40999999896485;42;1 A
11.5364239708733;-0.49981689453125;-0.00355224609375;0.419999998939602;43;1 A
11.5464239708481;-0.49981689453125;-0.00354614257812499;0.429999998914354;44;1 A
11.5564239708228;-0.49981689453125;-0.00355224609375;0.439999998889107;45;1 A
11.5664239707976;-0.49981689453125;-0.0035430908203125;0.449999998863859;46;1 A
11.5764239707723;-0.499786376953125;-0.0035400390625;0.459999998838612;47;1 A
11.5864239707471;-0.499786376953125;-0.0035430908203125;0.469999998813364;48;1 A
11.5964239707218;-0.499847412109375;-0.00352783203125;0.479999998788116;49;1 A
11.6064239706966;-0.499847412109375;-0.00353393554687501;0.489999998762869;50;1 A
11.6164239706713;-0.49981689453125;-0.00352783203125;0.499999998737621;51;1 A
11.6264239706461;-0.499755859375;-0.0035247802734375;0.509999998712374;52;1 A
11.6364239706209;-0.499786376953125;-0.00351562499999999;0.519999998687126;53;1 A
11.6464239705956;-0.499786376953125;-0.003509521484375;0.529999998661879;54;1 A
11.6564239705704;-0.49981689453125;-0.00351562499999999;0.539999998636631;55;1 A
11.6664239705451;-0.499786376953125;-0.003509521484375;0.549999998611383;56;1 A
11.6764239705199;-0.49981689453125;-0.0035064697265625;0.559999998586136;57;1 A
11.6864239704946;-0.49981689453125;-0.0035125732421875;0.569999998560888;58;1 A
11.6964239704694;-0.49981689453125;-0.003509521484375;0.579999998535641;59;1 A
11.7064239704441;-0.49981689453125;-0.003521728515625;0.589999998510393;60;1 A
11.7164239704189;-0.499755859375;-0.00351562499999999;0.599999998485146;61;1 A
11.7264239703936;-0.49981689453125;-0.003509521484375;0.609999998459898;62;1 A
11.7364239703684;-0.499786376953125;-0.0035125732421875;0.61999999843465;63;1 A
11.7464239703431;-0.4998779296875;-0.003509521484375;0.629999998409403;64;1 A
11.7564239703179;-0.49981689453125;-0.00351867675781251;0.639999998384155;65;1 A
11.7664239702926;-0.499847412109375;-0.00351867675781251;0.649999998358908;66;1 A
11.7764239702674;-0.499755859375;-0.0035125732421875;0.65999999833366;67;1 A
11.7864239702421;-0.49981689453125;-0.00351867675781251;0.669999998308413;68;1 A
11.7964239702169;-0.499847412109375;-0.0035125732421875;0.679999998283165;69;1 A
11.8064239701916;-0.49981689453125;-0.003521728515625;0.689999998257917;70;1 A
11.8164239701664;-0.499786376953125;-0.003521728515625;0.69999999823267;71;1 A
11.8264239701411;-0.49981689453125;-0.003521728515625;0.709999998207422;72;1 A
11.8364239701159;-0.499755859375;-0.0035247802734375;0.719999998182175;73;1 A
11.8464239700907;-0.499786376953125;-0.003521728515625;0.729999998156927;74;1 A
11.8564239700654;-0.49981689453125;-0.0035247802734375;0.73999999813168;75;1 A
11.8664239700402;-0.49981689453125;-0.00352783203125;0.749999998106432;76;1 A
11.8764239700149;-0.499786376953125;-0.0035125732421875;0.759999998081184;77;1 A
11.8864239699897;-0.49981689453125;-0.003521728515625;0.769999998055937;78;1 A
11.8964239699644;-0.49981689453125;-0.003509521484375;0.779999998030689;79;1 A
11.9064239699392;-0.499755859375;-0.0035247802734375;0.789999998005442;80;1 A
11.9164239699139;-0.499786376953125;-0.003521728515625;0.799999997980194;81;1 A
11.9264239698887;-0.499847412109375;-0.0035125732421875;0.809999997954947;82;1 A
11.9364239698634;-0.499847412109375;-0.0035247802734375;0.819999997929699;83;1 A
11.9464239698382;-0.49981689453125;-0.00351562499999999;0.829999997904451;84;1 A
11.9564239698129;-0.499786376953125;-0.003521728515625;0.839999997879204;85;1 A
11.9664239697877;-0.49981689453125;-0.0035247802734375;0.849999997853956;86;1 A
11.9764239697624;-0.49981689453125;-0.003521728515625;0.859999997828709;87;1 A
11.9864239697372;-0.499755859375;-0.00353088378906249;0.869999997803461;88;1 A
11.9964239697119;-0.499786376953125;-0.003521728515625;0.879999997778214;89;1 A
12.0064239696867;-0.499786376953125;-0.00353088378906249;0.889999997752966;90;1 A
12.0164239696614;-0.49981689453125;-0.00351867675781251;0.899999997727718;91;1 A
12.0264239696362;-0.499847412109375;-0.003509521484375;0.909999997702471;92;1 A
12.036423969611;-0.499755859375;-0.00351562499999999;0.919999997677223;93;1 A
12.0464239695857;-0.499786376953125;-0.003509521484375;0.929999997651976;94;1 A
12.0564239695605;-0.499786376953125;-0.0035247802734375;0.939999997626728;95;1 A
12.0664239695352;-0.49981689453125;-0.00351867675781251;0.949999997601481;96;1 A
12.07642396951;-0.499786376953125;-0.003509521484375;0.959999997576233;97;1 A
12.0864239694847;-0.499786376953125;-0.0035125732421875;0.969999997550985;98;1 A
12.0964239694595;-0.49981689453125;-0.00350341796875001;0.979999997525738;99;1 A
12.1064239694342;-0.499786376953125;-0.0035125732421875;0.98999999750049;100;1 A
12.116423969409;-0.499847412109375;-0.00350341796875001;0.999999997475243;101;1 A
12.1264239693837;-0.499755859375;-0.0034942626953125;1.00999999745;102;1 A
12.1364239693585;-0.499786376953125;-0.00350036621093749;1.01999999742475;103;1 A
12.1464239693332;-0.499786376953125;-0.00348815917968751;1.0299999973995;104;1 A
12.156423969308;-0.499755859375;-0.00350036621093749;1.03999999737425;105;1 A
12.1664239692827;-0.499786376953125;-0.0034912109375;1.049999997349;106;1 A
12.1764239692575;-0.499725341796875;-0.0034942626953125;1.05999999732376;107;1 A
12.1864239692322;-0.499786376953125;-0.003497314453125;1.06999999729851;108;1 A
12.196423969207;-0.49981689453125;-0.00348815917968751;1.07999999727326;109;1 A
12.2064239691817;-0.499786376953125;-0.003497314453125;1.08999999724801;110;1 A
12.2164239691565;-0.49981689453125;-0.0034912109375;1.09999999722277;111;1 A
12.2264239691312;-0.499786376953125;-0.0034912109375;1.10999999719752;112;1 A
12.236423969106;-0.499725341796875;-0.0034942626953125;1.11999999717227;113;1 A
12.2464239690808;-0.499786376953125;-0.0034912109375;1.12999999714702;114;1 A
12.2564239690555;-0.499786376953125;-0.0034942626953125;1.13999999712178;115;1 A
12.2664239690303;-0.49981689453125;-0.00348815917968751;1.14999999709653;116;1 A
12.276423969005;-0.499786376953125;-0.00348815917968751;1.15999999707128;117;1 A
12.2864239689798;-0.499755859375;-0.0034942626953125;1.16999999704603;118;1 A
12.2964239689545;-0.49981689453125;-0.00348815917968751;1.17999999702079;119;1 A
12.3064239689293;-0.49981689453125;-0.00350036621093749;1.18999999699554;120;1 A
12.316423968904;-0.499786376953125;-0.003497314453125;1.19999999697029;121;1 A
12.3264239688788;-0.49981689453125;-0.00350036621093749;1.20999999694504;122;1 A
12.3364239688535;-0.49981689453125;-0.00350036621093749;1.2199999969198;123;1 A
12.3464239688283;-0.49981689453125;-0.00350341796875001;1.22999999689455;124;1 A
12.356423968803;-0.49981689453125;-0.00351562499999999;1.2399999968693;125;1 A
12.3664239687778;-0.499725341796875;-0.00351562499999999;1.24999999684405;126;1 A
12.3764239687525;-0.49981689453125;-0.003509521484375;1.25999999681881;127;1 A
12.3864239687273;-0.499847412109375;-0.00351562499999999;1.26999999679356;128;1 A
12.396423968702;-0.499847412109375;-0.0035125732421875;1.27999999676831;129;1 A
12.4064239686768;-0.49981689453125;-0.00351562499999999;1.28999999674306;130;1 A
12.4164239686515;-0.499786376953125;-0.00351562499999999;1.29999999671782;131;1 A
12.4264239686263;-0.499786376953125;-0.00351562499999999;1.30999999669257;132;1 A
12.436423968601;-0.499786376953125;-0.00351867675781251;1.31999999666732;133;1 A
12.4464239685758;-0.499755859375;-0.00351867675781251;1.32999999664207;134;1 A
12.4564239685506;-0.49981689453125;-0.00351867675781251;1.33999999661683;135;1 A
12.4664239685253;-0.499786376953125;-0.0035247802734375;1.34999999659158;136;1 A
12.4764239685001;-0.4998779296875;-0.0035125732421875;1.35999999656633;137;1 A
12.4864239684748;-0.499755859375;-0.003521728515625;1.36999999654108;138;1 A
12.4964239684496;-0.499786376953125;-0.003509521484375;1.37999999651583;139;1 A
12.5064239684243;-0.499786376953125;-0.003521728515625;1.38999999649059;140;1 A
12.5164239683991;-0.49981689453125;-0.0035125732421875;1.39999999646534;141;1 A
12.5264239683738;-0.499847412109375;-0.00351867675781251;1.40999999644009;142;1 A
12.5364239683486;-0.499755859375;-0.0035247802734375;1.41999999641484;143;1 A
12.5464239683233;-0.49981689453125;-0.0035247802734375;1.4299999963896;144;1 A
12.5564239682981;-0.499847412109375;-0.00353088378906249;1.43999999636435;145;1 A
12.5664239682728;-0.49981689453125;-0.00353393554687501;1.4499999963391;146;1 A
12.5764239682476;-0.49981689453125;-0.00353088378906249;1.45999999631385;147;1 A
12.5864239682223;-0.499847412109375;-0.0035369873046875;1.46999999628861;148;1 A
12.5964239681971;-0.499847412109375;-0.0035369873046875;1.47999999626336;149;1 A
12.6064239681718;-0.499847412109375;-0.00354919433593751;1.48999999623811;150;1 A
12.6164239681466;-0.4998779296875;-0.0035369873046875;1.49999999621286;151;1 A
12.6264239681213;-0.499786376953125;-0.00353393554687501;1.50999999618762;152;1 A
12.6364239680961;-0.499786376953125;-0.0035369873046875;1.51999999616237;153;1 A
12.6464239680708;-0.499786376953125;-0.00353088378906249;1.52999999613712;154;1 A
12.6564239680456;-0.49981689453125;-0.0035430908203125;1.53999999611187;155;1 A
12.6664239680204;-0.4998779296875;-0.0035400390625;1.54999999608663;156;1 A
12.6764239679951;-0.499847412109375;-0.00353393554687501;1.55999999606138;157;1 A
12.6864239679699;-0.49981689453125;-0.0035430908203125;1.56999999603613;158;1 A
12.6964239679446;-0.49969482421875;-0.0035369873046875;1.57999999601088;159;1 A
12.7064239679194;-0.499847412109375;-0.00354614257812499;1.58999999598564;160;1 A
12.7164239678941;-0.499786376953125;-0.0035369873046875;1.59999999596039;161;1 A
12.7264239678689;-0.499755859375;-0.00353393554687501;1.60999999593514;162;1 A
12.7364239678436;-0.49981689453125;-0.00353393554687501;1.61999999590989;163;1 A
12.7464239678184;-0.499755859375;-0.003521728515625;1.62999999588465;164;1 A
12.7564239677931;-0.499786376953125;-0.00353088378906249;1.6399999958594;165;1 A
12.7664239677679;-0.499786376953125;-0.0035247802734375;1.64999999583415;166;1 A
12.7764239677426;-0.499786376953125;-0.003521728515625;1.6599999958089;167;1 A
12.7864239677174;-0.499786376953125;-0.00352783203125;1.66999999578366;168;1 A
12.7964239676921;-0.499786376953125;-0.00351867675781251;1.67999999575841;169;1 A
12.8064239676669;-0.499755859375;-0.00352783203125;1.68999999573316;170;1 A
12.8164239676416;-0.499847412109375;-0.003521728515625;1.69999999570791;171;1 A
12.8264239676164;-0.499786376953125;-0.00352783203125;1.70999999568267;172;1 A
12.8364239675911;-0.499786376953125;-0.00353393554687501;1.71999999565742;173;1 A
12.8464239675659;-0.499755859375;-0.0035247802734375;1.72999999563217;174;1 A
12.8564239675406;-0.499755859375;-0.0035369873046875;1.73999999560692;175;1 A
12.8664239675154;-0.499786376953125;-0.00353393554687501;1.74999999558167;176;1 A
12.8764239674902;-0.499786376953125;-0.00352783203125;1.75999999555643;177;1 A
12.8864239674649;-0.499847412109375;-0.00353393554687501;1.76999999553118;178;1 A
12.8964239674397;-0.49981689453125;-0.00352783203125;1.77999999550593;179;1 A
12.9064239674144;-0.499786376953125;-0.0035400390625;1.78999999548068;180;1 A
12.9164239673892;-0.499786376953125;-0.00352783203125;1.79999999545544;181;1 A
12.9264239673639;-0.49981689453125;-0.00353088378906249;1.80999999543019;182;1 A
12.9364239673387;-0.49981689453125;-0.0035369873046875;1.81999999540494;183;1 A
12.9464239673134;-0.499786376953125;-0.00353393554687501;1.82999999537969;184;1 A
12.9564239672882;-0.4998779296875;-0.0035400390625;1.83999999535445;185;1 A
12.9664239672629;-0.499755859375;-0.0035369873046875;1.8499999953292;186;1 A
12.9764239672377;-0.49981689453125;-0.00352783203125;1.85999999530395;187;1 A
12.9864239672124;-0.49981689453125;-0.0035369873046875;1.8699999952787;188;1 A
12.9964239671872;-0.499755859375;-0.0035247802734375;1.87999999525346;189;1 A
13.0064239671619;-0.499755859375;-0.0035369873046875;1.88999999522821;190;1 A
13.0164239671367;-0.49981689453125;-0.0035247802734375;1.89999999520296;191;1 A
13.0264239671114;-0.499786376953125;-0.00353088378906249;1.90999999517771;192;1 A
13.0364239670862;-0.499847412109375;-0.00353393554687501;1.91999999515247;193;1 A
13.0464239670609;-0.49981689453125;-0.00353088378906249;1.92999999512722;194;1 A
13.0564239670357;-0.499755859375;-0.0035430908203125;1.93999999510197;195;1 A
13.0664239670105;-0.49981689453125;-0.0035430908203125;1.94999999507672;196;1 A
13.0764239669852;-0.49981689453125;-0.0035400390625;1.95999999505148;197;1 A
13.08642396696;-0.499755859375;-0.00354919433593751;1.96999999502623;198;1 A
13.0964239669347;-0.499786376953125;-0.0035369873046875;1.97999999500098;199;1 A
13.1064239669095;-0.499725341796875;-0.00354919433593751;1.98999999497573;200;1 A
13.1164239668842;-0.499847412109375;-0.0035430908203125;1.99999999495049;201;1 A
13.126423966859;-0.49981689453125;-0.0035430908203125;2.00999999492524;202;1 A
13.1364239668337;-0.499755859375;-0.00354614257812499;2.01999999489999;203;1 A
13.1464239668085;-0.49981689453125;-0.0035552978515625;2.02999999487474;204;1 A
13.1564239667832;-0.499725341796875;-0.00356140136718749;2.0399999948495;205;1 A
13.166423966758;-0.499786376953125;-0.00356140136718749;2.04999999482425;206;1 A
13.1764239667327;-0.499755859375;-0.00356445312500001;2.059999994799;207;1 A
13.1864239667075;-0.499847412109375;-0.00357666015624999;2.06999999477375;208;1 A
13.1964239666822;-0.499755859375;-0.0035675048828125;2.0799999947485;209;1 A
13.206423966657;-0.499755859375;-0.00357666015624999;2.08999999472326;210;1 A
13.2164239666317;-0.499755859375;-0.0035675048828125;2.09999999469801;211;1 A
13.2264239666065;-0.4998779296875;-0.00356445312500001;2.10999999467276;212;1 A
13.2364239665812;-0.499755859375;-0.003570556640625;2.11999999464751;213;1 A
13.246423966556;-0.49981689453125;-0.003558349609375;2.12999999462227;214;1 A
13.2564239665307;-0.499786376953125;-0.0035675048828125;2.13999999459702;215;1 A
13.2664239665055;-0.499755859375;-0.00356140136718749;2.14999999457177;216;1 A
13.2764239664803;-0.49981689453125;-0.0035552978515625;2.15999999454652;217;1 A
13.286423966455;-0.49981689453125;-0.0035552978515625;2.16999999452128;218;1 A
13.2964239664298;-0.499786376953125;-0.00354614257812499;2.17999999449603;219;1 A
13.3064239664045;-0.49981689453125;-0.00355224609375;2.18999999447078;220;1 A
13.3164239663793;-0.49981689453125;-0.00354614257812499;2.19999999444553;221;1 A
13.326423966354;-0.499786376953125;-0.00354614257812499;2.20999999442029;222;1 A
13.3364239663288;-0.499755859375;-0.00355224609375;2.21999999439504;223;1 A
13.3464239663035;-0.499786376953125;-0.0035430908203125;2.22999999436979;224;1 A
13.3564239662783;-0.49981689453125;-0.0035552978515625;2.23999999434454;225;1 A
13.366423966253;-0.499847412109375;-0.0035400390625;2.2499999943193;226;1 A
13.3764239662278;-0.49981689453125;-0.0035400390625;2.25999999429405;227;1 A
13.3864239662025;-0.49981689453125;-0.00355224609375;2.2699999942688;228;1 A
13.3964239661773;-0.499755859375;-0.00354614257812499;2.27999999424355;229;1 A
13.406423966152;-0.499755859375;-0.003558349609375;2.28999999421831;230;1 A
13.4164239661268;-0.499847412109375;-0.00354614257812499;2.29999999419306;231;1 A
13.4264239661015;-0.499786376953125;-0.00355224609375;2.30999999416781;232;1 A
13.4364239660763;-0.49981689453125;-0.00355224609375;2.31999999414256;233;1 A
13.446423966051;-0.499755859375;-0.0035430908203125;2.32999999411732;234;1 A
13.4564239660258;-0.49981689453125;-0.0035552978515625;2.33999999409207;235;1 A
13.4664239660005;-0.49981689453125;-0.0035400390625;2.34999999406682;236;1 A
13.4764239659753;-0.499847412109375;-0.0035369873046875;2.35999999404157;237;1 A
13.4864239659501;-0.499786376953125;-0.0035430908203125;2.36999999401633;238;1 A
13.4964239659248;-0.499786376953125;-0.00353393554687501;2.37999999399108;239;1 A
13.5064239658996;-0.499755859375;-0.00354919433593751;2.38999999396583;240;1 A
13.5164239658743;-0.499786376953125;-0.0035400390625;2.39999999394058;241;1 A
13.5264239658491;-0.499755859375;-0.0035369873046875;2.40999999391533;242;1 A
13.5364239658238;-0.499755859375;-0.0035430908203125;2.41999999389009;243;1 A
13.5464239657986;-0.499786376953125;-0.0035400390625;2.42999999386484;244;1 A
13.5564239657733;-0.499755859375;-0.00354614257812499;2.43999999383959;245;1 A
13.5664239657481;-0.499847412109375;-0.00353393554687501;2.44999999381434;246;1 A
13.5764239657228;-0.499847412109375;-0.00353393554687501;2.4599999937891;247;1 A
13.5864239656976;-0.49981689453125;-0.0035430908203125;2.46999999376385;248;1 A
13.5964239656723;-0.49981689453125;-0.00353088378906249;2.4799999937386;249;1 A
13.6064239656471;-0.499755859375;-0.0035400390625;2.48999999371335;250;1 A
13.6164239656218;-0.49981689453125;-0.00352783203125;2.49999999368811;251;1 A
13.6264239655966;-0.49981689453125;-0.00353393554687501;2.50999999366286;252;1 A
13.6364239655713;-0.499786376953125;-0.00353393554687501;2.51999999363761;253;1 A
13.6464239655461;-0.49981689453125;-0.00353393554687501;2.52999999361236;254;1 A
13.6564239655208;-0.499755859375;-0.0035400390625;2.53999999358712;255;1 A
13.6664239654956;-0.499786376953125;-0.00353393554687501;2.54999999356187;256;1 A
13.6764239654703;-0.499786376953125;-0.00353088378906249;2.55999999353662;257;1 A
13.6864239654451;-0.49981689453125;-0.00353393554687501;2.56999999351137;258;1 A
13.6964239654199;-0.49981689453125;-0.003521728515625;2.57999999348613;259;1 A
13.7064239653946;-0.499786376953125;-0.00353088378906249;2.58999999346088;260;1 A
13.7164239653694;-0.499847412109375;-0.00352783203125;2.59999999343563;261;1 A
13.7264239653441;-0.49981689453125;-0.00352783203125;2.60999999341038;262;1 A
13.7364239653189;-0.499755859375;-0.0035247802734375;2.61999999338514;263;1 A
13.7464239652936;-0.49981689453125;-0.0035247802734375;2.62999999335989;264;1 A
13.7564239652684;-0.499755859375;-0.003521728515625;2.63999999333464;265;1 A
13.7664239652431;-0.499786376953125;-0.00351562499999999;2.64999999330939;266;1 A
13.7764239652179;-0.49981689453125;-0.00351562499999999;2.65999999328415;267;1 A
13.7864239651926;-0.499847412109375;-0.003521728515625;2.6699999932589;268;1 A
13.7964239651674;-0.499755859375;-0.00351867675781251;2.67999999323365;269;1 A
13.8064239651421;-0.499786376953125;-0.0035247802734375;2.6899999932084;270;1 A
13.8164239651169;-0.499847412109375;-0.00351867675781251;2.69999999318316;271;1 A
13.8264239650916;-0.499786376953125;-0.0035125732421875;2.70999999315791;272;1 A
13.8364239650664;-0.49981689453125;-0.00351867675781251;2.71999999313266;273;1 A
13.8464239650411;-0.499786376953125;-0.003509521484375;2.72999999310741;274;1 A
13.8564239650159;-0.499786376953125;-0.00351867675781251;2.73999999308217;275;1 A
13.8664239649906;-0.499755859375;-0.0035125732421875;2.74999999305692;276;1 A
13.8764239649654;-0.499786376953125;-0.0035064697265625;2.75999999303167;277;1 A
13.8864239649401;-0.49981689453125;-0.003509521484375;2.76999999300642;278;1 A
13.8964239649149;-0.499847412109375;-0.003509521484375;2.77999999298117;279;1 A
13.9064239648897;-0.49981689453125;-0.00351867675781251;2.78999999295593;280;1 A
13.9164239648644;-0.499786376953125;-0.003509521484375;2.79999999293068;281;1 A
13.9264239648392;-0.49981689453125;-0.003509521484375;2.80999999290543;282;1 A
13.9364239648139;-0.499786376953125;-0.0035125732421875;2.81999999288018;283;1 A
13.9464239647887;-0.499786376953125;-0.0035064697265625;2.82999999285494;284;1 A
13.9564239647634;-0.49969482421875;-0.0035125732421875;2.83999999282969;285;1 A
13.9664239647382;-0.499786376953125;-0.00350341796875001;2.84999999280444;286;1 A
13.9764239647129;-0.499847412109375;-0.00350036621093749;2.85999999277919;287;1 A
13.9864239646877;-0.49981689453125;-0.003509521484375;2.86999999275395;288;1 A
13.9964239646624;-0.49981689453125;-0.00350036621093749;2.8799999927287;289;1 A
14.0064239646372;-0.499755859375;-0.0035125732421875;2.88999999270345;290;1 A
14.0164239646119;-0.499786376953125;-0.00350036621093749;2.8999999926782;291;1 A
14.0264239645867;-0.49981689453125;-0.003509521484375;2.90999999265296;292;1 A
14.0364239645614;-0.499786376953125;-0.003509521484375;2.91999999262771;293;1 A
14.0464239645362;-0.499786376953125;-0.00350036621093749;2.92999999260246;294;1 A
14.0564239645109;-0.499847412109375;-0.0035064697265625;2.93999999257721;295;1 A
14.0664239644857;-0.49981689453125;-0.00350036621093749;2.94999999255197;296;1 A
14.0764239644604;-0.499786376953125;-0.003497314453125;2.95999999252672;297;1 A
14.0864239644352;-0.49981689453125;-0.00350036621093749;2.96999999250147;298;1 A
14.09642396441;-0.499755859375;-0.0034942626953125;2.97999999247622;299;1 A
14.1064239643847;-0.49981689453125;-0.00350036621093749;2.98999999245098;300;1 A
14.1164239643595;-0.499755859375;-0.00348815917968751;2.99999999242573;301;1 A
14.1264239643342;-0.49981689453125;-0.0034912109375;3.00999999240048;302;1 A
14.136423964309;-0.49981689453125;-0.003497314453125;3.01999999237523;303;1 A
14.1464239642837;-0.49981689453125;-0.0034942626953125;3.02999999234999;304;1 A
14.1564239642585;-0.49981689453125;-0.003497314453125;3.03999999232474;305;1 A
14.1664239642332;-0.499786376953125;-0.0034912109375;3.04999999229949;306;1 A
14.176423964208;-0.499847412109375;-0.0034912109375;3.05999999227424;307;1 A
14.1864239641827;-0.499786376953125;-0.0034942626953125;3.069999992249;308;1 A
14.1964239641575;-0.499786376953125;-0.00348510742187499;3.07999999222375;309;1 A
14.2064239641322;-0.499847412109375;-0.0034912109375;3.0899999921985;310;1 A
14.216423964107;-0.499847412109375;-0.00348510742187499;3.09999999217325;311;1 A
14.2264239640817;-0.499847412109375;-0.0034942626953125;3.109999992148;312;1 A
14.2364239640565;-0.499755859375;-0.0034942626953125;3.11999999212276;313;1 A
14.2464239640312;-0.499847412109375;-0.00348815917968751;3.12999999209751;314;1 A
14.256423964006;-0.499725341796875;-0.0034942626953125;3.13999999207226;315;1 A
14.2664239639807;-0.49981689453125;-0.00348815917968751;3.14999999204701;316;1 A
14.2764239639555;-0.499786376953125;-0.0034820556640625;3.15999999202177;317;1 A
14.2864239639302;-0.499847412109375;-0.0034912109375;3.16999999199652;318;1 A
14.296423963905;-0.49981689453125;-0.00348510742187499;3.17999999197127;319;1 A
14.3064239638798;-0.49981689453125;-0.0034912109375;3.18999999194602;320;1 A
14.3164239638545;-0.499786376953125;-0.00348510742187499;3.19999999192078;321;1 A
14.3264239638293;-0.499786376953125;-0.00348815917968751;3.20999999189553;322;1 A
14.336423963804;-0.49981689453125;-0.003497314453125;3.21999999187028;323;1 A
14.3464239637788;-0.49981689453125;-0.0034942626953125;3.22999999184503;324;1 A
14.3564239637535;-0.49981689453125;-0.003497314453125;3.23999999181979;325;1 A
14.3664239637283;-0.499755859375;-0.0034912109375;3.24999999179454;326;1 A
14.376423963703;-0.499847412109375;-0.0034942626953125;3.25999999176929;327;1 A
14.3864239636778;-0.49981689453125;-0.00350341796875001;3.26999999174404;328;1 A
14.3964239636525;-0.49981689453125;-0.003497314453125;3.2799999917188;329;1 A
14.4064239636273;-0.499786376953125;-0.00350341796875001;3.28999999169355;330;1 A
14.416423963602;-0.49981689453125;-0.003497314453125;3.2999999916683;331;1 A
14.4264239635768;-0.499755859375;-0.003497314453125;3.30999999164305;332;1 A
14.4364239635515;-0.49981689453125;-0.00350341796875001;3.31999999161781;333;1 A
14.4464239635263;-0.49981689453125;-0.0034942626953125;3.32999999159256;334;1 A
14.456423963501;-0.499755859375;-0.00350036621093749;3.33999999156731;335;1 A
14.4664239634758;-0.499786376953125;-0.0034942626953125;3.34999999154206;336;1 A
14.4764239634505;-0.499786376953125;-0.00348815917968751;3.35999999151682;337;1 A
14.4864239634253;-0.499847412109375;-0.003497314453125;3.36999999149157;338;1 A
14.4964239634;-0.4998779296875;-0.00348815917968751;3.37999999146632;339;1 A
14.5064239633748;-0.49981689453125;-0.003497314453125;3.38999999144107;340;1 A
14.5164239633496;-0.499847412109375;-0.00348510742187499;3.39999999141583;341;1 A
14.5264239633243;-0.499786376953125;-0.00348815917968751;3.40999999139058;342;1 A
14.5364239632991;-0.49981689453125;-0.0034942626953125;3.41999999136533;343;1 A
14.5464239632738;-0.499847412109375;-0.00348510742187499;3.42999999134008;344;1 A
14.5564239632486;-0.499755859375;-0.003497314453125;3.43999999131483;345;1 A
14.5664239632233;-0.49981689453125;-0.00348815917968751;3.44999999128959;346;1 A
14.5764239631981;-0.499847412109375;-0.0034912109375;3.45999999126434;347;1 A
14.5864239631728;-0.499786376953125;-0.00350036621093749;3.46999999123909;348;1 A
14.5964239631476;-0.49981689453125;-0.0034912109375;3.47999999121384;349;1 A
14.6064239631223;-0.499755859375;-0.00350341796875001;3.4899999911886;350;1 A
14.6164239630971;-0.49981689453125;-0.0034912109375;3.49999999116335;351;1 A
14.6264239630718;-0.4998779296875;-0.0034942626953125;3.5099999911381;352;1 A
14.6364239630466;-0.499755859375;-0.003497314453125;3.51999999111285;353;1 A
14.6464239630213;-0.499786376953125;-0.003497314453125;3.52999999108761;354;1 A
14.6564239629961;-0.499725341796875;-0.00350036621093749;3.53999999106236;355;1 A
14.6664239629708;-0.49981689453125;-0.003497314453125;3.54999999103711;356;1 A
14.6764239629456;-0.499847412109375;-0.00350036621093749;3.55999999101186;357;1 A
14.6864239629203;-0.499786376953125;-0.00350036621093749;3.56999999098662;358;1 A
14.6964239628951;-0.49981689453125;-0.00350036621093749;3.57999999096137;359;1 A
14.7064239628698;-0.499786376953125;-0.0035125732421875;3.58999999093612;360;1 A
14.7164239628446;-0.49981689453125;-0.0034942626953125;3.59999999091087;361;1 A
14.7264239628194;-0.49981689453125;-0.00350036621093749;3.60999999088563;362;1 A
14.7364239627941;-0.49981689453125;-0.00350341796875001;3.61999999086038;363;1 A
14.7464239627689;-0.499847412109375;-0.00350341796875001;3.62999999083513;364;1 A
14.7564239627436;-0.499755859375;-0.0035064697265625;3.63999999080988;365;1 A
14.7664239627184;-0.49981689453125;-0.003497314453125;3.64999999078464;366;1 A
14.7764239626931;-0.499755859375;-0.00350341796875001;3.65999999075939;367;1 A
14.7864239626679;-0.49981689453125;-0.0035064697265625;3.66999999073414;368;1 A
14.7964239626426;-0.499786376953125;-0.00350036621093749;3.67999999070889;369;1 A
14.8064239626174;-0.499786376953125;-0.00350341796875001;3.68999999068365;370;1 A
14.8164239625921;-0.49981689453125;-0.0034942626953125;3.6999999906584;371;1 A
14.8264239625669;-0.499755859375;-0.003497314453125;3.70999999063315;372;1 A
14.8364239625416;-0.499786376953125;-0.0034942626953125;3.7199999906079;373;1 A
14.8464239625164;-0.49981689453125;-0.0034912109375;3.72999999058266;374;1 A
14.8564239624911;-0.49981689453125;-0.003497314453125;3.73999999055741;375;1 A
14.8664239624659;-0.499755859375;-0.00348510742187499;3.74999999053216;376;1 A
14.8764239624406;-0.49993896484375;-0.0034820556640625;3.75999999050691;377;1 A
14.8864239624154;-0.49981689453125;-0.0034912109375;3.76999999048167;378;1 A
14.8964239623901;-0.499755859375;-0.00348510742187499;3.77999999045642;379;1 A
14.9064239623649;-0.49981689453125;-0.0034912109375;3.78999999043117;380;1 A
14.9164239623396;-0.499755859375;-0.0034820556640625;3.79999999040592;381;1 A
14.9264239623144;-0.49981689453125;-0.0034820556640625;3.80999999038067;382;1 A
14.9364239622892;-0.499847412109375;-0.00348510742187499;3.81999999035543;383;1 A
14.9464239622639;-0.499786376953125;-0.00348815917968751;3.82999999033018;384;1 A
14.9564239622387;-0.49981689453125;-0.0034912109375;3.83999999030493;385;1 A
14.9664239622134;-0.499847412109375;-0.00348815917968751;3.84999999027968;386;1 A
14.9764239621882;-0.49981689453125;-0.00348815917968751;3.85999999025444;387;1 A
14.9864239621629;-0.499755859375;-0.00350036621093749;3.86999999022919;388;1 A
14.9964239621377;-0.499847412109375;-0.0034942626953125;3.87999999020394;389;1 A
15.0064239621124;-0.499847412109375;-0.0035064697265625;3.88999999017869;390;1 A
15.0164239620872;-0.499755859375;-0.00350036621093749;3.89999999015345;391;1 A
15.0264239620619;-0.49981689453125;-0.00350341796875001;3.9099999901282;392;1 A
15.0364239620367;-0.499786376953125;-0.0035125732421875;3.91999999010295;393;1 A
15.0464239620114;-0.499786376953125;-0.0035064697265625;3.9299999900777;394;1 A
15.0564239619862;-0.499755859375;-0.003521728515625;3.93999999005246;395;1 A
15.0664239619609;-0.499786376953125;-0.003521728515625;3.94999999002721;396;1 A
15.0764239619357;-0.499755859375;-0.003521728515625;3.95999999000196;397;1 A
15.0864239619104;-0.499847412109375;-0.00353393554687501;3.96999998997671;398;1 A
15.0964239618852;-0.499786376953125;-0.00353393554687501;3.97999998995147;399;1 A
15.1064239618599;-0.499786376953125;-0.0035430908203125;3.98999998992622;400;1 A
15.1164239618347;-0.49981689453125;-0.00353088378906249;3.99999998990097;401;1 A
15.1264239618095;-0.499786376953125;-0.0035400390625;4.00999998987572;402;1 A
15.1364239617842;-0.499847412109375;-0.0035430908203125;4.01999998985048;403;1 A
15.146423961759;-0.4998779296875;-0.0035369873046875;4.02999998982523;404;1 A
15.1564239617337;-0.499786376953125;-0.00354614257812499;4.03999998979998;405;1 A
15.1664239617085;-0.499847412109375;-0.00353393554687501;4.04999998977473;406;1 A
15.1764239616832;-0.499847412109375;-0.0035400390625;4.05999998974949;407;1 A
15.186423961658;-0.499725341796875;-0.00355224609375;4.06999998972424;408;1 A
15.1964239616327;-0.499786376953125;-0.00354919433593751;4.07999998969899;409;1 A
15.2064239616075;-0.499786376953125;-0.0035552978515625;4.08999998967374;410;1 A
15.2164239615822;-0.499725341796875;-0.00354919433593751;4.0999999896485;411;1 A
15.226423961557;-0.4998779296875;-0.00356140136718749;4.10999998962325;412;1 A
15.2364239615317;-0.499847412109375;-0.00356445312500001;4.119999989598;413;1 A
15.2464239615065;-0.499786376953125;-0.003558349609375;4.12999998957275;414;1 A
15.2564239614812;-0.499786376953125;-0.003570556640625;4.1399999895475;415;1 A
15.266423961456;-0.499786376953125;-0.00356445312500001;4.14999998952226;416;1 A
15.2764239614307;-0.499786376953125;-0.0035736083984375;4.15999998949701;417;1 A
15.2864239614055;-0.499847412109375;-0.00357971191406251;4.16999998947176;418;1 A
15.2964239613802;-0.49981689453125;-0.003570556640625;4.17999998944651;419;1 A
15.306423961355;-0.499786376953125;-0.00357971191406251;4.18999998942127;420;1 A
15.3164239613297;-0.49981689453125;-0.003570556640625;4.19999998939602;421;1 A
15.3264239613045;-0.499847412109375;-0.00357666015624999;4.20999998937077;422;1 A
15.3364239612793;-0.499786376953125;-0.003582763671875;4.21999998934552;423;1 A
15.346423961254;-0.49981689453125;-0.003582763671875;4.22999998932028;424;1 A
15.3564239612288;-0.499755859375;-0.003582763671875;4.23999998929503;425;1 A
15.3664239612035;-0.49981689453125;-0.00357971191406251;4.24999998926978;426;1 A
15.3764239611783;-0.499847412109375;-0.00357971191406251;4.25999998924453;427;1 A
15.386423961153;-0.499786376953125;-0.003582763671875;4.26999998921929;428;1 A
15.3964239611278;-0.49981689453125;-0.00357971191406251;4.27999998919404;429;1 A
15.4064239611025;-0.49981689453125;-0.00357971191406251;4.28999998916879;430;1 A
15.4164239610773;-0.499786376953125;-0.0035736083984375;4.29999998914354;431;1 A
15.426423961052;-0.499847412109375;-0.00357666015624999;4.3099999891183;432;1 A
15.4364239610268;-0.499847412109375;-0.00357666015624999;4.31999998909305;433;1 A
15.4464239610015;-0.4998779296875;-0.003570556640625;4.3299999890678;434;1 A
15.4564239609763;-0.499786376953125;-0.003570556640625;4.33999998904255;435;1 A
15.466423960951;-0.49981689453125;-0.003570556640625;4.34999998901731;436;1 A
15.4764239609258;-0.49981689453125;-0.00356140136718749;4.35999998899206;437;1 A
15.4864239609005;-0.49981689453125;-0.003570556640625;4.36999998896681;438;1 A
15.4964239608753;-0.499786376953125;-0.00356445312500001;4.37999998894156;439;1 A
15.50642396085;-0.49981689453125;-0.0035675048828125;4.38999998891632;440;1 A
15.5164239608248;-0.499725341796875;-0.003558349609375;4.39999998889107;441;1 A
15.5264239607995;-0.49981689453125;-0.003558349609375;4.40999998886582;442;1 A
15.5364239607743;-0.499725341796875;-0.00356445312500001;4.41999998884057;443;1 A
15.5464239607491;-0.49981689453125;-0.003558349609375;4.42999998881533;444;1 A
15.5564239607238;-0.499755859375;-0.0035552978515625;4.43999998879008;445;1 A
15.5664239606986;-0.49981689453125;-0.00355224609375;4.44999998876483;446;1 A
15.5764239606733;-0.499847412109375;-0.0035552978515625;4.45999998873958;447;1 A
15.5864239606481;-0.499755859375;-0.00356140136718749;4.46999998871433;448;1 A
15.5964239606228;-0.499786376953125;-0.00354614257812499;4.47999998868909;449;1 A
15.6064239605976;-0.49981689453125;-0.00355224609375;4.48999998866384;450;1 A
15.6164239605723;-0.499725341796875;-0.00354614257812499;4.49999998863859;451;1 A
15.6264239605471;-0.49981689453125;-0.0035430908203125;4.50999998861334;452;1 A
15.6364239605218;-0.499786376953125;-0.0035430908203125;4.5199999885881;453;1 A
15.6464239604966;-0.499755859375;-0.0035369873046875;4.52999998856285;454;1 A
15.6564239604713;-0.49981689453125;-0.0035369873046875;4.5399999885376;455;1 A
15.6664239604461;-0.499755859375;-0.00353393554687501;4.54999998851235;456;1 A
15.6764239604208;-0.499847412109375;-0.00353088378906249;4.55999998848711;457;1 A
15.6864239603956;-0.499786376953125;-0.00353393554687501;4.56999998846186;458;1 A
15.6964239603703;-0.499847412109375;-0.0035247802734375;4.57999998843661;459;1 A
15.7064239603451;-0.49981689453125;-0.00353393554687501;4.58999998841136;460;1 A
15.7164239603198;-0.499786376953125;-0.0035247802734375;4.59999998838612;461;1 A
15.7264239602946;-0.499786376953125;-0.0035247802734375;4.60999998836087;462;1 A
15.7364239602693;-0.499755859375;-0.00353088378906249;4.61999998833562;463;1 A
15.7464239602441;-0.499847412109375;-0.003521728515625;4.62999998831037;464;1 A
15.7564239602189;-0.499786376953125;-0.0035247802734375;4.63999998828513;465;1 A
15.7664239601936;-0.49981689453125;-0.00351867675781251;4.64999998825988;466;1 A
15.7764239601684;-0.49981689453125;-0.003521728515625;4.65999998823463;467;1 A
15.7864239601431;-0.499847412109375;-0.00352783203125;4.66999998820938;468;1 A
15.7964239601179;-0.49981689453125;-0.003521728515625;4.67999998818414;469;1 A
15.8064239600926;-0.49981689453125;-0.00353393554687501;4.68999998815889;470;1 A
15.8164239600674;-0.499786376953125;-0.003521728515625;4.69999998813364;471;1 A
15.8264239600421;-0.499847412109375;-0.0035369873046875;4.70999998810839;472;1 A
15.8364239600169;-0.49981689453125;-0.00353393554687501;4.71999998808315;473;1 A
15.8464239599916;-0.499786376953125;-0.0035369873046875;4.7299999880579;474;1 A
15.8564239599664;-0.49981689453125;-0.0035430908203125;4.73999998803265;475;1 A
15.8664239599411;-0.49981689453125;-0.00353393554687501;4.7499999880074;476;1 A
15.8764239599159;-0.49981689453125;-0.0035400390625;4.75999998798216;477;1 A
15.8864239598906;-0.499847412109375;-0.00354614257812499;4.76999998795691;478;1 A
15.8964239598654;-0.49981689453125;-0.0035400390625;4.77999998793166;479;1 A
15.9064239598401;-0.499786376953125;-0.00355224609375;4.78999998790641;480;1 A
15.9164239598149;-0.49981689453125;-0.00353088378906249;4.79999998788116;481;1 A
15.9264239597896;-0.499847412109375;-0.0035400390625;4.80999998785592;482;1 A
15.9364239597644;-0.4998779296875;-0.00354614257812499;4.81999998783067;483;1 A
15.9464239597391;-0.49981689453125;-0.00354614257812499;4.82999998780542;484;1 A
15.9564239597139;-0.49981689453125;-0.00354614257812499;4.83999998778017;485;1 A
15.9664239596887;-0.49981689453125;-0.0035369873046875;4.84999998775493;486;1 A
15.9764239596634;-0.499786376953125;-0.0035400390625;4.85999998772968;487;1 A
15.9864239596382;-0.499847412109375;-0.0035400390625;4.86999998770443;488;1 A
15.9964239596129;-0.499755859375;-0.00353393554687501;4.87999998767918;489;1 A
16.0064239595877;-0.499755859375;-0.0035369873046875;4.88999998765394;490;1 A
16.0164239595624;-0.499847412109375;-0.003521728515625;4.89999998762869;491;1 A
16.0264239595372;-0.49981689453125;-0.00353088378906249;4.90999998760344;492;1 A
16.0364239595119;-0.499786376953125;-0.0035247802734375;4.91999998757819;493;1 A
16.0464239594867;-0.499847412109375;-0.003521728515625;4.92999998755295;494;1 A
16.0564239594614;-0.49981689453125;-0.003521728515625;4.9399999875277;495;1 A
16.0664239594362;-0.499755859375;-0.0035125732421875;4.94999998750245;496;1 A
16.0764239594109;-0.499755859375;-0.00351562499999999;4.9599999874772;497;1 A
16.0864239593857;-0.499755859375;-0.003521728515625;4.96999998745196;498;1 A
16.0964239593604;-0.499786376953125;-0.0035125732421875;4.97999998742671;499;1 A
16.1064239593352;-0.499786376953125;-0.00351562499999999;4.98999998740146;500;1 A
16.1164239593099;-0.499755859375;-0.0035064697265625;4.99999998737621;501;1 A
16.1264239592847;-0.49981689453125;-0.003509521484375;5.00999998735097;502;1 A
16.1364239592594;-0.49981689453125;-0.00350341796875001;5.01999998732572;503;1 A
16.1464239592342;-0.499786376953125;-0.00350341796875001;5.02999998730047;504;1 A
16.156423959209;-0.49981689453125;-0.00350341796875001;5.03999998727522;505;1 A
16.1664239591837;-0.499786376953125;-0.0034942626953125;5.04999998724998;506;1 A
16.1764239591585;-0.499725341796875;-0.0034942626953125;5.05999998722473;507;1 A
16.1864239591332;-0.499847412109375;-0.003497314453125;5.06999998719948;508;1 A
16.196423959108;-0.499847412109375;-0.0034820556640625;5.07999998717423;509;1 A
16.2064239590827;-0.499786376953125;-0.00348510742187499;5.08999998714899;510;1 A
16.2164239590575;-0.499847412109375;-0.00346984863281249;5.09999998712374;511;1 A
16.2264239590322;-0.49981689453125;-0.00347290039062501;5.10999998709849;512;1 A
16.236423959007;-0.49981689453125;-0.00346984863281249;5.11999998707324;513;1 A
16.2464239589817;-0.499786376953125;-0.003466796875;5.129999987048;514;1 A
16.2564239589565;-0.49981689453125;-0.00346984863281249;5.13999998702275;515;1 A
16.2664239589312;-0.49981689453125;-0.00345764160156251;5.1499999869975;516;1 A
16.276423958906;-0.49981689453125;-0.00345764160156251;5.15999998697225;517;1 A
16.2864239588807;-0.49981689453125;-0.00345764160156251;5.169999986947;518;1 A
16.2964239588555;-0.4998779296875;-0.00344238281250001;5.17999998692176;519;1 A
16.3064239588302;-0.499786376953125;-0.003448486328125;5.18999998689651;520;1 A
16.316423958805;-0.49981689453125;-0.00343933105468749;5.19999998687126;521;1 A
16.3264239587797;-0.4998779296875;-0.00343933105468749;5.20999998684601;522;1 A
16.3364239587545;-0.499786376953125;-0.00343933105468749;5.21999998682077;523;1 A
16.3464239587292;-0.499786376953125;-0.003436279296875;5.22999998679552;524;1 A
16.356423958704;-0.49981689453125;-0.00344238281250001;5.23999998677027;525;1 A
16.3664239586788;-0.499786376953125;-0.00342712402343751;5.24999998674502;526;1 A
16.3764239586535;-0.499786376953125;-0.0034332275390625;5.25999998671978;527;1 A
16.3864239586283;-0.499786376953125;-0.00343933105468749;5.26999998669453;528;1 A
16.396423958603;-0.499786376953125;-0.00343017578125;5.27999998666928;529;1 A
16.4064239585778;-0.49981689453125;-0.003436279296875;5.28999998664403;530;1 A
16.4164239585525;-0.499847412109375;-0.00342407226562499;5.29999998661879;531;1 A
16.4264239585273;-0.499847412109375;-0.0034332275390625;5.30999998659354;532;1 A
16.436423958502;-0.499786376953125;-0.0034332275390625;5.31999998656829;533;1 A
16.4464239584768;-0.49981689453125;-0.00342407226562499;5.32999998654304;534;1 A
16.4564239584515;-0.499786376953125;-0.00342712402343751;5.3399999865178;535;1 A
16.4664239584263;-0.49981689453125;-0.00341796875;5.34999998649255;536;1 A
16.476423958401;-0.499786376953125;-0.00342407226562499;5.3599999864673;537;1 A
16.4864239583758;-0.49981689453125;-0.00343017578125;5.36999998644205;538;1 A
16.4964239583505;-0.499786376953125;-0.0034210205078125;5.37999998641681;539;1 A
16.5064239583253;-0.49981689453125;-0.0034332275390625;5.38999998639156;540;1 A
16.5164239583;-0.49981689453125;-0.00341796875;5.39999998636631;541;1 A
16.5264239582748;-0.499786376953125;-0.00342407226562499;5.40999998634106;542;1 A
16.5364239582495;-0.49981689453125;-0.00342407226562499;5.41999998631582;543;1 A
16.5464239582243;-0.49981689453125;-0.00342407226562499;5.42999998629057;544;1 A
16.556423958199;-0.49981689453125;-0.00342712402343751;5.43999998626532;545;1 A
16.5664239581738;-0.49981689453125;-0.00341796875;5.44999998624007;546;1 A
16.5764239581486;-0.49981689453125;-0.00342407226562499;5.45999998621483;547;1 A
16.5864239581233;-0.49981689453125;-0.00342407226562499;5.46999998618958;548;1 A
16.5964239580981;-0.499786376953125;-0.0034149169921875;5.47999998616433;549;1 A
16.6064239580728;-0.499755859375;-0.00341796875;5.48999998613908;550;1 A
16.6164239580476;-0.49981689453125;-0.00340881347656249;5.49999998611383;551;1 A
16.6264239580223;-0.499786376953125;-0.0034210205078125;5.50999998608859;552;1 A
16.6364239579971;-0.49981689453125;-0.00341796875;5.51999998606334;553;1 A
16.6464239579718;-0.49981689453125;-0.00341186523437501;5.52999998603809;554;1 A
16.6564239579466;-0.49981689453125;-0.0034149169921875;5.53999998601284;555;1 A
16.6664239579213;-0.499755859375;-0.00340881347656249;5.5499999859876;556;1 A
16.6764239578961;-0.49981689453125;-0.00340881347656249;5.55999998596235;557;1 A
16.6864239578708;-0.499755859375;-0.003399658203125;5.5699999859371;558;1 A
16.6964239578456;-0.499847412109375;-0.00339355468749999;5.57999998591185;559;1 A
16.7064239578203;-0.499786376953125;-0.00339660644531251;5.58999998588661;560;1 A
16.7164239577951;-0.49981689453125;-0.00338134765625001;5.59999998586136;561;1 A
16.7264239577698;-0.49981689453125;-0.0033843994140625;5.60999998583611;562;1 A
16.7364239577446;-0.499786376953125;-0.0033843994140625;5.61999998581086;563;1 A
16.7464239577193;-0.49981689453125;-0.00337829589843749;5.62999998578562;564;1 A
16.7564239576941;-0.49981689453125;-0.00337829589843749;5.63999998576037;565;1 A
16.7664239576688;-0.499786376953125;-0.0033721923828125;5.64999998573512;566;1 A
16.7764239576436;-0.499786376953125;-0.0033721923828125;5.65999998570987;567;1 A
16.7864239576184;-0.49981689453125;-0.003375244140625;5.66999998568463;568;1 A
16.7964239575931;-0.499755859375;-0.003369140625;5.67999998565938;569;1 A
16.8064239575679;-0.49981689453125;-0.0033721923828125;5.68999998563413;570;1 A
16.8164239575426;-0.49981689453125;-0.00336608886718751;5.69999998560888;571;1 A
16.8264239575174;-0.499755859375;-0.00336608886718751;5.70999998558364;572;1 A
16.8364239574921;-0.49981689453125;-0.00336608886718751;5.71999998555839;573;1 A
16.8464239574669;-0.49981689453125;-0.00336608886718751;5.72999998553314;574;1 A
16.8564239574416;-0.49981689453125;-0.0033721923828125;5.73999998550789;575;1 A
16.8664239574164;-0.49981689453125;-0.00336608886718751;5.74999998548265;576;1 A
16.8764239573911;-0.49981689453125;-0.003369140625;5.7599999854574;577;1 A
16.8864239573659;-0.49981689453125;-0.003375244140625;5.76999998543215;578;1 A
16.8964239573406;-0.499786376953125;-0.0033721923828125;5.7799999854069;579;1 A
16.9064239573154;-0.499755859375;-0.003387451171875;5.78999998538166;580;1 A
16.9164239572901;-0.499847412109375;-0.003375244140625;5.79999998535641;581;1 A
16.9264239572649;-0.499786376953125;-0.003387451171875;5.80999998533116;582;1 A
16.9364239572396;-0.499786376953125;-0.00339355468749999;5.81999998530591;583;1 A
16.9464239572144;-0.499786376953125;-0.00339355468749999;5.82999998528066;584;1 A
16.9564239571891;-0.499786376953125;-0.0034027099609375;5.83999998525542;585;1 A
16.9664239571639;-0.499786376953125;-0.003399658203125;5.84999998523017;586;1 A
16.9764239571386;-0.499847412109375;-0.00340576171875;5.85999998520492;587;1 A
16.9864239571134;-0.499786376953125;-0.00341186523437501;5.86999998517967;588;1 A
16.9964239570882;-0.499847412109375;-0.00340881347656249;5.87999998515443;589;1 A
17.0064239570629;-0.4998779296875;-0.0034210205078125;5.88999998512918;590;1 A
17.0164239570377;-0.49981689453125;-0.0034149169921875;5.89999998510393;591;1 A
17.0264239570124;-0.499847412109375;-0.00343017578125;5.90999998507868;592;1 A
17.0364239569872;-0.499786376953125;-0.00342712402343751;5.91999998505344;593;1 A
17.0464239569619;-0.499786376953125;-0.00342407226562499;5.92999998502819;594;1 A
17.0564239569367;-0.499847412109375;-0.00342712402343751;5.93999998500294;595;1 A
17.0664239569114;-0.499786376953125;-0.00342712402343751;5.94999998497769;596;1 A
17.0764239568862;-0.499755859375;-0.0034332275390625;5.95999998495245;597;1 A
17.0864239568609;-0.499847412109375;-0.00344238281250001;5.9699999849272;598;1 A
17.0964239568357;-0.499847412109375;-0.00343933105468749;5.97999998490195;599;1 A
17.1064239568104;-0.49981689453125;-0.00345458984374999;5.9899999848767;600;1 A
17.1164239567852;-0.499786376953125;-0.00344238281250001;5.99999998485146;601;1 A
17.1264239567599;-0.49981689453125;-0.00345764160156251;6.00999998482621;602;1 A
17.1364239567347;-0.49981689453125;-0.00345764160156251;6.01999998480096;603;1 A
17.1464239567094;-0.499786376953125;-0.003460693359375;6.02999998477571;604;1 A
17.1564239566842;-0.499725341796875;-0.003466796875;6.03999998475047;605;1 A
17.1664239566589;-0.499847412109375;-0.003460693359375;6.04999998472522;606;1 A
17.1764239566337;-0.499725341796875;-0.003466796875;6.05999998469997;607;1 A
17.1864239566085;-0.499786376953125;-0.003466796875;6.06999998467472;608;1 A
17.1964239565832;-0.49981689453125;-0.0034637451171875;6.07999998464948;609;1 A
17.206423956558;-0.49981689453125;-0.00346984863281249;6.08999998462423;610;1 A
17.2164239565327;-0.499847412109375;-0.0034637451171875;6.09999998459898;611;1 A
17.2264239565075;-0.499755859375;-0.0034759521484375;6.10999998457373;612;1 A
17.2364239564822;-0.499786376953125;-0.00347290039062501;6.11999998454849;613;1 A
17.246423956457;-0.499786376953125;-0.0034759521484375;6.12999998452324;614;1 A
17.2564239564317;-0.499786376953125;-0.0034820556640625;6.13999998449799;615;1 A
17.2664239564065;-0.499786376953125;-0.0034820556640625;6.14999998447274;616;1 A
17.2764239563812;-0.499786376953125;-0.00348815917968751;6.1599999844475;617;1 A
17.286423956356;-0.499786376953125;-0.0034912109375;6.16999998442225;618;1 A
17.2964239563307;-0.499786376953125;-0.00348815917968751;6.179999984397;619;1 A
17.3064239563055;-0.49981689453125;-0.003497314453125;6.18999998437175;620;1 A
17.3164239562802;-0.49981689453125;-0.0034912109375;6.1999999843465;621;1 A
17.326423956255;-0.49981689453125;-0.00350036621093749;6.20999998432126;622;1 A
17.3364239562297;-0.49981689453125;-0.00350036621093749;6.21999998429601;623;1 A
17.3464239562045;-0.499755859375;-0.00350341796875001;6.22999998427076;624;1 A
17.3564239561792;-0.499755859375;-0.003509521484375;6.23999998424551;625;1 A
17.366423956154;-0.499786376953125;-0.00350341796875001;6.24999998422027;626;1 A
17.3764239561287;-0.499786376953125;-0.003509521484375;6.25999998419502;627;1 A
17.3864239561035;-0.49981689453125;-0.0035125732421875;6.26999998416977;628;1 A
17.3964239560783;-0.499847412109375;-0.003509521484375;6.27999998414452;629;1 A
17.406423956053;-0.49981689453125;-0.0035125732421875;6.28999998411928;630;1 A
17.4164239560278;-0.49981689453125;-0.0035064697265625;6.29999998409403;631;1 A
17.4264239560025;-0.49981689453125;-0.00351562499999999;6.30999998406878;632;1 A
17.4364239559773;-0.49981689453125;-0.0035125732421875;6.31999998404353;633;1 A
17.446423955952;-0.49981689453125;-0.003509521484375;6.32999998401829;634;1 A
17.4564239559268;-0.499755859375;-0.0035125732421875;6.33999998399304;635;1 A
17.4664239559015;-0.499847412109375;-0.0035064697265625;6.34999998396779;636;1 A
17.4764239558763;-0.49981689453125;-0.0035125732421875;6.35999998394254;637;1 A
17.486423955851;-0.499786376953125;-0.003509521484375;6.3699999839173;638;1 A
17.4964239558258;-0.49981689453125;-0.00350341796875001;6.37999998389205;639;1 A
17.5064239558005;-0.499786376953125;-0.0035125732421875;6.3899999838668;640;1 A
17.5164239557753;-0.499786376953125;-0.00350341796875001;6.39999998384155;641;1 A
17.52642395575;-0.49981689453125;-0.00351562499999999;6.40999998381631;642;1 A
17.5364239557248;-0.499847412109375;-0.0035125732421875;6.41999998379106;643;1 A
17.5464239556995;-0.499755859375;-0.00350341796875001;6.42999998376581;644;1 A
17.5564239556743;-0.499847412109375;-0.0035064697265625;6.43999998374056;645;1 A
17.566423955649;-0.499786376953125;-0.0034912109375;6.44999998371532;646;1 A
17.5764239556238;-0.499786376953125;-0.0034912109375;6.45999998369007;647;1 A
17.5864239555985;-0.499755859375;-0.0034912109375;6.46999998366482;648;1 A
17.5964239555733;-0.499786376953125;-0.0034759521484375;6.47999998363957;649;1 A
17.6064239555481;-0.499725341796875;-0.00347900390625;6.48999998361433;650;1 A
17.6164239555228;-0.499786376953125;-0.003466796875;6.49999998358908;651;1 A
17.6264239554976;-0.49981689453125;-0.00346984863281249;6.50999998356383;652;1 A
17.6364239554723;-0.499786376953125;-0.00345764160156251;6.51999998353858;653;1 A
17.6464239554471;-0.499786376953125;-0.0034515380859375;6.52999998351333;654;1 A
17.6564239554218;-0.49981689453125;-0.003448486328125;6.53999998348809;655;1 A
17.6664239553966;-0.49981689453125;-0.003436279296875;6.54999998346284;656;1 A
17.6764239553713;-0.49981689453125;-0.00343933105468749;6.55999998343759;657;1 A
17.6864239553461;-0.499847412109375;-0.00343017578125;6.56999998341234;658;1 A
17.6964239553208;-0.499725341796875;-0.00341796875;6.5799999833871;659;1 A
17.7064239552956;-0.499786376953125;-0.00342407226562499;6.58999998336185;660;1 A
17.7164239552703;-0.49981689453125;-0.00340576171875;6.5999999833366;661;1 A
17.7264239552451;-0.499847412109375;-0.00340881347656249;6.60999998331135;662;1 A
17.7364239552198;-0.499755859375;-0.00340576171875;6.61999998328611;663;1 A
17.7464239551946;-0.499847412109375;-0.00339660644531251;6.62999998326086;664;1 A
17.7564239551693;-0.49981689453125;-0.00339660644531251;6.63999998323561;665;1 A
17.7664239551441;-0.49981689453125;-0.003387451171875;6.64999998321036;666;1 A
17.7764239551188;-0.499786376953125;-0.00339355468749999;6.65999998318512;667;1 A
17.7864239550936;-0.4998779296875;-0.003387451171875;6.66999998315987;668;1 A
17.7964239550683;-0.499755859375;-0.00338134765625001;6.67999998313462;669;1 A
17.8064239550431;-0.499755859375;-0.0033843994140625;6.68999998310937;670;1 A
17.8164239550179;-0.499847412109375;-0.0033721923828125;6.69999998308413;671;1 A
17.8264239549926;-0.49981689453125;-0.00338134765625001;6.70999998305888;672;1 A
17.8364239549674;-0.499847412109375;-0.0033721923828125;6.71999998303363;673;1 A
17.8464239549421;-0.49981689453125;-0.00336608886718751;6.72999998300838;674;1 A
17.8564239549169;-0.499786376953125;-0.003369140625;6.73999998298314;675;1 A
17.8664239548916;-0.499847412109375;-0.00335693359375;6.74999998295789;676;1 A
17.8764239548664;-0.499786376953125;-0.00335693359375;6.75999998293264;677;1 A
17.8864239548411;-0.49981689453125;-0.00335693359375;6.76999998290739;678;1 A
17.8964239548159;-0.49981689453125;-0.0033538818359375;6.77999998288215;679;1 A
17.9064239547906;-0.499786376953125;-0.0033538818359375;6.7899999828569;680;1 A
17.9164239547654;-0.49981689453125;-0.00335083007812501;6.79999998283165;681;1 A
17.9264239547401;-0.499847412109375;-0.00336303710937499;6.8099999828064;682;1 A
17.9364239547149;-0.499755859375;-0.0033599853515625;6.81999998278116;683;1 A
17.9464239546896;-0.49981689453125;-0.00335693359375;6.82999998275591;684;1 A
17.9564239546644;-0.499847412109375;-0.0033599853515625;6.83999998273066;685;1 A
17.9664239546391;-0.499786376953125;-0.0033538818359375;6.84999998270541;686;1 A
17.9764239546139;-0.499786376953125;-0.00336303710937499;6.85999998268016;687;1 A
17.9864239545886;-0.499786376953125;-0.00336303710937499;6.86999998265492;688;1 A
17.9964239545634;-0.49981689453125;-0.00335083007812501;6.87999998262967;689;1 A
18.0064239545381;-0.499786376953125;-0.0033538818359375;6.88999998260442;690;1 A
18.0164239545129;-0.499755859375;-0.0033447265625;6.89999998257917;691;1 A
18.0264239544877;-0.499786376953125;-0.00335083007812501;6.90999998255393;692;1 A
18.0364239544624;-0.49981689453125;-0.00335083007812501;6.91999998252868;693;1 A
18.0464239544372;-0.499755859375;-0.0033416748046875;6.92999998250343;694;1 A
18.0564239544119;-0.499786376953125;-0.0033447265625;6.93999998247818;695;1 A
18.0664239543867;-0.49981689453125;-0.003338623046875;6.94999998245294;696;1 A
18.0764239543614;-0.499786376953125;-0.003338623046875;6.95999998242769;697;1 A
18.0864239543362;-0.499786376953125;-0.00333557128906251;6.96999998240244;698;1 A
18.0964239543109;-0.499847412109375;-0.003326416015625;6.97999998237719;699;1 A
18.1064239542857;-0.499786376953125;-0.003338623046875;6.98999998235195;700;1 A
18.1164239542604;-0.499786376953125;-0.00332031250000001;6.9999999823267;701;1 A
18.1264239542352;-0.499755859375;-0.003326416015625;7.00999998230145;702;1 A
18.1364239542099;-0.499847412109375;-0.0033233642578125;7.0199999822762;703;1 A
18.1464239541847;-0.499847412109375;-0.003314208984375;7.02999998225096;704;1 A
18.1564239541594;-0.499847412109375;-0.00331726074218749;7.03999998222571;705;1 A
18.1664239541342;-0.499786376953125;-0.00330810546875;7.04999998220046;706;1 A
18.1764239541089;-0.4998779296875;-0.003314208984375;7.05999998217521;707;1 A
18.1864239540837;-0.499786376953125;-0.003314208984375;7.06999998214997;708;1 A
18.1964239540584;-0.499725341796875;-0.00330505371093751;7.07999998212472;709;1 A
18.2064239540332;-0.499786376953125;-0.0033111572265625;7.08999998209947;710;1 A
18.216423954008;-0.49981689453125;-0.0032989501953125;7.09999998207422;711;1 A
18.2264239539827;-0.499847412109375;-0.0033111572265625;7.10999998204898;712;1 A
18.2364239539575;-0.499786376953125;-0.00330505371093751;7.11999998202373;713;1 A
18.2464239539322;-0.499847412109375;-0.00330200195312499;7.12999998199848;714;1 A
18.256423953907;-0.4998779296875;-0.00330505371093751;7.13999998197323;715;1 A
18.2664239538817;-0.499786376953125;-0.0032958984375;7.14999998194799;716;1 A
18.2764239538565;-0.499847412109375;-0.00330505371093751;7.15999998192274;717;1 A
18.2864239538312;-0.499847412109375;-0.0032989501953125;7.16999998189749;718;1 A
18.296423953806;-0.499786376953125;-0.0032928466796875;7.17999998187224;719;1 A
18.3064239537807;-0.49981689453125;-0.00330200195312499;7.189999981847;720;1 A
18.3164239537555;-0.4998779296875;-0.00328979492187501;7.19999998182175;721;1 A
18.3264239537302;-0.49981689453125;-0.0032989501953125;7.2099999817965;722;1 A
18.336423953705;-0.49981689453125;-0.0032928466796875;7.21999998177125;723;1 A
18.3464239536797;-0.499786376953125;-0.0032928466796875;7.229999981746;724;1 A
18.3564239536545;-0.499786376953125;-0.0032958984375;7.23999998172076;725;1 A
18.3664239536292;-0.4998779296875;-0.00328979492187501;7.24999998169551;726;1 A
18.376423953604;-0.499786376953125;-0.0032928466796875;7.25999998167026;727;1 A
18.3864239535787;-0.499755859375;-0.0032958984375;7.26999998164501;728;1 A
18.3964239535535;-0.499755859375;-0.0032958984375;7.27999998161977;729;1 A
18.4064239535282;-0.499755859375;-0.0032958984375;7.28999998159452;730;1 A
18.416423953503;-0.499786376953125;-0.0032958984375;7.29999998156927;731;1 A
18.4264239534778;-0.49981689453125;-0.00330505371093751;7.30999998154402;732;1 A
18.4364239534525;-0.499786376953125;-0.00330505371093751;7.31999998151878;733;1 A
18.4464239534273;-0.499786376953125;-0.0032989501953125;7.32999998149353;734;1 A
18.456423953402;-0.499847412109375;-0.00330200195312499;7.33999998146828;735;1 A
18.4664239533768;-0.4998779296875;-0.0032989501953125;7.34999998144303;736;1 A
18.4764239533515;-0.499847412109375;-0.00330810546875;7.35999998141779;737;1 A
18.4864239533263;-0.499786376953125;-0.003314208984375;7.36999998139254;738;1 A
18.496423953301;-0.499786376953125;-0.00330810546875;7.37999998136729;739;1 A
18.5064239532758;-0.499847412109375;-0.00331726074218749;7.38999998134204;740;1 A
18.5164239532505;-0.499786376953125;-0.00330810546875;7.3999999813168;741;1 A
18.5264239532253;-0.49981689453125;-0.0033233642578125;7.40999998129155;742;1 A
18.5364239532;-0.499786376953125;-0.00332031250000001;7.4199999812663;743;1 A
18.5464239531748;-0.49981689453125;-0.00331726074218749;7.42999998124105;744;1 A
18.5564239531495;-0.499847412109375;-0.00331726074218749;7.43999998121581;745;1 A
18.5664239531243;-0.499847412109375;-0.003314208984375;7.44999998119056;746;1 A
18.576423953099;-0.49981689453125;-0.00331726074218749;7.45999998116531;747;1 A
18.5864239530738;-0.499786376953125;-0.0033233642578125;7.46999998114006;748;1 A
18.5964239530485;-0.499725341796875;-0.00331726074218749;7.47999998111482;749;1 A
18.6064239530233;-0.499847412109375;-0.003326416015625;7.48999998108957;750;1 A
18.616423952998;-0.499786376953125;-0.00332031250000001;7.49999998106432;751;1 A
18.6264239529728;-0.49981689453125;-0.00333251953124999;7.50999998103907;752;1 A
18.6364239529476;-0.499786376953125;-0.00333251953124999;7.51999998101383;753;1 A
18.6464239529223;-0.499786376953125;-0.00333251953124999;7.52999998098858;754;1 A
18.6564239528971;-0.499786376953125;-0.00333557128906251;7.53999998096333;755;1 A
18.6664239528718;-0.499786376953125;-0.0033294677734375;7.54999998093808;756;1 A
18.6764239528466;-0.499755859375;-0.00333557128906251;7.55999998091283;757;1 A
18.6864239528213;-0.49981689453125;-0.003338623046875;7.56999998088759;758;1 A
18.6964239527961;-0.499755859375;-0.00333557128906251;7.57999998086234;759;1 A
18.7064239527708;-0.499786376953125;-0.003338623046875;7.58999998083709;760;1 A
18.7164239527456;-0.499847412109375;-0.003326416015625;7.59999998081184;761;1 A
18.7264239527203;-0.499847412109375;-0.003338623046875;7.6099999807866;762;1 A
18.7364239526951;-0.49981689453125;-0.00333251953124999;7.61999998076135;763;1 A
18.7464239526698;-0.499786376953125;-0.0033233642578125;7.6299999807361;764;1 A
18.7564239526446;-0.499755859375;-0.0033294677734375;7.63999998071085;765;1 A
18.7664239526193;-0.499847412109375;-0.00331726074218749;7.64999998068561;766;1 A
18.7764239525941;-0.499847412109375;-0.003326416015625;7.65999998066036;767;1 A
18.7864239525688;-0.499786376953125;-0.00333251953124999;7.66999998063511;768;1 A
18.7964239525436;-0.499725341796875;-0.00332031250000001;7.67999998060986;769;1 A
18.8064239525183;-0.499786376953125;-0.003326416015625;7.68999998058462;770;1 A
18.8164239524931;-0.49981689453125;-0.00332031250000001;7.69999998055937;771;1 A
18.8264239524678;-0.4998779296875;-0.0033294677734375;7.70999998053412;772;1 A
18.8364239524426;-0.499786376953125;-0.0033294677734375;7.71999998050887;773;1 A
18.8464239524174;-0.49981689453125;-0.00332031250000001;7.72999998048363;774;1 A
18.8564239523921;-0.49981689453125;-0.0033233642578125;7.73999998045838;775;1 A
18.8664239523669;-0.49981689453125;-0.00331726074218749;7.74999998043313;776;1 A
18.8764239523416;-0.49981689453125;-0.003326416015625;7.75999998040788;777;1 A
18.8864239523164;-0.499786376953125;-0.0033294677734375;7.76999998038264;778;1 A
18.8964239522911;-0.499725341796875;-0.003326416015625;7.77999998035739;779;1 A
18.9064239522659;-0.499786376953125;-0.00333557128906251;7.78999998033214;780;1 A
18.9164239522406;-0.499786376953125;-0.003326416015625;7.79999998030689;781;1 A
18.9264239522154;-0.4998779296875;-0.003338623046875;7.80999998028165;782;1 A
18.9364239521901;-0.499755859375;-0.00333557128906251;7.8199999802564;783;1 A
18.9464239521649;-0.499786376953125;-0.003338623046875;7.82999998023115;784;1 A
18.9564239521396;-0.49981689453125;-0.003338623046875;7.8399999802059;785;1 A
18.9664239521144;-0.49981689453125;-0.003338623046875;7.84999998018066;786;1 A
18.9764239520891;-0.49981689453125;-0.0033447265625;7.85999998015541;787;1 A
18.9864239520639;-0.499847412109375;-0.0033447265625;7.86999998013016;788;1 A
18.9964239520386;-0.49981689453125;-0.0033416748046875;7.87999998010491;789;1 A
19.0064239520134;-0.499847412109375;-0.00335083007812501;7.88999998007966;790;1 A
19.0164239519881;-0.49981689453125;-0.00335083007812501;7.89999998005442;791;1 A
19.0264239519629;-0.499847412109375;-0.00336608886718751;7.90999998002917;792;1 A
19.0364239519376;-0.499786376953125;-0.00336303710937499;7.91999998000392;793;1 A
19.0464239519124;-0.499786376953125;-0.00336608886718751;7.92999997997867;794;1 A
19.0564239518872;-0.499786376953125;-0.00336608886718751;7.93999997995343;795;1 A
19.0664239518619;-0.499786376953125;-0.003369140625;7.94999997992818;796;1 A
19.0764239518367;-0.499786376953125;-0.00337829589843749;7.95999997990293;797;1 A
19.0864239518114;-0.49981689453125;-0.0033843994140625;7.96999997987768;798;1 A
19.0964239517862;-0.499755859375;-0.00338134765625001;7.97999997985244;799;1 A
19.1064239517609;-0.499786376953125;-0.003387451171875;7.98999997982719;800;1 A
19.1164239517357;-0.49981689453125;-0.003387451171875;7.99999997980194;801;1 A
19.1264239517104;-0.49981689453125;-0.00340576171875;8.00999997977669;802;1 A
19.1364239516852;-0.499786376953125;-0.00340881347656249;8.01999997975145;803;1 A
19.1464239516599;-0.499786376953125;-0.00341796875;8.0299999797262;804;1 A
19.1564239516347;-0.499725341796875;-0.00342712402343751;8.03999997970095;805;1 A
19.1664239516094;-0.499755859375;-0.00343017578125;8.0499999796757;806;1 A
19.1764239515842;-0.49981689453125;-0.003448486328125;8.05999997965046;807;1 A
19.1864239515589;-0.49981689453125;-0.00345764160156251;8.06999997962521;808;1 A
19.1964239515337;-0.499755859375;-0.003448486328125;8.07999997959996;809;1 A
19.2064239515084;-0.499847412109375;-0.003460693359375;8.08999997957471;810;1 A
19.2164239514832;-0.499847412109375;-0.003460693359375;8.09999997954947;811;1 A
19.2264239514579;-0.499786376953125;-0.00347900390625;8.10999997952422;812;1 A
19.2364239514327;-0.499786376953125;-0.00347900390625;8.11999997949897;813;1 A
19.2464239514075;-0.49981689453125;-0.00348510742187499;8.12999997947372;814;1 A
19.2564239513822;-0.49981689453125;-0.0034942626953125;8.13999997944848;815;1 A
19.266423951357;-0.49981689453125;-0.003497314453125;8.14999997942323;816;1 A
19.2764239513317;-0.499755859375;-0.003509521484375;8.15999997939798;817;1 A
19.2864239513065;-0.49981689453125;-0.0035125732421875;8.16999997937273;818;1 A
19.2964239512812;-0.49981689453125;-0.00351562499999999;8.17999997934749;819;1 A
19.306423951256;-0.49981689453125;-0.00353088378906249;8.18999997932224;820;1 A
19.3164239512307;-0.49981689453125;-0.00352783203125;8.19999997929699;821;1 A
19.3264239512055;-0.499755859375;-0.0035430908203125;8.20999997927174;822;1 A
19.3364239511802;-0.49981689453125;-0.00354614257812499;8.2199999792465;823;1 A
19.346423951155;-0.499725341796875;-0.0035430908203125;8.22999997922125;824;1 A
19.3564239511297;-0.499786376953125;-0.00355224609375;8.239999979196;825;1 A
19.3664239511045;-0.499847412109375;-0.00354919433593751;8.24999997917075;826;1 A
19.3764239510792;-0.49981689453125;-0.003558349609375;8.2599999791455;827;1 A
19.386423951054;-0.499786376953125;-0.00356445312500001;8.26999997912026;828;1 A
19.3964239510287;-0.49981689453125;-0.00356140136718749;8.27999997909501;829;1 A
19.4064239510035;-0.499786376953125;-0.003570556640625;8.28999997906976;830;1 A
19.4164239509782;-0.499847412109375;-0.00356445312500001;8.29999997904451;831;1 A
19.426423950953;-0.499755859375;-0.00357971191406251;8.30999997901927;832;1 A
19.4364239509277;-0.499786376953125;-0.00357666015624999;8.31999997899402;833;1 A
19.4464239509025;-0.49981689453125;-0.00357666015624999;8.32999997896877;834;1 A
19.4564239508773;-0.499847412109375;-0.003582763671875;8.33999997894352;835;1 A
19.466423950852;-0.499786376953125;-0.0035736083984375;8.34999997891828;836;1 A
19.4764239508268;-0.49981689453125;-0.003582763671875;8.35999997889303;837;1 A
19.4864239508015;-0.499786376953125;-0.00357971191406251;8.36999997886778;838;1 A
19.4964239507763;-0.499786376953125;-0.00357666015624999;8.37999997884253;839;1 A
19.506423950751;-0.499786376953125;-0.0035858154296875;8.38999997881729;840;1 A
19.5164239507258;-0.49981689453125;-0.00357666015624999;8.39999997879204;841;1 A
19.5264239507005;-0.499847412109375;-0.0035888671875;8.40999997876679;842;1 A
19.5364239506753;-0.499786376953125;-0.0035858154296875;8.41999997874154;843;1 A
19.54642395065;-0.499725341796875;-0.0035888671875;8.4299999787163;844;1 A
19.5564239506248;-0.49981689453125;-0.00359497070312501;8.43999997869105;845;1 A
19.5664239505995;-0.499755859375;-0.00359191894531249;8.4499999786658;846;1 A
19.5764239505743;-0.499786376953125;-0.00360107421875;8.45999997864055;847;1 A
19.586423950549;-0.499755859375;-0.0035980224609375;8.46999997861531;848;1 A
19.5964239505238;-0.499786376953125;-0.00360107421875;8.47999997859006;849;1 A
19.6064239504985;-0.49981689453125;-0.00360717773437499;8.48999997856481;850;1 A
19.6164239504733;-0.49981689453125;-0.00361022949218751;8.49999997853956;851;1 A
19.626423950448;-0.49981689453125;-0.00362243652343749;8.50999997851432;852;1 A
19.6364239504228;-0.499786376953125;-0.0036163330078125;8.51999997848907;853;1 A
19.6464239503975;-0.49981689453125;-0.0036163330078125;8.52999997846382;854;1 A
19.6564239503723;-0.499755859375;-0.003619384765625;8.53999997843857;855;1 A
19.6664239503471;-0.499786376953125;-0.003619384765625;8.54999997841333;856;1 A
19.6764239503218;-0.499847412109375;-0.003631591796875;8.55999997838808;857;1 A
19.6864239502966;-0.49981689453125;-0.0036285400390625;8.56999997836283;858;1 A
19.6964239502713;-0.49981689453125;-0.00362548828125001;8.57999997833758;859;1 A
19.7064239502461;-0.49981689453125;-0.003631591796875;8.58999997831233;860;1 A
19.7164239502208;-0.49981689453125;-0.003619384765625;8.59999997828709;861;1 A
19.7264239501956;-0.49981689453125;-0.0036285400390625;8.60999997826184;862;1 A
19.7364239501703;-0.49981689453125;-0.003619384765625;8.61999997823659;863;1 A
19.7464239501451;-0.499847412109375;-0.00362548828125001;8.62999997821134;864;1 A
19.7564239501198;-0.499847412109375;-0.003619384765625;8.6399999781861;865;1 A
19.7664239500946;-0.499847412109375;-0.0036163330078125;8.64999997816085;866;1 A
19.7764239500693;-0.49981689453125;-0.003619384765625;8.6599999781356;867;1 A
19.7864239500441;-0.49981689453125;-0.003619384765625;8.66999997811035;868;1 A
19.7964239500188;-0.499847412109375;-0.0036163330078125;8.67999997808511;869;1 A
19.8064239499936;-0.499786376953125;-0.00362243652343749;8.68999997805986;870;1 A
19.8164239499683;-0.49981689453125;-0.0036163330078125;8.69999997803461;871;1 A
19.8264239499431;-0.49981689453125;-0.003631591796875;8.70999997800936;872;1 A
19.8364239499178;-0.499755859375;-0.0036285400390625;8.71999997798412;873;1 A
19.8464239498926;-0.49981689453125;-0.003631591796875;8.72999997795887;874;1 A
19.8564239498673;-0.499847412109375;-0.0036346435546875;8.73999997793362;875;1 A
19.8664239498421;-0.499847412109375;-0.0036346435546875;8.74999997790837;876;1 A
19.8764239498169;-0.499847412109375;-0.00364074707031251;8.75999997788313;877;1 A
19.8864239497916;-0.499786376953125;-0.00364074707031251;8.76999997785788;878;1 A
19.8964239497664;-0.499725341796875;-0.00364074707031251;8.77999997783263;879;1 A
19.9064239497411;-0.49981689453125;-0.0036468505859375;8.78999997780738;880;1 A
19.9164239497159;-0.49981689453125;-0.00364074707031251;8.79999997778214;881;1 A
19.9264239496906;-0.499725341796875;-0.00365600585937501;8.80999997775689;882;1 A
19.9364239496654;-0.49981689453125;-0.003643798828125;8.81999997773164;883;1 A
19.9464239496401;-0.499786376953125;-0.003643798828125;8.82999997770639;884;1 A
19.9564239496149;-0.499755859375;-0.00364990234375;8.83999997768115;885;1 A
19.9664239495896;-0.499847412109375;-0.0036468505859375;8.8499999776559;886;1 A
19.9764239495644;-0.499786376953125;-0.00365295410156249;8.85999997763065;887;1 A
19.9864239495391;-0.49981689453125;-0.00365295410156249;8.8699999776054;888;1 A
19.9964239495139;-0.499755859375;-0.00364990234375;8.87999997758016;889;1 A
20.0064239494886;-0.499786376953125;-0.00365600585937501;8.88999997755491;890;1 A
20.0164239494634;-0.499755859375;-0.00364990234375;8.89999997752966;891;1 A
20.0264239494381;-0.499755859375;-0.0036651611328125;8.90999997750441;892;1 A
20.0364239494129;-0.499786376953125;-0.003662109375;8.91999997747916;893;1 A
20.0464239493876;-0.499786376953125;-0.003662109375;8.92999997745392;894;1 A
20.0564239493624;-0.499847412109375;-0.0036651611328125;8.93999997742867;895;1 A
20.0664239493371;-0.499786376953125;-0.003662109375;8.94999997740342;896;1 A
20.0764239493119;-0.49981689453125;-0.00367126464843751;8.95999997737817;897;1 A
20.0864239492867;-0.499755859375;-0.00366821289062499;8.96999997735293;898;1 A
20.0964239492614;-0.499786376953125;-0.0036651611328125;8.97999997732768;899;1 A
20.1064239492362;-0.49981689453125;-0.00367431640625;8.98999997730243;900;1 A
20.1164239492109;-0.499755859375;-0.0036651611328125;8.99999997727718;901;1 A
20.1264239491857;-0.499786376953125;-0.00367431640625;9.00999997725194;902;1 A
20.1364239491604;-0.49981689453125;-0.00366821289062499;9.01999997722669;903;1 A
20.1464239491352;-0.49981689453125;-0.00366821289062499;9.02999997720144;904;1 A
20.1564239491099;-0.499847412109375;-0.00367126464843751;9.03999997717619;905;1 A
20.1664239490847;-0.499725341796875;-0.0036651611328125;9.04999997715095;906;1 A
20.1764239490594;-0.49981689453125;-0.0036651611328125;9.0599999771257;907;1 A
20.1864239490342;-0.499725341796875;-0.003662109375;9.06999997710045;908;1 A
20.1964239490089;-0.499725341796875;-0.003662109375;9.0799999770752;909;1 A
20.2064239489837;-0.499786376953125;-0.00366821289062499;9.08999997704996;910;1 A
20.2164239489584;-0.499847412109375;-0.0036590576171875;9.09999997702471;911;1 A
20.2264239489332;-0.499847412109375;-0.00367431640625;9.10999997699946;912;1 A
20.2364239489079;-0.499755859375;-0.0036651611328125;9.11999997697421;913;1 A
20.2464239488827;-0.49981689453125;-0.00366821289062499;9.12999997694897;914;1 A
20.2564239488574;-0.499786376953125;-0.00367126464843751;9.13999997692372;915;1 A
20.2664239488322;-0.49981689453125;-0.00367431640625;9.14999997689847;916;1 A
20.276423948807;-0.499755859375;-0.00368652343750001;9.15999997687322;917;1 A
20.2864239487817;-0.499755859375;-0.0036773681640625;9.16999997684798;918;1 A
20.2964239487565;-0.499786376953125;-0.003680419921875;9.17999997682273;919;1 A
20.3064239487312;-0.49981689453125;-0.00368652343750001;9.18999997679748;920;1 A
20.316423948706;-0.499786376953125;-0.0036773681640625;9.19999997677223;921;1 A
20.3264239486807;-0.499755859375;-0.0036895751953125;9.20999997674699;922;1 A
20.3364239486555;-0.499786376953125;-0.00368347167968749;9.21999997672174;923;1 A
20.3464239486302;-0.49981689453125;-0.003692626953125;9.22999997669649;924;1 A
20.356423948605;-0.499847412109375;-0.003692626953125;9.23999997667124;925;1 A
20.3664239485797;-0.49981689453125;-0.00368652343750001;9.249999976646;926;1 A
20.3764239485545;-0.499786376953125;-0.003692626953125;9.25999997662075;927;1 A
20.3864239485292;-0.499755859375;-0.0036895751953125;9.2699999765955;928;1 A
20.396423948504;-0.499847412109375;-0.003680419921875;9.27999997657025;929;1 A
20.4064239484787;-0.499786376953125;-0.003680419921875;9.289999976545;930;1 A
20.4164239484535;-0.49981689453125;-0.00366821289062499;9.29999997651976;931;1 A
20.4264239484282;-0.499786376953125;-0.0036773681640625;9.30999997649451;932;1 A
20.436423948403;-0.499786376953125;-0.00367126464843751;9.31999997646926;933;1 A
20.4464239483777;-0.499786376953125;-0.00366821289062499;9.32999997644401;934;1 A
20.4564239483525;-0.499847412109375;-0.00366821289062499;9.33999997641877;935;1 A
20.4664239483272;-0.499847412109375;-0.00366821289062499;9.34999997639352;936;1 A
20.476423948302;-0.49981689453125;-0.00366821289062499;9.35999997636827;937;1 A
20.4864239482768;-0.49981689453125;-0.00366821289062499;9.36999997634302;938;1 A
20.4964239482515;-0.499847412109375;-0.0036651611328125;9.37999997631778;939;1 A
20.5064239482263;-0.499847412109375;-0.00367126464843751;9.38999997629253;940;1 A
20.516423948201;-0.49981689453125;-0.0036590576171875;9.39999997626728;941;1 A
20.5264239481758;-0.499786376953125;-0.00367126464843751;9.40999997624203;942;1 A
20.5364239481505;-0.499786376953125;-0.00367126464843751;9.41999997621679;943;1 A
20.5464239481253;-0.499847412109375;-0.0036651611328125;9.42999997619154;944;1 A
20.5564239481;-0.499786376953125;-0.00367126464843751;9.43999997616629;945;1 A
20.5664239480748;-0.499786376953125;-0.00366821289062499;9.44999997614104;946;1 A
20.5764239480495;-0.499786376953125;-0.00367431640625;9.4599999761158;947;1 A
20.5864239480243;-0.499847412109375;-0.003680419921875;9.46999997609055;948;1 A
20.596423947999;-0.499786376953125;-0.0036773681640625;9.4799999760653;949;1 A
20.6064239479738;-0.499847412109375;-0.00368347167968749;9.48999997604005;950;1 A
20.6164239479485;-0.499847412109375;-0.00367431640625;9.49999997601481;951;1 A
20.6264239479233;-0.499786376953125;-0.00368347167968749;9.50999997598956;952;1 A
20.636423947898;-0.499755859375;-0.00367431640625;9.51999997596431;953;1 A
20.6464239478728;-0.49981689453125;-0.0036773681640625;9.52999997593906;954;1 A
20.6564239478475;-0.499847412109375;-0.003680419921875;9.53999997591382;955;1 A
20.6664239478223;-0.499847412109375;-0.00367431640625;9.54999997588857;956;1 A
20.676423947797;-0.499786376953125;-0.00368652343750001;9.55999997586332;957;1 A
20.6864239477718;-0.499786376953125;-0.00367431640625;9.56999997583807;958;1 A
20.6964239477466;-0.49981689453125;-0.00367126464843751;9.57999997581283;959;1 A
20.7064239477213;-0.49981689453125;-0.003680419921875;9.58999997578758;960;1 A
20.7164239476961;-0.499847412109375;-0.003662109375;9.59999997576233;961;1 A
20.7264239476708;-0.499847412109375;-0.00366821289062499;9.60999997573708;962;1 A
20.7364239476456;-0.499786376953125;-0.00365600585937501;9.61999997571183;963;1 A
20.7464239476203;-0.49981689453125;-0.00365600585937501;9.62999997568659;964;1 A
20.7564239475951;-0.49981689453125;-0.00364990234375;9.63999997566134;965;1 A
20.7664239475698;-0.499847412109375;-0.00364074707031251;9.64999997563609;966;1 A
20.7764239475446;-0.49981689453125;-0.003643798828125;9.65999997561084;967;1 A
20.7864239475193;-0.49981689453125;-0.003631591796875;9.6699999755856;968;1 A
20.7964239474941;-0.499786376953125;-0.00362548828125001;9.67999997556035;969;1 A
20.8064239474688;-0.49981689453125;-0.00362548828125001;9.6899999755351;970;1 A
20.8164239474436;-0.499755859375;-0.00362243652343749;9.69999997550985;971;1 A
20.8264239474183;-0.499786376953125;-0.0036346435546875;9.70999997548461;972;1 A
20.8364239473931;-0.499847412109375;-0.00362243652343749;9.71999997545936;973;1 A
20.8464239473678;-0.499786376953125;-0.003619384765625;9.72999997543411;974;1 A
20.8564239473426;-0.499847412109375;-0.003619384765625;9.73999997540886;975;1 A
20.8664239473173;-0.499755859375;-0.003619384765625;9.74999997538362;976;1 A
20.8764239472921;-0.499755859375;-0.00362243652343749;9.75999997535837;977;1 A
20.8864239472668;-0.49981689453125;-0.0036163330078125;9.76999997533312;978;1 A
20.8964239472416;-0.49981689453125;-0.00361022949218751;9.77999997530787;979;1 A
20.9064239472164;-0.499847412109375;-0.00361022949218751;9.78999997528263;980;1 A
20.9164239471911;-0.49981689453125;-0.00360107421875;9.79999997525738;981;1 A
20.9264239471659;-0.499755859375;-0.0036041259765625;9.80999997523213;982;1 A
20.9364239471406;-0.499847412109375;-0.0035980224609375;9.81999997520688;983;1 A
20.9464239471154;-0.499847412109375;-0.00359497070312501;9.82999997518164;984;1 A
20.9564239470901;-0.499786376953125;-0.00359191894531249;9.83999997515639;985;1 A
20.9664239470649;-0.499847412109375;-0.0035858154296875;9.84999997513114;986;1 A
20.9764239470396;-0.499786376953125;-0.00359191894531249;9.85999997510589;987;1 A
20.9864239470144;-0.49981689453125;-0.003582763671875;9.86999997508065;988;1 A
20.9964239469891;-0.4998779296875;-0.00357666015624999;9.8799999750554;989;1 A
21.0064239469639;-0.499847412109375;-0.00357666015624999;9.88999997503015;990;1 A
21.0164239469386;-0.499847412109375;-0.00356140136718749;9.8999999750049;991;1 A
21.0264239469134;-0.499786376953125;-0.0035675048828125;9.90999997497966;992;1 A
21.0364239468881;-0.499786376953125;-0.00355224609375;9.91999997495441;993;1 A
21.0464239468629;-0.499847412109375;-0.00354614257812499;9.92999997492916;994;1 A
21.0564239468376;-0.499847412109375;-0.00354614257812499;9.93999997490391;995;1 A
21.0664239468124;-0.49981689453125;-0.0035400390625;9.94999997487866;996;1 A
21.0764239467871;-0.49981689453125;-0.0035400390625;9.95999997485342;997;1 A
21.0864239467619;-0.499755859375;-0.00353393554687501;9.96999997482817;998;1 A
21.0964239467366;-0.499908447265625;-0.00352783203125;9.97999997480292;999;1 A
21.1064239467114;-0.499786376953125;-0.00352783203125;9.98999997477767;1000;1 A
