Time (s);WE(1).Potential (V);WE(1).Current (A);Corrected time (s);Index;Current range
22.0927169442213;-0.599761962890625;-0.00720825195312499;0;1;1 A
22.102716944196;-0.59979248046875;-0.0060272216796875;0.00999999997475243;2;1 A
22.1127169441708;-0.599761962890625;-0.005450439453125;0.0199999999495049;3;1 A
22.1227169441455;-0.599761962890625;-0.00510559082031251;0.0299999999242573;4;1 A
22.1327169441203;-0.599700927734375;-0.0048858642578125;0.0399999998990097;5;1 A
22.142716944095;-0.5997314453125;-0.00470886230468751;0.0499999998737621;6;1 A
22.1527169440698;-0.59979248046875;-0.0046112060546875;0.0599999998485146;7;1 A
22.1627169440445;-0.5997314453125;-0.00449218749999999;0.069999999823267;8;1 A
22.1727169440193;-0.599700927734375;-0.00440673828125;0.0799999997980194;9;1 A
22.182716943994;-0.5997314453125;-0.004351806640625;0.0899999997727718;10;1 A
22.1927169439688;-0.59979248046875;-0.00427856445312499;0.0999999997475243;11;1 A
22.2027169439435;-0.5997314453125;-0.004254150390625;0.109999999722277;12;1 A
22.2127169439183;-0.599761962890625;-0.0042144775390625;0.119999999697029;13;1 A
22.222716943893;-0.599761962890625;-0.0041778564453125;0.129999999671782;14;1 A
22.2327169438678;-0.5997314453125;-0.00415649414062499;0.139999999646534;15;1 A
22.2427169438425;-0.599761962890625;-0.00411376953125001;0.149999999621286;16;1 A
22.2527169438173;-0.599761962890625;-0.00411376953125001;0.159999999596039;17;1 A
22.262716943792;-0.599761962890625;-0.00408325195312501;0.169999999570791;18;1 A
22.2727169437668;-0.599761962890625;-0.0040618896484375;0.179999999545544;19;1 A
22.2827169437415;-0.599761962890625;-0.004046630859375;0.189999999520296;20;1 A
22.2927169437163;-0.5997314453125;-0.00401611328125;0.199999999495049;21;1 A
22.3027169436911;-0.59979248046875;-0.00401916503906249;0.209999999469801;22;1 A
22.3127169436658;-0.59979248046875;-0.0040008544921875;0.219999999444553;23;1 A
22.3227169436406;-0.5997314453125;-0.003985595703125;0.229999999419306;24;1 A
22.3327169436153;-0.599700927734375;-0.0039794921875;0.239999999394058;25;1 A
22.3427169435901;-0.599761962890625;-0.003955078125;0.249999999368811;26;1 A
22.3527169435648;-0.599761962890625;-0.0039642333984375;0.259999999343563;27;1 A
22.3627169435396;-0.59979248046875;-0.0039520263671875;0.269999999318316;28;1 A
22.3727169435143;-0.599761962890625;-0.00394287109374999;0.279999999293068;29;1 A
22.3827169434891;-0.599761962890625;-0.0039398193359375;0.28999999926782;30;1 A
22.3927169434638;-0.599700927734375;-0.00391540527343751;0.299999999242573;31;1 A
22.4027169434386;-0.599761962890625;-0.003924560546875;0.309999999217325;32;1 A
22.4127169434133;-0.599761962890625;-0.0039093017578125;0.319999999192078;33;1 A
22.4227169433881;-0.599700927734375;-0.0039031982421875;0.32999999916683;34;1 A
22.4327169433628;-0.5997314453125;-0.0039031982421875;0.339999999141583;35;1 A
22.4427169433376;-0.5997314453125;-0.00388183593749999;0.349999999116335;36;1 A
22.4527169433123;-0.59979248046875;-0.00389404296875;0.359999999091087;37;1 A
22.4627169432871;-0.599822998046875;-0.0038909912109375;0.36999999906584;38;1 A
22.4727169432618;-0.59979248046875;-0.00388183593749999;0.379999999040592;39;1 A
22.4827169432366;-0.5997314453125;-0.003887939453125;0.389999999015345;40;1 A
22.4927169432113;-0.599761962890625;-0.0038726806640625;0.399999998990097;41;1 A
22.5027169431861;-0.599761962890625;-0.00388488769531251;0.40999999896485;42;1 A
22.5127169431609;-0.5997314453125;-0.00388183593749999;0.419999998939602;43;1 A
22.5227169431356;-0.59979248046875;-0.00386962890625001;0.429999998914354;44;1 A
22.5327169431104;-0.599700927734375;-0.0038726806640625;0.439999998889107;45;1 A
22.5427169430851;-0.59979248046875;-0.003857421875;0.449999998863859;46;1 A
22.5527169430599;-0.5997314453125;-0.00386962890625001;0.459999998838612;47;1 A
22.5627169430346;-0.59979248046875;-0.003863525390625;0.469999998813364;48;1 A
22.5727169430094;-0.5997314453125;-0.0038604736328125;0.479999998788116;49;1 A
22.5827169429841;-0.5997314453125;-0.00386657714843749;0.489999998762869;50;1 A
22.5927169429589;-0.599761962890625;-0.0038482666015625;0.499999998737621;51;1 A
22.6027169429336;-0.599822998046875;-0.00386657714843749;0.509999998712374;52;1 A
22.6127169429084;-0.5997314453125;-0.003857421875;0.519999998687126;53;1 A
22.6227169428831;-0.599761962890625;-0.00383911132812501;0.529999998661879;54;1 A
22.6327169428579;-0.599700927734375;-0.00385437011718751;0.539999998636631;55;1 A
22.6427169428326;-0.59979248046875;-0.003826904296875;0.549999998611383;56;1 A
22.6527169428074;-0.59979248046875;-0.00383605957031249;0.559999998586136;57;1 A
22.6627169427821;-0.599761962890625;-0.00382385253906251;0.569999998560888;58;1 A
22.6727169427569;-0.599761962890625;-0.00380554199218749;0.579999998535641;59;1 A
22.6827169427316;-0.599822998046875;-0.00380554199218749;0.589999998510393;60;1 A
22.6927169427064;-0.599761962890625;-0.00377807617187501;0.599999998485146;61;1 A
22.7027169426811;-0.5997314453125;-0.00379333496093751;0.609999998459898;62;1 A
22.7127169426559;-0.599761962890625;-0.00377807617187501;0.61999999843465;63;1 A
22.7227169426307;-0.5997314453125;-0.00375976562499999;0.629999998409403;64;1 A
22.7327169426054;-0.599761962890625;-0.00375976562499999;0.639999998384155;65;1 A
22.7427169425802;-0.59979248046875;-0.0037353515625;0.649999998358908;66;1 A
22.7527169425549;-0.599761962890625;-0.00374755859375001;0.65999999833366;67;1 A
22.7627169425297;-0.5997314453125;-0.00372314453125;0.669999998308413;68;1 A
22.7727169425044;-0.599761962890625;-0.0037078857421875;0.679999998283165;69;1 A
22.7827169424792;-0.59967041015625;-0.0037078857421875;0.689999998257917;70;1 A
22.7927169424539;-0.59979248046875;-0.0036895751953125;0.69999999823267;71;1 A
22.8027169424287;-0.599761962890625;-0.00369873046874999;0.709999998207422;72;1 A
22.8127169424034;-0.5997314453125;-0.00368652343750001;0.719999998182175;73;1 A
22.8227169423782;-0.599761962890625;-0.00367126464843751;0.729999998156927;74;1 A
22.8327169423529;-0.599700927734375;-0.0036773681640625;0.73999999813168;75;1 A
22.8427169423277;-0.599761962890625;-0.00365295410156249;0.749999998106432;76;1 A
22.8527169423024;-0.599761962890625;-0.00366821289062499;0.759999998081184;77;1 A
22.8627169422772;-0.599761962890625;-0.00364990234375;0.769999998055937;78;1 A
22.8727169422519;-0.599700927734375;-0.0036468505859375;0.779999998030689;79;1 A
22.8827169422267;-0.599700927734375;-0.003643798828125;0.789999998005442;80;1 A
22.8927169422014;-0.599761962890625;-0.0036285400390625;0.799999997980194;81;1 A
22.9027169421762;-0.59979248046875;-0.00364074707031251;0.809999997954947;82;1 A
22.912716942151;-0.599700927734375;-0.0036285400390625;0.819999997929699;83;1 A
22.9227169421257;-0.599761962890625;-0.00362243652343749;0.829999997904451;84;1 A
22.9327169421005;-0.599761962890625;-0.00362243652343749;0.839999997879204;85;1 A
22.9427169420752;-0.5997314453125;-0.0036041259765625;0.849999997853956;86;1 A
22.95271694205;-0.5997314453125;-0.00362243652343749;0.859999997828709;87;1 A
22.9627169420247;-0.599761962890625;-0.00360717773437499;0.869999997803461;88;1 A
22.9727169419995;-0.5997314453125;-0.00359191894531249;0.879999997778214;89;1 A
22.9827169419742;-0.599761962890625;-0.00359497070312501;0.889999997752966;90;1 A
22.992716941949;-0.599700927734375;-0.003582763671875;0.899999997727718;91;1 A
23.0027169419237;-0.59979248046875;-0.003582763671875;0.909999997702471;92;1 A
23.0127169418985;-0.599700927734375;-0.003570556640625;0.919999997677223;93;1 A
23.0227169418732;-0.5997314453125;-0.003558349609375;0.929999997651976;94;1 A
23.032716941848;-0.599761962890625;-0.00356140136718749;0.939999997626728;95;1 A
23.0427169418227;-0.59979248046875;-0.00354614257812499;0.949999997601481;96;1 A
23.0527169417975;-0.5997314453125;-0.00356140136718749;0.959999997576233;97;1 A
23.0627169417722;-0.599700927734375;-0.00354919433593751;0.969999997550985;98;1 A
23.072716941747;-0.599700927734375;-0.0035400390625;0.979999997525738;99;1 A
23.0827169417217;-0.599761962890625;-0.0035430908203125;0.98999999750049;100;1 A
23.0927169416965;-0.599700927734375;-0.00352783203125;0.999999997475243;101;1 A
23.1027169416712;-0.59979248046875;-0.0035400390625;1.00999999745;102;1 A
23.112716941646;-0.599761962890625;-0.00352783203125;1.01999999742475;103;1 A
23.1227169416208;-0.59967041015625;-0.003509521484375;1.0299999973995;104;1 A
23.1327169415955;-0.5997314453125;-0.003521728515625;1.03999999737425;105;1 A
23.1427169415703;-0.5997314453125;-0.00350341796875001;1.049999997349;106;1 A
23.152716941545;-0.599761962890625;-0.00351867675781251;1.05999999732376;107;1 A
23.1627169415198;-0.599761962890625;-0.0035064697265625;1.06999999729851;108;1 A
23.1727169414945;-0.59967041015625;-0.00350341796875001;1.07999999727326;109;1 A
23.1827169414693;-0.599761962890625;-0.00350341796875001;1.08999999724801;110;1 A
23.192716941444;-0.599822998046875;-0.00348510742187499;1.09999999722277;111;1 A
23.2027169414188;-0.59979248046875;-0.00350341796875001;1.10999999719752;112;1 A
23.2127169413935;-0.59967041015625;-0.003497314453125;1.11999999717227;113;1 A
23.2227169413683;-0.5997314453125;-0.00348510742187499;1.12999999714702;114;1 A
23.232716941343;-0.5997314453125;-0.0034912109375;1.13999999712178;115;1 A
23.2427169413178;-0.599761962890625;-0.0034637451171875;1.14999999709653;116;1 A
23.2527169412925;-0.599761962890625;-0.00347900390625;1.15999999707128;117;1 A
23.2627169412673;-0.5997314453125;-0.00345764160156251;1.16999999704603;118;1 A
23.272716941242;-0.599822998046875;-0.0034515380859375;1.17999999702079;119;1 A
23.2827169412168;-0.599761962890625;-0.00345764160156251;1.18999999699554;120;1 A
23.2927169411915;-0.59979248046875;-0.00343933105468749;1.19999999697029;121;1 A
23.3027169411663;-0.599761962890625;-0.00345458984374999;1.20999999694504;122;1 A
23.312716941141;-0.599761962890625;-0.0034332275390625;1.2199999969198;123;1 A
23.3227169411158;-0.599761962890625;-0.00342712402343751;1.22999999689455;124;1 A
23.3327169410906;-0.599761962890625;-0.003436279296875;1.2399999968693;125;1 A
23.3427169410653;-0.599761962890625;-0.00341186523437501;1.24999999684405;126;1 A
23.3527169410401;-0.59967041015625;-0.0034332275390625;1.25999999681881;127;1 A
23.3627169410148;-0.5997314453125;-0.00340881347656249;1.26999999679356;128;1 A
23.3727169409896;-0.599700927734375;-0.00340576171875;1.27999999676831;129;1 A
23.3827169409643;-0.599761962890625;-0.00340881347656249;1.28999999674306;130;1 A
23.3927169409391;-0.599700927734375;-0.00339660644531251;1.29999999671782;131;1 A
23.4027169409138;-0.59979248046875;-0.0034149169921875;1.30999999669257;132;1 A
23.4127169408886;-0.599700927734375;-0.0034027099609375;1.31999999666732;133;1 A
23.4227169408633;-0.5997314453125;-0.0034027099609375;1.32999999664207;134;1 A
23.4327169408381;-0.59979248046875;-0.00340881347656249;1.33999999661683;135;1 A
23.4427169408128;-0.59979248046875;-0.0033905029296875;1.34999999659158;136;1 A
23.4527169407876;-0.5997314453125;-0.0034027099609375;1.35999999656633;137;1 A
23.4627169407623;-0.5997314453125;-0.0033905029296875;1.36999999654108;138;1 A
23.4727169407371;-0.599700927734375;-0.003387451171875;1.37999999651583;139;1 A
23.4827169407118;-0.59979248046875;-0.00338134765625001;1.38999999649059;140;1 A
23.4927169406866;-0.59979248046875;-0.003369140625;1.39999999646534;141;1 A
23.5027169406613;-0.599761962890625;-0.00338134765625001;1.40999999644009;142;1 A
23.5127169406361;-0.599761962890625;-0.003369140625;1.41999999641484;143;1 A
23.5227169406108;-0.599761962890625;-0.003369140625;1.4299999963896;144;1 A
23.5327169405856;-0.5997314453125;-0.0033721923828125;1.43999999636435;145;1 A
23.5427169405604;-0.599761962890625;-0.00335693359375;1.4499999963391;146;1 A
23.5527169405351;-0.5997314453125;-0.00337829589843749;1.45999999631385;147;1 A
23.5627169405099;-0.599761962890625;-0.0033721923828125;1.46999999628861;148;1 A
23.5727169404846;-0.59979248046875;-0.003369140625;1.47999999626336;149;1 A
23.5827169404594;-0.5997314453125;-0.003375244140625;1.48999999623811;150;1 A
23.5927169404341;-0.599761962890625;-0.0033721923828125;1.49999999621286;151;1 A
23.6027169404089;-0.5997314453125;-0.00337829589843749;1.50999999618762;152;1 A
23.6127169403836;-0.599761962890625;-0.003375244140625;1.51999999616237;153;1 A
23.6227169403584;-0.59979248046875;-0.00336608886718751;1.52999999613712;154;1 A
23.6327169403331;-0.599761962890625;-0.00337829589843749;1.53999999611187;155;1 A
23.6427169403079;-0.599761962890625;-0.00336608886718751;1.54999999608663;156;1 A
23.6527169402826;-0.59979248046875;-0.00337829589843749;1.55999999606138;157;1 A
23.6627169402574;-0.599761962890625;-0.003375244140625;1.56999999603613;158;1 A
23.6727169402321;-0.5997314453125;-0.00337829589843749;1.57999999601088;159;1 A
23.6827169402069;-0.599761962890625;-0.0033843994140625;1.58999999598564;160;1 A
23.6927169401816;-0.5997314453125;-0.00337829589843749;1.59999999596039;161;1 A
23.7027169401564;-0.599700927734375;-0.00339660644531251;1.60999999593514;162;1 A
23.7127169401311;-0.5997314453125;-0.00339355468749999;1.61999999590989;163;1 A
23.7227169401059;-0.599700927734375;-0.00338134765625001;1.62999999588465;164;1 A
23.7327169400806;-0.59979248046875;-0.003399658203125;1.6399999958594;165;1 A
23.7427169400554;-0.599761962890625;-0.00338134765625001;1.64999999583415;166;1 A
23.7527169400302;-0.599761962890625;-0.003399658203125;1.6599999958089;167;1 A
23.7627169400049;-0.59979248046875;-0.003399658203125;1.66999999578366;168;1 A
23.7727169399797;-0.5997314453125;-0.003399658203125;1.67999999575841;169;1 A
23.7827169399544;-0.599822998046875;-0.00341186523437501;1.68999999573316;170;1 A
23.7927169399292;-0.599700927734375;-0.0034027099609375;1.69999999570791;171;1 A
23.8027169399039;-0.5997314453125;-0.00341796875;1.70999999568267;172;1 A
23.8127169398787;-0.5997314453125;-0.00341796875;1.71999999565742;173;1 A
23.8227169398534;-0.599700927734375;-0.00340576171875;1.72999999563217;174;1 A
23.8327169398282;-0.599761962890625;-0.0034210205078125;1.73999999560692;175;1 A
23.8427169398029;-0.5997314453125;-0.00340576171875;1.74999999558167;176;1 A
23.8527169397777;-0.599700927734375;-0.00342712402343751;1.75999999555643;177;1 A
23.8627169397524;-0.5997314453125;-0.00342407226562499;1.76999999553118;178;1 A
23.8727169397272;-0.59979248046875;-0.00342407226562499;1.77999999550593;179;1 A
23.8827169397019;-0.5997314453125;-0.00344238281250001;1.78999999548068;180;1 A
23.8927169396767;-0.599761962890625;-0.00342712402343751;1.79999999545544;181;1 A
23.9027169396514;-0.5997314453125;-0.00345764160156251;1.80999999543019;182;1 A
23.9127169396262;-0.5997314453125;-0.00345764160156251;1.81999999540494;183;1 A
23.9227169396009;-0.599761962890625;-0.00345764160156251;1.82999999537969;184;1 A
23.9327169395757;-0.5997314453125;-0.003466796875;1.83999999535445;185;1 A
23.9427169395505;-0.5997314453125;-0.00345458984374999;1.8499999953292;186;1 A
23.9527169395252;-0.59979248046875;-0.0034759521484375;1.85999999530395;187;1 A
23.9627169395;-0.599700927734375;-0.0034637451171875;1.8699999952787;188;1 A
23.9727169394747;-0.599761962890625;-0.0034637451171875;1.87999999525346;189;1 A
23.9827169394495;-0.599822998046875;-0.00346984863281249;1.88999999522821;190;1 A
23.9927169394242;-0.5997314453125;-0.003460693359375;1.89999999520296;191;1 A
24.002716939399;-0.599761962890625;-0.00348510742187499;1.90999999517771;192;1 A
24.0127169393737;-0.599761962890625;-0.00347290039062501;1.91999999515247;193;1 A
24.0227169393485;-0.59979248046875;-0.00347900390625;1.92999999512722;194;1 A
24.0327169393232;-0.599761962890625;-0.0034912109375;1.93999999510197;195;1 A
24.042716939298;-0.599700927734375;-0.00348510742187499;1.94999999507672;196;1 A
24.0527169392727;-0.599761962890625;-0.0035064697265625;1.95999999505148;197;1 A
24.0627169392475;-0.599761962890625;-0.0034942626953125;1.96999999502623;198;1 A
24.0727169392222;-0.59979248046875;-0.003497314453125;1.97999999500098;199;1 A
24.082716939197;-0.5997314453125;-0.00350341796875001;1.98999999497573;200;1 A
24.0927169391717;-0.599761962890625;-0.0034912109375;1.99999999495049;201;1 A
24.1027169391465;-0.599700927734375;-0.00351867675781251;2.00999999492524;202;1 A
24.1127169391212;-0.5997314453125;-0.0035064697265625;2.01999999489999;203;1 A
24.122716939096;-0.5997314453125;-0.00350341796875001;2.02999999487474;204;1 A
24.1327169390707;-0.59979248046875;-0.003509521484375;2.0399999948495;205;1 A
24.1427169390455;-0.599761962890625;-0.00350036621093749;2.04999999482425;206;1 A
24.1527169390203;-0.599853515625;-0.003521728515625;2.059999994799;207;1 A
24.162716938995;-0.599700927734375;-0.0035125732421875;2.06999999477375;208;1 A
24.1727169389698;-0.59979248046875;-0.0035125732421875;2.0799999947485;209;1 A
24.1827169389445;-0.5997314453125;-0.00351562499999999;2.08999999472326;210;1 A
24.1927169389193;-0.5997314453125;-0.0034942626953125;2.09999999469801;211;1 A
24.202716938894;-0.5997314453125;-0.00351562499999999;2.10999999467276;212;1 A
24.2127169388688;-0.599761962890625;-0.003509521484375;2.11999999464751;213;1 A
24.2227169388435;-0.59979248046875;-0.0035064697265625;2.12999999462227;214;1 A
24.2327169388183;-0.599700927734375;-0.00351562499999999;2.13999999459702;215;1 A
24.242716938793;-0.599761962890625;-0.0035125732421875;2.14999999457177;216;1 A
24.2527169387678;-0.599761962890625;-0.003521728515625;2.15999999454652;217;1 A
24.2627169387425;-0.5997314453125;-0.00351867675781251;2.16999999452128;218;1 A
24.2727169387173;-0.599700927734375;-0.0035247802734375;2.17999999449603;219;1 A
24.282716938692;-0.599700927734375;-0.0035400390625;2.18999999447078;220;1 A
24.2927169386668;-0.599700927734375;-0.00353393554687501;2.19999999444553;221;1 A
24.3027169386415;-0.599822998046875;-0.0035430908203125;2.20999999442029;222;1 A
24.3127169386163;-0.5997314453125;-0.00353393554687501;2.21999999439504;223;1 A
24.322716938591;-0.5997314453125;-0.00353088378906249;2.22999999436979;224;1 A
24.3327169385658;-0.599761962890625;-0.00354614257812499;2.23999999434454;225;1 A
24.3427169385405;-0.599700927734375;-0.00352783203125;2.2499999943193;226;1 A
24.3527169385153;-0.599761962890625;-0.0035430908203125;2.25999999429405;227;1 A
24.3627169384901;-0.59979248046875;-0.00353088378906249;2.2699999942688;228;1 A
24.3727169384648;-0.5997314453125;-0.0035247802734375;2.27999999424355;229;1 A
24.3827169384396;-0.599761962890625;-0.0035369873046875;2.28999999421831;230;1 A
24.3927169384143;-0.599761962890625;-0.00352783203125;2.29999999419306;231;1 A
24.4027169383891;-0.59979248046875;-0.00353088378906249;2.30999999416781;232;1 A
24.4127169383638;-0.599761962890625;-0.00351867675781251;2.31999999414256;233;1 A
24.4227169383386;-0.599761962890625;-0.00351562499999999;2.32999999411732;234;1 A
24.4327169383133;-0.5997314453125;-0.0035247802734375;2.33999999409207;235;1 A
24.4427169382881;-0.599700927734375;-0.0035064697265625;2.34999999406682;236;1 A
24.4527169382628;-0.599761962890625;-0.0035247802734375;2.35999999404157;237;1 A
24.4627169382376;-0.5997314453125;-0.0035125732421875;2.36999999401633;238;1 A
24.4727169382123;-0.59979248046875;-0.003509521484375;2.37999999399108;239;1 A
24.4827169381871;-0.59979248046875;-0.0035125732421875;2.38999999396583;240;1 A
24.4927169381618;-0.59979248046875;-0.0034942626953125;2.39999999394058;241;1 A
24.5027169381366;-0.599700927734375;-0.00351562499999999;2.40999999391533;242;1 A
24.5127169381113;-0.5997314453125;-0.0035064697265625;2.41999999389009;243;1 A
24.5227169380861;-0.599700927734375;-0.00350036621093749;2.42999999386484;244;1 A
24.5327169380608;-0.5997314453125;-0.0035064697265625;2.43999999383959;245;1 A
24.5427169380356;-0.5997314453125;-0.0034942626953125;2.44999999381434;246;1 A
24.5527169380103;-0.599761962890625;-0.00350341796875001;2.4599999937891;247;1 A
24.5627169379851;-0.599761962890625;-0.0034942626953125;2.46999999376385;248;1 A
24.5727169379599;-0.599700927734375;-0.00348815917968751;2.4799999937386;249;1 A
24.5827169379346;-0.599822998046875;-0.0034912109375;2.48999999371335;250;1 A
24.5927169379094;-0.5997314453125;-0.0034759521484375;2.49999999368811;251;1 A
24.6027169378841;-0.599761962890625;-0.003497314453125;2.50999999366286;252;1 A
24.6127169378589;-0.599822998046875;-0.0034820556640625;2.51999999363761;253;1 A
24.6227169378336;-0.599761962890625;-0.0034820556640625;2.52999999361236;254;1 A
24.6327169378084;-0.59967041015625;-0.0034942626953125;2.53999999358712;255;1 A
24.6427169377831;-0.599700927734375;-0.0034820556640625;2.54999999356187;256;1 A
24.6527169377579;-0.599822998046875;-0.0034912109375;2.55999999353662;257;1 A
24.6627169377326;-0.599761962890625;-0.0034820556640625;2.56999999351137;258;1 A
24.6727169377074;-0.59979248046875;-0.0034820556640625;2.57999999348613;259;1 A
24.6827169376821;-0.599761962890625;-0.00348815917968751;2.58999999346088;260;1 A
24.6927169376569;-0.5997314453125;-0.0034759521484375;2.59999999343563;261;1 A
24.7027169376316;-0.5997314453125;-0.0034942626953125;2.60999999341038;262;1 A
24.7127169376064;-0.5997314453125;-0.0034820556640625;2.61999999338514;263;1 A
24.7227169375811;-0.599700927734375;-0.0034820556640625;2.62999999335989;264;1 A
24.7327169375559;-0.59979248046875;-0.00348510742187499;2.63999999333464;265;1 A
24.7427169375306;-0.5997314453125;-0.0034759521484375;2.64999999330939;266;1 A
24.7527169375054;-0.5997314453125;-0.003497314453125;2.65999999328415;267;1 A
24.7627169374801;-0.599761962890625;-0.00348815917968751;2.6699999932589;268;1 A
24.7727169374549;-0.59979248046875;-0.00348815917968751;2.67999999323365;269;1 A
24.7827169374297;-0.5997314453125;-0.0034912109375;2.6899999932084;270;1 A
24.7927169374044;-0.59967041015625;-0.00347900390625;2.69999999318316;271;1 A
24.8027169373792;-0.599700927734375;-0.0034912109375;2.70999999315791;272;1 A
24.8127169373539;-0.599822998046875;-0.00347900390625;2.71999999313266;273;1 A
24.8227169373287;-0.5997314453125;-0.0034759521484375;2.72999999310741;274;1 A
24.8327169373034;-0.5997314453125;-0.0034820556640625;2.73999999308217;275;1 A
24.8427169372782;-0.599761962890625;-0.00347290039062501;2.74999999305692;276;1 A
24.8527169372529;-0.59979248046875;-0.00348510742187499;2.75999999303167;277;1 A
24.8627169372277;-0.5997314453125;-0.00347900390625;2.76999999300642;278;1 A
24.8727169372024;-0.599761962890625;-0.0034759521484375;2.77999999298117;279;1 A
24.8827169371772;-0.5997314453125;-0.0034820556640625;2.78999999295593;280;1 A
24.8927169371519;-0.5997314453125;-0.00347290039062501;2.79999999293068;281;1 A
24.9027169371267;-0.599761962890625;-0.0034942626953125;2.80999999290543;282;1 A
24.9127169371014;-0.59979248046875;-0.0034820556640625;2.81999999288018;283;1 A
24.9227169370762;-0.599761962890625;-0.0034759521484375;2.82999999285494;284;1 A
24.9327169370509;-0.5997314453125;-0.0034820556640625;2.83999999282969;285;1 A
24.9427169370257;-0.599761962890625;-0.00347290039062501;2.84999999280444;286;1 A
24.9527169370004;-0.5997314453125;-0.0034912109375;2.85999999277919;287;1 A
24.9627169369752;-0.599761962890625;-0.0034820556640625;2.86999999275395;288;1 A
24.97271693695;-0.59979248046875;-0.00347290039062501;2.8799999927287;289;1 A
24.9827169369247;-0.599761962890625;-0.0034942626953125;2.88999999270345;290;1 A
24.9927169368995;-0.599761962890625;-0.00348510742187499;2.8999999926782;291;1 A
25.0027169368742;-0.59979248046875;-0.00350341796875001;2.90999999265296;292;1 A
25.012716936849;-0.5997314453125;-0.003497314453125;2.91999999262771;293;1 A
25.0227169368237;-0.5997314453125;-0.00348815917968751;2.92999999260246;294;1 A
25.0327169367985;-0.59979248046875;-0.0034942626953125;2.93999999257721;295;1 A
25.0427169367732;-0.5997314453125;-0.0034912109375;2.94999999255197;296;1 A
25.052716936748;-0.59979248046875;-0.0035064697265625;2.95999999252672;297;1 A
25.0627169367227;-0.59979248046875;-0.00350036621093749;2.96999999250147;298;1 A
25.0727169366975;-0.59979248046875;-0.003497314453125;2.97999999247622;299;1 A
25.0827169366722;-0.59979248046875;-0.003509521484375;2.98999999245098;300;1 A
25.092716936647;-0.599761962890625;-0.0034912109375;2.99999999242573;301;1 A
25.1027169366217;-0.5997314453125;-0.00352783203125;3.00999999240048;302;1 A
25.1127169365965;-0.5997314453125;-0.003521728515625;3.01999999237523;303;1 A
25.1227169365712;-0.5997314453125;-0.0035247802734375;3.02999999234999;304;1 A
25.132716936546;-0.599700927734375;-0.00353393554687501;3.03999999232474;305;1 A
25.1427169365207;-0.599761962890625;-0.0035247802734375;3.04999999229949;306;1 A
25.1527169364955;-0.599761962890625;-0.0035369873046875;3.05999999227424;307;1 A
25.1627169364702;-0.599761962890625;-0.00352783203125;3.069999992249;308;1 A
25.172716936445;-0.59979248046875;-0.00353088378906249;3.07999999222375;309;1 A
25.1827169364198;-0.5997314453125;-0.0035400390625;3.0899999921985;310;1 A
25.1927169363945;-0.599822998046875;-0.00353088378906249;3.09999999217325;311;1 A
25.2027169363693;-0.599761962890625;-0.00355224609375;3.109999992148;312;1 A
25.212716936344;-0.599761962890625;-0.00353393554687501;3.11999999212276;313;1 A
25.2227169363188;-0.5997314453125;-0.0035430908203125;3.12999999209751;314;1 A
25.2327169362935;-0.599761962890625;-0.00354614257812499;3.13999999207226;315;1 A
25.2427169362683;-0.59979248046875;-0.00353393554687501;3.14999999204701;316;1 A
25.252716936243;-0.599761962890625;-0.00355224609375;3.15999999202177;317;1 A
25.2627169362178;-0.5997314453125;-0.0035400390625;3.16999999199652;318;1 A
25.2727169361925;-0.599761962890625;-0.0035369873046875;3.17999999197127;319;1 A
25.2827169361673;-0.599700927734375;-0.0035400390625;3.18999999194602;320;1 A
25.292716936142;-0.599761962890625;-0.0035247802734375;3.19999999192078;321;1 A
25.3027169361168;-0.599761962890625;-0.0035400390625;3.20999999189553;322;1 A
25.3127169360915;-0.5997314453125;-0.0035247802734375;3.21999999187028;323;1 A
25.3227169360663;-0.5997314453125;-0.0035247802734375;3.22999999184503;324;1 A
25.332716936041;-0.599761962890625;-0.0035247802734375;3.23999999181979;325;1 A
25.3427169360158;-0.599700927734375;-0.0035247802734375;3.24999999179454;326;1 A
25.3527169359905;-0.5997314453125;-0.0035400390625;3.25999999176929;327;1 A
25.3627169359653;-0.599700927734375;-0.00352783203125;3.26999999174404;328;1 A
25.37271693594;-0.59979248046875;-0.0035247802734375;3.2799999917188;329;1 A
25.3827169359148;-0.599761962890625;-0.00352783203125;3.28999999169355;330;1 A
25.3927169358896;-0.59979248046875;-0.0035125732421875;3.2999999916683;331;1 A
25.4027169358643;-0.5997314453125;-0.00352783203125;3.30999999164305;332;1 A
25.4127169358391;-0.5997314453125;-0.00351562499999999;3.31999999161781;333;1 A
25.4227169358138;-0.5997314453125;-0.003509521484375;3.32999999159256;334;1 A
25.4327169357886;-0.5997314453125;-0.00351562499999999;3.33999999156731;335;1 A
25.4427169357633;-0.599761962890625;-0.003497314453125;3.34999999154206;336;1 A
25.4527169357381;-0.59979248046875;-0.003509521484375;3.35999999151682;337;1 A
25.4627169357128;-0.599700927734375;-0.00350036621093749;3.36999999149157;338;1 A
25.4727169356876;-0.599761962890625;-0.003497314453125;3.37999999146632;339;1 A
25.4827169356623;-0.599822998046875;-0.00350341796875001;3.38999999144107;340;1 A
25.4927169356371;-0.599761962890625;-0.003497314453125;3.39999999141583;341;1 A
25.5027169356118;-0.599700927734375;-0.003509521484375;3.40999999139058;342;1 A
25.5127169355866;-0.599822998046875;-0.0034942626953125;3.41999999136533;343;1 A
25.5227169355613;-0.599700927734375;-0.00348510742187499;3.42999999134008;344;1 A
25.5327169355361;-0.599761962890625;-0.0034942626953125;3.43999999131483;345;1 A
25.5427169355108;-0.59979248046875;-0.0034820556640625;3.44999999128959;346;1 A
25.5527169354856;-0.5997314453125;-0.0034942626953125;3.45999999126434;347;1 A
25.5627169354603;-0.599700927734375;-0.00347900390625;3.46999999123909;348;1 A
25.5727169354351;-0.59979248046875;-0.00347290039062501;3.47999999121384;349;1 A
25.5827169354098;-0.59979248046875;-0.00347900390625;3.4899999911886;350;1 A
25.5927169353846;-0.5997314453125;-0.00346984863281249;3.49999999116335;351;1 A
25.6027169353594;-0.599761962890625;-0.00347900390625;3.5099999911381;352;1 A
25.6127169353341;-0.5997314453125;-0.0034637451171875;3.51999999111285;353;1 A
25.6227169353089;-0.5997314453125;-0.00345764160156251;3.52999999108761;354;1 A
25.6327169352836;-0.599761962890625;-0.0034515380859375;3.53999999106236;355;1 A
25.6427169352584;-0.5997314453125;-0.00343933105468749;3.54999999103711;356;1 A
25.6527169352331;-0.5997314453125;-0.003460693359375;3.55999999101186;357;1 A
25.6627169352079;-0.59979248046875;-0.00344238281250001;3.56999999098662;358;1 A
25.6727169351826;-0.5997314453125;-0.00343933105468749;3.57999999096137;359;1 A
25.6827169351574;-0.59979248046875;-0.0034454345703125;3.58999999093612;360;1 A
25.6927169351321;-0.59979248046875;-0.00342407226562499;3.59999999091087;361;1 A
25.7027169351069;-0.599700927734375;-0.0034454345703125;3.60999999088563;362;1 A
25.7127169350816;-0.59979248046875;-0.00343017578125;3.61999999086038;363;1 A
25.7227169350564;-0.5997314453125;-0.00343017578125;3.62999999083513;364;1 A
25.7327169350311;-0.599761962890625;-0.00343933105468749;3.63999999080988;365;1 A
25.7427169350059;-0.5997314453125;-0.00341796875;3.64999999078464;366;1 A
25.7527169349806;-0.59979248046875;-0.00343017578125;3.65999999075939;367;1 A
25.7627169349554;-0.599761962890625;-0.00341796875;3.66999999073414;368;1 A
25.7727169349301;-0.599822998046875;-0.0034210205078125;3.67999999070889;369;1 A
25.7827169349049;-0.599761962890625;-0.00342407226562499;3.68999999068365;370;1 A
25.7927169348796;-0.599761962890625;-0.00340881347656249;3.6999999906584;371;1 A
25.8027169348544;-0.59979248046875;-0.00343017578125;3.70999999063315;372;1 A
25.8127169348292;-0.59979248046875;-0.00340881347656249;3.7199999906079;373;1 A
25.8227169348039;-0.599761962890625;-0.00341186523437501;3.72999999058266;374;1 A
25.8327169347787;-0.59979248046875;-0.0034149169921875;3.73999999055741;375;1 A
25.8427169347534;-0.5997314453125;-0.00340576171875;3.74999999053216;376;1 A
25.8527169347282;-0.599761962890625;-0.00342407226562499;3.75999999050691;377;1 A
25.8627169347029;-0.5997314453125;-0.00341186523437501;3.76999999048167;378;1 A
25.8727169346777;-0.599761962890625;-0.00340881347656249;3.77999999045642;379;1 A
25.8827169346524;-0.599761962890625;-0.00341186523437501;3.78999999043117;380;1 A
25.8927169346272;-0.599761962890625;-0.0034027099609375;3.79999999040592;381;1 A
25.9027169346019;-0.599639892578125;-0.0034149169921875;3.80999999038067;382;1 A
25.9127169345767;-0.5997314453125;-0.003399658203125;3.81999999035543;383;1 A
25.9227169345514;-0.5997314453125;-0.00339660644531251;3.82999999033018;384;1 A
25.9327169345262;-0.59979248046875;-0.003399658203125;3.83999999030493;385;1 A
25.9427169345009;-0.59979248046875;-0.00339355468749999;3.84999999027968;386;1 A
25.9527169344757;-0.5997314453125;-0.00340576171875;3.85999999025444;387;1 A
25.9627169344504;-0.599700927734375;-0.00339355468749999;3.86999999022919;388;1 A
25.9727169344252;-0.599761962890625;-0.00339355468749999;3.87999999020394;389;1 A
25.9827169343999;-0.59979248046875;-0.00339355468749999;3.88999999017869;390;1 A
25.9927169343747;-0.59979248046875;-0.00337829589843749;3.89999999015345;391;1 A
26.0027169343495;-0.599700927734375;-0.00339355468749999;3.9099999901282;392;1 A
26.0127169343242;-0.599700927734375;-0.0033843994140625;3.91999999010295;393;1 A
26.022716934299;-0.599761962890625;-0.00338134765625001;3.9299999900777;394;1 A
26.0327169342737;-0.59979248046875;-0.0033843994140625;3.93999999005246;395;1 A
26.0427169342485;-0.599761962890625;-0.00337829589843749;3.94999999002721;396;1 A
26.0527169342232;-0.5997314453125;-0.0033905029296875;3.95999999000196;397;1 A
26.062716934198;-0.5997314453125;-0.0033843994140625;3.96999998997671;398;1 A
26.0727169341727;-0.599761962890625;-0.00337829589843749;3.97999998995147;399;1 A
26.0827169341475;-0.59979248046875;-0.003387451171875;3.98999998992622;400;1 A
26.0927169341222;-0.599700927734375;-0.0033843994140625;3.99999998990097;401;1 A
26.102716934097;-0.5997314453125;-0.0033905029296875;4.00999998987572;402;1 A
26.1127169340717;-0.5997314453125;-0.00337829589843749;4.01999998985048;403;1 A
26.1227169340465;-0.599700927734375;-0.003375244140625;4.02999998982523;404;1 A
26.1327169340212;-0.599822998046875;-0.0033843994140625;4.03999998979998;405;1 A
26.142716933996;-0.599700927734375;-0.00336608886718751;4.04999998977473;406;1 A
26.1527169339707;-0.599700927734375;-0.00337829589843749;4.05999998974949;407;1 A
26.1627169339455;-0.599761962890625;-0.003369140625;4.06999998972424;408;1 A
26.1727169339202;-0.5997314453125;-0.003369140625;4.07999998969899;409;1 A
26.182716933895;-0.599761962890625;-0.00337829589843749;4.08999998967374;410;1 A
26.1927169338697;-0.5997314453125;-0.0033599853515625;4.0999999896485;411;1 A
26.2027169338445;-0.599761962890625;-0.00337829589843749;4.10999998962325;412;1 A
26.2127169338193;-0.599761962890625;-0.00336608886718751;4.119999989598;413;1 A
26.222716933794;-0.599761962890625;-0.00336608886718751;4.12999998957275;414;1 A
26.2327169337688;-0.59979248046875;-0.00336608886718751;4.1399999895475;415;1 A
26.2427169337435;-0.59979248046875;-0.00335083007812501;4.14999998952226;416;1 A
26.2527169337183;-0.59967041015625;-0.0033721923828125;4.15999998949701;417;1 A
26.262716933693;-0.5997314453125;-0.0033538818359375;4.16999998947176;418;1 A
26.2727169336678;-0.599822998046875;-0.0033538818359375;4.17999998944651;419;1 A
26.2827169336425;-0.599761962890625;-0.00335693359375;4.18999998942127;420;1 A
26.2927169336173;-0.599822998046875;-0.00335083007812501;4.19999998939602;421;1 A
26.302716933592;-0.599761962890625;-0.0033721923828125;4.20999998937077;422;1 A
26.3127169335668;-0.599822998046875;-0.00335693359375;4.21999998934552;423;1 A
26.3227169335415;-0.599761962890625;-0.00336303710937499;4.22999998932028;424;1 A
26.3327169335163;-0.599761962890625;-0.0033721923828125;4.23999998929503;425;1 A
26.342716933491;-0.599761962890625;-0.00336608886718751;4.24999998926978;426;1 A
26.3527169334658;-0.5997314453125;-0.003375244140625;4.25999998924453;427;1 A
26.3627169334405;-0.599761962890625;-0.0033599853515625;4.26999998921929;428;1 A
26.3727169334153;-0.59979248046875;-0.00336608886718751;4.27999998919404;429;1 A
26.38271693339;-0.599761962890625;-0.00336303710937499;4.28999998916879;430;1 A
26.3927169333648;-0.599761962890625;-0.0033538818359375;4.29999998914354;431;1 A
26.4027169333395;-0.5997314453125;-0.003369140625;4.3099999891183;432;1 A
26.4127169333143;-0.59979248046875;-0.00335693359375;4.31999998909305;433;1 A
26.4227169332891;-0.599761962890625;-0.00335693359375;4.3299999890678;434;1 A
26.4327169332638;-0.599822998046875;-0.00335083007812501;4.33999998904255;435;1 A
26.4427169332386;-0.59979248046875;-0.0033447265625;4.34999998901731;436;1 A
26.4527169332133;-0.599761962890625;-0.00336608886718751;4.35999998899206;437;1 A
26.4627169331881;-0.599700927734375;-0.00335083007812501;4.36999998896681;438;1 A
26.4727169331628;-0.599700927734375;-0.00335083007812501;4.37999998894156;439;1 A
26.4827169331376;-0.599700927734375;-0.00335083007812501;4.38999998891632;440;1 A
26.4927169331123;-0.599761962890625;-0.0033447265625;4.39999998889107;441;1 A
26.5027169330871;-0.5997314453125;-0.00335693359375;4.40999998886582;442;1 A
26.5127169330618;-0.599761962890625;-0.0033416748046875;4.41999998884057;443;1 A
26.5227169330366;-0.599853515625;-0.0033447265625;4.42999998881533;444;1 A
26.5327169330113;-0.5997314453125;-0.0033538818359375;4.43999998879008;445;1 A
26.5427169329861;-0.599761962890625;-0.00335083007812501;4.44999998876483;446;1 A
26.5527169329608;-0.59979248046875;-0.00336303710937499;4.45999998873958;447;1 A
26.5627169329356;-0.599700927734375;-0.00335693359375;4.46999998871433;448;1 A
26.5727169329103;-0.5997314453125;-0.0033599853515625;4.47999998868909;449;1 A
26.5827169328851;-0.599761962890625;-0.003369140625;4.48999998866384;450;1 A
26.5927169328598;-0.5997314453125;-0.00336303710937499;4.49999998863859;451;1 A
26.6027169328346;-0.59979248046875;-0.00337829589843749;4.50999998861334;452;1 A
26.6127169328093;-0.599761962890625;-0.0033721923828125;4.5199999885881;453;1 A
26.6227169327841;-0.599761962890625;-0.00336608886718751;4.52999998856285;454;1 A
26.6327169327589;-0.59979248046875;-0.003375244140625;4.5399999885376;455;1 A
26.6427169327336;-0.59979248046875;-0.00336303710937499;4.54999998851235;456;1 A
26.6527169327084;-0.599822998046875;-0.0033721923828125;4.55999998848711;457;1 A
26.6627169326831;-0.599761962890625;-0.00335693359375;4.56999998846186;458;1 A
26.6727169326579;-0.599761962890625;-0.0033447265625;4.57999998843661;459;1 A
26.6827169326326;-0.59979248046875;-0.00335083007812501;4.58999998841136;460;1 A
26.6927169326074;-0.599761962890625;-0.00334777832031249;4.59999998838612;461;1 A
26.7027169325821;-0.599700927734375;-0.0033538818359375;4.60999998836087;462;1 A
26.7127169325569;-0.5997314453125;-0.00333557128906251;4.61999998833562;463;1 A
26.7227169325316;-0.599761962890625;-0.00333557128906251;4.62999998831037;464;1 A
26.7327169325064;-0.5997314453125;-0.0033416748046875;4.63999998828513;465;1 A
26.7427169324811;-0.5997314453125;-0.0033233642578125;4.64999998825988;466;1 A
26.7527169324559;-0.59979248046875;-0.003338623046875;4.65999998823463;467;1 A
26.7627169324306;-0.599700927734375;-0.0033233642578125;4.66999998820938;468;1 A
26.7727169324054;-0.599761962890625;-0.0033294677734375;4.67999998818414;469;1 A
26.7827169323801;-0.599700927734375;-0.00333251953124999;4.68999998815889;470;1 A
26.7927169323549;-0.599822998046875;-0.003314208984375;4.69999998813364;471;1 A
26.8027169323296;-0.599822998046875;-0.00333557128906251;4.70999998810839;472;1 A
26.8127169323044;-0.59979248046875;-0.00332031250000001;4.71999998808315;473;1 A
26.8227169322791;-0.59979248046875;-0.00332031250000001;4.7299999880579;474;1 A
26.8327169322539;-0.59979248046875;-0.00331726074218749;4.73999998803265;475;1 A
26.8427169322287;-0.5997314453125;-0.00330505371093751;4.7499999880074;476;1 A
26.8527169322034;-0.599700927734375;-0.003326416015625;4.75999998798216;477;1 A
26.8627169321782;-0.599761962890625;-0.00330200195312499;4.76999998795691;478;1 A
26.8727169321529;-0.5997314453125;-0.00330200195312499;4.77999998793166;479;1 A
26.8827169321277;-0.599761962890625;-0.00330505371093751;4.78999998790641;480;1 A
26.8927169321024;-0.5997314453125;-0.0032958984375;4.79999998788116;481;1 A
26.9027169320772;-0.5997314453125;-0.00330810546875;4.80999998785592;482;1 A
26.9127169320519;-0.59979248046875;-0.00328369140625;4.81999998783067;483;1 A
26.9227169320267;-0.599761962890625;-0.0032928466796875;4.82999998780542;484;1 A
26.9327169320014;-0.59979248046875;-0.00330200195312499;4.83999998778017;485;1 A
26.9427169319762;-0.599761962890625;-0.00328674316406249;4.84999998775493;486;1 A
26.9527169319509;-0.599700927734375;-0.00330200195312499;4.85999998772968;487;1 A
26.9627169319257;-0.5997314453125;-0.00328369140625;4.86999998770443;488;1 A
26.9727169319004;-0.599700927734375;-0.0032928466796875;4.87999998767918;489;1 A
26.9827169318752;-0.59979248046875;-0.00328979492187501;4.88999998765394;490;1 A
26.9927169318499;-0.599700927734375;-0.00328979492187501;4.89999998762869;491;1 A
27.0027169318247;-0.599761962890625;-0.00330810546875;4.90999998760344;492;1 A
27.0127169317994;-0.599761962890625;-0.0032958984375;4.91999998757819;493;1 A
27.0227169317742;-0.59979248046875;-0.00330200195312499;4.92999998755295;494;1 A
27.032716931749;-0.59979248046875;-0.00330505371093751;4.9399999875277;495;1 A
27.0427169317237;-0.5997314453125;-0.00330200195312499;4.94999998750245;496;1 A
27.0527169316985;-0.599761962890625;-0.003326416015625;4.9599999874772;497;1 A
27.0627169316732;-0.599761962890625;-0.003314208984375;4.96999998745196;498;1 A
27.072716931648;-0.5997314453125;-0.00332031250000001;4.97999998742671;499;1 A
27.0827169316227;-0.5997314453125;-0.0033233642578125;4.98999998740146;500;1 A
27.0927169315975;-0.5997314453125;-0.003326416015625;4.99999998737621;501;1 A
27.1027169315722;-0.59967041015625;-0.00333251953124999;5.00999998735097;502;1 A
27.112716931547;-0.5997314453125;-0.00332031250000001;5.01999998732572;503;1 A
27.1227169315217;-0.599761962890625;-0.0033294677734375;5.02999998730047;504;1 A
27.1327169314965;-0.5997314453125;-0.0033447265625;5.03999998727522;505;1 A
27.1427169314712;-0.599761962890625;-0.00333557128906251;5.04999998724998;506;1 A
27.152716931446;-0.599761962890625;-0.00334777832031249;5.05999998722473;507;1 A
27.1627169314207;-0.599761962890625;-0.00333251953124999;5.06999998719948;508;1 A
27.1727169313955;-0.5997314453125;-0.0033416748046875;5.07999998717423;509;1 A
27.1827169313702;-0.599761962890625;-0.0033447265625;5.08999998714899;510;1 A
27.192716931345;-0.599761962890625;-0.003338623046875;5.09999998712374;511;1 A
27.2027169313197;-0.5997314453125;-0.00335693359375;5.10999998709849;512;1 A
27.2127169312945;-0.59967041015625;-0.00335693359375;5.11999998707324;513;1 A
27.2227169312692;-0.599761962890625;-0.00335693359375;5.129999987048;514;1 A
27.232716931244;-0.59979248046875;-0.003369140625;5.13999998702275;515;1 A
27.2427169312188;-0.599761962890625;-0.0033599853515625;5.1499999869975;516;1 A
27.2527169311935;-0.5997314453125;-0.00338134765625001;5.15999998697225;517;1 A
27.2627169311683;-0.599761962890625;-0.0033721923828125;5.169999986947;518;1 A
27.272716931143;-0.599761962890625;-0.003375244140625;5.17999998692176;519;1 A
27.2827169311178;-0.599761962890625;-0.003387451171875;5.18999998689651;520;1 A
27.2927169310925;-0.5997314453125;-0.003387451171875;5.19999998687126;521;1 A
27.3027169310673;-0.599700927734375;-0.003399658203125;5.20999998684601;522;1 A
27.312716931042;-0.5997314453125;-0.0033843994140625;5.21999998682077;523;1 A
27.3227169310168;-0.5997314453125;-0.0033843994140625;5.22999998679552;524;1 A
27.3327169309915;-0.59979248046875;-0.003399658203125;5.23999998677027;525;1 A
27.3427169309663;-0.599761962890625;-0.0033905029296875;5.24999998674502;526;1 A
27.352716930941;-0.599609375;-0.003399658203125;5.25999998671978;527;1 A
27.3627169309158;-0.5997314453125;-0.0033905029296875;5.26999998669453;528;1 A
27.3727169308905;-0.599700927734375;-0.00339355468749999;5.27999998666928;529;1 A
27.3827169308653;-0.599700927734375;-0.003399658203125;5.28999998664403;530;1 A
27.39271693084;-0.599853515625;-0.0033843994140625;5.29999998661879;531;1 A
27.4027169308148;-0.5997314453125;-0.00340881347656249;5.30999998659354;532;1 A
27.4127169307895;-0.599700927734375;-0.00339660644531251;5.31999998656829;533;1 A
27.4227169307643;-0.5997314453125;-0.00339660644531251;5.32999998654304;534;1 A
27.432716930739;-0.59967041015625;-0.00340881347656249;5.3399999865178;535;1 A
27.4427169307138;-0.599761962890625;-0.00339660644531251;5.34999998649255;536;1 A
27.4527169306886;-0.59979248046875;-0.00341796875;5.3599999864673;537;1 A
27.4627169306633;-0.599822998046875;-0.00339660644531251;5.36999998644205;538;1 A
27.4727169306381;-0.599700927734375;-0.0034027099609375;5.37999998641681;539;1 A
27.4827169306128;-0.5997314453125;-0.00341186523437501;5.38999998639156;540;1 A
27.4927169305876;-0.5997314453125;-0.00340881347656249;5.39999998636631;541;1 A
27.5027169305623;-0.5997314453125;-0.0034210205078125;5.40999998634106;542;1 A
27.5127169305371;-0.59979248046875;-0.00340881347656249;5.41999998631582;543;1 A
27.5227169305118;-0.59967041015625;-0.00342407226562499;5.42999998629057;544;1 A
27.5327169304866;-0.599761962890625;-0.003436279296875;5.43999998626532;545;1 A
27.5427169304613;-0.599761962890625;-0.00343017578125;5.44999998624007;546;1 A
27.5527169304361;-0.59979248046875;-0.003436279296875;5.45999998621483;547;1 A
27.5627169304108;-0.5997314453125;-0.0034210205078125;5.46999998618958;548;1 A
27.5727169303856;-0.599639892578125;-0.003436279296875;5.47999998616433;549;1 A
27.5827169303603;-0.599700927734375;-0.00343933105468749;5.48999998613908;550;1 A
27.5927169303351;-0.599761962890625;-0.00343017578125;5.49999998611383;551;1 A
27.6027169303098;-0.59979248046875;-0.0034515380859375;5.50999998608859;552;1 A
27.6127169302846;-0.599761962890625;-0.003448486328125;5.51999998606334;553;1 A
27.6227169302593;-0.5997314453125;-0.00345458984374999;5.52999998603809;554;1 A
27.6327169302341;-0.5997314453125;-0.003460693359375;5.53999998601284;555;1 A
27.6427169302088;-0.5997314453125;-0.003460693359375;5.5499999859876;556;1 A
27.6527169301836;-0.599853515625;-0.0034820556640625;5.55999998596235;557;1 A
27.6627169301584;-0.599700927734375;-0.003460693359375;5.5699999859371;558;1 A
27.6727169301331;-0.5997314453125;-0.00346984863281249;5.57999998591185;559;1 A
27.6827169301079;-0.599761962890625;-0.00347900390625;5.58999998588661;560;1 A
27.6927169300826;-0.599700927734375;-0.00347900390625;5.59999998586136;561;1 A
27.7027169300574;-0.5997314453125;-0.00348815917968751;5.60999998583611;562;1 A
27.7127169300321;-0.59967041015625;-0.0034759521484375;5.61999998581086;563;1 A
27.7227169300069;-0.599761962890625;-0.00348510742187499;5.62999998578562;564;1 A
27.7327169299816;-0.599700927734375;-0.003497314453125;5.63999998576037;565;1 A
27.7427169299564;-0.599700927734375;-0.0034912109375;5.64999998573512;566;1 A
27.7527169299311;-0.599761962890625;-0.00350341796875001;5.65999998570987;567;1 A
27.7627169299059;-0.599700927734375;-0.00350036621093749;5.66999998568463;568;1 A
27.7727169298806;-0.59991455078125;-0.003509521484375;5.67999998565938;569;1 A
27.7827169298554;-0.59979248046875;-0.00351867675781251;5.68999998563413;570;1 A
27.7927169298301;-0.59967041015625;-0.003509521484375;5.69999998560888;571;1 A
27.8027169298049;-0.5997314453125;-0.003521728515625;5.70999998558364;572;1 A
27.8127169297796;-0.599761962890625;-0.00351562499999999;5.71999998555839;573;1 A
27.8227169297544;-0.5997314453125;-0.0035125732421875;5.72999998553314;574;1 A
27.8327169297291;-0.599700927734375;-0.003521728515625;5.73999998550789;575;1 A
27.8427169297039;-0.599700927734375;-0.003521728515625;5.74999998548265;576;1 A
27.8527169296786;-0.5997314453125;-0.00353088378906249;5.7599999854574;577;1 A
27.8627169296534;-0.5997314453125;-0.00351562499999999;5.76999998543215;578;1 A
27.8727169296282;-0.599761962890625;-0.00351562499999999;5.7799999854069;579;1 A
27.8827169296029;-0.5997314453125;-0.0035247802734375;5.78999998538166;580;1 A
27.8927169295777;-0.599822998046875;-0.00351867675781251;5.79999998535641;581;1 A
27.9027169295524;-0.599761962890625;-0.00352783203125;5.80999998533116;582;1 A
27.9127169295272;-0.5997314453125;-0.003509521484375;5.81999998530591;583;1 A
27.9227169295019;-0.599761962890625;-0.0035125732421875;5.82999998528066;584;1 A
27.9327169294767;-0.59979248046875;-0.003521728515625;5.83999998525542;585;1 A
27.9427169294514;-0.599700927734375;-0.0035125732421875;5.84999998523017;586;1 A
27.9527169294262;-0.599822998046875;-0.0035125732421875;5.85999998520492;587;1 A
27.9627169294009;-0.599761962890625;-0.0035125732421875;5.86999998517967;588;1 A
27.9727169293757;-0.5997314453125;-0.00351867675781251;5.87999998515443;589;1 A
27.9827169293504;-0.59979248046875;-0.00353088378906249;5.88999998512918;590;1 A
27.9927169293252;-0.599700927734375;-0.00351562499999999;5.89999998510393;591;1 A
28.0027169292999;-0.599639892578125;-0.00353088378906249;5.90999998507868;592;1 A
28.0127169292747;-0.5997314453125;-0.00351867675781251;5.91999998505344;593;1 A
28.0227169292494;-0.599761962890625;-0.003521728515625;5.92999998502819;594;1 A
28.0327169292242;-0.599761962890625;-0.00353393554687501;5.93999998500294;595;1 A
28.0427169291989;-0.59979248046875;-0.0035125732421875;5.94999998497769;596;1 A
28.0527169291737;-0.5997314453125;-0.00353088378906249;5.95999998495245;597;1 A
28.0627169291485;-0.59979248046875;-0.003509521484375;5.9699999849272;598;1 A
28.0727169291232;-0.599761962890625;-0.0035064697265625;5.97999998490195;599;1 A
28.082716929098;-0.599700927734375;-0.00351562499999999;5.9899999848767;600;1 A
28.0927169290727;-0.599639892578125;-0.003509521484375;5.99999998485146;601;1 A
28.1027169290475;-0.599700927734375;-0.003521728515625;6.00999998482621;602;1 A
28.1127169290222;-0.599700927734375;-0.00350036621093749;6.01999998480096;603;1 A
28.122716928997;-0.59979248046875;-0.00350341796875001;6.02999998477571;604;1 A
28.1327169289717;-0.599822998046875;-0.00351562499999999;6.03999998475047;605;1 A
28.1427169289465;-0.599700927734375;-0.003497314453125;6.04999998472522;606;1 A
28.1527169289212;-0.59979248046875;-0.003509521484375;6.05999998469997;607;1 A
28.162716928896;-0.599761962890625;-0.0034942626953125;6.06999998467472;608;1 A
28.1727169288707;-0.599761962890625;-0.00350341796875001;6.07999998464948;609;1 A
28.1827169288455;-0.5997314453125;-0.00350341796875001;6.08999998462423;610;1 A
28.1927169288202;-0.599822998046875;-0.0034912109375;6.09999998459898;611;1 A
28.202716928795;-0.599761962890625;-0.0035125732421875;6.10999998457373;612;1 A
28.2127169287697;-0.599700927734375;-0.00350036621093749;6.11999998454849;613;1 A
28.2227169287445;-0.5997314453125;-0.00350036621093749;6.12999998452324;614;1 A
28.2327169287192;-0.599761962890625;-0.0035064697265625;6.13999998449799;615;1 A
28.242716928694;-0.5997314453125;-0.00350341796875001;6.14999998447274;616;1 A
28.2527169286687;-0.5997314453125;-0.0035247802734375;6.1599999844475;617;1 A
28.2627169286435;-0.599700927734375;-0.00350036621093749;6.16999998442225;618;1 A
28.2727169286183;-0.5997314453125;-0.003509521484375;6.179999984397;619;1 A
28.282716928593;-0.5997314453125;-0.003509521484375;6.18999998437175;620;1 A
28.2927169285678;-0.59979248046875;-0.0035064697265625;6.1999999843465;621;1 A
28.3027169285425;-0.599639892578125;-0.00351562499999999;6.20999998432126;622;1 A
28.3127169285173;-0.599853515625;-0.0034942626953125;6.21999998429601;623;1 A
28.322716928492;-0.5997314453125;-0.0035064697265625;6.22999998427076;624;1 A
28.3327169284668;-0.599700927734375;-0.0035125732421875;6.23999998424551;625;1 A
28.3427169284415;-0.59979248046875;-0.00350341796875001;6.24999998422027;626;1 A
28.3527169284163;-0.599700927734375;-0.00351562499999999;6.25999998419502;627;1 A
28.362716928391;-0.599761962890625;-0.003497314453125;6.26999998416977;628;1 A
28.3727169283658;-0.599700927734375;-0.0035125732421875;6.27999998414452;629;1 A
28.3827169283405;-0.5997314453125;-0.00350341796875001;6.28999998411928;630;1 A
28.3927169283153;-0.599700927734375;-0.00350036621093749;6.29999998409403;631;1 A
28.40271692829;-0.5997314453125;-0.003509521484375;6.30999998406878;632;1 A
28.4127169282648;-0.5997314453125;-0.003497314453125;6.31999998404353;633;1 A
28.4227169282395;-0.599761962890625;-0.003497314453125;6.32999998401829;634;1 A
28.4327169282143;-0.599853515625;-0.00350036621093749;6.33999998399304;635;1 A
28.442716928189;-0.59979248046875;-0.00350036621093749;6.34999998396779;636;1 A
28.4527169281638;-0.599822998046875;-0.0035064697265625;6.35999998394254;637;1 A
28.4627169281385;-0.599822998046875;-0.0034942626953125;6.3699999839173;638;1 A
28.4727169281133;-0.5997314453125;-0.003497314453125;6.37999998389205;639;1 A
28.4827169280881;-0.59979248046875;-0.00350341796875001;6.3899999838668;640;1 A
28.4927169280628;-0.599700927734375;-0.0035064697265625;6.39999998384155;641;1 A
28.5027169280376;-0.599761962890625;-0.003497314453125;6.40999998381631;642;1 A
28.5127169280123;-0.599761962890625;-0.00348510742187499;6.41999998379106;643;1 A
28.5227169279871;-0.599761962890625;-0.00348510742187499;6.42999998376581;644;1 A
28.5327169279618;-0.5997314453125;-0.0034942626953125;6.43999998374056;645;1 A
28.5427169279366;-0.5997314453125;-0.00348510742187499;6.44999998371532;646;1 A
28.5527169279113;-0.599853515625;-0.00348510742187499;6.45999998369007;647;1 A
28.5627169278861;-0.599700927734375;-0.00348510742187499;6.46999998366482;648;1 A
28.5727169278608;-0.599761962890625;-0.00348815917968751;6.47999998363957;649;1 A
28.5827169278356;-0.599761962890625;-0.0034912109375;6.48999998361433;650;1 A
28.5927169278103;-0.599700927734375;-0.00347900390625;6.49999998358908;651;1 A
28.6027169277851;-0.5997314453125;-0.0034942626953125;6.50999998356383;652;1 A
28.6127169277598;-0.599700927734375;-0.0034820556640625;6.51999998353858;653;1 A
28.6227169277346;-0.599761962890625;-0.00346984863281249;6.52999998351333;654;1 A
28.6327169277093;-0.5997314453125;-0.00347900390625;6.53999998348809;655;1 A
28.6427169276841;-0.5997314453125;-0.00346984863281249;6.54999998346284;656;1 A
28.6527169276588;-0.599761962890625;-0.00348510742187499;6.55999998343759;657;1 A
28.6627169276336;-0.59979248046875;-0.003460693359375;6.56999998341234;658;1 A
28.6727169276083;-0.599761962890625;-0.00345764160156251;6.5799999833871;659;1 A
28.6827169275831;-0.5997314453125;-0.00346984863281249;6.58999998336185;660;1 A
28.6927169275579;-0.599700927734375;-0.003466796875;6.5999999833366;661;1 A
28.7027169275326;-0.5997314453125;-0.00347900390625;6.60999998331135;662;1 A
28.7127169275074;-0.59979248046875;-0.00345764160156251;6.61999998328611;663;1 A
28.7227169274821;-0.59979248046875;-0.0034637451171875;6.62999998326086;664;1 A
28.7327169274569;-0.5997314453125;-0.0034759521484375;6.63999998323561;665;1 A
28.7427169274316;-0.59979248046875;-0.0034515380859375;6.64999998321036;666;1 A
28.7527169274064;-0.599761962890625;-0.00347290039062501;6.65999998318512;667;1 A
28.7627169273811;-0.59979248046875;-0.0034454345703125;6.66999998315987;668;1 A
28.7727169273559;-0.599761962890625;-0.00345764160156251;6.67999998313462;669;1 A
28.7827169273306;-0.599761962890625;-0.003460693359375;6.68999998310937;670;1 A
28.7927169273054;-0.5997314453125;-0.003448486328125;6.69999998308413;671;1 A
28.8027169272801;-0.599761962890625;-0.003466796875;6.70999998305888;672;1 A
28.8127169272549;-0.599761962890625;-0.0034454345703125;6.71999998303363;673;1 A
28.8227169272296;-0.599761962890625;-0.00345458984374999;6.72999998300838;674;1 A
28.8327169272044;-0.599761962890625;-0.00345764160156251;6.73999998298314;675;1 A
28.8427169271791;-0.599761962890625;-0.0034515380859375;6.74999998295789;676;1 A
28.8527169271539;-0.59967041015625;-0.00347900390625;6.75999998293264;677;1 A
28.8627169271286;-0.5997314453125;-0.00344238281250001;6.76999998290739;678;1 A
28.8727169271034;-0.599761962890625;-0.003448486328125;6.77999998288215;679;1 A
28.8827169270781;-0.59979248046875;-0.0034637451171875;6.7899999828569;680;1 A
28.8927169270529;-0.5997314453125;-0.00345764160156251;6.79999998283165;681;1 A
28.9027169270277;-0.599761962890625;-0.0034637451171875;6.8099999828064;682;1 A
28.9127169270024;-0.599761962890625;-0.0034454345703125;6.81999998278116;683;1 A
28.9227169269772;-0.599761962890625;-0.003460693359375;6.82999998275591;684;1 A
28.9327169269519;-0.599761962890625;-0.00347290039062501;6.83999998273066;685;1 A
28.9427169269267;-0.599761962890625;-0.0034637451171875;6.84999998270541;686;1 A
28.9527169269014;-0.5997314453125;-0.0034820556640625;6.85999998268016;687;1 A
28.9627169268762;-0.599822998046875;-0.003466796875;6.86999998265492;688;1 A
28.9727169268509;-0.599700927734375;-0.00348510742187499;6.87999998262967;689;1 A
28.9827169268257;-0.599761962890625;-0.00347900390625;6.88999998260442;690;1 A
28.9927169268004;-0.599761962890625;-0.00347290039062501;6.89999998257917;691;1 A
29.0027169267752;-0.5997314453125;-0.00347900390625;6.90999998255393;692;1 A
29.0127169267499;-0.599761962890625;-0.0034637451171875;6.91999998252868;693;1 A
29.0227169267247;-0.5997314453125;-0.00346984863281249;6.92999998250343;694;1 A
29.0327169266994;-0.59979248046875;-0.003466796875;6.93999998247818;695;1 A
29.0427169266742;-0.5997314453125;-0.003466796875;6.94999998245294;696;1 A
29.0527169266489;-0.5997314453125;-0.00347900390625;6.95999998242769;697;1 A
29.0627169266237;-0.5997314453125;-0.003460693359375;6.96999998240244;698;1 A
29.0727169265984;-0.5997314453125;-0.00346984863281249;6.97999998237719;699;1 A
29.0827169265732;-0.5997314453125;-0.0034820556640625;6.98999998235195;700;1 A
29.092716926548;-0.5997314453125;-0.0034820556640625;6.9999999823267;701;1 A
29.1027169265227;-0.5997314453125;-0.00347900390625;7.00999998230145;702;1 A
29.1127169264975;-0.59979248046875;-0.0034759521484375;7.0199999822762;703;1 A
29.1227169264722;-0.5997314453125;-0.00347900390625;7.02999998225096;704;1 A
29.132716926447;-0.59979248046875;-0.0034942626953125;7.03999998222571;705;1 A
29.1427169264217;-0.599822998046875;-0.00348510742187499;7.04999998220046;706;1 A
29.1527169263965;-0.599822998046875;-0.0034942626953125;7.05999998217521;707;1 A
29.1627169263712;-0.5997314453125;-0.0034912109375;7.06999998214997;708;1 A
29.172716926346;-0.5997314453125;-0.0034912109375;7.07999998212472;709;1 A
29.1827169263207;-0.599761962890625;-0.003497314453125;7.08999998209947;710;1 A
29.1927169262955;-0.59979248046875;-0.0034942626953125;7.09999998207422;711;1 A
29.2027169262702;-0.599761962890625;-0.0035064697265625;7.10999998204898;712;1 A
29.212716926245;-0.599639892578125;-0.00350036621093749;7.11999998202373;713;1 A
29.2227169262197;-0.5997314453125;-0.0034912109375;7.12999998199848;714;1 A
29.2327169261945;-0.599822998046875;-0.0035064697265625;7.13999998197323;715;1 A
29.2427169261692;-0.599761962890625;-0.00350036621093749;7.14999998194799;716;1 A
29.252716926144;-0.5997314453125;-0.00351867675781251;7.15999998192274;717;1 A
29.2627169261187;-0.599761962890625;-0.0035064697265625;7.16999998189749;718;1 A
29.2727169260935;-0.599822998046875;-0.00350341796875001;7.17999998187224;719;1 A
29.2827169260682;-0.599700927734375;-0.00351562499999999;7.189999981847;720;1 A
29.292716926043;-0.599761962890625;-0.00351562499999999;7.19999998182175;721;1 A
29.3027169260178;-0.599761962890625;-0.00353088378906249;7.2099999817965;722;1 A
29.3127169259925;-0.599822998046875;-0.0035125732421875;7.21999998177125;723;1 A
29.3227169259673;-0.5997314453125;-0.0035247802734375;7.229999981746;724;1 A
29.332716925942;-0.5997314453125;-0.0035369873046875;7.23999998172076;725;1 A
29.3427169259168;-0.59979248046875;-0.0035125732421875;7.24999998169551;726;1 A
29.3527169258915;-0.5997314453125;-0.00353393554687501;7.25999998167026;727;1 A
29.3627169258663;-0.599761962890625;-0.00351867675781251;7.26999998164501;728;1 A
29.372716925841;-0.599700927734375;-0.0035247802734375;7.27999998161977;729;1 A
29.3827169258158;-0.59979248046875;-0.00353088378906249;7.28999998159452;730;1 A
29.3927169257905;-0.599853515625;-0.003509521484375;7.29999998156927;731;1 A
29.4027169257653;-0.5997314453125;-0.00353088378906249;7.30999998154402;732;1 A
29.41271692574;-0.599761962890625;-0.003509521484375;7.31999998151878;733;1 A
29.4227169257148;-0.599700927734375;-0.00351562499999999;7.32999998149353;734;1 A
29.4327169256895;-0.59979248046875;-0.00351562499999999;7.33999998146828;735;1 A
29.4427169256643;-0.599700927734375;-0.0035125732421875;7.34999998144303;736;1 A
29.452716925639;-0.599700927734375;-0.0035369873046875;7.35999998141779;737;1 A
29.4627169256138;-0.59979248046875;-0.003497314453125;7.36999998139254;738;1 A
29.4727169255885;-0.59979248046875;-0.0035125732421875;7.37999998136729;739;1 A
29.4827169255633;-0.599761962890625;-0.00351562499999999;7.38999998134204;740;1 A
29.492716925538;-0.59979248046875;-0.003509521484375;7.3999999813168;741;1 A
29.5027169255128;-0.599761962890625;-0.003521728515625;7.40999998129155;742;1 A
29.5127169254876;-0.59979248046875;-0.00350036621093749;7.4199999812663;743;1 A
29.5227169254623;-0.599761962890625;-0.00351562499999999;7.42999998124105;744;1 A
29.5327169254371;-0.599761962890625;-0.003521728515625;7.43999998121581;745;1 A
29.5427169254118;-0.599822998046875;-0.00351562499999999;7.44999998119056;746;1 A
29.5527169253866;-0.5997314453125;-0.00353393554687501;7.45999998116531;747;1 A
29.5627169253613;-0.599761962890625;-0.00351562499999999;7.46999998114006;748;1 A
29.5727169253361;-0.5997314453125;-0.00353393554687501;7.47999998111482;749;1 A
29.5827169253108;-0.599822998046875;-0.0035247802734375;7.48999998108957;750;1 A
29.5927169252856;-0.5997314453125;-0.0035247802734375;7.49999998106432;751;1 A
29.6027169252603;-0.5997314453125;-0.0035430908203125;7.50999998103907;752;1 A
29.6127169252351;-0.59979248046875;-0.00353088378906249;7.51999998101383;753;1 A
29.6227169252098;-0.599761962890625;-0.0035430908203125;7.52999998098858;754;1 A
29.6327169251846;-0.599822998046875;-0.0035430908203125;7.53999998096333;755;1 A
29.6427169251593;-0.599761962890625;-0.00355224609375;7.54999998093808;756;1 A
29.6527169251341;-0.59979248046875;-0.0035675048828125;7.55999998091283;757;1 A
29.6627169251088;-0.599761962890625;-0.0035552978515625;7.56999998088759;758;1 A
29.6727169250836;-0.599761962890625;-0.0035675048828125;7.57999998086234;759;1 A
29.6827169250583;-0.5997314453125;-0.0035736083984375;7.58999998083709;760;1 A
29.6927169250331;-0.5997314453125;-0.00357666015624999;7.59999998081184;761;1 A
29.7027169250078;-0.599761962890625;-0.003570556640625;7.6099999807866;762;1 A
29.7127169249826;-0.59979248046875;-0.00356445312500001;7.61999998076135;763;1 A
29.7227169249574;-0.599761962890625;-0.0035675048828125;7.6299999807361;764;1 A
29.7327169249321;-0.599761962890625;-0.00357666015624999;7.63999998071085;765;1 A
29.7427169249069;-0.5997314453125;-0.00356140136718749;7.64999998068561;766;1 A
29.7527169248816;-0.59979248046875;-0.0035675048828125;7.65999998066036;767;1 A
29.7627169248564;-0.599700927734375;-0.00356140136718749;7.66999998063511;768;1 A
29.7727169248311;-0.599761962890625;-0.00356140136718749;7.67999998060986;769;1 A
29.7827169248059;-0.599761962890625;-0.0035675048828125;7.68999998058462;770;1 A
29.7927169247806;-0.5997314453125;-0.003558349609375;7.69999998055937;771;1 A
29.8027169247554;-0.5997314453125;-0.003570556640625;7.70999998053412;772;1 A
29.8127169247301;-0.5997314453125;-0.003558349609375;7.71999998050887;773;1 A
29.8227169247049;-0.5997314453125;-0.00354919433593751;7.72999998048363;774;1 A
29.8327169246796;-0.5997314453125;-0.0035675048828125;7.73999998045838;775;1 A
29.8427169246544;-0.599761962890625;-0.00355224609375;7.74999998043313;776;1 A
29.8527169246291;-0.599761962890625;-0.003570556640625;7.75999998040788;777;1 A
29.8627169246039;-0.59979248046875;-0.00354614257812499;7.76999998038264;778;1 A
29.8727169245786;-0.5997314453125;-0.0035552978515625;7.77999998035739;779;1 A
29.8827169245534;-0.5997314453125;-0.003558349609375;7.78999998033214;780;1 A
29.8927169245281;-0.599761962890625;-0.00354919433593751;7.79999998030689;781;1 A
29.9027169245029;-0.599761962890625;-0.00356445312500001;7.80999998028165;782;1 A
29.9127169244776;-0.599700927734375;-0.00354919433593751;7.8199999802564;783;1 A
29.9227169244524;-0.59979248046875;-0.003558349609375;7.82999998023115;784;1 A
29.9327169244272;-0.5997314453125;-0.003570556640625;7.8399999802059;785;1 A
29.9427169244019;-0.5997314453125;-0.0035400390625;7.84999998018066;786;1 A
29.9527169243767;-0.599761962890625;-0.00356140136718749;7.85999998015541;787;1 A
29.9627169243514;-0.599761962890625;-0.0035400390625;7.86999998013016;788;1 A
29.9727169243262;-0.599761962890625;-0.00354614257812499;7.87999998010491;789;1 A
29.9827169243009;-0.599761962890625;-0.00354919433593751;7.88999998007966;790;1 A
29.9927169242757;-0.599700927734375;-0.0035369873046875;7.89999998005442;791;1 A
30.0027169242504;-0.5997314453125;-0.00354614257812499;7.90999998002917;792;1 A
30.0127169242252;-0.599761962890625;-0.00353088378906249;7.91999998000392;793;1 A
30.0227169241999;-0.5997314453125;-0.0035369873046875;7.92999997997867;794;1 A
30.0327169241747;-0.599761962890625;-0.00353393554687501;7.93999997995343;795;1 A
30.0427169241494;-0.59979248046875;-0.00352783203125;7.94999997992818;796;1 A
30.0527169241242;-0.5997314453125;-0.0035430908203125;7.95999997990293;797;1 A
30.0627169240989;-0.5997314453125;-0.00350341796875001;7.96999997987768;798;1 A
30.0727169240737;-0.5997314453125;-0.003521728515625;7.97999997985244;799;1 A
30.0827169240484;-0.5997314453125;-0.00351867675781251;7.98999997982719;800;1 A
30.0927169240232;-0.59979248046875;-0.003509521484375;7.99999997980194;801;1 A
30.1027169239979;-0.599700927734375;-0.00351867675781251;8.00999997977669;802;1 A
30.1127169239727;-0.599761962890625;-0.00350036621093749;8.01999997975145;803;1 A
30.1227169239475;-0.599700927734375;-0.00350341796875001;8.0299999797262;804;1 A
30.1327169239222;-0.59979248046875;-0.00350036621093749;8.03999997970095;805;1 A
30.142716923897;-0.59967041015625;-0.00350036621093749;8.0499999796757;806;1 A
30.1527169238717;-0.59967041015625;-0.003509521484375;8.05999997965046;807;1 A
30.1627169238465;-0.59979248046875;-0.00348815917968751;8.06999997962521;808;1 A
30.1727169238212;-0.59979248046875;-0.0034942626953125;8.07999997959996;809;1 A
30.182716923796;-0.599761962890625;-0.00348510742187499;8.08999997957471;810;1 A
30.1927169237707;-0.599761962890625;-0.00347900390625;8.09999997954947;811;1 A
30.2027169237455;-0.5997314453125;-0.00348510742187499;8.10999997952422;812;1 A
30.2127169237202;-0.599700927734375;-0.003466796875;8.11999997949897;813;1 A
30.222716923695;-0.599761962890625;-0.00346984863281249;8.12999997947372;814;1 A
30.2327169236697;-0.599761962890625;-0.003466796875;8.13999997944848;815;1 A
30.2427169236445;-0.59979248046875;-0.00345764160156251;8.14999997942323;816;1 A
30.2527169236192;-0.59979248046875;-0.0034637451171875;8.15999997939798;817;1 A
30.262716923594;-0.5997314453125;-0.003448486328125;8.16999997937273;818;1 A
30.2727169235687;-0.599761962890625;-0.003448486328125;8.17999997934749;819;1 A
30.2827169235435;-0.599761962890625;-0.0034515380859375;8.18999997932224;820;1 A
30.2927169235182;-0.59967041015625;-0.00344238281250001;8.19999997929699;821;1 A
30.302716923493;-0.5997314453125;-0.0034332275390625;8.20999997927174;822;1 A
30.3127169234677;-0.5997314453125;-0.0034149169921875;8.2199999792465;823;1 A
30.3227169234425;-0.5997314453125;-0.00341186523437501;8.22999997922125;824;1 A
30.3327169234173;-0.59979248046875;-0.00341186523437501;8.239999979196;825;1 A
30.342716923392;-0.599761962890625;-0.00339660644531251;8.24999997917075;826;1 A
30.3527169233668;-0.5997314453125;-0.0034027099609375;8.2599999791455;827;1 A
30.3627169233415;-0.59979248046875;-0.00338134765625001;8.26999997912026;828;1 A
30.3727169233163;-0.5997314453125;-0.003387451171875;8.27999997909501;829;1 A
30.382716923291;-0.5997314453125;-0.003387451171875;8.28999997906976;830;1 A
30.3927169232658;-0.5997314453125;-0.00338134765625001;8.29999997904451;831;1 A
30.4027169232405;-0.5997314453125;-0.0033843994140625;8.30999997901927;832;1 A
30.4127169232153;-0.599700927734375;-0.003369140625;8.31999997899402;833;1 A
30.42271692319;-0.59979248046875;-0.00336608886718751;8.32999997896877;834;1 A
30.4327169231648;-0.5997314453125;-0.0033721923828125;8.33999997894352;835;1 A
30.4427169231395;-0.59979248046875;-0.00336608886718751;8.34999997891828;836;1 A
30.4527169231143;-0.599822998046875;-0.00337829589843749;8.35999997889303;837;1 A
30.462716923089;-0.59979248046875;-0.00335693359375;8.36999997886778;838;1 A
30.4727169230638;-0.5997314453125;-0.003369140625;8.37999997884253;839;1 A
30.4827169230385;-0.599700927734375;-0.0033721923828125;8.38999997881729;840;1 A
30.4927169230133;-0.59979248046875;-0.0033721923828125;8.39999997879204;841;1 A
30.502716922988;-0.599761962890625;-0.0033843994140625;8.40999997876679;842;1 A
30.5127169229628;-0.5997314453125;-0.0033721923828125;8.41999997874154;843;1 A
30.5227169229375;-0.5997314453125;-0.00338134765625001;8.4299999787163;844;1 A
30.5327169229123;-0.5997314453125;-0.00339355468749999;8.43999997869105;845;1 A
30.5427169228871;-0.599761962890625;-0.003375244140625;8.4499999786658;846;1 A
30.5527169228618;-0.59979248046875;-0.00339355468749999;8.45999997864055;847;1 A
30.5627169228366;-0.599700927734375;-0.0033843994140625;8.46999997861531;848;1 A
30.5727169228113;-0.599761962890625;-0.003399658203125;8.47999997859006;849;1 A
30.5827169227861;-0.59979248046875;-0.003399658203125;8.48999997856481;850;1 A
30.5927169227608;-0.5997314453125;-0.003399658203125;8.49999997853956;851;1 A
30.6027169227356;-0.59979248046875;-0.00340881347656249;8.50999997851432;852;1 A
30.6127169227103;-0.5997314453125;-0.00339355468749999;8.51999997848907;853;1 A
30.6227169226851;-0.5997314453125;-0.00340881347656249;8.52999997846382;854;1 A
30.6327169226598;-0.5997314453125;-0.00340881347656249;8.53999997843857;855;1 A
30.6427169226346;-0.599761962890625;-0.00340881347656249;8.54999997841333;856;1 A
30.6527169226093;-0.5997314453125;-0.00341796875;8.55999997838808;857;1 A
30.6627169225841;-0.599761962890625;-0.00339355468749999;8.56999997836283;858;1 A
30.6727169225588;-0.599700927734375;-0.0034027099609375;8.57999997833758;859;1 A
30.6827169225336;-0.5997314453125;-0.00340576171875;8.58999997831233;860;1 A
30.6927169225083;-0.5997314453125;-0.00340576171875;8.59999997828709;861;1 A
30.7027169224831;-0.59979248046875;-0.0034149169921875;8.60999997826184;862;1 A
30.7127169224578;-0.599761962890625;-0.003399658203125;8.61999997823659;863;1 A
30.7227169224326;-0.5997314453125;-0.00341796875;8.62999997821134;864;1 A
30.7327169224073;-0.599761962890625;-0.0034149169921875;8.6399999781861;865;1 A
30.7427169223821;-0.5997314453125;-0.0034149169921875;8.64999997816085;866;1 A
30.7527169223569;-0.59979248046875;-0.00342712402343751;8.6599999781356;867;1 A
30.7627169223316;-0.599761962890625;-0.0034149169921875;8.66999997811035;868;1 A
30.7727169223064;-0.599761962890625;-0.00343017578125;8.67999997808511;869;1 A
30.7827169222811;-0.5997314453125;-0.00343017578125;8.68999997805986;870;1 A
30.7927169222559;-0.599761962890625;-0.00342712402343751;8.69999997803461;871;1 A
30.8027169222306;-0.599700927734375;-0.003436279296875;8.70999997800936;872;1 A
30.8127169222054;-0.59979248046875;-0.00342712402343751;8.71999997798412;873;1 A
30.8227169221801;-0.599700927734375;-0.003436279296875;8.72999997795887;874;1 A
30.8327169221549;-0.5997314453125;-0.00344238281250001;8.73999997793362;875;1 A
30.8427169221296;-0.599761962890625;-0.003436279296875;8.74999997790837;876;1 A
30.8527169221044;-0.59979248046875;-0.0034515380859375;8.75999997788313;877;1 A
30.8627169220791;-0.599761962890625;-0.00343933105468749;8.76999997785788;878;1 A
30.8727169220539;-0.5997314453125;-0.0034515380859375;8.77999997783263;879;1 A
30.8827169220286;-0.5997314453125;-0.00345764160156251;8.78999997780738;880;1 A
30.8927169220034;-0.599761962890625;-0.00345764160156251;8.79999997778214;881;1 A
30.9027169219781;-0.599761962890625;-0.003460693359375;8.80999997775689;882;1 A
30.9127169219529;-0.59979248046875;-0.0034515380859375;8.81999997773164;883;1 A
30.9227169219276;-0.599822998046875;-0.0034637451171875;8.82999997770639;884;1 A
30.9327169219024;-0.599761962890625;-0.00346984863281249;8.83999997768115;885;1 A
30.9427169218771;-0.599761962890625;-0.0034637451171875;8.8499999776559;886;1 A
30.9527169218519;-0.59979248046875;-0.00348815917968751;8.85999997763065;887;1 A
30.9627169218267;-0.599761962890625;-0.00347290039062501;8.8699999776054;888;1 A
30.9727169218014;-0.59979248046875;-0.0034820556640625;8.87999997758016;889;1 A
30.9827169217762;-0.599761962890625;-0.0034912109375;8.88999997755491;890;1 A
30.9927169217509;-0.5997314453125;-0.0034942626953125;8.89999997752966;891;1 A
31.0027169217257;-0.5997314453125;-0.003509521484375;8.90999997750441;892;1 A
31.0127169217004;-0.599761962890625;-0.003497314453125;8.91999997747916;893;1 A
31.0227169216752;-0.599700927734375;-0.003509521484375;8.92999997745392;894;1 A
31.0327169216499;-0.59979248046875;-0.0035247802734375;8.93999997742867;895;1 A
31.0427169216247;-0.599761962890625;-0.003521728515625;8.94999997740342;896;1 A
31.0527169215994;-0.59967041015625;-0.0035369873046875;8.95999997737817;897;1 A
31.0627169215742;-0.59979248046875;-0.003521728515625;8.96999997735293;898;1 A
31.0727169215489;-0.59967041015625;-0.0035369873046875;8.97999997732768;899;1 A
31.0827169215237;-0.599700927734375;-0.0035400390625;8.98999997730243;900;1 A
31.0927169214984;-0.5997314453125;-0.0035400390625;8.99999997727718;901;1 A
31.1027169214732;-0.599700927734375;-0.00354614257812499;9.00999997725194;902;1 A
31.1127169214479;-0.5997314453125;-0.00353393554687501;9.01999997722669;903;1 A
31.1227169214227;-0.5997314453125;-0.0035369873046875;9.02999997720144;904;1 A
31.1327169213974;-0.599761962890625;-0.0035369873046875;9.03999997717619;905;1 A
31.1427169213722;-0.5997314453125;-0.00352783203125;9.04999997715095;906;1 A
31.152716921347;-0.59979248046875;-0.00353393554687501;9.0599999771257;907;1 A
31.1627169213217;-0.599700927734375;-0.003521728515625;9.06999997710045;908;1 A
31.1727169212965;-0.599822998046875;-0.00352783203125;9.0799999770752;909;1 A
31.1827169212712;-0.599822998046875;-0.003521728515625;9.08999997704996;910;1 A
31.192716921246;-0.599700927734375;-0.003521728515625;9.09999997702471;911;1 A
31.2027169212207;-0.59979248046875;-0.00353088378906249;9.10999997699946;912;1 A
31.2127169211955;-0.599700927734375;-0.00350341796875001;9.11999997697421;913;1 A
31.2227169211702;-0.5997314453125;-0.00351562499999999;9.12999997694897;914;1 A
31.232716921145;-0.599761962890625;-0.00351562499999999;9.13999997692372;915;1 A
31.2427169211197;-0.599761962890625;-0.003509521484375;9.14999997689847;916;1 A
31.2527169210945;-0.599761962890625;-0.003521728515625;9.15999997687322;917;1 A
31.2627169210692;-0.599761962890625;-0.0035064697265625;9.16999997684798;918;1 A
31.272716921044;-0.599700927734375;-0.003509521484375;9.17999997682273;919;1 A
31.2827169210187;-0.59979248046875;-0.003509521484375;9.18999997679748;920;1 A
31.2927169209935;-0.59979248046875;-0.0035064697265625;9.19999997677223;921;1 A
31.3027169209682;-0.5997314453125;-0.0035125732421875;9.20999997674699;922;1 A
31.312716920943;-0.599700927734375;-0.00350036621093749;9.21999997672174;923;1 A
31.3227169209177;-0.599761962890625;-0.0035125732421875;9.22999997669649;924;1 A
31.3327169208925;-0.59979248046875;-0.0035064697265625;9.23999997667124;925;1 A
31.3427169208672;-0.599822998046875;-0.0035064697265625;9.249999976646;926;1 A
31.352716920842;-0.599761962890625;-0.00351562499999999;9.25999997662075;927;1 A
31.3627169208168;-0.599761962890625;-0.0034942626953125;9.2699999765955;928;1 A
31.3727169207915;-0.5997314453125;-0.0035064697265625;9.27999997657025;929;1 A
31.3827169207663;-0.5997314453125;-0.0035064697265625;9.289999976545;930;1 A
31.392716920741;-0.599700927734375;-0.003497314453125;9.29999997651976;931;1 A
31.4027169207158;-0.599761962890625;-0.00350341796875001;9.30999997649451;932;1 A
31.4127169206905;-0.5997314453125;-0.00348510742187499;9.31999997646926;933;1 A
31.4227169206653;-0.599761962890625;-0.0034820556640625;9.32999997644401;934;1 A
31.43271692064;-0.5997314453125;-0.0034820556640625;9.33999997641877;935;1 A
31.4427169206148;-0.5997314453125;-0.0034759521484375;9.34999997639352;936;1 A
31.4527169205895;-0.599700927734375;-0.00346984863281249;9.35999997636827;937;1 A
31.4627169205643;-0.599761962890625;-0.0034515380859375;9.36999997634302;938;1 A
31.472716920539;-0.599761962890625;-0.00345764160156251;9.37999997631778;939;1 A
31.4827169205138;-0.59979248046875;-0.003460693359375;9.38999997629253;940;1 A
31.4927169204885;-0.599853515625;-0.0034515380859375;9.39999997626728;941;1 A
31.5027169204633;-0.599700927734375;-0.00345764160156251;9.40999997624203;942;1 A
31.512716920438;-0.599761962890625;-0.003436279296875;9.41999997621679;943;1 A
31.5227169204128;-0.599700927734375;-0.0034454345703125;9.42999997619154;944;1 A
31.5327169203875;-0.59979248046875;-0.0034454345703125;9.43999997616629;945;1 A
31.5427169203623;-0.5997314453125;-0.0034332275390625;9.44999997614104;946;1 A
31.552716920337;-0.59967041015625;-0.00345458984374999;9.4599999761158;947;1 A
31.5627169203118;-0.5997314453125;-0.00343933105468749;9.46999997609055;948;1 A
31.5727169202866;-0.5997314453125;-0.00343933105468749;9.4799999760653;949;1 A
31.5827169202613;-0.5997314453125;-0.003436279296875;9.48999997604005;950;1 A
31.5927169202361;-0.599761962890625;-0.00343017578125;9.49999997601481;951;1 A
31.6027169202108;-0.599700927734375;-0.00343933105468749;9.50999997598956;952;1 A
31.6127169201856;-0.5997314453125;-0.0034210205078125;9.51999997596431;953;1 A
31.6227169201603;-0.59979248046875;-0.00343017578125;9.52999997593906;954;1 A
31.6327169201351;-0.5997314453125;-0.003436279296875;9.53999997591382;955;1 A
31.6427169201098;-0.5997314453125;-0.00343017578125;9.54999997588857;956;1 A
31.6527169200846;-0.59979248046875;-0.00343933105468749;9.55999997586332;957;1 A
31.6627169200593;-0.599761962890625;-0.0034210205078125;9.56999997583807;958;1 A
31.6727169200341;-0.599700927734375;-0.00344238281250001;9.57999997581283;959;1 A
31.6827169200088;-0.599761962890625;-0.00344238281250001;9.58999997578758;960;1 A
31.6927169199836;-0.59979248046875;-0.003436279296875;9.59999997576233;961;1 A
31.7027169199583;-0.599761962890625;-0.0034454345703125;9.60999997573708;962;1 A
31.7127169199331;-0.59979248046875;-0.00343017578125;9.61999997571183;963;1 A
31.7227169199078;-0.59967041015625;-0.00344238281250001;9.62999997568659;964;1 A
31.7327169198826;-0.599761962890625;-0.0034454345703125;9.63999997566134;965;1 A
31.7427169198573;-0.599761962890625;-0.00344238281250001;9.64999997563609;966;1 A
31.7527169198321;-0.5997314453125;-0.00345458984374999;9.65999997561084;967;1 A
31.7627169198068;-0.599822998046875;-0.003436279296875;9.6699999755856;968;1 A
31.7727169197816;-0.5997314453125;-0.0034515380859375;9.67999997556035;969;1 A
31.7827169197564;-0.599761962890625;-0.003448486328125;9.6899999755351;970;1 A
31.7927169197311;-0.599639892578125;-0.00345764160156251;9.69999997550985;971;1 A
31.8027169197059;-0.599700927734375;-0.003466796875;9.70999997548461;972;1 A
31.8127169196806;-0.599761962890625;-0.00344238281250001;9.71999997545936;973;1 A
31.8227169196554;-0.599761962890625;-0.003448486328125;9.72999997543411;974;1 A
31.8327169196301;-0.599761962890625;-0.00345458984374999;9.73999997540886;975;1 A
31.8427169196049;-0.599761962890625;-0.003448486328125;9.74999997538362;976;1 A
31.8527169195796;-0.599761962890625;-0.0034515380859375;9.75999997535837;977;1 A
31.8627169195544;-0.599761962890625;-0.003436279296875;9.76999997533312;978;1 A
31.8727169195291;-0.59979248046875;-0.00344238281250001;9.77999997530787;979;1 A
31.8827169195039;-0.599761962890625;-0.00344238281250001;9.78999997528263;980;1 A
31.8927169194786;-0.599700927734375;-0.003436279296875;9.79999997525738;981;1 A
31.9027169194534;-0.59979248046875;-0.00343933105468749;9.80999997523213;982;1 A
31.9127169194281;-0.599700927734375;-0.0034332275390625;9.81999997520688;983;1 A
31.9227169194029;-0.599700927734375;-0.0034515380859375;9.82999997518164;984;1 A
31.9327169193776;-0.599700927734375;-0.00344238281250001;9.83999997515639;985;1 A
31.9427169193524;-0.59979248046875;-0.00343933105468749;9.84999997513114;986;1 A
31.9527169193271;-0.599822998046875;-0.003448486328125;9.85999997510589;987;1 A
31.9627169193019;-0.5997314453125;-0.003436279296875;9.86999997508065;988;1 A
31.9727169192766;-0.599761962890625;-0.0034454345703125;9.8799999750554;989;1 A
31.9827169192514;-0.5997314453125;-0.003448486328125;9.88999997503015;990;1 A
31.9927169192262;-0.599761962890625;-0.00343933105468749;9.8999999750049;991;1 A
32.0027169192009;-0.599761962890625;-0.003448486328125;9.90999997497966;992;1 A
32.0127169191757;-0.59979248046875;-0.00344238281250001;9.91999997495441;993;1 A
32.0227169191504;-0.599761962890625;-0.003448486328125;9.92999997492916;994;1 A
32.0327169191252;-0.5997314453125;-0.003448486328125;9.93999997490391;995;1 A
32.0427169190999;-0.5997314453125;-0.003448486328125;9.94999997487866;996;1 A
32.0527169190747;-0.599761962890625;-0.00345458984374999;9.95999997485342;997;1 A
32.0627169190494;-0.599700927734375;-0.0034332275390625;9.96999997482817;998;1 A
32.0727169190242;-0.59979248046875;-0.003448486328125;9.97999997480292;999;1 A
32.0827169189989;-0.5997314453125;-0.003448486328125;9.98999997477767;1000;1 A
