Time (s);WE(1).Potential (V);WE(1).Current (A);Corrected time (s);Index;Current range;Overload
32.8100089171627;-0.88043212890625;-2.34222412109375;0;1;1 A;Current overload
32.8200089171374;-0.96099853515625;-1.91619873046875;0.00999999997475243;2;1 A;
32.8300089171122;-1.00067138671875;-1.38031005859375;0.0199999999495049;3;1 A;
32.8400089170869;-1.0003662109375;-1.15814208984375;0.0299999999242573;4;1 A;
32.8500089170617;-0.99945068359375;-1.0205078125;0.0399999998990097;5;1 A;
32.8600089170365;-0.999755859375;-0.92376708984375;0.0499999998737621;6;1 A;
32.8700089170112;-0.999755859375;-0.85052490234375;0.0599999998485146;7;1 A;
32.880008916986;-1.00006103515625;-0.7928466796875;0.069999999823267;8;1 A;
32.8900089169607;-0.999755859375;-0.74615478515625;0.0799999997980194;9;1 A;
32.9000089169355;-0.999755859375;-0.70709228515625;0.0899999997727718;10;1 A;
32.9100089169102;-0.999755859375;-0.67352294921875;0.0999999997475243;11;1 A;
32.920008916885;-0.999755859375;-0.6451416015625;0.109999999722277;12;1 A;
32.9300089168597;-1.00006103515625;-0.61981201171875;0.119999999697029;13;1 A;
32.9400089168345;-0.999755859375;-0.59783935546875;0.129999999671782;14;1 A;
32.9500089168092;-0.999755859375;-0.57769775390625;0.139999999646534;15;1 A;
32.960008916784;-0.999755859375;-0.560302734375;0.149999999621286;16;1 A;
32.9700089167587;-0.999755859375;-0.54412841796875;0.159999999596039;17;1 A;
32.9800089167335;-1.00006103515625;-0.52947998046875;0.169999999570791;18;1 A;
32.9900089167082;-0.99945068359375;-0.51605224609375;0.179999999545544;19;1 A;
33.000008916683;-0.999755859375;-0.5035400390625;0.189999999520296;20;1 A;
33.0100089166577;-0.99945068359375;-0.49224853515625;0.199999999495049;21;1 A;
33.0200089166325;-0.99945068359375;-0.48193359375;0.209999999469801;22;1 A;
33.0300089166072;-0.999755859375;-0.472442626953125;0.219999999444553;23;1 A;
33.040008916582;-0.999755859375;-0.463653564453125;0.229999999419306;24;1 A;
33.0500089165567;-0.99945068359375;-0.4554443359375;0.239999999394058;25;1 A;
33.0600089165315;-1.0003662109375;-0.44781494140625;0.249999999368811;26;1 A;
33.0700089165063;-1.00006103515625;-0.44061279296875;0.259999999343563;27;1 A;
33.080008916481;-0.999755859375;-0.433929443359375;0.269999999318316;28;1 A;
33.0900089164558;-1.00006103515625;-0.427520751953125;0.279999999293068;29;1 A;
33.1000089164305;-0.999755859375;-0.421478271484375;0.28999999926782;30;1 A;
33.1100089164053;-0.999755859375;-0.415802001953125;0.299999999242573;31;1 A;
33.12000891638;-0.999755859375;-0.410369873046875;0.309999999217325;32;1 A;
33.1300089163548;-1.00006103515625;-0.405517578125;0.319999999192078;33;1 A;
33.1400089163295;-1.00006103515625;-0.400665283203125;0.32999999916683;34;1 A;
33.1500089163043;-0.99945068359375;-0.396331787109375;0.339999999141583;35;1 A;
33.160008916279;-1.00006103515625;-0.39227294921875;0.349999999116335;36;1 A;
33.1700089162538;-1.00006103515625;-0.3885498046875;0.359999999091087;37;1 A;
33.1800089162285;-0.99945068359375;-0.385040283203125;0.36999999906584;38;1 A;
33.1900089162033;-1.00006103515625;-0.3817138671875;0.379999999040592;39;1 A;
33.200008916178;-0.99945068359375;-0.378631591796875;0.389999999015345;40;1 A;
33.2100089161528;-0.999755859375;-0.375518798828125;0.399999998990097;41;1 A;
33.2200089161275;-0.99945068359375;-0.37249755859375;0.40999999896485;42;1 A;
33.2300089161023;-1.00006103515625;-0.369659423828125;0.419999998939602;43;1 A;
33.240008916077;-0.999755859375;-0.366973876953125;0.429999998914354;44;1 A;
33.2500089160518;-0.999755859375;-0.36444091796875;0.439999998889107;45;1 A;
33.2600089160265;-1.00006103515625;-0.362060546875;0.449999998863859;46;1 A;
33.2700089160013;-0.999755859375;-0.3597412109375;0.459999998838612;47;1 A;
33.2800089159761;-0.99945068359375;-0.357574462890625;0.469999998813364;48;1 A;
33.2900089159508;-1.00006103515625;-0.35546875;0.479999998788116;49;1 A;
33.3000089159256;-0.999755859375;-0.3533935546875;0.489999998762869;50;1 A;
33.3100089159003;-0.999755859375;-0.35162353515625;0.499999998737621;51;1 A;
33.3200089158751;-0.999755859375;-0.34991455078125;0.509999998712374;52;1 A;
33.3300089158498;-1.0003662109375;-0.34814453125;0.519999998687126;53;1 A;
33.3400089158246;-0.99945068359375;-0.3463134765625;0.529999998661879;54;1 A;
33.3500089157993;-0.99945068359375;-0.344512939453125;0.539999998636631;55;1 A;
33.3600089157741;-0.99945068359375;-0.34283447265625;0.549999998611383;56;1 A;
33.3700089157488;-0.999755859375;-0.341278076171875;0.559999998586136;57;1 A;
33.3800089157236;-1.00006103515625;-0.339752197265625;0.569999998560888;58;1 A;
33.3900089156983;-0.999755859375;-0.33837890625;0.579999998535641;59;1 A;
33.4000089156731;-0.99945068359375;-0.337249755859375;0.589999998510393;60;1 A;
33.4100089156478;-0.999755859375;-0.33612060546875;0.599999998485146;61;1 A;
33.4200089156226;-1.00006103515625;-0.334869384765625;0.609999998459898;62;1 A;
33.4300089155973;-0.99945068359375;-0.3338623046875;0.61999999843465;63;1 A;
33.4400089155721;-0.999755859375;-0.332763671875;0.629999998409403;64;1 A;
33.4500089155468;-0.9991455078125;-0.33172607421875;0.639999998384155;65;1 A;
33.4600089155216;-1.00006103515625;-0.330596923828125;0.649999998358908;66;1 A;
33.4700089154964;-0.99945068359375;-0.3294677734375;0.65999999833366;67;1 A;
33.4800089154711;-1.00006103515625;-0.3284912109375;0.669999998308413;68;1 A;
33.4900089154459;-1.00006103515625;-0.32763671875;0.679999998283165;69;1 A;
33.5000089154206;-0.99945068359375;-0.326751708984375;0.689999998257917;70;1 A;
33.5100089153954;-0.99945068359375;-0.325897216796875;0.69999999823267;71;1 A;
33.5200089153701;-0.999755859375;-0.3251953125;0.709999998207422;72;1 A;
33.5300089153449;-0.999755859375;-0.32452392578125;0.719999998182175;73;1 A;
33.5400089153196;-0.999755859375;-0.323822021484375;0.729999998156927;74;1 A;
33.5500089152944;-1.00006103515625;-0.32318115234375;0.73999999813168;75;1 A;
33.5600089152691;-0.999755859375;-0.322540283203125;0.749999998106432;76;1 A;
33.5700089152439;-0.99945068359375;-0.32183837890625;0.759999998081184;77;1 A;
33.5800089152186;-0.999755859375;-0.32098388671875;0.769999998055937;78;1 A;
33.5900089151934;-0.999755859375;-0.320098876953125;0.779999998030689;79;1 A;
33.6000089151681;-1.00006103515625;-0.319366455078125;0.789999998005442;80;1 A;
33.6100089151429;-0.9991455078125;-0.31866455078125;0.799999997980194;81;1 A;
33.6200089151176;-1.00006103515625;-0.31805419921875;0.809999997954947;82;1 A;
33.6300089150924;-0.99945068359375;-0.31756591796875;0.819999997929699;83;1 A;
33.6400089150671;-0.999755859375;-0.317169189453125;0.829999997904451;84;1 A;
33.6500089150419;-0.999755859375;-0.31646728515625;0.839999997879204;85;1 A;
33.6600089150166;-0.999755859375;-0.315948486328125;0.849999997853956;86;1 A;
33.6700089149914;-1.0003662109375;-0.315216064453125;0.859999997828709;87;1 A;
33.6800089149662;-0.999755859375;-0.3148193359375;0.869999997803461;88;1 A;
33.6900089149409;-0.99945068359375;-0.31414794921875;0.879999997778214;89;1 A;
33.7000089149157;-0.999755859375;-0.313507080078125;0.889999997752966;90;1 A;
33.7100089148904;-0.99945068359375;-0.312835693359375;0.899999997727718;91;1 A;
33.7200089148652;-0.99945068359375;-0.312286376953125;0.909999997702471;92;1 A;
33.7300089148399;-0.99945068359375;-0.31182861328125;0.919999997677223;93;1 A;
33.7400089148147;-0.999755859375;-0.311279296875;0.929999997651976;94;1 A;
33.7500089147894;-0.99945068359375;-0.310943603515625;0.939999997626728;95;1 A;
33.7600089147642;-0.99945068359375;-0.31085205078125;0.949999997601481;96;1 A;
33.7700089147389;-1.00006103515625;-0.310577392578125;0.959999997576233;97;1 A;
33.7800089147137;-0.999755859375;-0.310272216796875;0.969999997550985;98;1 A;
33.7900089146884;-0.99945068359375;-0.309844970703125;0.979999997525738;99;1 A;
33.8000089146632;-0.999755859375;-0.309600830078125;0.98999999750049;100;1 A;
33.8100089146379;-0.99945068359375;-0.309112548828125;0.999999997475243;101;1 A;
33.8200089146127;-0.999755859375;-0.30865478515625;1.00999999745;102;1 A;
33.8300089145874;-0.99945068359375;-0.3082275390625;1.01999999742475;103;1 A;
33.8400089145622;-0.999755859375;-0.307952880859375;1.0299999973995;104;1 A;
33.8500089145369;-0.99945068359375;-0.3076171875;1.03999999737425;105;1 A;
33.8600089145117;-0.99945068359375;-0.30755615234375;1.049999997349;106;1 A;
33.8700089144864;-0.999755859375;-0.307220458984375;1.05999999732376;107;1 A;
33.8800089144612;-1.00006103515625;-0.3072509765625;1.06999999729851;108;1 A;
33.890008914436;-0.999755859375;-0.30694580078125;1.07999999727326;109;1 A;
33.9000089144107;-0.99945068359375;-0.306549072265625;1.08999999724801;110;1 A;
33.9100089143855;-0.99945068359375;-0.306304931640625;1.09999999722277;111;1 A;
33.9200089143602;-0.99945068359375;-0.3060302734375;1.10999999719752;112;1 A;
33.930008914335;-0.999755859375;-0.30560302734375;1.11999999717227;113;1 A;
33.9400089143097;-0.99945068359375;-0.305023193359375;1.12999999714702;114;1 A;
33.9500089142845;-0.9991455078125;-0.304473876953125;1.13999999712178;115;1 A;
33.9600089142592;-0.999755859375;-0.30389404296875;1.14999999709653;116;1 A;
33.970008914234;-0.999755859375;-0.303619384765625;1.15999999707128;117;1 A;
33.9800089142087;-0.999755859375;-0.30322265625;1.16999999704603;118;1 A;
33.9900089141835;-0.999755859375;-0.303070068359375;1.17999999702079;119;1 A;
34.0000089141582;-0.99945068359375;-0.30316162109375;1.18999999699554;120;1 A;
34.010008914133;-0.999755859375;-0.30303955078125;1.19999999697029;121;1 A;
34.0200089141077;-0.999755859375;-0.302642822265625;1.20999999694504;122;1 A;
34.0300089140825;-0.99945068359375;-0.302337646484375;1.2199999969198;123;1 A;
34.0400089140572;-0.99945068359375;-0.302032470703125;1.22999999689455;124;1 A;
34.050008914032;-0.999755859375;-0.301849365234375;1.2399999968693;125;1 A;
34.0600089140067;-0.999755859375;-0.301483154296875;1.24999999684405;126;1 A;
34.0700089139815;-0.99945068359375;-0.3011474609375;1.25999999681881;127;1 A;
34.0800089139562;-0.999755859375;-0.300750732421875;1.26999999679356;128;1 A;
34.090008913931;-0.999755859375;-0.300628662109375;1.27999999676831;129;1 A;
34.1000089139058;-0.999755859375;-0.300323486328125;1.28999999674306;130;1 A;
34.1100089138805;-0.99945068359375;-0.300262451171875;1.29999999671782;131;1 A;
34.1200089138553;-0.99945068359375;-0.300201416015625;1.30999999669257;132;1 A;
34.13000891383;-1.00006103515625;-0.30010986328125;1.31999999666732;133;1 A;
34.1400089138048;-0.99945068359375;-0.299835205078125;1.32999999664207;134;1 A;
34.1500089137795;-0.999755859375;-0.29937744140625;1.33999999661683;135;1 A;
34.1600089137543;-0.999755859375;-0.299163818359375;1.34999999659158;136;1 A;
34.170008913729;-0.999755859375;-0.29876708984375;1.35999999656633;137;1 A;
34.1800089137038;-0.99945068359375;-0.2982177734375;1.36999999654108;138;1 A;
34.1900089136785;-1.00006103515625;-0.297698974609375;1.37999999651583;139;1 A;
34.2000089136533;-0.999755859375;-0.297454833984375;1.38999999649059;140;1 A;
34.210008913628;-1.00006103515625;-0.297119140625;1.39999999646534;141;1 A;
34.2200089136028;-0.99945068359375;-0.297088623046875;1.40999999644009;142;1 A;
34.2300089135775;-0.999755859375;-0.297210693359375;1.41999999641484;143;1 A;
34.2400089135523;-0.999755859375;-0.29742431640625;1.4299999963896;144;1 A;
34.250008913527;-0.999755859375;-0.297271728515625;1.43999999636435;145;1 A;
34.2600089135018;-1.00006103515625;-0.297149658203125;1.4499999963391;146;1 A;
34.2700089134765;-0.99945068359375;-0.296722412109375;1.45999999631385;147;1 A;
34.2800089134513;-0.99945068359375;-0.296905517578125;1.46999999628861;148;1 A;
34.290008913426;-0.999755859375;-0.296539306640625;1.47999999626336;149;1 A;
34.3000089134008;-1.00006103515625;-0.29638671875;1.48999999623811;150;1 A;
34.3100089133756;-0.999755859375;-0.2960205078125;1.49999999621286;151;1 A;
34.3200089133503;-0.99945068359375;-0.295928955078125;1.50999999618762;152;1 A;
34.3300089133251;-1.00006103515625;-0.295654296875;1.51999999616237;153;1 A;
34.3400089132998;-1.00006103515625;-0.29571533203125;1.52999999613712;154;1 A;
34.3500089132746;-0.999755859375;-0.295684814453125;1.53999999611187;155;1 A;
34.3600089132493;-0.99945068359375;-0.296234130859375;1.54999999608663;156;1 A;
34.3700089132241;-0.99945068359375;-0.296142578125;1.55999999606138;157;1 A;
34.3800089131988;-0.99945068359375;-0.29608154296875;1.56999999603613;158;1 A;
34.3900089131736;-0.999755859375;-0.295654296875;1.57999999601088;159;1 A;
34.4000089131483;-0.99945068359375;-0.295623779296875;1.58999999598564;160;1 A;
34.4100089131231;-0.999755859375;-0.295196533203125;1.59999999596039;161;1 A;
34.4200089130978;-1.0003662109375;-0.294921875;1.60999999593514;162;1 A;
34.4300089130726;-1.00006103515625;-0.29449462890625;1.61999999590989;163;1 A;
34.4400089130473;-0.999755859375;-0.29449462890625;1.62999999588465;164;1 A;
34.4500089130221;-0.99945068359375;-0.294097900390625;1.6399999958594;165;1 A;
34.4600089129968;-0.99945068359375;-0.29443359375;1.64999999583415;166;1 A;
34.4700089129716;-0.999755859375;-0.294219970703125;1.6599999958089;167;1 A;
34.4800089129463;-0.99945068359375;-0.294952392578125;1.66999999578366;168;1 A;
34.4900089129211;-0.99945068359375;-0.2947998046875;1.67999999575841;169;1 A;
34.5000089128959;-0.9991455078125;-0.294921875;1.68999999573316;170;1 A;
34.5100089128706;-0.99945068359375;-0.294769287109375;1.69999999570791;171;1 A;
34.5200089128454;-0.99945068359375;-0.2950439453125;1.70999999568267;172;1 A;
34.5300089128201;-1.00006103515625;-0.295013427734375;1.71999999565742;173;1 A;
34.5400089127949;-0.999755859375;-0.29498291015625;1.72999999563217;174;1 A;
34.5500089127696;-1.00006103515625;-0.29486083984375;1.73999999560692;175;1 A;
34.5600089127444;-0.999755859375;-0.294647216796875;1.74999999558167;176;1 A;
34.5700089127191;-1.0003662109375;-0.294647216796875;1.75999999555643;177;1 A;
34.5800089126939;-1.00006103515625;-0.29473876953125;1.76999999553118;178;1 A;
34.5900089126686;-0.999755859375;-0.294891357421875;1.77999999550593;179;1 A;
34.6000089126434;-1.00006103515625;-0.295501708984375;1.78999999548068;180;1 A;
34.6100089126181;-0.99945068359375;-0.2955322265625;1.79999999545544;181;1 A;
34.6200089125929;-0.99945068359375;-0.29541015625;1.80999999543019;182;1 A;
34.6300089125676;-0.99945068359375;-0.294952392578125;1.81999999540494;183;1 A;
34.6400089125424;-0.9991455078125;-0.294921875;1.82999999537969;184;1 A;
34.6500089125171;-0.99945068359375;-0.294830322265625;1.83999999535445;185;1 A;
34.6600089124919;-0.999755859375;-0.294647216796875;1.8499999953292;186;1 A;
34.6700089124666;-0.99945068359375;-0.294342041015625;1.85999999530395;187;1 A;
34.6800089124414;-0.999755859375;-0.293914794921875;1.8699999952787;188;1 A;
34.6900089124161;-0.9991455078125;-0.2938232421875;1.87999999525346;189;1 A;
34.7000089123909;-0.99945068359375;-0.2935791015625;1.88999999522821;190;1 A;
34.7100089123657;-0.999755859375;-0.29376220703125;1.89999999520296;191;1 A;
34.7200089123404;-0.999755859375;-0.294158935546875;1.90999999517771;192;1 A;
34.7300089123152;-0.999755859375;-0.29425048828125;1.91999999515247;193;1 A;
34.7400089122899;-0.999755859375;-0.29437255859375;1.92999999512722;194;1 A;
34.7500089122647;-0.9991455078125;-0.29388427734375;1.93999999510197;195;1 A;
34.7600089122394;-0.99945068359375;-0.29425048828125;1.94999999507672;196;1 A;
34.7700089122142;-0.99945068359375;-0.294219970703125;1.95999999505148;197;1 A;
34.7800089121889;-1.00006103515625;-0.294281005859375;1.96999999502623;198;1 A;
34.7900089121637;-0.9991455078125;-0.294189453125;1.97999999500098;199;1 A;
34.8000089121384;-0.999755859375;-0.29437255859375;1.98999999497573;200;1 A;
34.8100089121132;-1.00006103515625;-0.294281005859375;1.99999999495049;201;1 A;
34.8200089120879;-0.999755859375;-0.294769287109375;2.00999999492524;202;1 A;
34.8300089120627;-0.99945068359375;-0.29522705078125;2.01999999489999;203;1 A;
34.8400089120374;-0.99945068359375;-0.29595947265625;2.02999999487474;204;1 A;
34.8500089120122;-1.00006103515625;-0.296142578125;2.0399999948495;205;1 A;
34.8600089119869;-1.00006103515625;-0.29608154296875;2.04999999482425;206;1 A;
34.8700089119617;-0.999755859375;-0.295654296875;2.059999994799;207;1 A;
34.8800089119364;-0.999755859375;-0.296234130859375;2.06999999477375;208;1 A;
34.8900089119112;-0.999755859375;-0.29583740234375;2.0799999947485;209;1 A;
34.9000089118859;-1.00006103515625;-0.295867919921875;2.08999999472326;210;1 A;
34.9100089118607;-0.999755859375;-0.295440673828125;2.09999999469801;211;1 A;
34.9200089118355;-0.999755859375;-0.295440673828125;2.10999999467276;212;1 A;
34.9300089118102;-0.999755859375;-0.2947998046875;2.11999999464751;213;1 A;
34.940008911785;-0.999755859375;-0.29498291015625;2.12999999462227;214;1 A;
34.9500089117597;-0.99945068359375;-0.29486083984375;2.13999999459702;215;1 A;
34.9600089117345;-1.00006103515625;-0.29583740234375;2.14999999457177;216;1 A;
34.9700089117092;-0.999755859375;-0.295684814453125;2.15999999454652;217;1 A;
34.980008911684;-0.99945068359375;-0.295684814453125;2.16999999452128;218;1 A;
34.9900089116587;-0.999755859375;-0.29498291015625;2.17999999449603;219;1 A;
35.0000089116335;-0.999755859375;-0.295257568359375;2.18999999447078;220;1 A;
35.0100089116082;-1.00006103515625;-0.29498291015625;2.19999999444553;221;1 A;
35.020008911583;-0.99945068359375;-0.295074462890625;2.20999999442029;222;1 A;
35.0300089115577;-0.99945068359375;-0.294708251953125;2.21999999439504;223;1 A;
35.0400089115325;-0.999755859375;-0.294921875;2.22999999436979;224;1 A;
35.0500089115072;-0.99945068359375;-0.29449462890625;2.23999999434454;225;1 A;
35.060008911482;-0.999755859375;-0.2950439453125;2.2499999943193;226;1 A;
35.0700089114567;-0.999755859375;-0.294921875;2.25999999429405;227;1 A;
35.0800089114315;-0.999755859375;-0.2960205078125;2.2699999942688;228;1 A;
35.0900089114062;-0.999755859375;-0.296112060546875;2.27999999424355;229;1 A;
35.100008911381;-0.99945068359375;-0.29632568359375;2.28999999421831;230;1 A;
35.1100089113557;-1.00006103515625;-0.2958984375;2.29999999419306;231;1 A;
35.1200089113305;-0.9991455078125;-0.2962646484375;2.30999999416781;232;1 A;
35.1300089113053;-0.999755859375;-0.296234130859375;2.31999999414256;233;1 A;
35.14000891128;-0.99945068359375;-0.296234130859375;2.32999999411732;234;1 A;
35.1500089112548;-0.99945068359375;-0.29638671875;2.33999999409207;235;1 A;
35.1600089112295;-0.999755859375;-0.29608154296875;2.34999999406682;236;1 A;
35.1700089112043;-0.99945068359375;-0.295989990234375;2.35999999404157;237;1 A;
35.180008911179;-0.999755859375;-0.29632568359375;2.36999999401633;238;1 A;
35.1900089111538;-1.00006103515625;-0.296661376953125;2.37999999399108;239;1 A;
35.2000089111285;-0.999755859375;-0.297698974609375;2.38999999396583;240;1 A;
35.2100089111033;-1.00006103515625;-0.298095703125;2.39999999394058;241;1 A;
35.220008911078;-0.99945068359375;-0.297943115234375;2.40999999391533;242;1 A;
35.2300089110528;-0.999755859375;-0.29730224609375;2.41999999389009;243;1 A;
35.2400089110275;-0.99945068359375;-0.297607421875;2.42999999386484;244;1 A;
35.2500089110023;-0.99945068359375;-0.297637939453125;2.43999999383959;245;1 A;
35.260008910977;-0.9991455078125;-0.297576904296875;2.44999999381434;246;1 A;
35.2700089109518;-0.99945068359375;-0.297576904296875;2.4599999937891;247;1 A;
35.2800089109265;-0.99945068359375;-0.297210693359375;2.46999999376385;248;1 A;
35.2900089109013;-0.9991455078125;-0.297119140625;2.4799999937386;249;1 A;
35.300008910876;-0.999755859375;-0.297149658203125;2.48999999371335;250;1 A;
35.3100089108508;-1.00006103515625;-0.29754638671875;2.49999999368811;251;1 A;
35.3200089108255;-0.99945068359375;-0.298492431640625;2.50999999366286;252;1 A;
35.3300089108003;-0.99945068359375;-0.298736572265625;2.51999999363761;253;1 A;
35.3400089107751;-0.999755859375;-0.298736572265625;2.52999999361236;254;1 A;
35.3500089107498;-0.99945068359375;-0.297882080078125;2.53999999358712;255;1 A;
35.3600089107246;-0.9991455078125;-0.298309326171875;2.54999999356187;256;1 A;
35.3700089106993;-0.99945068359375;-0.2982177734375;2.55999999353662;257;1 A;
35.3800089106741;-1.00006103515625;-0.2982177734375;2.56999999351137;258;1 A;
35.3900089106488;-0.99945068359375;-0.298004150390625;2.57999999348613;259;1 A;
35.4000089106236;-0.999755859375;-0.29815673828125;2.58999999346088;260;1 A;
35.4100089105983;-1.00006103515625;-0.297760009765625;2.59999999343563;261;1 A;
35.4200089105731;-1.00006103515625;-0.29852294921875;2.60999999341038;262;1 A;
35.4300089105478;-0.99945068359375;-0.298980712890625;2.61999999338514;263;1 A;
35.4400089105226;-1.0003662109375;-0.300140380859375;2.62999999335989;264;1 A;
35.4500089104973;-0.9991455078125;-0.30029296875;2.63999999333464;265;1 A;
35.4600089104721;-0.99945068359375;-0.300079345703125;2.64999999330939;266;1 A;
35.4700089104468;-1.00006103515625;-0.299224853515625;2.65999999328415;267;1 A;
35.4800089104216;-0.99945068359375;-0.3001708984375;2.6699999932589;268;1 A;
35.4900089103963;-0.99945068359375;-0.2996826171875;2.67999999323365;269;1 A;
35.5000089103711;-1.00006103515625;-0.29986572265625;2.6899999932084;270;1 A;
35.5100089103458;-0.99945068359375;-0.299102783203125;2.69999999318316;271;1 A;
35.5200089103206;-0.999755859375;-0.299407958984375;2.70999999315791;272;1 A;
35.5300089102954;-0.99945068359375;-0.2984619140625;2.71999999313266;273;1 A;
35.5400089102701;-0.99945068359375;-0.298675537109375;2.72999999310741;274;1 A;
35.5500089102449;-0.999755859375;-0.29852294921875;2.73999999308217;275;1 A;
35.5600089102196;-0.99945068359375;-0.299896240234375;2.74999999305692;276;1 A;
35.5700089101944;-0.999755859375;-0.299468994140625;2.75999999303167;277;1 A;
35.5800089101691;-0.99945068359375;-0.299346923828125;2.76999999300642;278;1 A;
35.5900089101439;-0.99945068359375;-0.297882080078125;2.77999999298117;279;1 A;
35.6000089101186;-0.999755859375;-0.29815673828125;2.78999999295593;280;1 A;
35.6100089100934;-0.9991455078125;-0.29779052734375;2.79999999293068;281;1 A;
35.6200089100681;-0.999755859375;-0.298187255859375;2.80999999290543;282;1 A;
35.6300089100429;-1.00006103515625;-0.29742431640625;2.81999999288018;283;1 A;
35.6400089100176;-0.999755859375;-0.2977294921875;2.82999999285494;284;1 A;
35.6500089099924;-1.00006103515625;-0.29718017578125;2.83999999282969;285;1 A;
35.6600089099671;-0.999755859375;-0.2978515625;2.84999999280444;286;1 A;
35.6700089099419;-0.999755859375;-0.2977294921875;2.85999999277919;287;1 A;
35.6800089099166;-0.999755859375;-0.29931640625;2.86999999275395;288;1 A;
35.6900089098914;-0.9991455078125;-0.299530029296875;2.8799999927287;289;1 A;
35.7000089098661;-0.99945068359375;-0.299835205078125;2.88999999270345;290;1 A;
35.7100089098409;-1.00006103515625;-0.298736572265625;2.8999999926782;291;1 A;
35.7200089098156;-0.999755859375;-0.2991943359375;2.90999999265296;292;1 A;
35.7300089097904;-1.00006103515625;-0.299224853515625;2.91999999262771;293;1 A;
35.7400089097652;-0.999755859375;-0.29937744140625;2.92999999260246;294;1 A;
35.7500089097399;-0.99945068359375;-0.2996826171875;2.93999999257721;295;1 A;
35.7600089097147;-0.999755859375;-0.299407958984375;2.94999999255197;296;1 A;
35.7700089096894;-0.999755859375;-0.298858642578125;2.95999999252672;297;1 A;
35.7800089096642;-0.99945068359375;-0.29949951171875;2.96999999250147;298;1 A;
35.7900089096389;-0.999755859375;-0.29986572265625;2.97999999247622;299;1 A;
35.8000089096137;-0.999755859375;-0.301544189453125;2.98999999245098;300;1 A;
35.8100089095884;-0.99945068359375;-0.302032470703125;2.99999999242573;301;1 A;
35.8200089095632;-1.00006103515625;-0.30194091796875;3.00999999240048;302;1 A;
35.8300089095379;-1.0003662109375;-0.300750732421875;3.01999999237523;303;1 A;
35.8400089095127;-1.00006103515625;-0.30157470703125;3.02999999234999;304;1 A;
35.8500089094874;-0.999755859375;-0.301788330078125;3.03999999232474;305;1 A;
35.8600089094622;-1.0003662109375;-0.30206298828125;3.04999999229949;306;1 A;
35.8700089094369;-0.99945068359375;-0.302398681640625;3.05999999227424;307;1 A;
35.8800089094117;-0.999755859375;-0.302154541015625;3.069999992249;308;1 A;
35.8900089093864;-0.999755859375;-0.301971435546875;3.07999999222375;309;1 A;
35.9000089093612;-0.99945068359375;-0.302459716796875;3.0899999921985;310;1 A;
35.9100089093359;-0.999755859375;-0.3031005859375;3.09999999217325;311;1 A;
35.9200089093107;-0.9991455078125;-0.3052978515625;3.109999992148;312;1 A;
35.9300089092854;-0.99945068359375;-0.305694580078125;3.11999999212276;313;1 A;
35.9400089092602;-0.999755859375;-0.305755615234375;3.12999999209751;314;1 A;
35.950008909235;-1.00006103515625;-0.304656982421875;3.13999999207226;315;1 A;
35.9600089092097;-0.99945068359375;-0.3056640625;3.14999999204701;316;1 A;
35.9700089091845;-0.99945068359375;-0.305877685546875;3.15999999202177;317;1 A;
35.9800089091592;-0.999755859375;-0.30609130859375;3.16999999199652;318;1 A;
35.990008909134;-0.999755859375;-0.306182861328125;3.17999999197127;319;1 A;
36.0000089091087;-0.999755859375;-0.30621337890625;3.18999999194602;320;1 A;
36.0100089090835;-1.00006103515625;-0.305755615234375;3.19999999192078;321;1 A;
36.0200089090582;-0.99945068359375;-0.306915283203125;3.20999999189553;322;1 A;
36.030008909033;-0.99945068359375;-0.307464599609375;3.21999999187028;323;1 A;
36.0400089090077;-0.999755859375;-0.309417724609375;3.22999999184503;324;1 A;
36.0500089089825;-0.99945068359375;-0.309967041015625;3.23999999181979;325;1 A;
36.0600089089572;-1.00006103515625;-0.3094482421875;3.24999999179454;326;1 A;
36.070008908932;-0.999755859375;-0.30859375;3.25999999176929;327;1 A;
36.0800089089067;-0.99945068359375;-0.309844970703125;3.26999999174404;328;1 A;
36.0900089088815;-0.99945068359375;-0.30999755859375;3.2799999917188;329;1 A;
36.1000089088562;-0.999755859375;-0.310699462890625;3.28999999169355;330;1 A;
36.110008908831;-1.00006103515625;-0.311004638671875;3.2999999916683;331;1 A;
36.1200089088057;-0.999755859375;-0.3111572265625;3.30999999164305;332;1 A;
36.1300089087805;-0.999755859375;-0.311126708984375;3.31999999161781;333;1 A;
36.1400089087552;-0.999755859375;-0.3118896484375;3.32999999159256;334;1 A;
36.15000890873;-0.999755859375;-0.3128662109375;3.33999999156731;335;1 A;
36.1600089087048;-0.999755859375;-0.31524658203125;3.34999999154206;336;1 A;
36.1700089086795;-0.999755859375;-0.316436767578125;3.35999999151682;337;1 A;
36.1800089086543;-1.00006103515625;-0.31646728515625;3.36999999149157;338;1 A;
36.190008908629;-1.00006103515625;-0.315765380859375;3.37999999146632;339;1 A;
36.2000089086038;-0.9991455078125;-0.316558837890625;3.38999999144107;340;1 A;
36.2100089085785;-0.9991455078125;-0.3175048828125;3.39999999141583;341;1 A;
36.2200089085533;-0.99945068359375;-0.318878173828125;3.40999999139058;342;1 A;
36.230008908528;-0.99945068359375;-0.319305419921875;3.41999999136533;343;1 A;
36.2400089085028;-1.00006103515625;-0.319427490234375;3.42999999134008;344;1 A;
36.2500089084775;-0.999755859375;-0.31988525390625;3.43999999131483;345;1 A;
36.2600089084523;-0.999755859375;-0.3206787109375;3.44999999128959;346;1 A;
36.270008908427;-0.99945068359375;-0.3214111328125;3.45999999126434;347;1 A;
36.2800089084018;-0.999755859375;-0.323577880859375;3.46999999123909;348;1 A;
36.2900089083765;-1.00006103515625;-0.32476806640625;3.47999999121384;349;1 A;
36.3000089083513;-1.00006103515625;-0.32513427734375;3.4899999911886;350;1 A;
36.310008908326;-0.99945068359375;-0.323822021484375;3.49999999116335;351;1 A;
36.3200089083008;-0.999755859375;-0.3243408203125;3.5099999911381;352;1 A;
36.3300089082755;-1.00006103515625;-0.324737548828125;3.51999999111285;353;1 A;
36.3400089082503;-1.00006103515625;-0.324981689453125;3.52999999108761;354;1 A;
36.350008908225;-0.99945068359375;-0.325958251953125;3.53999999106236;355;1 A;
36.3600089081998;-0.999755859375;-0.325927734375;3.54999999103711;356;1 A;
36.3700089081746;-0.99945068359375;-0.3250732421875;3.55999999101186;357;1 A;
36.3800089081493;-0.9991455078125;-0.3262939453125;3.56999999098662;358;1 A;
36.3900089081241;-0.99945068359375;-0.32684326171875;3.57999999096137;359;1 A;
36.4000089080988;-1.00006103515625;-0.32965087890625;3.58999999093612;360;1 A;
36.4100089080736;-0.99945068359375;-0.330474853515625;3.59999999091087;361;1 A;
36.4200089080483;-1.0003662109375;-0.330596923828125;3.60999999088563;362;1 A;
36.4300089080231;-0.999755859375;-0.328857421875;3.61999999086038;363;1 A;
36.4400089079978;-0.999755859375;-0.330780029296875;3.62999999083513;364;1 A;
36.4500089079726;-0.999755859375;-0.330657958984375;3.63999999080988;365;1 A;
36.4600089079473;-0.999755859375;-0.3316650390625;3.64999999078464;366;1 A;
36.4700089079221;-1.0003662109375;-0.3321533203125;3.65999999075939;367;1 A;
36.4800089078968;-0.9991455078125;-0.33233642578125;3.66999999073414;368;1 A;
36.4900089078716;-1.00006103515625;-0.3319091796875;3.67999999070889;369;1 A;
36.5000089078463;-1.00006103515625;-0.332916259765625;3.68999999068365;370;1 A;
36.5100089078211;-0.999755859375;-0.333343505859375;3.6999999906584;371;1 A;
36.5200089077958;-0.999755859375;-0.336883544921875;3.70999999063315;372;1 A;
36.5300089077706;-1.00006103515625;-0.336700439453125;3.7199999906079;373;1 A;
36.5400089077453;-0.99945068359375;-0.3367919921875;3.72999999058266;374;1 A;
36.5500089077201;-1.00006103515625;-0.334381103515625;3.73999999055741;375;1 A;
36.5600089076949;-0.99945068359375;-0.33599853515625;3.74999999053216;376;1 A;
36.5700089076696;-0.999755859375;-0.3355712890625;3.75999999050691;377;1 A;
36.5800089076444;-0.999755859375;-0.3360595703125;3.76999999048167;378;1 A;
36.5900089076191;-1.0003662109375;-0.335479736328125;3.77999999045642;379;1 A;
36.6000089075939;-0.99945068359375;-0.33599853515625;3.78999999043117;380;1 A;
36.6100089075686;-0.99945068359375;-0.334320068359375;3.79999999040592;381;1 A;
36.6200089075434;-0.99945068359375;-0.336029052734375;3.80999999038067;382;1 A;
36.6300089075181;-0.99945068359375;-0.3355712890625;3.81999999035543;383;1 A;
36.6400089074929;-0.99945068359375;-0.33819580078125;3.82999999033018;384;1 A;
36.6500089074676;-0.99945068359375;-0.337921142578125;3.83999999030493;385;1 A;
36.6600089074424;-0.999755859375;-0.336456298828125;3.84999999027968;386;1 A;
36.6700089074171;-1.00006103515625;-0.33404541015625;3.85999999025444;387;1 A;
36.6800089073919;-0.99945068359375;-0.33502197265625;3.86999999022919;388;1 A;
36.6900089073666;-0.9991455078125;-0.33416748046875;3.87999999020394;389;1 A;
36.7000089073414;-0.99945068359375;-0.33453369140625;3.88999999017869;390;1 A;
36.7100089073161;-0.999755859375;-0.333770751953125;3.89999999015345;391;1 A;
36.7200089072909;-0.999755859375;-0.333038330078125;3.9099999901282;392;1 A;
36.7300089072656;-1.00006103515625;-0.33209228515625;3.91999999010295;393;1 A;
36.7400089072404;-0.99945068359375;-0.3319091796875;3.9299999900777;394;1 A;
36.7500089072151;-0.999755859375;-0.331878662109375;3.93999999005246;395;1 A;
36.7600089071899;-0.9991455078125;-0.3341064453125;3.94999999002721;396;1 A;
36.7700089071647;-0.99945068359375;-0.33380126953125;3.95999999000196;397;1 A;
36.7800089071394;-0.99945068359375;-0.332489013671875;3.96999998997671;398;1 A;
36.7900089071142;-0.99945068359375;-0.32977294921875;3.97999998995147;399;1 A;
36.8000089070889;-0.999755859375;-0.3292236328125;3.98999998992622;400;1 A;
36.8100089070637;-0.999755859375;-0.32891845703125;3.99999998990097;401;1 A;
36.8200089070384;-1.0003662109375;-0.329437255859375;4.00999998987572;402;1 A;
36.8300089070132;-0.999755859375;-0.327789306640625;4.01999998985048;403;1 A;
36.8400089069879;-0.99884033203125;-0.326324462890625;4.02999998982523;404;1 A;
36.8500089069627;-0.99945068359375;-0.325408935546875;4.03999998979998;405;1 A;
36.8600089069374;-0.999755859375;-0.324127197265625;4.04999998977473;406;1 A;
36.8700089069122;-0.999755859375;-0.323699951171875;4.05999998974949;407;1 A;
36.8800089068869;-1.00006103515625;-0.32476806640625;4.06999998972424;408;1 A;
36.8900089068617;-0.999755859375;-0.324249267578125;4.07999998969899;409;1 A;
36.9000089068364;-1.00006103515625;-0.323516845703125;4.08999998967374;410;1 A;
36.9100089068112;-0.999755859375;-0.31939697265625;4.0999999896485;411;1 A;
36.9200089067859;-1.00006103515625;-0.31890869140625;4.10999998962325;412;1 A;
36.9300089067607;-0.999755859375;-0.317962646484375;4.119999989598;413;1 A;
36.9400089067354;-0.999755859375;-0.317626953125;4.12999998957275;414;1 A;
36.9500089067102;-1.00006103515625;-0.31683349609375;4.1399999895475;415;1 A;
36.9600089066849;-0.999755859375;-0.3162841796875;4.14999998952226;416;1 A;
36.9700089066597;-0.99945068359375;-0.313446044921875;4.15999998949701;417;1 A;
36.9800089066345;-0.999755859375;-0.314178466796875;4.16999998947176;418;1 A;
36.9900089066092;-1.00006103515625;-0.313629150390625;4.17999998944651;419;1 A;
37.000008906584;-0.99945068359375;-0.31597900390625;4.18999998942127;420;1 A;
37.0100089065587;-0.999755859375;-0.3160400390625;4.19999998939602;421;1 A;
37.0200089065335;-0.999755859375;-0.314910888671875;4.20999998937077;422;1 A;
37.0300089065082;-0.99945068359375;-0.311370849609375;4.21999998934552;423;1 A;
37.040008906483;-0.999755859375;-0.31298828125;4.22999998932028;424;1 A;
37.0500089064577;-1.00006103515625;-0.3115234375;4.23999998929503;425;1 A;
37.0600089064325;-0.99945068359375;-0.312164306640625;4.24999998926978;426;1 A;
37.0700089064072;-0.999755859375;-0.311553955078125;4.25999998924453;427;1 A;
37.080008906382;-0.999755859375;-0.311279296875;4.26999998921929;428;1 A;
37.0900089063567;-1.00006103515625;-0.30950927734375;4.27999998919404;429;1 A;
37.1000089063315;-0.999755859375;-0.310272216796875;4.28999998916879;430;1 A;
37.1100089063062;-1.00006103515625;-0.3096923828125;4.29999998914354;431;1 A;
37.120008906281;-0.999755859375;-0.313262939453125;4.3099999891183;432;1 A;
37.1300089062557;-0.999755859375;-0.31256103515625;4.31999998909305;433;1 A;
37.1400089062305;-0.99945068359375;-0.31146240234375;4.3299999890678;434;1 A;
37.1500089062052;-1.00006103515625;-0.30804443359375;4.33999998904255;435;1 A;
37.16000890618;-1.00006103515625;-0.309295654296875;4.34999998901731;436;1 A;
37.1700089061547;-0.99945068359375;-0.3089599609375;4.35999998899206;437;1 A;
37.1800089061295;-0.999755859375;-0.3095703125;4.36999998896681;438;1 A;
37.1900089061043;-0.99945068359375;-0.308807373046875;4.37999998894156;439;1 A;
37.200008906079;-1.00006103515625;-0.309600830078125;4.38999998891632;440;1 A;
37.2100089060538;-0.999755859375;-0.307373046875;4.39999998889107;441;1 A;
37.2200089060285;-0.999755859375;-0.309722900390625;4.40999998886582;442;1 A;
37.2300089060033;-0.999755859375;-0.30908203125;4.41999998884057;443;1 A;
37.240008905978;-0.99945068359375;-0.313079833984375;4.42999998881533;444;1 A;
37.2500089059528;-0.99945068359375;-0.313018798828125;4.43999998879008;445;1 A;
37.2600089059275;-0.99945068359375;-0.311309814453125;4.44999998876483;446;1 A;
37.2700089059023;-0.99945068359375;-0.309173583984375;4.45999998873958;447;1 A;
37.280008905877;-1.00006103515625;-0.3101806640625;4.46999998871433;448;1 A;
37.2900089058518;-0.999755859375;-0.309814453125;4.47999998868909;449;1 A;
37.3000089058265;-0.99945068359375;-0.3106689453125;4.48999998866384;450;1 A;
37.3100089058013;-0.999755859375;-0.310699462890625;4.49999998863859;451;1 A;
37.320008905776;-0.999755859375;-0.3092041015625;4.50999998861334;452;1 A;
37.3300089057508;-1.00006103515625;-0.309112548828125;4.5199999885881;453;1 A;
37.3400089057255;-1.00006103515625;-0.308929443359375;4.52999998856285;454;1 A;
37.3500089057003;-0.999755859375;-0.30914306640625;4.5399999885376;455;1 A;
37.360008905675;-1.0003662109375;-0.3121337890625;4.54999998851235;456;1 A;
37.3700089056498;-0.999755859375;-0.312774658203125;4.55999998848711;457;1 A;
37.3800089056245;-1.00006103515625;-0.311187744140625;4.56999998846186;458;1 A;
37.3900089055993;-0.9991455078125;-0.308349609375;4.57999998843661;459;1 A;
37.4000089055741;-1.00006103515625;-0.3079833984375;4.58999998841136;460;1 A;
37.4100089055488;-0.999755859375;-0.30865478515625;4.59999998838612;461;1 A;
37.4200089055236;-1.00006103515625;-0.309539794921875;4.60999998836087;462;1 A;
37.4300089054983;-0.999755859375;-0.309326171875;4.61999998833562;463;1 A;
37.4400089054731;-0.999755859375;-0.30718994140625;4.62999998831037;464;1 A;
37.4500089054478;-0.999755859375;-0.306915283203125;4.63999998828513;465;1 A;
37.4600089054226;-0.999755859375;-0.30572509765625;4.64999998825988;466;1 A;
37.4700089053973;-0.99945068359375;-0.306488037109375;4.65999998823463;467;1 A;
37.4800089053721;-0.999755859375;-0.308685302734375;4.66999998820938;468;1 A;
37.4900089053468;-0.99945068359375;-0.309051513671875;4.67999998818414;469;1 A;
37.5000089053216;-1.00006103515625;-0.3089599609375;4.68999998815889;470;1 A;
37.5100089052963;-1.00006103515625;-0.304595947265625;4.69999998813364;471;1 A;
37.5200089052711;-0.99945068359375;-0.304931640625;4.70999998810839;472;1 A;
37.5300089052458;-0.999755859375;-0.3045654296875;4.71999998808315;473;1 A;
37.5400089052206;-0.999755859375;-0.304718017578125;4.7299999880579;474;1 A;
37.5500089051953;-0.999755859375;-0.30450439453125;4.73999998803265;475;1 A;
37.5600089051701;-0.999755859375;-0.3045654296875;4.7499999880074;476;1 A;
37.5700089051448;-0.99945068359375;-0.30108642578125;4.75999998798216;477;1 A;
37.5800089051196;-0.999755859375;-0.302764892578125;4.76999998795691;478;1 A;
37.5900089050944;-0.99945068359375;-0.302215576171875;4.77999998793166;479;1 A;
37.6000089050691;-0.999755859375;-0.305755615234375;4.78999998790641;480;1 A;
37.6100089050439;-0.99945068359375;-0.305938720703125;4.79999998788116;481;1 A;
37.6200089050186;-1.00006103515625;-0.30499267578125;4.80999998785592;482;1 A;
37.6300089049934;-1.00006103515625;-0.30072021484375;4.81999998783067;483;1 A;
37.6400089049681;-0.999755859375;-0.3037109375;4.82999998780542;484;1 A;
37.6500089049429;-0.999755859375;-0.302032470703125;4.83999998778017;485;1 A;
37.6600089049176;-0.999755859375;-0.30316162109375;4.84999998775493;486;1 A;
37.6700089048924;-0.999755859375;-0.302703857421875;4.85999998772968;487;1 A;
37.6800089048671;-1.00006103515625;-0.303802490234375;4.86999998770443;488;1 A;
37.6900089048419;-0.99945068359375;-0.3009033203125;4.87999998767918;489;1 A;
37.7000089048166;-1.00006103515625;-0.302520751953125;4.88999998765394;490;1 A;
37.7100089047914;-1.00006103515625;-0.30206298828125;4.89999998762869;491;1 A;
37.7200089047661;-1.00006103515625;-0.307037353515625;4.90999998760344;492;1 A;
37.7300089047409;-0.999755859375;-0.30645751953125;4.91999998757819;493;1 A;
37.7400089047156;-0.9991455078125;-0.305633544921875;4.92999998755295;494;1 A;
37.7500089046904;-0.99945068359375;-0.301025390625;4.9399999875277;495;1 A;
37.7600089046651;-0.99945068359375;-0.30279541015625;4.94999998750245;496;1 A;
37.7700089046399;-0.999755859375;-0.30242919921875;4.9599999874772;497;1 A;
37.7800089046146;-0.999755859375;-0.30328369140625;4.96999998745196;498;1 A;
37.7900089045894;-1.0003662109375;-0.302490234375;4.97999998742671;499;1 A;
37.8000089045642;-0.999755859375;-0.303741455078125;4.98999998740146;500;1 A;
37.8100089045389;-0.999755859375;-0.300537109375;4.99999998737621;501;1 A;
37.8200089045137;-0.99945068359375;-0.3037109375;5.00999998735097;502;1 A;
37.8300089044884;-1.00006103515625;-0.302703857421875;5.01999998732572;503;1 A;
37.8400089044632;-1.00006103515625;-0.308197021484375;5.02999998730047;504;1 A;
37.8500089044379;-0.99945068359375;-0.307525634765625;5.03999998727522;505;1 A;
37.8600089044127;-0.99945068359375;-0.307037353515625;5.04999998724998;506;1 A;
37.8700089043874;-0.9991455078125;-0.303558349609375;5.05999998722473;507;1 A;
37.8800089043622;-0.99945068359375;-0.305419921875;5.06999998719948;508;1 A;
37.8900089043369;-0.999755859375;-0.3048095703125;5.07999998717423;509;1 A;
37.9000089043117;-1.00006103515625;-0.30657958984375;5.08999998714899;510;1 A;
37.9100089042864;-1.00006103515625;-0.30694580078125;5.09999998712374;511;1 A;
37.9200089042612;-0.99945068359375;-0.30572509765625;5.10999998709849;512;1 A;
37.9300089042359;-0.99945068359375;-0.305328369140625;5.11999998707324;513;1 A;
37.9400089042107;-0.99945068359375;-0.305999755859375;5.129999987048;514;1 A;
37.9500089041854;-1.00006103515625;-0.3060302734375;5.13999998702275;515;1 A;
37.9600089041602;-0.99945068359375;-0.310699462890625;5.1499999869975;516;1 A;
37.9700089041349;-0.99945068359375;-0.3118896484375;5.15999998697225;517;1 A;
37.9800089041097;-0.99945068359375;-0.310791015625;5.169999986947;518;1 A;
37.9900089040844;-0.99945068359375;-0.306671142578125;5.17999998692176;519;1 A;
38.0000089040592;-0.999755859375;-0.307342529296875;5.18999998689651;520;1 A;
38.010008904034;-0.99945068359375;-0.3082275390625;5.19999998687126;521;1 A;
38.0200089040087;-1.00006103515625;-0.309814453125;5.20999998684601;522;1 A;
38.0300089039835;-0.999755859375;-0.310272216796875;5.21999998682077;523;1 A;
38.0400089039582;-0.99945068359375;-0.307647705078125;5.22999998679552;524;1 A;
38.050008903933;-1.00006103515625;-0.307464599609375;5.23999998677027;525;1 A;
38.0600089039077;-1.00006103515625;-0.306671142578125;5.24999998674502;526;1 A;
38.0700089038825;-0.9991455078125;-0.308380126953125;5.25999998671978;527;1 A;
38.0800089038572;-0.99945068359375;-0.311920166015625;5.26999998669453;528;1 A;
38.090008903832;-0.999755859375;-0.3128662109375;5.27999998666928;529;1 A;
38.1000089038067;-0.9991455078125;-0.3121337890625;5.28999998664403;530;1 A;
38.1100089037815;-0.999755859375;-0.3072509765625;5.29999998661879;531;1 A;
38.1200089037562;-0.999755859375;-0.30828857421875;5.30999998659354;532;1 A;
38.130008903731;-0.9991455078125;-0.308349609375;5.31999998656829;533;1 A;
38.1400089037057;-0.999755859375;-0.30938720703125;5.32999998654304;534;1 A;
38.1500089036805;-0.999755859375;-0.30908203125;5.3399999865178;535;1 A;
38.1600089036552;-1.00006103515625;-0.308990478515625;5.34999998649255;536;1 A;
38.17000890363;-0.999755859375;-0.30584716796875;5.3599999864673;537;1 A;
38.1800089036047;-0.999755859375;-0.30767822265625;5.36999998644205;538;1 A;
38.1900089035795;-1.00006103515625;-0.307891845703125;5.37999998641681;539;1 A;
38.2000089035542;-0.9991455078125;-0.31170654296875;5.38999998639156;540;1 A;
38.210008903529;-0.999755859375;-0.312591552734375;5.39999998636631;541;1 A;
38.2200089035038;-0.999755859375;-0.31024169921875;5.40999998634106;542;1 A;
38.2300089034785;-0.999755859375;-0.3057861328125;5.41999998631582;543;1 A;
38.2400089034533;-0.999755859375;-0.308837890625;5.42999998629057;544;1 A;
38.250008903428;-0.99945068359375;-0.307098388671875;5.43999998626532;545;1 A;
38.2600089034028;-0.99945068359375;-0.30841064453125;5.44999998624007;546;1 A;
38.2700089033775;-0.999755859375;-0.307342529296875;5.45999998621483;547;1 A;
38.2800089033523;-1.00006103515625;-0.3089599609375;5.46999998618958;548;1 A;
38.290008903327;-0.999755859375;-0.30499267578125;5.47999998616433;549;1 A;
38.3000089033018;-0.999755859375;-0.30706787109375;5.48999998613908;550;1 A;
38.3100089032765;-0.99945068359375;-0.3065185546875;5.49999998611383;551;1 A;
38.3200089032513;-0.99945068359375;-0.312713623046875;5.50999998608859;552;1 A;
38.330008903226;-0.99945068359375;-0.31280517578125;5.51999998606334;553;1 A;
38.3400089032008;-0.999755859375;-0.31201171875;5.52999998603809;554;1 A;
38.3500089031755;-0.999755859375;-0.306793212890625;5.53999998601284;555;1 A;
38.3600089031503;-0.9991455078125;-0.309051513671875;5.5499999859876;556;1 A;
38.370008903125;-0.99945068359375;-0.30865478515625;5.55999998596235;557;1 A;
38.3800089030998;-0.999755859375;-0.311004638671875;5.5699999859371;558;1 A;
38.3900089030745;-0.999755859375;-0.309814453125;5.57999998591185;559;1 A;
38.4000089030493;-1.0003662109375;-0.3116455078125;5.58999998588661;560;1 A;
38.410008903024;-0.9991455078125;-0.307861328125;5.59999998586136;561;1 A;
38.4200089029988;-0.999755859375;-0.311187744140625;5.60999998583611;562;1 A;
38.4300089029736;-0.99945068359375;-0.30999755859375;5.61999998581086;563;1 A;
38.4400089029483;-0.999755859375;-0.316131591796875;5.62999998578562;564;1 A;
38.4500089029231;-0.99945068359375;-0.31658935546875;5.63999998576037;565;1 A;
38.4600089028978;-0.99945068359375;-0.316162109375;5.64999998573512;566;1 A;
38.4700089028726;-0.99945068359375;-0.311187744140625;5.65999998570987;567;1 A;
38.4800089028473;-0.999755859375;-0.312774658203125;5.66999998568463;568;1 A;
38.4900089028221;-0.999755859375;-0.311737060546875;5.67999998565938;569;1 A;
38.5000089027968;-0.999755859375;-0.313201904296875;5.68999998563413;570;1 A;
38.5100089027716;-1.00006103515625;-0.314971923828125;5.69999998560888;571;1 A;
38.5200089027463;-0.999755859375;-0.312835693359375;5.70999998558364;572;1 A;
38.5300089027211;-0.999755859375;-0.31109619140625;5.71999998555839;573;1 A;
38.5400089026958;-0.99945068359375;-0.3118896484375;5.72999998553314;574;1 A;
38.5500089026706;-0.999755859375;-0.31201171875;5.73999998550789;575;1 A;
38.5600089026453;-1.00006103515625;-0.317291259765625;5.74999998548265;576;1 A;
38.5700089026201;-1.00006103515625;-0.319610595703125;5.7599999854574;577;1 A;
38.5800089025948;-1.00006103515625;-0.31768798828125;5.76999998543215;578;1 A;
38.5900089025696;-1.00006103515625;-0.3121337890625;5.7799999854069;579;1 A;
38.6000089025443;-0.999755859375;-0.3140869140625;5.78999998538166;580;1 A;
38.6100089025191;-1.00006103515625;-0.31414794921875;5.79999998535641;581;1 A;
38.6200089024939;-0.999755859375;-0.315704345703125;5.80999998533116;582;1 A;
38.6300089024686;-0.99945068359375;-0.31683349609375;5.81999998530591;583;1 A;
38.6400089024434;-0.999755859375;-0.314422607421875;5.82999998528066;584;1 A;
38.6500089024181;-1.00006103515625;-0.313018798828125;5.83999998525542;585;1 A;
38.6600089023929;-1.00006103515625;-0.313079833984375;5.84999998523017;586;1 A;
38.6700089023676;-1.00006103515625;-0.3148193359375;5.85999998520492;587;1 A;
38.6800089023424;-0.99945068359375;-0.32037353515625;5.86999998517967;588;1 A;
38.6900089023171;-1.00006103515625;-0.32135009765625;5.87999998515443;589;1 A;
38.7000089022919;-0.99945068359375;-0.320465087890625;5.88999998512918;590;1 A;
38.7100089022666;-0.999755859375;-0.314117431640625;5.89999998510393;591;1 A;
38.7200089022414;-0.999755859375;-0.316009521484375;5.90999998507868;592;1 A;
38.7300089022161;-0.999755859375;-0.31512451171875;5.91999998505344;593;1 A;
38.7400089021909;-0.99945068359375;-0.316558837890625;5.92999998502819;594;1 A;
38.7500089021656;-0.999755859375;-0.315887451171875;5.93999998500294;595;1 A;
38.7600089021404;-0.99945068359375;-0.316131591796875;5.94999998497769;596;1 A;
38.7700089021151;-0.999755859375;-0.312164306640625;5.95999998495245;597;1 A;
38.7800089020899;-0.99945068359375;-0.314361572265625;5.9699999849272;598;1 A;
38.7900089020646;-0.99945068359375;-0.314208984375;5.97999998490195;599;1 A;
38.8000089020394;-1.00006103515625;-0.31903076171875;5.9899999848767;600;1 A;
38.8100089020141;-0.99945068359375;-0.31951904296875;5.99999998485146;601;1 A;
38.8200089019889;-0.999755859375;-0.317108154296875;6.00999998482621;602;1 A;
38.8300089019637;-1.0003662109375;-0.31072998046875;6.01999998480096;603;1 A;
38.8400089019384;-0.999755859375;-0.314483642578125;6.02999998477571;604;1 A;
38.8500089019132;-0.99945068359375;-0.311737060546875;6.03999998475047;605;1 A;
38.8600089018879;-0.999755859375;-0.313507080078125;6.04999998472522;606;1 A;
38.8700089018627;-0.99945068359375;-0.31182861328125;6.05999998469997;607;1 A;
38.8800089018374;-0.999755859375;-0.314453125;6.06999998467472;608;1 A;
38.8900089018122;-0.999755859375;-0.30963134765625;6.07999998464948;609;1 A;
38.9000089017869;-0.9991455078125;-0.3116455078125;6.08999998462423;610;1 A;
38.9100089017617;-0.99945068359375;-0.3118896484375;6.09999998459898;611;1 A;
38.9200089017364;-0.99945068359375;-0.31829833984375;6.10999998457373;612;1 A;
38.9300089017112;-1.00006103515625;-0.318023681640625;6.11999998454849;613;1 A;
38.9400089016859;-0.99945068359375;-0.318084716796875;6.12999998452324;614;1 A;
38.9500089016607;-1.00006103515625;-0.31146240234375;6.13999998449799;615;1 A;
38.9600089016354;-0.99945068359375;-0.313934326171875;6.14999998447274;616;1 A;
38.9700089016102;-0.999755859375;-0.3134765625;6.1599999844475;617;1 A;
38.9800089015849;-0.999755859375;-0.316558837890625;6.16999998442225;618;1 A;
38.9900089015597;-0.999755859375;-0.314361572265625;6.179999984397;619;1 A;
39.0000089015344;-1.00006103515625;-0.3165283203125;6.18999998437175;620;1 A;
39.0100089015092;-1.00006103515625;-0.3128662109375;6.1999999843465;621;1 A;
39.0200089014839;-0.999755859375;-0.315948486328125;6.20999998432126;622;1 A;
39.0300089014587;-0.999755859375;-0.31500244140625;6.21999998429601;623;1 A;
39.0400089014335;-0.99945068359375;-0.32159423828125;6.22999998427076;624;1 A;
39.0500089014082;-0.999755859375;-0.322052001953125;6.23999998424551;625;1 A;
39.060008901383;-0.99945068359375;-0.322723388671875;6.24999998422027;626;1 A;
39.0700089013577;-1.00006103515625;-0.316131591796875;6.25999998419502;627;1 A;
39.0800089013325;-0.999755859375;-0.318267822265625;6.26999998416977;628;1 A;
39.0900089013072;-1.00006103515625;-0.31707763671875;6.27999998414452;629;1 A;
39.100008901282;-0.99945068359375;-0.319580078125;6.28999998411928;630;1 A;
39.1100089012567;-0.99945068359375;-0.321563720703125;6.29999998409403;631;1 A;
39.1200089012315;-0.99945068359375;-0.31988525390625;6.30999998406878;632;1 A;
39.1300089012062;-0.999755859375;-0.316925048828125;6.31999998404353;633;1 A;
39.140008901181;-0.99945068359375;-0.318115234375;6.32999998401829;634;1 A;
39.1500089011557;-0.999755859375;-0.318267822265625;6.33999998399304;635;1 A;
39.1600089011305;-0.999755859375;-0.324951171875;6.34999998396779;636;1 A;
39.1700089011052;-0.999755859375;-0.32696533203125;6.35999998394254;637;1 A;
39.18000890108;-0.999755859375;-0.325103759765625;6.3699999839173;638;1 A;
39.1900089010547;-0.999755859375;-0.3177490234375;6.37999998389205;639;1 A;
39.2000089010295;-1.00006103515625;-0.320098876953125;6.3899999838668;640;1 A;
39.2100089010042;-1.00006103515625;-0.319732666015625;6.39999998384155;641;1 A;
39.220008900979;-0.999755859375;-0.32220458984375;6.40999998381631;642;1 A;
39.2300089009537;-0.999755859375;-0.3231201171875;6.41999998379106;643;1 A;
39.2400089009285;-0.999755859375;-0.320098876953125;6.42999998376581;644;1 A;
39.2500089009033;-1.00006103515625;-0.318756103515625;6.43999998374056;645;1 A;
39.260008900878;-0.99945068359375;-0.31890869140625;6.44999998371532;646;1 A;
39.2700089008528;-0.999755859375;-0.320220947265625;6.45999998369007;647;1 A;
39.2800089008275;-0.99945068359375;-0.327117919921875;6.46999998366482;648;1 A;
39.2900089008023;-0.999755859375;-0.327972412109375;6.47999998363957;649;1 A;
39.300008900777;-1.00006103515625;-0.326263427734375;6.48999998361433;650;1 A;
39.3100089007518;-0.99945068359375;-0.319488525390625;6.49999998358908;651;1 A;
39.3200089007265;-0.99945068359375;-0.32196044921875;6.50999998356383;652;1 A;
39.3300089007013;-0.999755859375;-0.32135009765625;6.51999998353858;653;1 A;
39.340008900676;-1.00006103515625;-0.32342529296875;6.52999998351333;654;1 A;
39.3500089006508;-0.999755859375;-0.323211669921875;6.53999998348809;655;1 A;
39.3600089006255;-0.999755859375;-0.322235107421875;6.54999998346284;656;1 A;
39.3700089006003;-0.999755859375;-0.3194580078125;6.55999998343759;657;1 A;
39.380008900575;-0.999755859375;-0.32171630859375;6.56999998341234;658;1 A;
39.3900089005498;-0.999755859375;-0.3223876953125;6.5799999833871;659;1 A;
39.4000089005245;-0.99945068359375;-0.327728271484375;6.58999998336185;660;1 A;
39.4100089004993;-1.00006103515625;-0.329498291015625;6.5999999833366;661;1 A;
39.420008900474;-0.999755859375;-0.325286865234375;6.60999998331135;662;1 A;
39.4300089004488;-1.00006103515625;-0.320343017578125;6.61999998328611;663;1 A;
39.4400089004235;-0.999755859375;-0.322998046875;6.62999998326086;664;1 A;
39.4500089003983;-1.00006103515625;-0.32171630859375;6.63999998323561;665;1 A;
39.4600089003731;-0.99945068359375;-0.3240966796875;6.64999998321036;666;1 A;
39.4700089003478;-0.99945068359375;-0.324066162109375;6.65999998318512;667;1 A;
39.4800089003226;-0.999755859375;-0.323760986328125;6.66999998315987;668;1 A;
39.4900089002973;-0.999755859375;-0.3203125;6.67999998313462;669;1 A;
39.5000089002721;-0.99945068359375;-0.320526123046875;6.68999998310937;670;1 A;
39.5100089002468;-1.00006103515625;-0.321685791015625;6.69999998308413;671;1 A;
39.5200089002216;-0.999755859375;-0.32818603515625;6.70999998305888;672;1 A;
39.5300089001963;-0.99945068359375;-0.32958984375;6.71999998303363;673;1 A;
39.5400089001711;-0.999755859375;-0.3267822265625;6.72999998300838;674;1 A;
39.5500089001458;-1.00006103515625;-0.320648193359375;6.73999998298314;675;1 A;
39.5600089001206;-0.99945068359375;-0.32110595703125;6.74999998295789;676;1 A;
39.5700089000953;-0.99945068359375;-0.322113037109375;6.75999998293264;677;1 A;
39.5800089000701;-0.99945068359375;-0.326385498046875;6.76999998290739;678;1 A;
39.5900089000448;-0.999755859375;-0.324737548828125;6.77999998288215;679;1 A;
39.6000089000196;-0.99945068359375;-0.324310302734375;6.7899999828569;680;1 A;
39.6100088999943;-0.999755859375;-0.3221435546875;6.79999998283165;681;1 A;
39.6200088999691;-0.999755859375;-0.322601318359375;6.8099999828064;682;1 A;
39.6300088999438;-0.999755859375;-0.3226318359375;6.81999998278116;683;1 A;
39.6400088999186;-0.99945068359375;-0.329315185546875;6.82999998275591;684;1 A;
39.6500088998934;-1.00006103515625;-0.330902099609375;6.83999998273066;685;1 A;
39.6600088998681;-0.999755859375;-0.330902099609375;6.84999998270541;686;1 A;
39.6700088998429;-0.999755859375;-0.322662353515625;6.85999998268016;687;1 A;
39.6800088998176;-0.999755859375;-0.32403564453125;6.86999998265492;688;1 A;
39.6900088997924;-1.00006103515625;-0.323272705078125;6.87999998262967;689;1 A;
39.7000088997671;-1.00006103515625;-0.32537841796875;6.88999998260442;690;1 A;
39.7100088997419;-1.00006103515625;-0.32794189453125;6.89999998257917;691;1 A;
39.7200088997166;-0.99945068359375;-0.326263427734375;6.90999998255393;692;1 A;
39.7300088996914;-0.999755859375;-0.320831298828125;6.91999998252868;693;1 A;
39.7400088996661;-0.9991455078125;-0.322998046875;6.92999998250343;694;1 A;
39.7500088996409;-0.99945068359375;-0.322540283203125;6.93999998247818;695;1 A;
39.7600088996156;-0.999755859375;-0.330352783203125;6.94999998245294;696;1 A;
39.7700088995904;-1.00006103515625;-0.332427978515625;6.95999998242769;697;1 A;
39.7800088995651;-0.999755859375;-0.330535888671875;6.96999998240244;698;1 A;
39.7900088995399;-0.99945068359375;-0.322113037109375;6.97999998237719;699;1 A;
39.8000088995146;-0.99945068359375;-0.326812744140625;6.98999998235195;700;1 A;
39.8100088994894;-0.9991455078125;-0.324981689453125;6.9999999823267;701;1 A;
39.8200088994641;-1.00006103515625;-0.328216552734375;7.00999998230145;702;1 A;
39.8300088994389;-0.999755859375;-0.328826904296875;7.0199999822762;703;1 A;
39.8400088994136;-0.999755859375;-0.326446533203125;7.02999998225096;704;1 A;
39.8500088993884;-0.9991455078125;-0.323486328125;7.03999998222571;705;1 A;
39.8600088993632;-0.99945068359375;-0.32452392578125;7.04999998220046;706;1 A;
39.8700088993379;-0.999755859375;-0.32452392578125;7.05999998217521;707;1 A;
39.8800088993127;-0.99945068359375;-0.334136962890625;7.06999998214997;708;1 A;
39.8900088992874;-1.00006103515625;-0.333251953125;7.07999998212472;709;1 A;
39.9000088992622;-0.999755859375;-0.3321533203125;7.08999998209947;710;1 A;
39.9100088992369;-0.9991455078125;-0.322998046875;7.09999998207422;711;1 A;
39.9200088992117;-0.999755859375;-0.32720947265625;7.10999998204898;712;1 A;
39.9300088991864;-0.99945068359375;-0.326141357421875;7.11999998202373;713;1 A;
39.9400088991612;-0.99945068359375;-0.329071044921875;7.12999998199848;714;1 A;
39.9500088991359;-0.999755859375;-0.32794189453125;7.13999998197323;715;1 A;
39.9600088991107;-0.9991455078125;-0.328704833984375;7.14999998194799;716;1 A;
39.9700088990854;-1.0003662109375;-0.3228759765625;7.15999998192274;717;1 A;
39.9800088990602;-0.999755859375;-0.327667236328125;7.16999998189749;718;1 A;
39.9900088990349;-1.00006103515625;-0.326385498046875;7.17999998187224;719;1 A;
40.0000088990097;-0.999755859375;-0.33563232421875;7.189999981847;720;1 A;
40.0100088989844;-1.00006103515625;-0.335052490234375;7.19999998182175;721;1 A;
40.0200088989592;-0.999755859375;-0.33111572265625;7.2099999817965;722;1 A;
40.0300088989339;-0.9991455078125;-0.323974609375;7.21999998177125;723;1 A;
40.0400088989087;-1.00006103515625;-0.328704833984375;7.229999981746;724;1 A;
40.0500088988834;-0.99945068359375;-0.32586669921875;7.23999998172076;725;1 A;
40.0600088988582;-1.00006103515625;-0.330596923828125;7.24999998169551;726;1 A;
40.070008898833;-0.99945068359375;-0.329315185546875;7.25999998167026;727;1 A;
40.0800088988077;-0.999755859375;-0.3297119140625;7.26999998164501;728;1 A;
40.0900088987825;-0.999755859375;-0.325897216796875;7.27999998161977;729;1 A;
40.1000088987572;-0.999755859375;-0.325958251953125;7.28999998159452;730;1 A;
40.110008898732;-0.99945068359375;-0.326171875;7.29999998156927;731;1 A;
40.1200088987067;-1.00006103515625;-0.3345947265625;7.30999998154402;732;1 A;
40.1300088986815;-0.999755859375;-0.33392333984375;7.31999998151878;733;1 A;
40.1400088986562;-0.99945068359375;-0.33197021484375;7.32999998149353;734;1 A;
40.150008898631;-0.999755859375;-0.323944091796875;7.33999998146828;735;1 A;
40.1600088986057;-0.9991455078125;-0.324493408203125;7.34999998144303;736;1 A;
40.1700088985805;-1.00006103515625;-0.325897216796875;7.35999998141779;737;1 A;
40.1800088985552;-1.00006103515625;-0.331024169921875;7.36999998139254;738;1 A;
40.19000889853;-0.999755859375;-0.32861328125;7.37999998136729;739;1 A;
40.2000088985047;-1.0003662109375;-0.32763671875;7.38999998134204;740;1 A;
40.2100088984795;-1.00006103515625;-0.326324462890625;7.3999999813168;741;1 A;
40.2200088984542;-0.99945068359375;-0.32452392578125;7.40999998129155;742;1 A;
40.230008898429;-0.99945068359375;-0.32574462890625;7.4199999812663;743;1 A;
40.2400088984037;-0.999755859375;-0.331451416015625;7.42999998124105;744;1 A;
40.2500088983785;-0.99945068359375;-0.332763671875;7.43999998121581;745;1 A;
40.2600088983532;-1.00006103515625;-0.334228515625;7.44999998119056;746;1 A;
40.270008898328;-0.9991455078125;-0.324066162109375;7.45999998116531;747;1 A;
40.2800088983028;-0.99945068359375;-0.325836181640625;7.46999998114006;748;1 A;
40.2900088982775;-0.999755859375;-0.325286865234375;7.47999998111482;749;1 A;
40.3000088982523;-0.9991455078125;-0.327911376953125;7.48999998108957;750;1 A;
40.310008898227;-0.999755859375;-0.329345703125;7.49999998106432;751;1 A;
40.3200088982018;-0.99945068359375;-0.3284912109375;7.50999998103907;752;1 A;
40.3300088981765;-0.99945068359375;-0.321868896484375;7.51999998101383;753;1 A;
40.3400088981513;-0.999755859375;-0.324462890625;7.52999998098858;754;1 A;
40.350008898126;-1.00006103515625;-0.324188232421875;7.53999998096333;755;1 A;
40.3600088981008;-0.9991455078125;-0.332275390625;7.54999998093808;756;1 A;
40.3700088980755;-0.99945068359375;-0.333160400390625;7.55999998091283;757;1 A;
40.3800088980503;-0.999755859375;-0.331451416015625;7.56999998088759;758;1 A;
40.390008898025;-0.999755859375;-0.321197509765625;7.57999998086234;759;1 A;
40.4000088979998;-0.99945068359375;-0.328155517578125;7.58999998083709;760;1 A;
40.4100088979745;-0.999755859375;-0.32464599609375;7.59999998081184;761;1 A;
40.4200088979493;-1.00006103515625;-0.32952880859375;7.6099999807866;762;1 A;
40.430008897924;-0.99945068359375;-0.328704833984375;7.61999998076135;763;1 A;
40.4400088978988;-0.999755859375;-0.32867431640625;7.6299999807361;764;1 A;
40.4500088978735;-0.99945068359375;-0.324554443359375;7.63999998071085;765;1 A;
40.4600088978483;-0.99945068359375;-0.326324462890625;7.64999998068561;766;1 A;
40.470008897823;-1.00006103515625;-0.325103759765625;7.65999998066036;767;1 A;
40.4800088977978;-0.999755859375;-0.335723876953125;7.66999998063511;768;1 A;
40.4900088977726;-0.99945068359375;-0.334136962890625;7.67999998060986;769;1 A;
40.5000088977473;-0.9991455078125;-0.331817626953125;7.68999998058462;770;1 A;
40.5100088977221;-1.00006103515625;-0.32220458984375;7.69999998055937;771;1 A;
40.5200088976968;-0.999755859375;-0.326263427734375;7.70999998053412;772;1 A;
40.5300088976716;-0.9991455078125;-0.324432373046875;7.71999998050887;773;1 A;
40.5400088976463;-0.99945068359375;-0.327911376953125;7.72999998048363;774;1 A;
40.5500088976211;-0.99945068359375;-0.326812744140625;7.73999998045838;775;1 A;
40.5600088975958;-0.999755859375;-0.327301025390625;7.74999998043313;776;1 A;
40.5700088975706;-1.00006103515625;-0.32080078125;7.75999998040788;777;1 A;
40.5800088975453;-0.99945068359375;-0.32611083984375;7.76999998038264;778;1 A;
40.5900088975201;-0.9991455078125;-0.32391357421875;7.77999998035739;779;1 A;
40.6000088974948;-0.999755859375;-0.3333740234375;7.78999998033214;780;1 A;
40.6100088974696;-0.99945068359375;-0.33355712890625;7.79999998030689;781;1 A;
40.6200088974443;-1.00006103515625;-0.327972412109375;7.80999998028165;782;1 A;
40.6300088974191;-0.99945068359375;-0.322418212890625;7.8199999802564;783;1 A;
40.6400088973938;-0.999755859375;-0.32415771484375;7.82999998023115;784;1 A;
40.6500088973686;-0.9991455078125;-0.32275390625;7.8399999802059;785;1 A;
40.6600088973433;-1.00006103515625;-0.3260498046875;7.84999998018066;786;1 A;
40.6700088973181;-0.999755859375;-0.327056884765625;7.85999998015541;787;1 A;
40.6800088972929;-0.999755859375;-0.323699951171875;7.86999998013016;788;1 A;
40.6900088972676;-0.999755859375;-0.322967529296875;7.87999998010491;789;1 A;
40.7000088972424;-0.999755859375;-0.322052001953125;7.88999998007966;790;1 A;
40.7100088972171;-0.999755859375;-0.322967529296875;7.89999998005442;791;1 A;
40.7200088971919;-1.0003662109375;-0.3306884765625;7.90999998002917;792;1 A;
40.7300088971666;-0.99945068359375;-0.333282470703125;7.91999998000392;793;1 A;
40.7400088971414;-0.99945068359375;-0.329437255859375;7.92999997997867;794;1 A;
40.7500088971161;-0.99945068359375;-0.32244873046875;7.93999997995343;795;1 A;
40.7600088970909;-0.99945068359375;-0.322021484375;7.94999997992818;796;1 A;
40.7700088970656;-0.99945068359375;-0.32415771484375;7.95999997990293;797;1 A;
40.7800088970404;-1.00006103515625;-0.327911376953125;7.96999997987768;798;1 A;
40.7900088970151;-0.99945068359375;-0.328857421875;7.97999997985244;799;1 A;
40.8000088969899;-0.9991455078125;-0.32464599609375;7.98999997982719;800;1 A;
40.8100088969646;-0.9991455078125;-0.324951171875;7.99999997980194;801;1 A;
40.8200088969394;-1.00006103515625;-0.322052001953125;8.00999997977669;802;1 A;
40.8300088969141;-0.9991455078125;-0.32464599609375;8.01999997975145;803;1 A;
40.8400088968889;-0.999755859375;-0.33056640625;8.0299999797262;804;1 A;
40.8500088968636;-0.999755859375;-0.333526611328125;8.03999997970095;805;1 A;
40.8600088968384;-0.99945068359375;-0.333160400390625;8.0499999796757;806;1 A;
40.8700088968131;-1.00006103515625;-0.322906494140625;8.05999997965046;807;1 A;
40.8800088967879;-0.999755859375;-0.324310302734375;8.06999997962521;808;1 A;
40.8900088967627;-1.0003662109375;-0.3231201171875;8.07999997959996;809;1 A;
40.9000088967374;-0.999755859375;-0.325775146484375;8.08999997957471;810;1 A;
40.9100088967122;-1.00006103515625;-0.325714111328125;8.09999997954947;811;1 A;
40.9200088966869;-0.99945068359375;-0.325531005859375;8.10999997952422;812;1 A;
40.9300088966617;-1.00006103515625;-0.3175048828125;8.11999997949897;813;1 A;
40.9400088966364;-1.00006103515625;-0.321197509765625;8.12999997947372;814;1 A;
40.9500088966112;-1.00006103515625;-0.32037353515625;8.13999997944848;815;1 A;
40.9600088965859;-0.99945068359375;-0.3292236328125;8.14999997942323;816;1 A;
40.9700088965607;-0.99945068359375;-0.329315185546875;8.15999997939798;817;1 A;
40.9800088965354;-0.999755859375;-0.32733154296875;8.16999997937273;818;1 A;
40.9900088965102;-1.00006103515625;-0.316009521484375;8.17999997934749;819;1 A;
41.0000088964849;-0.9991455078125;-0.3236083984375;8.18999997932224;820;1 A;
41.0100088964597;-0.999755859375;-0.31903076171875;8.19999997929699;821;1 A;
41.0200088964344;-0.9991455078125;-0.32293701171875;8.20999997927174;822;1 A;
41.0300088964092;-0.999755859375;-0.321533203125;8.2199999792465;823;1 A;
41.0400088963839;-1.00006103515625;-0.323883056640625;8.22999997922125;824;1 A;
41.0500088963587;-0.999755859375;-0.316375732421875;8.239999979196;825;1 A;
41.0600088963334;-0.99945068359375;-0.320159912109375;8.24999997917075;826;1 A;
41.0700088963082;-0.9991455078125;-0.31805419921875;8.2599999791455;827;1 A;
41.0800088962829;-0.99945068359375;-0.3309326171875;8.26999997912026;828;1 A;
41.0900088962577;-0.99945068359375;-0.3280029296875;8.27999997909501;829;1 A;
41.1000088962325;-0.999755859375;-0.32666015625;8.28999997906976;830;1 A;
41.1100088962072;-0.999755859375;-0.31475830078125;8.29999997904451;831;1 A;
41.120008896182;-0.9991455078125;-0.319915771484375;8.30999997901927;832;1 A;
41.1300088961567;-0.99945068359375;-0.3177490234375;8.31999997899402;833;1 A;
41.1400088961315;-0.99945068359375;-0.322021484375;8.32999997896877;834;1 A;
41.1500088961062;-0.999755859375;-0.31884765625;8.33999997894352;835;1 A;
41.160008896081;-0.99945068359375;-0.32269287109375;8.34999997891828;836;1 A;
41.1700088960557;-1.00006103515625;-0.314208984375;8.35999997889303;837;1 A;
41.1800088960305;-0.999755859375;-0.3206787109375;8.36999997886778;838;1 A;
41.1900088960052;-0.99945068359375;-0.31744384765625;8.37999997884253;839;1 A;
41.20000889598;-0.999755859375;-0.330291748046875;8.38999997881729;840;1 A;
41.2100088959547;-1.00006103515625;-0.32861328125;8.39999997879204;841;1 A;
41.2200088959295;-0.9991455078125;-0.326629638671875;8.40999997876679;842;1 A;
41.2300088959042;-1.00006103515625;-0.317047119140625;8.41999997874154;843;1 A;
41.240008895879;-0.999755859375;-0.320343017578125;8.4299999787163;844;1 A;
41.2500088958537;-0.9991455078125;-0.318084716796875;8.43999997869105;845;1 A;
41.2600088958285;-0.999755859375;-0.32269287109375;8.4499999786658;846;1 A;
41.2700088958032;-0.999755859375;-0.3240966796875;8.45999997864055;847;1 A;
41.280008895778;-1.00006103515625;-0.3204345703125;8.46999997861531;848;1 A;
41.2900088957527;-1.00006103515625;-0.31817626953125;8.47999997859006;849;1 A;
41.3000088957275;-0.999755859375;-0.318389892578125;8.48999997856481;850;1 A;
41.3100088957023;-0.99945068359375;-0.317718505859375;8.49999997853956;851;1 A;
41.320008895677;-0.9991455078125;-0.327606201171875;8.50999997851432;852;1 A;
41.3300088956518;-1.00006103515625;-0.32861328125;8.51999997848907;853;1 A;
41.3400088956265;-0.999755859375;-0.32452392578125;8.52999997846382;854;1 A;
41.3500088956013;-1.00006103515625;-0.314453125;8.53999997843857;855;1 A;
41.360008895576;-1.00006103515625;-0.3155517578125;8.54999997841333;856;1 A;
41.3700088955508;-0.999755859375;-0.316436767578125;8.55999997838808;857;1 A;
41.3800088955255;-0.999755859375;-0.321319580078125;8.56999997836283;858;1 A;
41.3900088955003;-0.9991455078125;-0.321807861328125;8.57999997833758;859;1 A;
41.400008895475;-1.00067138671875;-0.31689453125;8.58999997831233;860;1 A;
41.4100088954498;-1.0003662109375;-0.315704345703125;8.59999997828709;861;1 A;
41.4200088954245;-0.999755859375;-0.313232421875;8.60999997826184;862;1 A;
41.4300088953993;-0.99945068359375;-0.315582275390625;8.61999997823659;863;1 A;
41.440008895374;-0.999755859375;-0.3243408203125;8.62999997821134;864;1 A;
41.4500088953488;-0.9991455078125;-0.32562255859375;8.6399999781861;865;1 A;
41.4600088953235;-1.00006103515625;-0.324249267578125;8.64999997816085;866;1 A;
41.4700088952983;-1.00006103515625;-0.312530517578125;8.6599999781356;867;1 A;
41.480008895273;-0.999755859375;-0.31512451171875;8.66999997811035;868;1 A;
41.4900088952478;-0.99945068359375;-0.31378173828125;8.67999997808511;869;1 A;
41.5000088952225;-0.9991455078125;-0.318206787109375;8.68999997805986;870;1 A;
41.5100088951973;-0.999755859375;-0.318115234375;8.69999997803461;871;1 A;
41.5200088951721;-0.99945068359375;-0.31866455078125;8.70999997800936;872;1 A;
41.5300088951468;-0.999755859375;-0.311370849609375;8.71999997798412;873;1 A;
41.5400088951216;-0.999755859375;-0.31549072265625;8.72999997795887;874;1 A;
41.5500088950963;-1.0003662109375;-0.31463623046875;8.73999997793362;875;1 A;
41.5600088950711;-0.99945068359375;-0.323699951171875;8.74999997790837;876;1 A;
41.5700088950458;-0.9991455078125;-0.32354736328125;8.75999997788313;877;1 A;
41.5800088950206;-1.00006103515625;-0.31964111328125;8.76999997785788;878;1 A;
41.5900088949953;-1.00006103515625;-0.30908203125;8.77999997783263;879;1 A;
41.6000088949701;-0.999755859375;-0.31536865234375;8.78999997780738;880;1 A;
41.6100088949448;-1.00006103515625;-0.31048583984375;8.79999997778214;881;1 A;
41.6200088949196;-0.99945068359375;-0.315704345703125;8.80999997775689;882;1 A;
41.6300088948943;-0.999755859375;-0.313690185546875;8.81999997773164;883;1 A;
41.6400088948691;-1.00006103515625;-0.316864013671875;8.82999997770639;884;1 A;
41.6500088948438;-1.00006103515625;-0.308349609375;8.83999997768115;885;1 A;
41.6600088948186;-0.99945068359375;-0.3104248046875;8.8499999776559;886;1 A;
41.6700088947933;-0.99945068359375;-0.308868408203125;8.85999997763065;887;1 A;
41.6800088947681;-0.999755859375;-0.320281982421875;8.8699999776054;888;1 A;
41.6900088947428;-0.99945068359375;-0.318023681640625;8.87999997758016;889;1 A;
41.7000088947176;-0.9991455078125;-0.316497802734375;8.88999997755491;890;1 A;
41.7100088946924;-1.00006103515625;-0.3037109375;8.89999997752966;891;1 A;
41.7200088946671;-0.99945068359375;-0.3067626953125;8.90999997750441;892;1 A;
41.7300088946419;-1.00006103515625;-0.304412841796875;8.91999997747916;893;1 A;
41.7400088946166;-0.99945068359375;-0.309661865234375;8.92999997745392;894;1 A;
41.7500088945914;-0.99945068359375;-0.307220458984375;8.93999997742867;895;1 A;
41.7600088945661;-1.00006103515625;-0.309295654296875;8.94999997740342;896;1 A;
41.7700088945409;-0.99945068359375;-0.302764892578125;8.95999997737817;897;1 A;
41.7800088945156;-1.0003662109375;-0.306060791015625;8.96999997735293;898;1 A;
41.7900088944904;-0.9991455078125;-0.30389404296875;8.97999997732768;899;1 A;
41.8000088944651;-1.00006103515625;-0.314483642578125;8.98999997730243;900;1 A;
41.8100088944399;-0.99945068359375;-0.31512451171875;8.99999997727718;901;1 A;
41.8200088944146;-0.99945068359375;-0.313568115234375;9.00999997725194;902;1 A;
41.8300088943894;-1.00006103515625;-0.30523681640625;9.01999997722669;903;1 A;
41.8400088943641;-0.99945068359375;-0.30731201171875;9.02999997720144;904;1 A;
41.8500088943389;-0.999755859375;-0.30572509765625;9.03999997717619;905;1 A;
41.8600088943136;-1.00006103515625;-0.30926513671875;9.04999997715095;906;1 A;
41.8700088942884;-1.00006103515625;-0.313934326171875;9.0599999771257;907;1 A;
41.8800088942631;-1.00006103515625;-0.309906005859375;9.06999997710045;908;1 A;
41.8900088942379;-1.00006103515625;-0.306610107421875;9.0799999770752;909;1 A;
41.9000088942126;-0.999755859375;-0.30828857421875;9.08999997704996;910;1 A;
41.9100088941874;-1.00006103515625;-0.308013916015625;9.09999997702471;911;1 A;
41.9200088941622;-0.99945068359375;-0.3173828125;9.10999997699946;912;1 A;
41.9300088941369;-0.999755859375;-0.320556640625;9.11999997697421;913;1 A;
41.9400088941117;-0.999755859375;-0.316619873046875;9.12999997694897;914;1 A;
41.9500088940864;-0.99945068359375;-0.3055419921875;9.13999997692372;915;1 A;
41.9600088940612;-1.00006103515625;-0.30950927734375;9.14999997689847;916;1 A;
41.9700088940359;-1.00006103515625;-0.30926513671875;9.15999997687322;917;1 A;
41.9800088940107;-1.00006103515625;-0.313079833984375;9.16999997684798;918;1 A;
41.9900088939854;-0.99945068359375;-0.314788818359375;9.17999997682273;919;1 A;
42.0000088939602;-1.0003662109375;-0.31024169921875;9.18999997679748;920;1 A;
42.0100088939349;-1.00006103515625;-0.307464599609375;9.19999997677223;921;1 A;
42.0200088939097;-0.999755859375;-0.307037353515625;9.20999997674699;922;1 A;
42.0300088938844;-0.99945068359375;-0.3084716796875;9.21999997672174;923;1 A;
42.0400088938592;-0.999755859375;-0.319366455078125;9.22999997669649;924;1 A;
42.0500088938339;-0.999755859375;-0.319488525390625;9.23999997667124;925;1 A;
42.0600088938087;-0.999755859375;-0.316650390625;9.249999976646;926;1 A;
42.0700088937834;-0.999755859375;-0.30572509765625;9.25999997662075;927;1 A;
42.0800088937582;-0.999755859375;-0.30877685546875;9.2699999765955;928;1 A;
42.0900088937329;-0.999755859375;-0.306915283203125;9.27999997657025;929;1 A;
42.1000088937077;-0.99945068359375;-0.310791015625;9.289999976545;930;1 A;
42.1100088936824;-0.999755859375;-0.310760498046875;9.29999997651976;931;1 A;
42.1200088936572;-0.999755859375;-0.310577392578125;9.30999997649451;932;1 A;
42.130008893632;-1.00006103515625;-0.30419921875;9.31999997646926;933;1 A;
42.1400088936067;-0.99945068359375;-0.308502197265625;9.32999997644401;934;1 A;
42.1500088935815;-0.999755859375;-0.307647705078125;9.33999997641877;935;1 A;
42.1600088935562;-0.99945068359375;-0.317291259765625;9.34999997639352;936;1 A;
42.170008893531;-0.9991455078125;-0.316680908203125;9.35999997636827;937;1 A;
42.1800088935057;-1.00006103515625;-0.3121337890625;9.36999997634302;938;1 A;
42.1900088934805;-0.999755859375;-0.301727294921875;9.37999997631778;939;1 A;
42.2000088934552;-0.999755859375;-0.3079833984375;9.38999997629253;940;1 A;
42.21000889343;-0.99945068359375;-0.303131103515625;9.39999997626728;941;1 A;
42.2200088934047;-0.999755859375;-0.307891845703125;9.40999997624203;942;1 A;
42.2300088933795;-0.999755859375;-0.305755615234375;9.41999997621679;943;1 A;
42.2400088933542;-1.0003662109375;-0.30859375;9.42999997619154;944;1 A;
42.250008893329;-0.99945068359375;-0.3009033203125;9.43999997616629;945;1 A;
42.2600088933037;-1.00006103515625;-0.300628662109375;9.44999997614104;946;1 A;
42.2700088932785;-0.99945068359375;-0.30133056640625;9.4599999761158;947;1 A;
42.2800088932532;-0.999755859375;-0.31158447265625;9.46999997609055;948;1 A;
42.290008893228;-1.00006103515625;-0.309112548828125;9.4799999760653;949;1 A;
42.3000088932027;-1.0003662109375;-0.308502197265625;9.48999997604005;950;1 A;
42.3100088931775;-0.999755859375;-0.296875;9.49999997601481;951;1 A;
42.3200088931522;-0.99945068359375;-0.298126220703125;9.50999997598956;952;1 A;
42.330008893127;-0.9991455078125;-0.298370361328125;9.51999997596431;953;1 A;
42.3400088931018;-1.00006103515625;-0.305206298828125;9.52999997593906;954;1 A;
42.3500088930765;-1.00006103515625;-0.30169677734375;9.53999997591382;955;1 A;
42.3600088930513;-0.999755859375;-0.303436279296875;9.54999997588857;956;1 A;
42.370008893026;-0.99945068359375;-0.299224853515625;9.55999997586332;957;1 A;
42.3800088930008;-0.999755859375;-0.299468994140625;9.56999997583807;958;1 A;
42.3900088929755;-1.00006103515625;-0.298980712890625;9.57999997581283;959;1 A;
42.4000088929503;-0.99945068359375;-0.308441162109375;9.58999997578758;960;1 A;
42.410008892925;-0.999755859375;-0.3079833984375;9.59999997576233;961;1 A;
42.4200088928998;-0.999755859375;-0.307891845703125;9.60999997573708;962;1 A;
42.4300088928745;-1.00006103515625;-0.29705810546875;9.61999997571183;963;1 A;
42.4400088928493;-0.999755859375;-0.299102783203125;9.62999997568659;964;1 A;
42.450008892824;-1.00006103515625;-0.2958984375;9.63999997566134;965;1 A;
42.4600088927988;-0.999755859375;-0.3006591796875;9.64999997563609;966;1 A;
42.4700088927735;-0.99945068359375;-0.302947998046875;9.65999997561084;967;1 A;
42.4800088927483;-0.999755859375;-0.29998779296875;9.6699999755856;968;1 A;
42.490008892723;-0.99945068359375;-0.2930908203125;9.67999997556035;969;1 A;
42.5000088926978;-0.99945068359375;-0.294891357421875;9.6899999755351;970;1 A;
42.5100088926725;-1.00006103515625;-0.293975830078125;9.69999997550985;971;1 A;
42.5200088926473;-0.999755859375;-0.305389404296875;9.70999997548461;972;1 A;
42.530008892622;-0.99945068359375;-0.30596923828125;9.71999997545936;973;1 A;
42.5400088925968;-0.999755859375;-0.302764892578125;9.72999997543411;974;1 A;
42.5500088925716;-1.00006103515625;-0.290679931640625;9.73999997540886;975;1 A;
42.5600088925463;-0.99945068359375;-0.29559326171875;9.74999997538362;976;1 A;
42.5700088925211;-0.9991455078125;-0.294158935546875;9.75999997535837;977;1 A;
42.5800088924958;-0.9991455078125;-0.29974365234375;9.76999997533312;978;1 A;
42.5900088924706;-0.99945068359375;-0.300628662109375;9.77999997530787;979;1 A;
42.6000088924453;-1.00006103515625;-0.296661376953125;9.78999997528263;980;1 A;
42.6100088924201;-0.99945068359375;-0.29302978515625;9.79999997525738;981;1 A;
42.6200088923948;-0.999755859375;-0.293609619140625;9.80999997523213;982;1 A;
42.6300088923696;-0.999755859375;-0.29278564453125;9.81999997520688;983;1 A;
42.6400088923443;-0.99945068359375;-0.306396484375;9.82999997518164;984;1 A;
42.6500088923191;-0.999755859375;-0.305328369140625;9.83999997515639;985;1 A;
42.6600088922938;-0.999755859375;-0.302642822265625;9.84999997513114;986;1 A;
42.6700088922686;-0.99945068359375;-0.29132080078125;9.85999997510589;987;1 A;
42.6800088922433;-0.999755859375;-0.29510498046875;9.86999997508065;988;1 A;
42.6900088922181;-0.99945068359375;-0.29388427734375;9.8799999750554;989;1 A;
42.7000088921928;-0.999755859375;-0.29931640625;9.88999997503015;990;1 A;
42.7100088921676;-0.999755859375;-0.300628662109375;9.8999999750049;991;1 A;
42.7200088921423;-1.00006103515625;-0.299102783203125;9.90999997497966;992;1 A;
42.7300088921171;-1.00006103515625;-0.294036865234375;9.91999997495441;993;1 A;
42.7400088920919;-0.9991455078125;-0.2994384765625;9.92999997492916;994;1 A;
42.7500088920666;-0.99945068359375;-0.298095703125;9.93999997490391;995;1 A;
42.7600088920414;-0.999755859375;-0.30859375;9.94999997487866;996;1 A;
42.7700088920161;-0.99945068359375;-0.3104248046875;9.95999997485342;997;1 A;
42.7800088919909;-0.999755859375;-0.30340576171875;9.96999997482817;998;1 A;
42.7900088919656;-0.999755859375;-0.295623779296875;9.97999997480292;999;1 A;
42.8000088919404;-0.99945068359375;-0.300567626953125;9.98999997477767;1000;1 A;
