Time (s);WE(1).Potential (V);WE(1).Current (A);Corrected time (s);Index;Current range;Overload
63.6562828392833;-0.88134765625;-2.342529296875;0;1;1 A;Current overload
63.6662828392581;-0.94970703125;-2.03857421875;0.00999999997475243;2;1 A;Current overload
63.6762828392328;-1.0504150390625;-1.427001953125;0.0199999999495049;3;1 A;
63.6862828392076;-1.04949951171875;-1.19140625;0.0299999999242573;4;1 A;
63.6962828391823;-1.0498046875;-1.048583984375;0.0399999998990097;5;1 A;
63.7062828391571;-1.0491943359375;-0.94818115234375;0.0499999998737621;6;1 A;
63.7162828391318;-1.04949951171875;-0.87249755859375;0.0599999998485146;7;1 A;
63.7262828391066;-1.0498046875;-0.81298828125;0.069999999823267;8;1 A;
63.7362828390814;-1.04949951171875;-0.76507568359375;0.0799999997980194;9;1 A;
63.7462828390561;-1.0498046875;-0.7244873046875;0.0899999997727718;10;1 A;
63.7562828390309;-1.04888916015625;-0.6903076171875;0.0999999997475243;11;1 A;
63.7662828390056;-1.04888916015625;-0.660400390625;0.109999999722277;12;1 A;
63.7762828389804;-1.0498046875;-0.63385009765625;0.119999999697029;13;1 A;
63.7862828389551;-1.04949951171875;-0.61065673828125;0.129999999671782;14;1 A;
63.7962828389299;-1.04949951171875;-0.58990478515625;0.139999999646534;15;1 A;
63.8062828389046;-1.04949951171875;-0.5712890625;0.149999999621286;16;1 A;
63.8162828388794;-1.04949951171875;-0.55419921875;0.159999999596039;17;1 A;
63.8262828388541;-1.05010986328125;-0.5389404296875;0.169999999570791;18;1 A;
63.8362828388289;-1.0498046875;-0.52490234375;0.179999999545544;19;1 A;
63.8462828388036;-1.04949951171875;-0.51239013671875;0.189999999520296;20;1 A;
63.8562828387784;-1.04949951171875;-0.5010986328125;0.199999999495049;21;1 A;
63.8662828387531;-1.0504150390625;-0.49041748046875;0.209999999469801;22;1 A;
63.8762828387279;-1.04949951171875;-0.480438232421875;0.219999999444553;23;1 A;
63.8862828387026;-1.04949951171875;-0.47100830078125;0.229999999419306;24;1 A;
63.8962828386774;-1.05010986328125;-0.462432861328125;0.239999999394058;25;1 A;
63.9062828386521;-1.0498046875;-0.45428466796875;0.249999999368811;26;1 A;
63.9162828386269;-1.04949951171875;-0.446929931640625;0.259999999343563;27;1 A;
63.9262828386017;-1.0498046875;-0.439727783203125;0.269999999318316;28;1 A;
63.9362828385764;-1.0498046875;-0.4329833984375;0.279999999293068;29;1 A;
63.9462828385512;-1.04949951171875;-0.42681884765625;0.28999999926782;30;1 A;
63.9562828385259;-1.0498046875;-0.420654296875;0.299999999242573;31;1 A;
63.9662828385007;-1.04949951171875;-0.4151611328125;0.309999999217325;32;1 A;
63.9762828384754;-1.0491943359375;-0.41046142578125;0.319999999192078;33;1 A;
63.9862828384502;-1.04949951171875;-0.405731201171875;0.32999999916683;34;1 A;
63.9962828384249;-1.04949951171875;-0.400970458984375;0.339999999141583;35;1 A;
64.0062828383997;-1.0498046875;-0.39666748046875;0.349999999116335;36;1 A;
64.0162828383744;-1.0498046875;-0.39215087890625;0.359999999091087;37;1 A;
64.0262828383492;-1.04949951171875;-0.388092041015625;0.36999999906584;38;1 A;
64.0362828383239;-1.04949951171875;-0.384063720703125;0.379999999040592;39;1 A;
64.0462828382987;-1.0498046875;-0.380279541015625;0.389999999015345;40;1 A;
64.0562828382734;-1.04949951171875;-0.376708984375;0.399999998990097;41;1 A;
64.0662828382482;-1.04949951171875;-0.37310791015625;0.40999999896485;42;1 A;
64.0762828382229;-1.0491943359375;-0.37005615234375;0.419999998939602;43;1 A;
64.0862828381977;-1.05010986328125;-0.367156982421875;0.429999998914354;44;1 A;
64.0962828381724;-1.0498046875;-0.364410400390625;0.439999998889107;45;1 A;
64.1062828381472;-1.04888916015625;-0.3621826171875;0.449999998863859;46;1 A;
64.1162828381219;-1.0491943359375;-0.359283447265625;0.459999998838612;47;1 A;
64.1262828380967;-1.0504150390625;-0.356842041015625;0.469999998813364;48;1 A;
64.1362828380715;-1.0498046875;-0.35418701171875;0.479999998788116;49;1 A;
64.1462828380462;-1.05010986328125;-0.3516845703125;0.489999998762869;50;1 A;
64.156282838021;-1.04949951171875;-0.3492431640625;0.499999998737621;51;1 A;
64.1662828379957;-1.0498046875;-0.346832275390625;0.509999998712374;52;1 A;
64.1762828379705;-1.0491943359375;-0.344635009765625;0.519999998687126;53;1 A;
64.1862828379452;-1.0498046875;-0.342559814453125;0.529999998661879;54;1 A;
64.19628283792;-1.04949951171875;-0.340484619140625;0.539999998636631;55;1 A;
64.2062828378947;-1.05010986328125;-0.338775634765625;0.549999998611383;56;1 A;
64.2162828378695;-1.0498046875;-0.3375244140625;0.559999998586136;57;1 A;
64.2262828378442;-1.05010986328125;-0.3363037109375;0.569999998560888;58;1 A;
64.236282837819;-1.0498046875;-0.33428955078125;0.579999998535641;59;1 A;
64.2462828377937;-1.0498046875;-0.33282470703125;0.589999998510393;60;1 A;
64.2562828377685;-1.04949951171875;-0.331146240234375;0.599999998485146;61;1 A;
64.2662828377432;-1.04949951171875;-0.329803466796875;0.609999998459898;62;1 A;
64.276282837718;-1.04949951171875;-0.328399658203125;0.61999999843465;63;1 A;
64.2862828376927;-1.04949951171875;-0.326812744140625;0.629999998409403;64;1 A;
64.2962828376675;-1.04949951171875;-0.325439453125;0.639999998384155;65;1 A;
64.3062828376422;-1.04949951171875;-0.3240966796875;0.649999998358908;66;1 A;
64.316282837617;-1.04949951171875;-0.322509765625;0.65999999833366;67;1 A;
64.3262828375917;-1.04949951171875;-0.3212890625;0.669999998308413;68;1 A;
64.3362828375665;-1.04949951171875;-0.320281982421875;0.679999998283165;69;1 A;
64.3462828375413;-1.0491943359375;-0.319305419921875;0.689999998257917;70;1 A;
64.356282837516;-1.0491943359375;-0.317901611328125;0.69999999823267;71;1 A;
64.3662828374908;-1.04949951171875;-0.316680908203125;0.709999998207422;72;1 A;
64.3762828374655;-1.04949951171875;-0.315216064453125;0.719999998182175;73;1 A;
64.3862828374403;-1.0498046875;-0.31396484375;0.729999998156927;74;1 A;
64.396282837415;-1.04949951171875;-0.312530517578125;0.73999999813168;75;1 A;
64.4062828373898;-1.04949951171875;-0.3111572265625;0.749999998106432;76;1 A;
64.4162828373645;-1.0491943359375;-0.30975341796875;0.759999998081184;77;1 A;
64.4262828373393;-1.05010986328125;-0.308197021484375;0.769999998055937;78;1 A;
64.436282837314;-1.04949951171875;-0.306884765625;0.779999998030689;79;1 A;
64.4462828372888;-1.0498046875;-0.3056640625;0.789999998005442;80;1 A;
64.4562828372635;-1.04949951171875;-0.3048095703125;0.799999997980194;81;1 A;
64.4662828372383;-1.04949951171875;-0.303619384765625;0.809999997954947;82;1 A;
64.476282837213;-1.0498046875;-0.302398681640625;0.819999997929699;83;1 A;
64.4862828371878;-1.04949951171875;-0.301055908203125;0.829999997904451;84;1 A;
64.4962828371625;-1.04949951171875;-0.30010986328125;0.839999997879204;85;1 A;
64.5062828371373;-1.04949951171875;-0.29888916015625;0.849999997853956;86;1 A;
64.516282837112;-1.0498046875;-0.2978515625;0.859999997828709;87;1 A;
64.5262828370868;-1.0498046875;-0.2967529296875;0.869999997803461;88;1 A;
64.5362828370615;-1.05010986328125;-0.29595947265625;0.879999997778214;89;1 A;
64.5462828370363;-1.04949951171875;-0.29498291015625;0.889999997752966;90;1 A;
64.5562828370111;-1.04949951171875;-0.294097900390625;0.899999997727718;91;1 A;
64.5662828369858;-1.0504150390625;-0.29327392578125;0.909999997702471;92;1 A;
64.5762828369606;-1.0491943359375;-0.293243408203125;0.919999997677223;93;1 A;
64.5862828369353;-1.0498046875;-0.29254150390625;0.929999997651976;94;1 A;
64.5962828369101;-1.0491943359375;-0.291778564453125;0.939999997626728;95;1 A;
64.6062828368848;-1.04949951171875;-0.291046142578125;0.949999997601481;96;1 A;
64.6162828368596;-1.0491943359375;-0.290557861328125;0.959999997576233;97;1 A;
64.6262828368343;-1.04949951171875;-0.289764404296875;0.969999997550985;98;1 A;
64.6362828368091;-1.0498046875;-0.289276123046875;0.979999997525738;99;1 A;
64.6462828367838;-1.04949951171875;-0.288604736328125;0.98999999750049;100;1 A;
64.6562828367586;-1.04949951171875;-0.2884521484375;0.999999997475243;101;1 A;
64.6662828367333;-1.04949951171875;-0.28759765625;1.00999999745;102;1 A;
64.6762828367081;-1.04949951171875;-0.28778076171875;1.01999999742475;103;1 A;
64.6862828366828;-1.04949951171875;-0.2872314453125;1.0299999973995;104;1 A;
64.6962828366576;-1.04949951171875;-0.287994384765625;1.03999999737425;105;1 A;
64.7062828366323;-1.0498046875;-0.2879638671875;1.049999997349;106;1 A;
64.7162828366071;-1.04949951171875;-0.287933349609375;1.05999999732376;107;1 A;
64.7262828365818;-1.04949951171875;-0.288055419921875;1.06999999729851;108;1 A;
64.7362828365566;-1.05010986328125;-0.288177490234375;1.07999999727326;109;1 A;
64.7462828365313;-1.04949951171875;-0.2880859375;1.08999999724801;110;1 A;
64.7562828365061;-1.0498046875;-0.288116455078125;1.09999999722277;111;1 A;
64.7662828364809;-1.04949951171875;-0.287841796875;1.10999999719752;112;1 A;
64.7762828364556;-1.0491943359375;-0.287506103515625;1.11999999717227;113;1 A;
64.7862828364304;-1.04888916015625;-0.2874755859375;1.12999999714702;114;1 A;
64.7962828364051;-1.0491943359375;-0.287200927734375;1.13999999712178;115;1 A;
64.8062828363799;-1.04888916015625;-0.2872314453125;1.14999999709653;116;1 A;
64.8162828363546;-1.0498046875;-0.287750244140625;1.15999999707128;117;1 A;
64.8262828363294;-1.04949951171875;-0.28778076171875;1.16999999704603;118;1 A;
64.8362828363041;-1.0498046875;-0.287200927734375;1.17999999702079;119;1 A;
64.8462828362789;-1.04949951171875;-0.286712646484375;1.18999999699554;120;1 A;
64.8562828362536;-1.04949951171875;-0.2860107421875;1.19999999697029;121;1 A;
64.8662828362284;-1.04949951171875;-0.28582763671875;1.20999999694504;122;1 A;
64.8762828362031;-1.04949951171875;-0.285400390625;1.2199999969198;123;1 A;
64.8862828361779;-1.04949951171875;-0.28472900390625;1.22999999689455;124;1 A;
64.8962828361526;-1.0491943359375;-0.28387451171875;1.2399999968693;125;1 A;
64.9062828361274;-1.0498046875;-0.283599853515625;1.24999999684405;126;1 A;
64.9162828361021;-1.0498046875;-0.282867431640625;1.25999999681881;127;1 A;
64.9262828360769;-1.0498046875;-0.28302001953125;1.26999999679356;128;1 A;
64.9362828360516;-1.0491943359375;-0.283172607421875;1.27999999676831;129;1 A;
64.9462828360264;-1.05010986328125;-0.283233642578125;1.28999999674306;130;1 A;
64.9562828360012;-1.04949951171875;-0.28302001953125;1.29999999671782;131;1 A;
64.9662828359759;-1.0498046875;-0.282562255859375;1.30999999669257;132;1 A;
64.9762828359507;-1.04949951171875;-0.282318115234375;1.31999999666732;133;1 A;
64.9862828359254;-1.04949951171875;-0.282135009765625;1.32999999664207;134;1 A;
64.9962828359002;-1.04949951171875;-0.281890869140625;1.33999999661683;135;1 A;
65.0062828358749;-1.0491943359375;-0.281494140625;1.34999999659158;136;1 A;
65.0162828358497;-1.04949951171875;-0.28155517578125;1.35999999656633;137;1 A;
65.0262828358244;-1.0498046875;-0.281097412109375;1.36999999654108;138;1 A;
65.0362828357992;-1.0491943359375;-0.281402587890625;1.37999999651583;139;1 A;
65.0462828357739;-1.0498046875;-0.28173828125;1.38999999649059;140;1 A;
65.0562828357487;-1.04949951171875;-0.282562255859375;1.39999999646534;141;1 A;
65.0662828357234;-1.0498046875;-0.28271484375;1.40999999644009;142;1 A;
65.0762828356982;-1.04949951171875;-0.282745361328125;1.41999999641484;143;1 A;
65.0862828356729;-1.04949951171875;-0.282501220703125;1.4299999963896;144;1 A;
65.0962828356477;-1.04888916015625;-0.283233642578125;1.43999999636435;145;1 A;
65.1062828356224;-1.0491943359375;-0.282958984375;1.4499999963391;146;1 A;
65.1162828355972;-1.0491943359375;-0.283294677734375;1.45999999631385;147;1 A;
65.1262828355719;-1.0491943359375;-0.282989501953125;1.46999999628861;148;1 A;
65.1362828355467;-1.04949951171875;-0.283294677734375;1.47999999626336;149;1 A;
65.1462828355214;-1.0498046875;-0.2828369140625;1.48999999623811;150;1 A;
65.1562828354962;-1.04949951171875;-0.2830810546875;1.49999999621286;151;1 A;
65.166282835471;-1.04949951171875;-0.283050537109375;1.50999999618762;152;1 A;
65.1762828354457;-1.0491943359375;-0.284149169921875;1.51999999616237;153;1 A;
65.1862828354205;-1.04949951171875;-0.2841796875;1.52999999613712;154;1 A;
65.1962828353952;-1.0498046875;-0.283935546875;1.53999999611187;155;1 A;
65.20628283537;-1.04949951171875;-0.28314208984375;1.54999999608663;156;1 A;
65.2162828353447;-1.04949951171875;-0.283050537109375;1.55999999606138;157;1 A;
65.2262828353195;-1.04949951171875;-0.282257080078125;1.56999999603613;158;1 A;
65.2362828352942;-1.0498046875;-0.282135009765625;1.57999999601088;159;1 A;
65.246282835269;-1.0491943359375;-0.281280517578125;1.58999999598564;160;1 A;
65.2562828352437;-1.04949951171875;-0.281341552734375;1.59999999596039;161;1 A;
65.2662828352185;-1.04949951171875;-0.2801513671875;1.60999999593514;162;1 A;
65.2762828351932;-1.0491943359375;-0.28045654296875;1.61999999590989;163;1 A;
65.286282835168;-1.0491943359375;-0.279754638671875;1.62999999588465;164;1 A;
65.2962828351427;-1.0491943359375;-0.28076171875;1.6399999958594;165;1 A;
65.3062828351175;-1.0498046875;-0.28057861328125;1.64999999583415;166;1 A;
65.3162828350922;-1.0498046875;-0.280426025390625;1.6599999958089;167;1 A;
65.326282835067;-1.04949951171875;-0.280181884765625;1.66999999578366;168;1 A;
65.3362828350417;-1.04949951171875;-0.280059814453125;1.67999999575841;169;1 A;
65.3462828350165;-1.04949951171875;-0.279815673828125;1.68999999573316;170;1 A;
65.3562828349912;-1.04949951171875;-0.279815673828125;1.69999999570791;171;1 A;
65.366282834966;-1.0498046875;-0.279693603515625;1.70999999568267;172;1 A;
65.3762828349408;-1.05010986328125;-0.279052734375;1.71999999565742;173;1 A;
65.3862828349155;-1.04949951171875;-0.2789306640625;1.72999999563217;174;1 A;
65.3962828348903;-1.04949951171875;-0.2786865234375;1.73999999560692;175;1 A;
65.406282834865;-1.0498046875;-0.278839111328125;1.74999999558167;176;1 A;
65.4162828348398;-1.0498046875;-0.279754638671875;1.75999999555643;177;1 A;
65.4262828348145;-1.04949951171875;-0.279937744140625;1.76999999553118;178;1 A;
65.4362828347893;-1.0498046875;-0.279449462890625;1.77999999550593;179;1 A;
65.446282834764;-1.0491943359375;-0.278961181640625;1.78999999548068;180;1 A;
65.4562828347388;-1.05010986328125;-0.278961181640625;1.79999999545544;181;1 A;
65.4662828347135;-1.05010986328125;-0.279144287109375;1.80999999543019;182;1 A;
65.4762828346883;-1.04949951171875;-0.27935791015625;1.81999999540494;183;1 A;
65.486282834663;-1.0498046875;-0.2796630859375;1.82999999537969;184;1 A;
65.4962828346378;-1.04949951171875;-0.278961181640625;1.83999999535445;185;1 A;
65.5062828346125;-1.05010986328125;-0.279205322265625;1.8499999953292;186;1 A;
65.5162828345873;-1.0491943359375;-0.27880859375;1.85999999530395;187;1 A;
65.526282834562;-1.0491943359375;-0.2794189453125;1.8699999952787;188;1 A;
65.5362828345368;-1.0498046875;-0.28033447265625;1.87999999525346;189;1 A;
65.5462828345115;-1.04888916015625;-0.28045654296875;1.88999999522821;190;1 A;
65.5562828344863;-1.04949951171875;-0.2802734375;1.89999999520296;191;1 A;
65.566282834461;-1.05010986328125;-0.27935791015625;1.90999999517771;192;1 A;
65.5762828344358;-1.0491943359375;-0.279449462890625;1.91999999515247;193;1 A;
65.5862828344106;-1.04949951171875;-0.278900146484375;1.92999999512722;194;1 A;
65.5962828343853;-1.04949951171875;-0.279083251953125;1.93999999510197;195;1 A;
65.6062828343601;-1.0491943359375;-0.2781982421875;1.94999999507672;196;1 A;
65.6162828343348;-1.0498046875;-0.278076171875;1.95999999505148;197;1 A;
65.6262828343096;-1.04949951171875;-0.27703857421875;1.96999999502623;198;1 A;
65.6362828342843;-1.04949951171875;-0.27716064453125;1.97999999500098;199;1 A;
65.6462828342591;-1.04949951171875;-0.277252197265625;1.98999999497573;200;1 A;
65.6562828342338;-1.04949951171875;-0.278045654296875;1.99999999495049;201;1 A;
65.6662828342086;-1.04949951171875;-0.2779541015625;2.00999999492524;202;1 A;
65.6762828341833;-1.0491943359375;-0.277618408203125;2.01999999489999;203;1 A;
65.6862828341581;-1.0491943359375;-0.276947021484375;2.02999999487474;204;1 A;
65.6962828341328;-1.0498046875;-0.277923583984375;2.0399999948495;205;1 A;
65.7062828341076;-1.0491943359375;-0.2774658203125;2.04999999482425;206;1 A;
65.7162828340823;-1.0498046875;-0.27801513671875;2.059999994799;207;1 A;
65.7262828340571;-1.05010986328125;-0.27740478515625;2.06999999477375;208;1 A;
65.7362828340318;-1.05010986328125;-0.27801513671875;2.0799999947485;209;1 A;
65.7462828340066;-1.04949951171875;-0.27703857421875;2.08999999472326;210;1 A;
65.7562828339813;-1.04949951171875;-0.277557373046875;2.09999999469801;211;1 A;
65.7662828339561;-1.04949951171875;-0.2774658203125;2.10999999467276;212;1 A;
65.7762828339308;-1.04949951171875;-0.27911376953125;2.11999999464751;213;1 A;
65.7862828339056;-1.04949951171875;-0.27886962890625;2.12999999462227;214;1 A;
65.7962828338804;-1.04949951171875;-0.2789306640625;2.13999999459702;215;1 A;
65.8062828338551;-1.04949951171875;-0.278045654296875;2.14999999457177;216;1 A;
65.8162828338299;-1.0498046875;-0.278594970703125;2.15999999454652;217;1 A;
65.8262828338046;-1.04949951171875;-0.2786865234375;2.16999999452128;218;1 A;
65.8362828337794;-1.04949951171875;-0.2796630859375;2.17999999449603;219;1 A;
65.8462828337541;-1.04949951171875;-0.2791748046875;2.18999999447078;220;1 A;
65.8562828337289;-1.04949951171875;-0.280059814453125;2.19999999444553;221;1 A;
65.8662828337036;-1.0498046875;-0.2796630859375;2.20999999442029;222;1 A;
65.8762828336784;-1.05010986328125;-0.2803955078125;2.21999999439504;223;1 A;
65.8862828336531;-1.04949951171875;-0.280242919921875;2.22999999436979;224;1 A;
65.8962828336279;-1.04949951171875;-0.2821044921875;2.23999999434454;225;1 A;
65.9062828336026;-1.05010986328125;-0.282135009765625;2.2499999943193;226;1 A;
65.9162828335774;-1.0491943359375;-0.282379150390625;2.25999999429405;227;1 A;
65.9262828335521;-1.04949951171875;-0.28179931640625;2.2699999942688;228;1 A;
65.9362828335269;-1.0498046875;-0.282073974609375;2.27999999424355;229;1 A;
65.9462828335016;-1.04949951171875;-0.282196044921875;2.28999999421831;230;1 A;
65.9562828334764;-1.04949951171875;-0.28265380859375;2.29999999419306;231;1 A;
65.9662828334511;-1.0491943359375;-0.282958984375;2.30999999416781;232;1 A;
65.9762828334259;-1.04949951171875;-0.282562255859375;2.31999999414256;233;1 A;
65.9862828334007;-1.0498046875;-0.282318115234375;2.32999999411732;234;1 A;
65.9962828333754;-1.04949951171875;-0.28265380859375;2.33999999409207;235;1 A;
66.0062828333502;-1.04949951171875;-0.283111572265625;2.34999999406682;236;1 A;
66.0162828333249;-1.0498046875;-0.284637451171875;2.35999999404157;237;1 A;
66.0262828332997;-1.0491943359375;-0.28485107421875;2.36999999401633;238;1 A;
66.0362828332744;-1.0498046875;-0.2845458984375;2.37999999399108;239;1 A;
66.0462828332492;-1.0498046875;-0.28350830078125;2.38999999396583;240;1 A;
66.0562828332239;-1.04949951171875;-0.284271240234375;2.39999999394058;241;1 A;
66.0662828331987;-1.04949951171875;-0.284423828125;2.40999999391533;242;1 A;
66.0762828331734;-1.0498046875;-0.2855224609375;2.41999999389009;243;1 A;
66.0862828331482;-1.0498046875;-0.28558349609375;2.42999999386484;244;1 A;
66.0962828331229;-1.04949951171875;-0.28521728515625;2.43999999383959;245;1 A;
66.1062828330977;-1.04888916015625;-0.28546142578125;2.44999999381434;246;1 A;
66.1162828330724;-1.0498046875;-0.285308837890625;2.4599999937891;247;1 A;
66.1262828330472;-1.04949951171875;-0.28607177734375;2.46999999376385;248;1 A;
66.1362828330219;-1.04949951171875;-0.287933349609375;2.4799999937386;249;1 A;
66.1462828329967;-1.04949951171875;-0.28814697265625;2.48999999371335;250;1 A;
66.1562828329714;-1.0491943359375;-0.287841796875;2.49999999368811;251;1 A;
66.1662828329462;-1.05010986328125;-0.2869873046875;2.50999999366286;252;1 A;
66.1762828329209;-1.04949951171875;-0.28778076171875;2.51999999363761;253;1 A;
66.1862828328957;-1.0498046875;-0.287567138671875;2.52999999361236;254;1 A;
66.1962828328705;-1.04949951171875;-0.2882080078125;2.53999999358712;255;1 A;
66.2062828328452;-1.0498046875;-0.287811279296875;2.54999999356187;256;1 A;
66.21628283282;-1.04949951171875;-0.2879638671875;2.55999999353662;257;1 A;
66.2262828327947;-1.04949951171875;-0.28717041015625;2.56999999351137;258;1 A;
66.2362828327695;-1.05010986328125;-0.287841796875;2.57999999348613;259;1 A;
66.2462828327442;-1.04949951171875;-0.288360595703125;2.58999999346088;260;1 A;
66.256282832719;-1.0491943359375;-0.289794921875;2.59999999343563;261;1 A;
66.2662828326937;-1.0491943359375;-0.290283203125;2.60999999341038;262;1 A;
66.2762828326685;-1.04888916015625;-0.28955078125;2.61999999338514;263;1 A;
66.2862828326432;-1.0498046875;-0.28924560546875;2.62999999335989;264;1 A;
66.296282832618;-1.04949951171875;-0.29058837890625;2.63999999333464;265;1 A;
66.3062828325927;-1.0491943359375;-0.290618896484375;2.64999999330939;266;1 A;
66.3162828325675;-1.04949951171875;-0.29180908203125;2.65999999328415;267;1 A;
66.3262828325422;-1.0498046875;-0.29180908203125;2.6699999932589;268;1 A;
66.336282832517;-1.04949951171875;-0.29254150390625;2.67999999323365;269;1 A;
66.3462828324917;-1.0498046875;-0.29217529296875;2.6899999932084;270;1 A;
66.3562828324665;-1.0491943359375;-0.2930908203125;2.69999999318316;271;1 A;
66.3662828324412;-1.04949951171875;-0.293914794921875;2.70999999315791;272;1 A;
66.376282832416;-1.0491943359375;-0.296600341796875;2.71999999313266;273;1 A;
66.3862828323907;-1.04888916015625;-0.29705810546875;2.72999999310741;274;1 A;
66.3962828323655;-1.0491943359375;-0.297088623046875;2.73999999308217;275;1 A;
66.4062828323403;-1.0491943359375;-0.296356201171875;2.74999999305692;276;1 A;
66.416282832315;-1.04949951171875;-0.296966552734375;2.75999999303167;277;1 A;
66.4262828322898;-1.0498046875;-0.297210693359375;2.76999999300642;278;1 A;
66.4362828322645;-1.04949951171875;-0.29833984375;2.77999999298117;279;1 A;
66.4462828322393;-1.05010986328125;-0.29742431640625;2.78999999295593;280;1 A;
66.456282832214;-1.0498046875;-0.297576904296875;2.79999999293068;281;1 A;
66.4662828321888;-1.04888916015625;-0.296417236328125;2.80999999290543;282;1 A;
66.4762828321635;-1.04949951171875;-0.29644775390625;2.81999999288018;283;1 A;
66.4862828321383;-1.0498046875;-0.2958984375;2.82999999285494;284;1 A;
66.496282832113;-1.04949951171875;-0.297332763671875;2.83999999282969;285;1 A;
66.5062828320878;-1.0498046875;-0.2969970703125;2.84999999280444;286;1 A;
66.5162828320625;-1.04888916015625;-0.297119140625;2.85999999277919;287;1 A;
66.5262828320373;-1.04888916015625;-0.294891357421875;2.86999999275395;288;1 A;
66.536282832012;-1.0498046875;-0.29510498046875;2.8799999927287;289;1 A;
66.5462828319868;-1.04949951171875;-0.294525146484375;2.88999999270345;290;1 A;
66.5562828319615;-1.0498046875;-0.294769287109375;2.8999999926782;291;1 A;
66.5662828319363;-1.0491943359375;-0.294708251953125;2.90999999265296;292;1 A;
66.576282831911;-1.0498046875;-0.29449462890625;2.91999999262771;293;1 A;
66.5862828318858;-1.04949951171875;-0.292999267578125;2.92999999260246;294;1 A;
66.5962828318605;-1.0498046875;-0.29376220703125;2.93999999257721;295;1 A;
66.6062828318353;-1.04949951171875;-0.293731689453125;2.94999999255197;296;1 A;
66.6162828318101;-1.0498046875;-0.29608154296875;2.95999999252672;297;1 A;
66.6262828317848;-1.0498046875;-0.296112060546875;2.96999999250147;298;1 A;
66.6362828317596;-1.04949951171875;-0.29620361328125;2.97999999247622;299;1 A;
66.6462828317343;-1.04949951171875;-0.29425048828125;2.98999999245098;300;1 A;
66.6562828317091;-1.05010986328125;-0.29583740234375;2.99999999242573;301;1 A;
66.6662828316838;-1.0498046875;-0.2955322265625;3.00999999240048;302;1 A;
66.6762828316586;-1.04949951171875;-0.296875;3.01999999237523;303;1 A;
66.6862828316333;-1.04949951171875;-0.296875;3.02999999234999;304;1 A;
66.6962828316081;-1.04949951171875;-0.29669189453125;3.03999999232474;305;1 A;
66.7062828315828;-1.0491943359375;-0.296600341796875;3.04999999229949;306;1 A;
66.7162828315576;-1.0491943359375;-0.2969970703125;3.05999999227424;307;1 A;
66.7262828315323;-1.04888916015625;-0.297515869140625;3.069999992249;308;1 A;
66.7362828315071;-1.0498046875;-0.300811767578125;3.07999999222375;309;1 A;
66.7462828314818;-1.0498046875;-0.30047607421875;3.0899999921985;310;1 A;
66.7562828314566;-1.04949951171875;-0.300384521484375;3.09999999217325;311;1 A;
66.7662828314313;-1.04949951171875;-0.298980712890625;3.109999992148;312;1 A;
66.7762828314061;-1.04949951171875;-0.30035400390625;3.11999999212276;313;1 A;
66.7862828313808;-1.04949951171875;-0.300262451171875;3.12999999209751;314;1 A;
66.7962828313556;-1.0491943359375;-0.3011474609375;3.13999999207226;315;1 A;
66.8062828313303;-1.0491943359375;-0.30059814453125;3.14999999204701;316;1 A;
66.8162828313051;-1.0498046875;-0.30120849609375;3.15999999202177;317;1 A;
66.8262828312799;-1.0498046875;-0.299774169921875;3.16999999199652;318;1 A;
66.8362828312546;-1.04949951171875;-0.301605224609375;3.17999999197127;319;1 A;
66.8462828312294;-1.04949951171875;-0.301605224609375;3.18999999194602;320;1 A;
66.8562828312041;-1.0491943359375;-0.304534912109375;3.19999999192078;321;1 A;
66.8662828311789;-1.04949951171875;-0.304351806640625;3.20999999189553;322;1 A;
66.8762828311536;-1.0491943359375;-0.303619384765625;3.21999999187028;323;1 A;
66.8862828311284;-1.04949951171875;-0.30242919921875;3.22999999184503;324;1 A;
66.8962828311031;-1.05010986328125;-0.30438232421875;3.23999999181979;325;1 A;
66.9062828310779;-1.05010986328125;-0.3040771484375;3.24999999179454;326;1 A;
66.9162828310526;-1.0498046875;-0.305816650390625;3.25999999176929;327;1 A;
66.9262828310274;-1.0491943359375;-0.30511474609375;3.26999999174404;328;1 A;
66.9362828310021;-1.0498046875;-0.305755615234375;3.2799999917188;329;1 A;
66.9462828309769;-1.04949951171875;-0.30517578125;3.28999999169355;330;1 A;
66.9562828309516;-1.0498046875;-0.305450439453125;3.2999999916683;331;1 A;
66.9662828309264;-1.04949951171875;-0.3062744140625;3.30999999164305;332;1 A;
66.9762828309011;-1.0498046875;-0.30926513671875;3.31999999161781;333;1 A;
66.9862828308759;-1.04949951171875;-0.308868408203125;3.32999999159256;334;1 A;
66.9962828308506;-1.04949951171875;-0.30859375;3.33999999156731;335;1 A;
67.0062828308254;-1.0498046875;-0.306793212890625;3.34999999154206;336;1 A;
67.0162828308002;-1.04949951171875;-0.3070068359375;3.35999999151682;337;1 A;
67.0262828307749;-1.04949951171875;-0.307708740234375;3.36999999149157;338;1 A;
67.0362828307497;-1.04949951171875;-0.309417724609375;3.37999999146632;339;1 A;
67.0462828307244;-1.0498046875;-0.3079833984375;3.38999999144107;340;1 A;
67.0562828306992;-1.0498046875;-0.307647705078125;3.39999999141583;341;1 A;
67.0662828306739;-1.0498046875;-0.307464599609375;3.40999999139058;342;1 A;
67.0762828306487;-1.04949951171875;-0.306732177734375;3.41999999136533;343;1 A;
67.0862828306234;-1.048583984375;-0.307525634765625;3.42999999134008;344;1 A;
67.0962828305982;-1.04949951171875;-0.3095703125;3.43999999131483;345;1 A;
67.1062828305729;-1.04949951171875;-0.30950927734375;3.44999999128959;346;1 A;
67.1162828305477;-1.0498046875;-0.31011962890625;3.45999999126434;347;1 A;
67.1262828305224;-1.0498046875;-0.307159423828125;3.46999999123909;348;1 A;
67.1362828304972;-1.04949951171875;-0.307830810546875;3.47999999121384;349;1 A;
67.1462828304719;-1.0498046875;-0.3076171875;3.4899999911886;350;1 A;
67.1562828304467;-1.04949951171875;-0.30865478515625;3.49999999116335;351;1 A;
67.1662828304214;-1.04949951171875;-0.308319091796875;3.5099999911381;352;1 A;
67.1762828303962;-1.0498046875;-0.308563232421875;3.51999999111285;353;1 A;
67.1862828303709;-1.0491943359375;-0.306182861328125;3.52999999108761;354;1 A;
67.1962828303457;-1.04888916015625;-0.3076171875;3.53999999106236;355;1 A;
67.2062828303204;-1.0491943359375;-0.3076171875;3.54999999103711;356;1 A;
67.2162828302952;-1.0491943359375;-0.310791015625;3.55999999101186;357;1 A;
67.22628283027;-1.0498046875;-0.310638427734375;3.56999999098662;358;1 A;
67.2362828302447;-1.04949951171875;-0.310211181640625;3.57999999096137;359;1 A;
67.2462828302195;-1.0498046875;-0.30767822265625;3.58999999093612;360;1 A;
67.2562828301942;-1.0498046875;-0.30999755859375;3.59999999091087;361;1 A;
67.266282830169;-1.0491943359375;-0.308746337890625;3.60999999088563;362;1 A;
67.2762828301437;-1.04949951171875;-0.310516357421875;3.61999999086038;363;1 A;
67.2862828301185;-1.04949951171875;-0.309722900390625;3.62999999083513;364;1 A;
67.2962828300932;-1.04949951171875;-0.309600830078125;3.63999999080988;365;1 A;
67.306282830068;-1.0498046875;-0.30810546875;3.64999999078464;366;1 A;
67.3162828300427;-1.04949951171875;-0.308380126953125;3.65999999075939;367;1 A;
67.3262828300175;-1.0491943359375;-0.30767822265625;3.66999999073414;368;1 A;
67.3362828299922;-1.04949951171875;-0.311920166015625;3.67999999070889;369;1 A;
67.346282829967;-1.0498046875;-0.31048583984375;3.68999999068365;370;1 A;
67.3562828299417;-1.04949951171875;-0.309417724609375;3.6999999906584;371;1 A;
67.3662828299165;-1.0498046875;-0.306549072265625;3.70999999063315;372;1 A;
67.3762828298912;-1.0491943359375;-0.307861328125;3.7199999906079;373;1 A;
67.386282829866;-1.0498046875;-0.306549072265625;3.72999999058266;374;1 A;
67.3962828298407;-1.0498046875;-0.307647705078125;3.73999999055741;375;1 A;
67.4062828298155;-1.04888916015625;-0.30645751953125;3.74999999053216;376;1 A;
67.4162828297902;-1.04949951171875;-0.306488037109375;3.75999999050691;377;1 A;
67.426282829765;-1.04949951171875;-0.304168701171875;3.76999999048167;378;1 A;
67.4362828297398;-1.0498046875;-0.30621337890625;3.77999999045642;379;1 A;
67.4462828297145;-1.0491943359375;-0.3046875;3.78999999043117;380;1 A;
67.4562828296893;-1.04949951171875;-0.308685302734375;3.79999999040592;381;1 A;
67.466282829664;-1.0498046875;-0.307830810546875;3.80999999038067;382;1 A;
67.4762828296388;-1.04949951171875;-0.305938720703125;3.81999999035543;383;1 A;
67.4862828296135;-1.04949951171875;-0.3046875;3.82999999033018;384;1 A;
67.4962828295883;-1.04949951171875;-0.305419921875;3.83999999030493;385;1 A;
67.506282829563;-1.04888916015625;-0.3048095703125;3.84999999027968;386;1 A;
67.5162828295378;-1.0491943359375;-0.306060791015625;3.85999999025444;387;1 A;
67.5262828295125;-1.04949951171875;-0.305389404296875;3.86999999022919;388;1 A;
67.5362828294873;-1.0491943359375;-0.304107666015625;3.87999999020394;389;1 A;
67.546282829462;-1.0491943359375;-0.304107666015625;3.88999999017869;390;1 A;
67.5562828294368;-1.0491943359375;-0.303497314453125;3.89999999015345;391;1 A;
67.5662828294115;-1.0498046875;-0.303955078125;3.9099999901282;392;1 A;
67.5762828293863;-1.04949951171875;-0.306793212890625;3.91999999010295;393;1 A;
67.586282829361;-1.0491943359375;-0.306640625;3.9299999900777;394;1 A;
67.5962828293358;-1.0498046875;-0.304901123046875;3.93999999005246;395;1 A;
67.6062828293105;-1.0491943359375;-0.302459716796875;3.94999999002721;396;1 A;
67.6162828292853;-1.04949951171875;-0.30218505859375;3.95999999000196;397;1 A;
67.62628282926;-1.04949951171875;-0.302581787109375;3.96999998997671;398;1 A;
67.6362828292348;-1.0491943359375;-0.304168701171875;3.97999998995147;399;1 A;
67.6462828292096;-1.0498046875;-0.30316162109375;3.98999998992622;400;1 A;
67.6562828291843;-1.04949951171875;-0.301116943359375;3.99999998990097;401;1 A;
67.6662828291591;-1.04949951171875;-0.3011474609375;4.00999998987572;402;1 A;
67.6762828291338;-1.04949951171875;-0.299713134765625;4.01999998985048;403;1 A;
67.6862828291086;-1.0491943359375;-0.30108642578125;4.02999998982523;404;1 A;
67.6962828290833;-1.04949951171875;-0.303436279296875;4.03999998979998;405;1 A;
67.7062828290581;-1.04949951171875;-0.30328369140625;4.04999998977473;406;1 A;
67.7162828290328;-1.0498046875;-0.302886962890625;4.05999998974949;407;1 A;
67.7262828290076;-1.05010986328125;-0.29949951171875;4.06999998972424;408;1 A;
67.7362828289823;-1.04949951171875;-0.300018310546875;4.07999998969899;409;1 A;
67.7462828289571;-1.04949951171875;-0.29949951171875;4.08999998967374;410;1 A;
67.7562828289318;-1.0498046875;-0.300689697265625;4.0999999896485;411;1 A;
67.7662828289066;-1.04949951171875;-0.2999267578125;4.10999998962325;412;1 A;
67.7762828288813;-1.04949951171875;-0.300506591796875;4.119999989598;413;1 A;
67.7862828288561;-1.04949951171875;-0.297271728515625;4.12999998957275;414;1 A;
67.7962828288308;-1.0491943359375;-0.29931640625;4.1399999895475;415;1 A;
67.8062828288056;-1.04949951171875;-0.299102783203125;4.14999998952226;416;1 A;
67.8162828287803;-1.04949951171875;-0.30328369140625;4.15999998949701;417;1 A;
67.8262828287551;-1.04949951171875;-0.302520751953125;4.16999998947176;418;1 A;
67.8362828287298;-1.04949951171875;-0.3018798828125;4.17999998944651;419;1 A;
67.8462828287046;-1.0491943359375;-0.298126220703125;4.18999998942127;420;1 A;
67.8562828286794;-1.048583984375;-0.30157470703125;4.19999998939602;421;1 A;
67.8662828286541;-1.04949951171875;-0.29925537109375;4.20999998937077;422;1 A;
67.8762828286289;-1.04949951171875;-0.301239013671875;4.21999998934552;423;1 A;
67.8862828286036;-1.0498046875;-0.299957275390625;4.22999998932028;424;1 A;
67.8962828285784;-1.04949951171875;-0.300689697265625;4.23999998929503;425;1 A;
67.9062828285531;-1.0491943359375;-0.29833984375;4.24999998926978;426;1 A;
67.9162828285279;-1.04949951171875;-0.299896240234375;4.25999998924453;427;1 A;
67.9262828285026;-1.04949951171875;-0.298980712890625;4.26999998921929;428;1 A;
67.9362828284774;-1.04949951171875;-0.304931640625;4.27999998919404;429;1 A;
67.9462828284521;-1.05010986328125;-0.302947998046875;4.28999998916879;430;1 A;
67.9562828284269;-1.04949951171875;-0.302215576171875;4.29999998914354;431;1 A;
67.9662828284016;-1.0498046875;-0.29852294921875;4.3099999891183;432;1 A;
67.9762828283764;-1.04949951171875;-0.30078125;4.31999998909305;433;1 A;
67.9862828283511;-1.04949951171875;-0.299713134765625;4.3299999890678;434;1 A;
67.9962828283259;-1.048583984375;-0.30181884765625;4.33999998904255;435;1 A;
68.0062828283006;-1.0498046875;-0.29949951171875;4.34999998901731;436;1 A;
68.0162828282754;-1.0498046875;-0.300994873046875;4.35999998899206;437;1 A;
68.0262828282501;-1.0498046875;-0.29730224609375;4.36999998896681;438;1 A;
68.0362828282249;-1.04949951171875;-0.300384521484375;4.37999998894156;439;1 A;
68.0462828281997;-1.05010986328125;-0.29876708984375;4.38999998891632;440;1 A;
68.0562828281744;-1.0491943359375;-0.304443359375;4.39999998889107;441;1 A;
68.0662828281492;-1.04949951171875;-0.302734375;4.40999998886582;442;1 A;
68.0762828281239;-1.04949951171875;-0.30145263671875;4.41999998884057;443;1 A;
68.0862828280987;-1.0498046875;-0.298492431640625;4.42999998881533;444;1 A;
68.0962828280734;-1.04949951171875;-0.299591064453125;4.43999998879008;445;1 A;
68.1062828280482;-1.04949951171875;-0.298370361328125;4.44999998876483;446;1 A;
68.1162828280229;-1.04949951171875;-0.30035400390625;4.45999998873958;447;1 A;
68.1262828279977;-1.0498046875;-0.299591064453125;4.46999998871433;448;1 A;
68.1362828279724;-1.0491943359375;-0.298126220703125;4.47999998868909;449;1 A;
68.1462828279472;-1.04949951171875;-0.29742431640625;4.48999998866384;450;1 A;
68.1562828279219;-1.0498046875;-0.297119140625;4.49999998863859;451;1 A;
68.1662828278967;-1.04949951171875;-0.29718017578125;4.50999998861334;452;1 A;
68.1762828278714;-1.0491943359375;-0.301422119140625;4.5199999885881;453;1 A;
68.1862828278462;-1.0491943359375;-0.30096435546875;4.52999998856285;454;1 A;
68.1962828278209;-1.04949951171875;-0.299346923828125;4.5399999885376;455;1 A;
68.2062828277957;-1.0491943359375;-0.295562744140625;4.54999998851235;456;1 A;
68.2162828277704;-1.04949951171875;-0.295623779296875;4.55999998848711;457;1 A;
68.2262828277452;-1.0491943359375;-0.295623779296875;4.56999998846186;458;1 A;
68.2362828277199;-1.0498046875;-0.2982177734375;4.57999998843661;459;1 A;
68.2462828276947;-1.0498046875;-0.2965087890625;4.58999998841136;460;1 A;
68.2562828276695;-1.04949951171875;-0.293975830078125;4.59999998838612;461;1 A;
68.2662828276442;-1.0498046875;-0.293975830078125;4.60999998836087;462;1 A;
68.276282827619;-1.04949951171875;-0.29193115234375;4.61999998833562;463;1 A;
68.2862828275937;-1.0498046875;-0.293670654296875;4.62999998831037;464;1 A;
68.2962828275685;-1.04949951171875;-0.296966552734375;4.63999998828513;465;1 A;
68.3062828275432;-1.04949951171875;-0.296356201171875;4.64999998825988;466;1 A;
68.316282827518;-1.0498046875;-0.295440673828125;4.65999998823463;467;1 A;
68.3262828274927;-1.0498046875;-0.291259765625;4.66999998820938;468;1 A;
68.3362828274675;-1.0498046875;-0.291748046875;4.67999998818414;469;1 A;
68.3462828274422;-1.04949951171875;-0.29119873046875;4.68999998815889;470;1 A;
68.356282827417;-1.04949951171875;-0.292572021484375;4.69999998813364;471;1 A;
68.3662828273917;-1.04949951171875;-0.291168212890625;4.70999998810839;472;1 A;
68.3762828273665;-1.05010986328125;-0.2913818359375;4.71999998808315;473;1 A;
68.3862828273412;-1.0498046875;-0.288360595703125;4.7299999880579;474;1 A;
68.396282827316;-1.04949951171875;-0.2896728515625;4.73999998803265;475;1 A;
68.4062828272907;-1.0498046875;-0.290008544921875;4.7499999880074;476;1 A;
68.4162828272655;-1.0498046875;-0.2935791015625;4.75999998798216;477;1 A;
68.4262828272402;-1.0498046875;-0.293212890625;4.76999998795691;478;1 A;
68.436282827215;-1.04949951171875;-0.291229248046875;4.77999998793166;479;1 A;
68.4462828271897;-1.04949951171875;-0.28759765625;4.78999998790641;480;1 A;
68.4562828271645;-1.04949951171875;-0.290863037109375;4.79999998788116;481;1 A;
68.4662828271393;-1.0491943359375;-0.2879638671875;4.80999998785592;482;1 A;
68.476282827114;-1.0498046875;-0.290618896484375;4.81999998783067;483;1 A;
68.4862828270888;-1.04949951171875;-0.288909912109375;4.82999998780542;484;1 A;
68.4962828270635;-1.04949951171875;-0.289764404296875;4.83999998778017;485;1 A;
68.5062828270383;-1.04949951171875;-0.287567138671875;4.84999998775493;486;1 A;
68.516282827013;-1.0491943359375;-0.288726806640625;4.85999998772968;487;1 A;
68.5262828269878;-1.0498046875;-0.288299560546875;4.86999998770443;488;1 A;
68.5362828269625;-1.05010986328125;-0.294189453125;4.87999998767918;489;1 A;
68.5462828269373;-1.04949951171875;-0.293426513671875;4.88999998765394;490;1 A;
68.556282826912;-1.04949951171875;-0.29205322265625;4.89999998762869;491;1 A;
68.5662828268868;-1.0498046875;-0.28826904296875;4.90999998760344;492;1 A;
68.5762828268615;-1.0491943359375;-0.2904052734375;4.91999998757819;493;1 A;
68.5862828268363;-1.0498046875;-0.288970947265625;4.92999998755295;494;1 A;
68.596282826811;-1.0498046875;-0.291656494140625;4.9399999875277;495;1 A;
68.6062828267858;-1.0498046875;-0.289276123046875;4.94999998750245;496;1 A;
68.6162828267605;-1.04949951171875;-0.290618896484375;4.9599999874772;497;1 A;
68.6262828267353;-1.04949951171875;-0.2867431640625;4.96999998745196;498;1 A;
68.63628282671;-1.04949951171875;-0.28961181640625;4.97999998742671;499;1 A;
68.6462828266848;-1.04949951171875;-0.287689208984375;4.98999998740146;500;1 A;
68.6562828266595;-1.0491943359375;-0.2935791015625;4.99999998737621;501;1 A;
68.6662828266343;-1.04949951171875;-0.291961669921875;5.00999998735097;502;1 A;
68.6762828266091;-1.04949951171875;-0.290679931640625;5.01999998732572;503;1 A;
68.6862828265838;-1.04949951171875;-0.287445068359375;5.02999998730047;504;1 A;
68.6962828265586;-1.0498046875;-0.287994384765625;5.03999998727522;505;1 A;
68.7062828265333;-1.04888916015625;-0.286651611328125;5.04999998724998;506;1 A;
68.7162828265081;-1.0491943359375;-0.2886962890625;5.05999998722473;507;1 A;
68.7262828264828;-1.0498046875;-0.28857421875;5.06999998719948;508;1 A;
68.7362828264576;-1.0491943359375;-0.286895751953125;5.07999998717423;509;1 A;
68.7462828264323;-1.04949951171875;-0.28582763671875;5.08999998714899;510;1 A;
68.7562828264071;-1.04949951171875;-0.286102294921875;5.09999998712374;511;1 A;
68.7662828263818;-1.0491943359375;-0.286407470703125;5.10999998709849;512;1 A;
68.7762828263566;-1.0498046875;-0.291656494140625;5.11999998707324;513;1 A;
68.7862828263313;-1.0498046875;-0.292266845703125;5.129999987048;514;1 A;
68.7962828263061;-1.04949951171875;-0.29083251953125;5.13999998702275;515;1 A;
68.8062828262808;-1.04949951171875;-0.287078857421875;5.1499999869975;516;1 A;
68.8162828262556;-1.04888916015625;-0.288116455078125;5.15999998697225;517;1 A;
68.8262828262303;-1.0498046875;-0.288543701171875;5.169999986947;518;1 A;
68.8362828262051;-1.04949951171875;-0.291168212890625;5.17999998692176;519;1 A;
68.8462828261798;-1.04949951171875;-0.290740966796875;5.18999998689651;520;1 A;
68.8562828261546;-1.04949951171875;-0.2884521484375;5.19999998687126;521;1 A;
68.8662828261293;-1.04949951171875;-0.288543701171875;5.20999998684601;522;1 A;
68.8762828261041;-1.04949951171875;-0.287322998046875;5.21999998682077;523;1 A;
68.8862828260789;-1.0498046875;-0.28948974609375;5.22999998679552;524;1 A;
68.8962828260536;-1.04888916015625;-0.294891357421875;5.23999998677027;525;1 A;
68.9062828260284;-1.04888916015625;-0.293975830078125;5.24999998674502;526;1 A;
68.9162828260031;-1.04949951171875;-0.293487548828125;5.25999998671978;527;1 A;
68.9262828259779;-1.05010986328125;-0.288726806640625;5.26999998669453;528;1 A;
68.9362828259526;-1.0491943359375;-0.290985107421875;5.27999998666928;529;1 A;
68.9462828259274;-1.0498046875;-0.2901611328125;5.28999998664403;530;1 A;
68.9562828259021;-1.04949951171875;-0.292388916015625;5.29999998661879;531;1 A;
68.9662828258769;-1.05010986328125;-0.290771484375;5.30999998659354;532;1 A;
68.9762828258516;-1.04949951171875;-0.2919921875;5.31999998656829;533;1 A;
68.9862828258264;-1.0491943359375;-0.28875732421875;5.32999998654304;534;1 A;
68.9962828258011;-1.0491943359375;-0.2908935546875;5.3399999865178;535;1 A;
69.0062828257759;-1.0498046875;-0.292083740234375;5.34999998649255;536;1 A;
69.0162828257506;-1.0498046875;-0.296722412109375;5.3599999864673;537;1 A;
69.0262828257254;-1.0498046875;-0.29620361328125;5.36999998644205;538;1 A;
69.0362828257001;-1.0491943359375;-0.29437255859375;5.37999998641681;539;1 A;
69.0462828256749;-1.04949951171875;-0.290191650390625;5.38999998639156;540;1 A;
69.0562828256496;-1.0498046875;-0.294036865234375;5.39999998636631;541;1 A;
69.0662828256244;-1.04949951171875;-0.291534423828125;5.40999998634106;542;1 A;
69.0762828255992;-1.0491943359375;-0.294647216796875;5.41999998631582;543;1 A;
69.0862828255739;-1.0491943359375;-0.292327880859375;5.42999998629057;544;1 A;
69.0962828255487;-1.04949951171875;-0.294403076171875;5.43999998626532;545;1 A;
69.1062828255234;-1.04949951171875;-0.291046142578125;5.44999998624007;546;1 A;
69.1162828254982;-1.0491943359375;-0.29193115234375;5.45999998621483;547;1 A;
69.1262828254729;-1.04949951171875;-0.2923583984375;5.46999998618958;548;1 A;
69.1362828254477;-1.04949951171875;-0.298583984375;5.47999998616433;549;1 A;
69.1462828254224;-1.04949951171875;-0.296875;5.48999998613908;550;1 A;
69.1562828253972;-1.04949951171875;-0.296051025390625;5.49999998611383;551;1 A;
69.1662828253719;-1.04949951171875;-0.29150390625;5.50999998608859;552;1 A;
69.1762828253467;-1.05010986328125;-0.2935791015625;5.51999998606334;553;1 A;
69.1862828253214;-1.0491943359375;-0.2930908203125;5.52999998603809;554;1 A;
69.1962828252962;-1.0498046875;-0.29681396484375;5.53999998601284;555;1 A;
69.2062828252709;-1.04949951171875;-0.29345703125;5.5499999859876;556;1 A;
69.2162828252457;-1.04949951171875;-0.296112060546875;5.55999998596235;557;1 A;
69.2262828252204;-1.0491943359375;-0.292633056640625;5.5699999859371;558;1 A;
69.2362828251952;-1.04949951171875;-0.294189453125;5.57999998591185;559;1 A;
69.2462828251699;-1.0498046875;-0.293609619140625;5.58999998588661;560;1 A;
69.2562828251447;-1.04949951171875;-0.2998046875;5.59999998586136;561;1 A;
69.2662828251194;-1.0498046875;-0.298431396484375;5.60999998583611;562;1 A;
69.2762828250942;-1.0498046875;-0.29913330078125;5.61999998581086;563;1 A;
69.286282825069;-1.0491943359375;-0.29388427734375;5.62999998578562;564;1 A;
69.2962828250437;-1.0491943359375;-0.295623779296875;5.63999998576037;565;1 A;
69.3062828250185;-1.05010986328125;-0.293975830078125;5.64999998573512;566;1 A;
69.3162828249932;-1.04949951171875;-0.297637939453125;5.65999998570987;567;1 A;
69.326282824968;-1.0498046875;-0.297576904296875;5.66999998568463;568;1 A;
69.3362828249427;-1.0491943359375;-0.29681396484375;5.67999998565938;569;1 A;
69.3462828249175;-1.05010986328125;-0.293975830078125;5.68999998563413;570;1 A;
69.3562828248922;-1.04949951171875;-0.294647216796875;5.69999998560888;571;1 A;
69.366282824867;-1.0498046875;-0.294830322265625;5.70999998558364;572;1 A;
69.3762828248417;-1.04949951171875;-0.3009033203125;5.71999998555839;573;1 A;
69.3862828248165;-1.0498046875;-0.300689697265625;5.72999998553314;574;1 A;
69.3962828247912;-1.0491943359375;-0.29931640625;5.73999998550789;575;1 A;
69.406282824766;-1.04949951171875;-0.2935791015625;5.74999998548265;576;1 A;
69.4162828247407;-1.05010986328125;-0.29559326171875;5.7599999854574;577;1 A;
69.4262828247155;-1.0498046875;-0.29486083984375;5.76999998543215;578;1 A;
69.4362828246902;-1.04949951171875;-0.298431396484375;5.7799999854069;579;1 A;
69.446282824665;-1.04949951171875;-0.29705810546875;5.78999998538166;580;1 A;
69.4562828246397;-1.0491943359375;-0.294189453125;5.79999998535641;581;1 A;
69.4662828246145;-1.04949951171875;-0.29364013671875;5.80999998533116;582;1 A;
69.4762828245892;-1.04949951171875;-0.29217529296875;5.81999998530591;583;1 A;
69.486282824564;-1.0491943359375;-0.292938232421875;5.82999998528066;584;1 A;
69.4962828245388;-1.0498046875;-0.299560546875;5.83999998525542;585;1 A;
69.5062828245135;-1.0498046875;-0.297332763671875;5.84999998523017;586;1 A;
69.5162828244883;-1.0498046875;-0.29510498046875;5.85999998520492;587;1 A;
69.526282824463;-1.04949951171875;-0.28997802734375;5.86999998517967;588;1 A;
69.5362828244378;-1.0498046875;-0.292266845703125;5.87999998515443;589;1 A;
69.5462828244125;-1.0498046875;-0.291015625;5.88999998512918;590;1 A;
69.5562828243873;-1.0491943359375;-0.29412841796875;5.89999998510393;591;1 A;
69.566282824362;-1.0491943359375;-0.292236328125;5.90999998507868;592;1 A;
69.5762828243368;-1.04949951171875;-0.291839599609375;5.91999998505344;593;1 A;
69.5862828243115;-1.0491943359375;-0.2890625;5.92999998502819;594;1 A;
69.5962828242863;-1.04949951171875;-0.291473388671875;5.93999998500294;595;1 A;
69.606282824261;-1.04888916015625;-0.291778564453125;5.94999998497769;596;1 A;
69.6162828242358;-1.0498046875;-0.2977294921875;5.95999998495245;597;1 A;
69.6262828242105;-1.0491943359375;-0.297027587890625;5.9699999849272;598;1 A;
69.6362828241853;-1.04888916015625;-0.292999267578125;5.97999998490195;599;1 A;
69.64628282416;-1.0498046875;-0.28948974609375;5.9899999848767;600;1 A;
69.6562828241348;-1.04888916015625;-0.2919921875;5.99999998485146;601;1 A;
69.6662828241095;-1.04949951171875;-0.290374755859375;6.00999998482621;602;1 A;
69.6762828240843;-1.0498046875;-0.2935791015625;6.01999998480096;603;1 A;
69.686282824059;-1.04949951171875;-0.291900634765625;6.02999998477571;604;1 A;
69.6962828240338;-1.0498046875;-0.29254150390625;6.03999998475047;605;1 A;
69.7062828240086;-1.04949951171875;-0.29083251953125;6.04999998472522;606;1 A;
69.7162828239833;-1.0491943359375;-0.290557861328125;6.05999998469997;607;1 A;
69.7262828239581;-1.0498046875;-0.292144775390625;6.06999998467472;608;1 A;
69.7362828239328;-1.04949951171875;-0.2982177734375;6.07999998464948;609;1 A;
69.7462828239076;-1.0491943359375;-0.29766845703125;6.08999998462423;610;1 A;
69.7562828238823;-1.0498046875;-0.295654296875;6.09999998459898;611;1 A;
69.7662828238571;-1.0498046875;-0.291229248046875;6.10999998457373;612;1 A;
69.7762828238318;-1.04949951171875;-0.292266845703125;6.11999998454849;613;1 A;
69.7862828238066;-1.0491943359375;-0.292510986328125;6.12999998452324;614;1 A;
69.7962828237813;-1.04888916015625;-0.29656982421875;6.13999998449799;615;1 A;
69.8062828237561;-1.04949951171875;-0.2939453125;6.14999998447274;616;1 A;
69.8162828237308;-1.04949951171875;-0.294525146484375;6.1599999844475;617;1 A;
69.8262828237056;-1.04949951171875;-0.292755126953125;6.16999998442225;618;1 A;
69.8362828236803;-1.04949951171875;-0.29302978515625;6.179999984397;619;1 A;
69.8462828236551;-1.0498046875;-0.29400634765625;6.18999998437175;620;1 A;
69.8562828236298;-1.04949951171875;-0.29937744140625;6.1999999843465;621;1 A;
69.8662828236046;-1.04949951171875;-0.29937744140625;6.20999998432126;622;1 A;
69.8762828235793;-1.04949951171875;-0.300079345703125;6.21999998429601;623;1 A;
69.8862828235541;-1.0498046875;-0.29400634765625;6.22999998427076;624;1 A;
69.8962828235288;-1.0498046875;-0.29547119140625;6.23999998424551;625;1 A;
69.9062828235036;-1.0498046875;-0.29425048828125;6.24999998422027;626;1 A;
69.9162828234784;-1.0498046875;-0.297821044921875;6.25999998419502;627;1 A;
69.9262828234531;-1.04949951171875;-0.29852294921875;6.26999998416977;628;1 A;
69.9362828234279;-1.0498046875;-0.298004150390625;6.27999998414452;629;1 A;
69.9462828234026;-1.0498046875;-0.293975830078125;6.28999998411928;630;1 A;
69.9562828233774;-1.04949951171875;-0.29620361328125;6.29999998409403;631;1 A;
69.9662828233521;-1.0498046875;-0.296051025390625;6.30999998406878;632;1 A;
69.9762828233269;-1.04949951171875;-0.30377197265625;6.31999998404353;633;1 A;
69.9862828233016;-1.04949951171875;-0.3035888671875;6.32999998401829;634;1 A;
69.9962828232764;-1.0498046875;-0.302459716796875;6.33999998399304;635;1 A;
70.0062828232511;-1.04949951171875;-0.295806884765625;6.34999998396779;636;1 A;
70.0162828232259;-1.0491943359375;-0.300628662109375;6.35999998394254;637;1 A;
70.0262828232006;-1.04949951171875;-0.2977294921875;6.3699999839173;638;1 A;
70.0362828231754;-1.04949951171875;-0.30218505859375;6.37999998389205;639;1 A;
70.0462828231501;-1.0491943359375;-0.300567626953125;6.3899999838668;640;1 A;
70.0562828231249;-1.0498046875;-0.2994384765625;6.39999998384155;641;1 A;
70.0662828230996;-1.0498046875;-0.297119140625;6.40999998381631;642;1 A;
70.0762828230744;-1.0491943359375;-0.298126220703125;6.41999998379106;643;1 A;
70.0862828230491;-1.04949951171875;-0.29669189453125;6.42999998376581;644;1 A;
70.0962828230239;-1.04949951171875;-0.306915283203125;6.43999998374056;645;1 A;
70.1062828229987;-1.04949951171875;-0.30303955078125;6.44999998371532;646;1 A;
70.1162828229734;-1.0491943359375;-0.301544189453125;6.45999998369007;647;1 A;
70.1262828229482;-1.04949951171875;-0.294952392578125;6.46999998366482;648;1 A;
70.1362828229229;-1.0491943359375;-0.298980712890625;6.47999998363957;649;1 A;
70.1462828228977;-1.04949951171875;-0.296630859375;6.48999998361433;650;1 A;
70.1562828228724;-1.048583984375;-0.300750732421875;6.49999998358908;651;1 A;
70.1662828228472;-1.04949951171875;-0.297576904296875;6.50999998356383;652;1 A;
70.1762828228219;-1.04949951171875;-0.298736572265625;6.51999998353858;653;1 A;
70.1862828227967;-1.0498046875;-0.294219970703125;6.52999998351333;654;1 A;
70.1962828227714;-1.0498046875;-0.2987060546875;6.53999998348809;655;1 A;
70.2062828227462;-1.04949951171875;-0.296630859375;6.54999998346284;656;1 A;
70.2162828227209;-1.04949951171875;-0.30615234375;6.55999998343759;657;1 A;
70.2262828226957;-1.04949951171875;-0.30279541015625;6.56999998341234;658;1 A;
70.2362828226704;-1.0491943359375;-0.299530029296875;6.5799999833871;659;1 A;
70.2462828226452;-1.0491943359375;-0.294097900390625;6.58999998336185;660;1 A;
70.2562828226199;-1.0498046875;-0.297515869140625;6.5999999833366;661;1 A;
70.2662828225947;-1.04949951171875;-0.29522705078125;6.60999998331135;662;1 A;
70.2762828225694;-1.0498046875;-0.29962158203125;6.61999998328611;663;1 A;
70.2862828225442;-1.0498046875;-0.29669189453125;6.62999998326086;664;1 A;
70.2962828225189;-1.0491943359375;-0.298126220703125;6.63999998323561;665;1 A;
70.3062828224937;-1.05010986328125;-0.296295166015625;6.64999998321036;666;1 A;
70.3162828224685;-1.04949951171875;-0.295257568359375;6.65999998318512;667;1 A;
70.3262828224432;-1.0498046875;-0.298126220703125;6.66999998315987;668;1 A;
70.336282822418;-1.0491943359375;-0.304443359375;6.67999998313462;669;1 A;
70.3462828223927;-1.04888916015625;-0.3023681640625;6.68999998310937;670;1 A;
70.3562828223675;-1.04949951171875;-0.302001953125;6.69999998308413;671;1 A;
70.3662828223422;-1.05010986328125;-0.295867919921875;6.70999998305888;672;1 A;
70.376282822317;-1.04949951171875;-0.2967529296875;6.71999998303363;673;1 A;
70.3862828222917;-1.04949951171875;-0.298004150390625;6.72999998300838;674;1 A;
70.3962828222665;-1.04949951171875;-0.30316162109375;6.73999998298314;675;1 A;
70.4062828222412;-1.0491943359375;-0.299835205078125;6.74999998295789;676;1 A;
70.416282822216;-1.04949951171875;-0.299407958984375;6.75999998293264;677;1 A;
70.4262828221907;-1.0498046875;-0.298980712890625;6.76999998290739;678;1 A;
70.4362828221655;-1.04949951171875;-0.29681396484375;6.77999998288215;679;1 A;
70.4462828221402;-1.0491943359375;-0.299102783203125;6.7899999828569;680;1 A;
70.456282822115;-1.0498046875;-0.304443359375;6.79999998283165;681;1 A;
70.4662828220897;-1.04949951171875;-0.303924560546875;6.8099999828064;682;1 A;
70.4762828220645;-1.0498046875;-0.304901123046875;6.81999998278116;683;1 A;
70.4862828220392;-1.04949951171875;-0.297119140625;6.82999998275591;684;1 A;
70.496282822014;-1.0491943359375;-0.298187255859375;6.83999998273066;685;1 A;
70.5062828219887;-1.04949951171875;-0.296600341796875;6.84999998270541;686;1 A;
70.5162828219635;-1.04949951171875;-0.30120849609375;6.85999998268016;687;1 A;
70.5262828219383;-1.0491943359375;-0.300262451171875;6.86999998265492;688;1 A;
70.536282821913;-1.0491943359375;-0.30072021484375;6.87999998262967;689;1 A;
70.5462828218878;-1.04949951171875;-0.29541015625;6.88999998260442;690;1 A;
70.5562828218625;-1.0498046875;-0.297454833984375;6.89999998257917;691;1 A;
70.5662828218373;-1.04949951171875;-0.297149658203125;6.90999998255393;692;1 A;
70.576282821812;-1.0491943359375;-0.30462646484375;6.91999998252868;693;1 A;
70.5862828217868;-1.048583984375;-0.3033447265625;6.92999998250343;694;1 A;
70.5962828217615;-1.0491943359375;-0.30194091796875;6.93999998247818;695;1 A;
70.6062828217363;-1.0491943359375;-0.294403076171875;6.94999998245294;696;1 A;
70.616282821711;-1.0491943359375;-0.300384521484375;6.95999998242769;697;1 A;
70.6262828216858;-1.04949951171875;-0.295318603515625;6.96999998240244;698;1 A;
70.6362828216605;-1.04949951171875;-0.301666259765625;6.97999998237719;699;1 A;
70.6462828216353;-1.0491943359375;-0.298797607421875;6.98999998235195;700;1 A;
70.65628282161;-1.0498046875;-0.2987060546875;6.9999999823267;701;1 A;
70.6662828215848;-1.0491943359375;-0.29608154296875;7.00999998230145;702;1 A;
70.6762828215595;-1.04949951171875;-0.29736328125;7.0199999822762;703;1 A;
70.6862828215343;-1.0498046875;-0.295318603515625;7.02999998225096;704;1 A;
70.696282821509;-1.0491943359375;-0.30743408203125;7.03999998222571;705;1 A;
70.7062828214838;-1.04888916015625;-0.30352783203125;7.04999998220046;706;1 A;
70.7162828214585;-1.04949951171875;-0.30047607421875;7.05999998217521;707;1 A;
70.7262828214333;-1.0491943359375;-0.29400634765625;7.06999998214997;708;1 A;
70.7362828214081;-1.04949951171875;-0.296966552734375;7.07999998212472;709;1 A;
70.7462828213828;-1.04949951171875;-0.294647216796875;7.08999998209947;710;1 A;
70.7562828213576;-1.0498046875;-0.29986572265625;7.09999998207422;711;1 A;
70.7662828213323;-1.0491943359375;-0.29620361328125;7.10999998204898;712;1 A;
70.7762828213071;-1.04949951171875;-0.296661376953125;7.11999998202373;713;1 A;
70.7862828212818;-1.04949951171875;-0.29144287109375;7.12999998199848;714;1 A;
70.7962828212566;-1.04949951171875;-0.29583740234375;7.13999998197323;715;1 A;
70.8062828212313;-1.04949951171875;-0.292877197265625;7.14999998194799;716;1 A;
70.8162828212061;-1.0491943359375;-0.304046630859375;7.15999998192274;717;1 A;
70.8262828211808;-1.0498046875;-0.3011474609375;7.16999998189749;718;1 A;
70.8362828211556;-1.04949951171875;-0.297332763671875;7.17999998187224;719;1 A;
70.8462828211303;-1.0491943359375;-0.2926025390625;7.189999981847;720;1 A;
70.8562828211051;-1.04949951171875;-0.293701171875;7.19999998182175;721;1 A;
70.8662828210798;-1.0498046875;-0.29205322265625;7.2099999817965;722;1 A;
70.8762828210546;-1.0491943359375;-0.296356201171875;7.21999998177125;723;1 A;
70.8862828210293;-1.0498046875;-0.29437255859375;7.229999981746;724;1 A;
70.8962828210041;-1.04949951171875;-0.2923583984375;7.23999998172076;725;1 A;
70.9062828209788;-1.0498046875;-0.291412353515625;7.24999998169551;726;1 A;
70.9162828209536;-1.04949951171875;-0.290191650390625;7.25999998167026;727;1 A;
70.9262828209283;-1.0498046875;-0.291046142578125;7.26999998164501;728;1 A;
70.9362828209031;-1.04949951171875;-0.298614501953125;7.27999998161977;729;1 A;
70.9462828208779;-1.04949951171875;-0.298492431640625;7.28999998159452;730;1 A;
70.9562828208526;-1.04949951171875;-0.295806884765625;7.29999998156927;731;1 A;
70.9662828208274;-1.0498046875;-0.289520263671875;7.30999998154402;732;1 A;
70.9762828208021;-1.04949951171875;-0.289581298828125;7.31999998151878;733;1 A;
70.9862828207769;-1.04949951171875;-0.29052734375;7.32999998149353;734;1 A;
70.9962828207516;-1.04888916015625;-0.296051025390625;7.33999998146828;735;1 A;
71.0062828207264;-1.04949951171875;-0.293609619140625;7.34999998144303;736;1 A;
71.0162828207011;-1.0491943359375;-0.2911376953125;7.35999998141779;737;1 A;
71.0262828206759;-1.04949951171875;-0.29034423828125;7.36999998139254;738;1 A;
71.0362828206506;-1.04949951171875;-0.2877197265625;7.37999998136729;739;1 A;
71.0462828206254;-1.05010986328125;-0.29046630859375;7.38999998134204;740;1 A;
71.0562828206001;-1.04949951171875;-0.297821044921875;7.3999999813168;741;1 A;
71.0662828205749;-1.04949951171875;-0.29644775390625;7.40999998129155;742;1 A;
71.0762828205496;-1.0498046875;-0.297760009765625;7.4199999812663;743;1 A;
71.0862828205244;-1.04949951171875;-0.28900146484375;7.42999998124105;744;1 A;
71.0962828204991;-1.0491943359375;-0.291534423828125;7.43999998121581;745;1 A;
71.1062828204739;-1.0498046875;-0.28887939453125;7.44999998119056;746;1 A;
71.1162828204486;-1.04949951171875;-0.293975830078125;7.45999998116531;747;1 A;
71.1262828204234;-1.0491943359375;-0.2916259765625;7.46999998114006;748;1 A;
71.1362828203982;-1.04949951171875;-0.294219970703125;7.47999998111482;749;1 A;
71.1462828203729;-1.04949951171875;-0.286376953125;7.48999998108957;750;1 A;
71.1562828203477;-1.0491943359375;-0.290374755859375;7.49999998106432;751;1 A;
71.1662828203224;-1.04949951171875;-0.288787841796875;7.50999998103907;752;1 A;
71.1762828202972;-1.04949951171875;-0.298614501953125;7.51999998101383;753;1 A;
71.1862828202719;-1.04949951171875;-0.295989990234375;7.52999998098858;754;1 A;
71.1962828202467;-1.05010986328125;-0.29534912109375;7.53999998096333;755;1 A;
71.2062828202214;-1.0498046875;-0.286956787109375;7.54999998093808;756;1 A;
71.2162828201962;-1.04949951171875;-0.294586181640625;7.55999998091283;757;1 A;
71.2262828201709;-1.04949951171875;-0.289276123046875;7.56999998088759;758;1 A;
71.2362828201457;-1.04949951171875;-0.2960205078125;7.57999998086234;759;1 A;
71.2462828201204;-1.0498046875;-0.292694091796875;7.58999998083709;760;1 A;
71.2562828200952;-1.0498046875;-0.295013427734375;7.59999998081184;761;1 A;
71.2662828200699;-1.04949951171875;-0.289093017578125;7.6099999807866;762;1 A;
71.2762828200447;-1.04949951171875;-0.291717529296875;7.61999998076135;763;1 A;
71.2862828200194;-1.04949951171875;-0.289276123046875;7.6299999807361;764;1 A;
71.2962828199942;-1.04949951171875;-0.30230712890625;7.63999998071085;765;1 A;
71.3062828199689;-1.04949951171875;-0.297760009765625;7.64999998068561;766;1 A;
71.3162828199437;-1.0498046875;-0.296722412109375;7.65999998066036;767;1 A;
71.3262828199184;-1.04949951171875;-0.288177490234375;7.66999998063511;768;1 A;
71.3362828198932;-1.0498046875;-0.292572021484375;7.67999998060986;769;1 A;
71.346282819868;-1.04949951171875;-0.29034423828125;7.68999998058462;770;1 A;
71.3562828198427;-1.04949951171875;-0.29620361328125;7.69999998055937;771;1 A;
71.3662828198175;-1.0491943359375;-0.29205322265625;7.70999998053412;772;1 A;
71.3762828197922;-1.05010986328125;-0.29541015625;7.71999998050887;773;1 A;
71.386282819767;-1.04949951171875;-0.28875732421875;7.72999998048363;774;1 A;
71.3962828197417;-1.0491943359375;-0.2938232421875;7.73999998045838;775;1 A;
71.4062828197165;-1.05010986328125;-0.290283203125;7.74999998043313;776;1 A;
71.4162828196912;-1.05010986328125;-0.3021240234375;7.75999998040788;777;1 A;
71.426282819666;-1.0498046875;-0.298431396484375;7.76999998038264;778;1 A;
71.4362828196407;-1.0498046875;-0.29669189453125;7.77999998035739;779;1 A;
71.4462828196155;-1.0491943359375;-0.290679931640625;7.78999998033214;780;1 A;
71.4562828195902;-1.0498046875;-0.292938232421875;7.79999998030689;781;1 A;
71.466282819565;-1.04949951171875;-0.290771484375;7.80999998028165;782;1 A;
71.4762828195397;-1.0491943359375;-0.296356201171875;7.8199999802564;783;1 A;
71.4862828195145;-1.04888916015625;-0.295196533203125;7.82999998023115;784;1 A;
71.4962828194892;-1.0498046875;-0.293792724609375;7.8399999802059;785;1 A;
71.506282819464;-1.04949951171875;-0.292388916015625;7.84999998018066;786;1 A;
71.5162828194387;-1.0498046875;-0.29229736328125;7.85999998015541;787;1 A;
71.5262828194135;-1.0491943359375;-0.292877197265625;7.86999998013016;788;1 A;
71.5362828193882;-1.04949951171875;-0.300567626953125;7.87999998010491;789;1 A;
71.546282819363;-1.04949951171875;-0.301025390625;7.88999998007966;790;1 A;
71.5562828193378;-1.04949951171875;-0.29876708984375;7.89999998005442;791;1 A;
71.5662828193125;-1.04949951171875;-0.291717529296875;7.90999998002917;792;1 A;
71.5762828192873;-1.0491943359375;-0.292724609375;7.91999998000392;793;1 A;
71.586282819262;-1.04949951171875;-0.29376220703125;7.92999997997867;794;1 A;
71.5962828192368;-1.04949951171875;-0.300048828125;7.93999997995343;795;1 A;
71.6062828192115;-1.04949951171875;-0.298004150390625;7.94999997992818;796;1 A;
71.6162828191863;-1.0498046875;-0.294921875;7.95999997990293;797;1 A;
71.626282819161;-1.04949951171875;-0.29534912109375;7.96999997987768;798;1 A;
71.6362828191358;-1.0498046875;-0.29254150390625;7.97999997985244;799;1 A;
71.6462828191105;-1.0491943359375;-0.2962646484375;7.98999997982719;800;1 A;
71.6562828190853;-1.04888916015625;-0.304412841796875;7.99999997980194;801;1 A;
71.66628281906;-1.04949951171875;-0.303680419921875;8.00999997977669;802;1 A;
71.6762828190348;-1.04949951171875;-0.302978515625;8.01999997975145;803;1 A;
71.6862828190095;-1.04949951171875;-0.295135498046875;8.0299999797262;804;1 A;
71.6962828189843;-1.0491943359375;-0.297698974609375;8.03999997970095;805;1 A;
71.706282818959;-1.0491943359375;-0.297088623046875;8.0499999796757;806;1 A;
71.7162828189338;-1.04949951171875;-0.30218505859375;8.05999997965046;807;1 A;
71.7262828189085;-1.0491943359375;-0.300628662109375;8.06999997962521;808;1 A;
71.7362828188833;-1.0504150390625;-0.301727294921875;8.07999997959996;809;1 A;
71.746282818858;-1.0491943359375;-0.297088623046875;8.08999997957471;810;1 A;
71.7562828188328;-1.04949951171875;-0.299224853515625;8.09999997954947;811;1 A;
71.7662828188076;-1.05010986328125;-0.30084228515625;8.10999997952422;812;1 A;
71.7762828187823;-1.0498046875;-0.3074951171875;8.11999997949897;813;1 A;
71.7862828187571;-1.0498046875;-0.3070068359375;8.12999997947372;814;1 A;
71.7962828187318;-1.04949951171875;-0.30401611328125;8.13999997944848;815;1 A;
71.8062828187066;-1.04949951171875;-0.297149658203125;8.14999997942323;816;1 A;
71.8162828186813;-1.04949951171875;-0.302947998046875;8.15999997939798;817;1 A;
71.8262828186561;-1.0504150390625;-0.298919677734375;8.16999997937273;818;1 A;
71.8362828186308;-1.04888916015625;-0.30419921875;8.17999997934749;819;1 A;
71.8462828186056;-1.04949951171875;-0.301849365234375;8.18999997932224;820;1 A;
71.8562828185803;-1.04949951171875;-0.30419921875;8.19999997929699;821;1 A;
71.8662828185551;-1.0491943359375;-0.299896240234375;8.20999997927174;822;1 A;
71.8762828185298;-1.04888916015625;-0.302001953125;8.2199999792465;823;1 A;
71.8862828185046;-1.0491943359375;-0.301727294921875;8.22999997922125;824;1 A;
71.8962828184793;-1.0491943359375;-0.313140869140625;8.239999979196;825;1 A;
71.9062828184541;-1.0498046875;-0.310546875;8.24999997917075;826;1 A;
71.9162828184288;-1.0498046875;-0.308837890625;8.2599999791455;827;1 A;
71.9262828184036;-1.0498046875;-0.30145263671875;8.26999997912026;828;1 A;
71.9362828183783;-1.04949951171875;-0.30499267578125;8.27999997909501;829;1 A;
71.9462828183531;-1.0491943359375;-0.304290771484375;8.28999997906976;830;1 A;
71.9562828183278;-1.0491943359375;-0.310546875;8.29999997904451;831;1 A;
71.9662828183026;-1.0498046875;-0.30596923828125;8.30999997901927;832;1 A;
71.9762828182774;-1.0498046875;-0.309844970703125;8.31999997899402;833;1 A;
71.9862828182521;-1.04949951171875;-0.3037109375;8.32999997896877;834;1 A;
71.9962828182269;-1.0498046875;-0.308258056640625;8.33999997894352;835;1 A;
72.0062828182016;-1.05010986328125;-0.305908203125;8.34999997891828;836;1 A;
72.0162828181764;-1.04949951171875;-0.317962646484375;8.35999997889303;837;1 A;
72.0262828181511;-1.0491943359375;-0.3153076171875;8.36999997886778;838;1 A;
72.0362828181259;-1.04888916015625;-0.314697265625;8.37999997884253;839;1 A;
72.0462828181006;-1.04888916015625;-0.30804443359375;8.38999997881729;840;1 A;
72.0562828180754;-1.0491943359375;-0.3095703125;8.39999997879204;841;1 A;
72.0662828180501;-1.04949951171875;-0.307769775390625;8.40999997876679;842;1 A;
72.0762828180249;-1.04949951171875;-0.313629150390625;8.41999997874154;843;1 A;
72.0862828179996;-1.0498046875;-0.3133544921875;8.4299999787163;844;1 A;
72.0962828179744;-1.04949951171875;-0.312103271484375;8.43999997869105;845;1 A;
72.1062828179491;-1.0498046875;-0.30914306640625;8.4499999786658;846;1 A;
72.1162828179239;-1.0498046875;-0.309783935546875;8.45999997864055;847;1 A;
72.1262828178986;-1.04949951171875;-0.30987548828125;8.46999997861531;848;1 A;
72.1362828178734;-1.0491943359375;-0.319549560546875;8.47999997859006;849;1 A;
72.1462828178481;-1.04949951171875;-0.31976318359375;8.48999997856481;850;1 A;
72.1562828178229;-1.0491943359375;-0.318145751953125;8.49999997853956;851;1 A;
72.1662828177977;-1.04949951171875;-0.309539794921875;8.50999997851432;852;1 A;
72.1762828177724;-1.04949951171875;-0.312957763671875;8.51999997848907;853;1 A;
72.1862828177472;-1.04949951171875;-0.31201171875;8.52999997846382;854;1 A;
72.1962828177219;-1.04949951171875;-0.318878173828125;8.53999997843857;855;1 A;
72.2062828176967;-1.0491943359375;-0.31719970703125;8.54999997841333;856;1 A;
72.2162828176714;-1.04888916015625;-0.31427001953125;8.55999997838808;857;1 A;
72.2262828176462;-1.0491943359375;-0.3125;8.56999997836283;858;1 A;
72.2362828176209;-1.04888916015625;-0.312347412109375;8.57999997833758;859;1 A;
72.2462828175957;-1.0498046875;-0.31439208984375;8.58999997831233;860;1 A;
72.2562828175704;-1.04949951171875;-0.32647705078125;8.59999997828709;861;1 A;
72.2662828175452;-1.04949951171875;-0.323577880859375;8.60999997826184;862;1 A;
72.2762828175199;-1.0491943359375;-0.324066162109375;8.61999997823659;863;1 A;
72.2862828174947;-1.0491943359375;-0.313385009765625;8.62999997821134;864;1 A;
72.2962828174694;-1.0491943359375;-0.3187255859375;8.6399999781861;865;1 A;
72.3062828174442;-1.0498046875;-0.31561279296875;8.64999997816085;866;1 A;
72.3162828174189;-1.0498046875;-0.32098388671875;8.6599999781356;867;1 A;
72.3262828173937;-1.0498046875;-0.318084716796875;8.66999997811035;868;1 A;
72.3362828173684;-1.0498046875;-0.32037353515625;8.67999997808511;869;1 A;
72.3462828173432;-1.0498046875;-0.313568115234375;8.68999997805986;870;1 A;
72.3562828173179;-1.04949951171875;-0.31695556640625;8.69999997803461;871;1 A;
72.3662828172927;-1.0491943359375;-0.31689453125;8.70999997800936;872;1 A;
72.3762828172675;-1.0491943359375;-0.326385498046875;8.71999997798412;873;1 A;
72.3862828172422;-1.0491943359375;-0.324676513671875;8.72999997795887;874;1 A;
72.396282817217;-1.0498046875;-0.32220458984375;8.73999997793362;875;1 A;
72.4062828171917;-1.04949951171875;-0.314056396484375;8.74999997790837;876;1 A;
72.4162828171665;-1.04949951171875;-0.3203125;8.75999997788313;877;1 A;
72.4262828171412;-1.04949951171875;-0.315643310546875;8.76999997785788;878;1 A;
72.436282817116;-1.04949951171875;-0.320953369140625;8.77999997783263;879;1 A;
72.4462828170907;-1.0491943359375;-0.3177490234375;8.78999997780738;880;1 A;
72.4562828170655;-1.04949951171875;-0.3212890625;8.79999997778214;881;1 A;
72.4662828170402;-1.0498046875;-0.31597900390625;8.80999997775689;882;1 A;
72.476282817015;-1.0498046875;-0.317291259765625;8.81999997773164;883;1 A;
72.4862828169897;-1.04949951171875;-0.31756591796875;8.82999997770639;884;1 A;
72.4962828169645;-1.0498046875;-0.328338623046875;8.83999997768115;885;1 A;
72.5062828169392;-1.04949951171875;-0.324310302734375;8.8499999776559;886;1 A;
72.516282816914;-1.0491943359375;-0.32391357421875;8.85999997763065;887;1 A;
72.5262828168887;-1.04949951171875;-0.31451416015625;8.8699999776054;888;1 A;
72.5362828168635;-1.0498046875;-0.318206787109375;8.87999997758016;889;1 A;
72.5462828168382;-1.0491943359375;-0.318359375;8.88999997755491;890;1 A;
72.556282816813;-1.04949951171875;-0.32379150390625;8.89999997752966;891;1 A;
72.5662828167877;-1.04949951171875;-0.31964111328125;8.90999997750441;892;1 A;
72.5762828167625;-1.0498046875;-0.32305908203125;8.91999997747916;893;1 A;
72.5862828167373;-1.0491943359375;-0.317108154296875;8.92999997745392;894;1 A;
72.596282816712;-1.04949951171875;-0.32080078125;8.93999997742867;895;1 A;
72.6062828166868;-1.0498046875;-0.319488525390625;8.94999997740342;896;1 A;
72.6162828166615;-1.0498046875;-0.3297119140625;8.95999997737817;897;1 A;
72.6262828166363;-1.04949951171875;-0.3265380859375;8.96999997735293;898;1 A;
72.636282816611;-1.0498046875;-0.32904052734375;8.97999997732768;899;1 A;
72.6462828165858;-1.0491943359375;-0.318084716796875;8.98999997730243;900;1 A;
72.6562828165605;-1.04949951171875;-0.32110595703125;8.99999997727718;901;1 A;
72.6662828165353;-1.04888916015625;-0.318603515625;9.00999997725194;902;1 A;
72.67628281651;-1.04949951171875;-0.3248291015625;9.01999997722669;903;1 A;
72.6862828164848;-1.04949951171875;-0.325469970703125;9.02999997720144;904;1 A;
72.6962828164595;-1.0498046875;-0.325408935546875;9.03999997717619;905;1 A;
72.7062828164343;-1.0491943359375;-0.3206787109375;9.04999997715095;906;1 A;
72.716282816409;-1.04949951171875;-0.322845458984375;9.0599999771257;907;1 A;
72.7262828163838;-1.0491943359375;-0.323089599609375;9.06999997710045;908;1 A;
72.7362828163585;-1.05010986328125;-0.3333740234375;9.0799999770752;909;1 A;
72.7462828163333;-1.04949951171875;-0.333526611328125;9.08999997704996;910;1 A;
72.756282816308;-1.0498046875;-0.332244873046875;9.09999997702471;911;1 A;
72.7662828162828;-1.0498046875;-0.322265625;9.10999997699946;912;1 A;
72.7762828162575;-1.04949951171875;-0.327972412109375;9.11999997697421;913;1 A;
72.7862828162323;-1.0491943359375;-0.325653076171875;9.12999997694897;914;1 A;
72.7962828162071;-1.04949951171875;-0.33282470703125;9.13999997692372;915;1 A;
72.8062828161818;-1.04949951171875;-0.3306884765625;9.14999997689847;916;1 A;
72.8162828161566;-1.0491943359375;-0.32830810546875;9.15999997687322;917;1 A;
72.8262828161313;-1.04949951171875;-0.326904296875;9.16999997684798;918;1 A;
72.8362828161061;-1.05010986328125;-0.326904296875;9.17999997682273;919;1 A;
72.8462828160808;-1.0498046875;-0.328033447265625;9.18999997679748;920;1 A;
72.8562828160556;-1.0491943359375;-0.340057373046875;9.19999997677223;921;1 A;
72.8662828160303;-1.0498046875;-0.337432861328125;9.20999997674699;922;1 A;
72.8762828160051;-1.04949951171875;-0.335235595703125;9.21999997672174;923;1 A;
72.8862828159798;-1.04949951171875;-0.325927734375;9.22999997669649;924;1 A;
72.8962828159546;-1.0498046875;-0.330718994140625;9.23999997667124;925;1 A;
72.9062828159293;-1.04949951171875;-0.3284912109375;9.249999976646;926;1 A;
72.9162828159041;-1.0491943359375;-0.333892822265625;9.25999997662075;927;1 A;
72.9262828158788;-1.05010986328125;-0.33123779296875;9.2699999765955;928;1 A;
72.9362828158536;-1.04949951171875;-0.331695556640625;9.27999997657025;929;1 A;
72.9462828158283;-1.04949951171875;-0.32708740234375;9.289999976545;930;1 A;
72.9562828158031;-1.05010986328125;-0.33184814453125;9.29999997651976;931;1 A;
72.9662828157778;-1.04949951171875;-0.331268310546875;9.30999997649451;932;1 A;
72.9762828157526;-1.0498046875;-0.3408203125;9.31999997646926;933;1 A;
72.9862828157273;-1.04949951171875;-0.339385986328125;9.32999997644401;934;1 A;
72.9962828157021;-1.04949951171875;-0.33428955078125;9.33999997641877;935;1 A;
73.0062828156769;-1.0491943359375;-0.32720947265625;9.34999997639352;936;1 A;
73.0162828156516;-1.0491943359375;-0.3323974609375;9.35999997636827;937;1 A;
73.0262828156264;-1.05010986328125;-0.32904052734375;9.36999997634302;938;1 A;
73.0362828156011;-1.0491943359375;-0.334442138671875;9.37999997631778;939;1 A;
73.0462828155759;-1.04949951171875;-0.331634521484375;9.38999997629253;940;1 A;
73.0562828155506;-1.0491943359375;-0.333343505859375;9.39999997626728;941;1 A;
73.0662828155254;-1.0498046875;-0.329498291015625;9.40999997624203;942;1 A;
73.0762828155001;-1.04949951171875;-0.329681396484375;9.41999997621679;943;1 A;
73.0862828154749;-1.0498046875;-0.33154296875;9.42999997619154;944;1 A;
73.0962828154496;-1.0498046875;-0.34246826171875;9.43999997616629;945;1 A;
73.1062828154244;-1.04949951171875;-0.33929443359375;9.44999997614104;946;1 A;
73.1162828153991;-1.0491943359375;-0.337860107421875;9.4599999761158;947;1 A;
73.1262828153739;-1.04888916015625;-0.328765869140625;9.46999997609055;948;1 A;
73.1362828153486;-1.0498046875;-0.330902099609375;9.4799999760653;949;1 A;
73.1462828153234;-1.04949951171875;-0.332305908203125;9.48999997604005;950;1 A;
73.1562828152981;-1.0491943359375;-0.339111328125;9.49999997601481;951;1 A;
73.1662828152729;-1.04949951171875;-0.335968017578125;9.50999997598956;952;1 A;
73.1762828152476;-1.0498046875;-0.33697509765625;9.51999997596431;953;1 A;
73.1862828152224;-1.04949951171875;-0.333282470703125;9.52999997593906;954;1 A;
73.1962828151972;-1.04949951171875;-0.334564208984375;9.53999997591382;955;1 A;
73.2062828151719;-1.0491943359375;-0.336151123046875;9.54999997588857;956;1 A;
73.2162828151467;-1.04949951171875;-0.345611572265625;9.55999997586332;957;1 A;
73.2262828151214;-1.04949951171875;-0.345123291015625;9.56999997583807;958;1 A;
73.2362828150962;-1.04949951171875;-0.347930908203125;9.57999997581283;959;1 A;
73.2462828150709;-1.0498046875;-0.33575439453125;9.58999997578758;960;1 A;
73.2562828150457;-1.0498046875;-0.3392333984375;9.59999997576233;961;1 A;
73.2662828150204;-1.04949951171875;-0.336517333984375;9.60999997573708;962;1 A;
73.2762828149952;-1.04949951171875;-0.34271240234375;9.61999997571183;963;1 A;
73.2862828149699;-1.0498046875;-0.343719482421875;9.62999997568659;964;1 A;
73.2962828149447;-1.0498046875;-0.344390869140625;9.63999997566134;965;1 A;
73.3062828149194;-1.04949951171875;-0.336517333984375;9.64999997563609;966;1 A;
73.3162828148942;-1.04949951171875;-0.341217041015625;9.65999997561084;967;1 A;
73.3262828148689;-1.0491943359375;-0.3397216796875;9.6699999755856;968;1 A;
73.3362828148437;-1.04949951171875;-0.3516845703125;9.67999997556035;969;1 A;
73.3462828148184;-1.04949951171875;-0.351104736328125;9.6899999755351;970;1 A;
73.3562828147932;-1.04949951171875;-0.350128173828125;9.69999997550985;971;1 A;
73.3662828147679;-1.04949951171875;-0.338897705078125;9.70999997548461;972;1 A;
73.3762828147427;-1.04949951171875;-0.346771240234375;9.71999997545936;973;1 A;
73.3862828147174;-1.0498046875;-0.342864990234375;9.72999997543411;974;1 A;
73.3962828146922;-1.04949951171875;-0.350433349609375;9.73999997540886;975;1 A;
73.406282814667;-1.0491943359375;-0.348114013671875;9.74999997538362;976;1 A;
73.4162828146417;-1.0491943359375;-0.3472900390625;9.75999997535837;977;1 A;
73.4262828146165;-1.0491943359375;-0.343597412109375;9.76999997533312;978;1 A;
73.4362828145912;-1.0491943359375;-0.345855712890625;9.77999997530787;979;1 A;
73.446282814566;-1.0498046875;-0.3441162109375;9.78999997528263;980;1 A;
73.4562828145407;-1.04888916015625;-0.3599853515625;9.79999997525738;981;1 A;
73.4662828145155;-1.04949951171875;-0.35479736328125;9.80999997523213;982;1 A;
73.4762828144902;-1.04949951171875;-0.352752685546875;9.81999997520688;983;1 A;
73.486282814465;-1.05010986328125;-0.341705322265625;9.82999997518164;984;1 A;
73.4962828144397;-1.04949951171875;-0.34698486328125;9.83999997515639;985;1 A;
73.5062828144145;-1.04949951171875;-0.3447265625;9.84999997513114;986;1 A;
73.5162828143892;-1.0498046875;-0.350433349609375;9.85999997510589;987;1 A;
73.526282814364;-1.0498046875;-0.347991943359375;9.86999997508065;988;1 A;
73.5362828143387;-1.0491943359375;-0.34906005859375;9.8799999750554;989;1 A;
73.5462828143135;-1.0498046875;-0.343109130859375;9.88999997503015;990;1 A;
73.5562828142882;-1.05010986328125;-0.349151611328125;9.8999999750049;991;1 A;
73.566282814263;-1.0498046875;-0.346527099609375;9.90999997497966;992;1 A;
73.5762828142377;-1.04949951171875;-0.359893798828125;9.91999997495441;993;1 A;
73.5862828142125;-1.0491943359375;-0.355926513671875;9.92999997492916;994;1 A;
73.5962828141872;-1.04949951171875;-0.351165771484375;9.93999997490391;995;1 A;
73.606282814162;-1.04949951171875;-0.342742919921875;9.94999997487866;996;1 A;
73.6162828141368;-1.0498046875;-0.347198486328125;9.95999997485342;997;1 A;
73.6262828141115;-1.04949951171875;-0.34417724609375;9.96999997482817;998;1 A;
73.6362828140863;-1.0491943359375;-0.350372314453125;9.97999997480292;999;1 A;
73.646282814061;-1.0498046875;-0.34771728515625;9.98999997477767;1000;1 A;
