Time (s);WE(1).Potential (V);WE(1).Current (A);Corrected time (s);Index;Current range;Overload
95.1880157596734;-0.88104248046875;-2.34222412109375;0;1;1 A;Current overload
95.1980157596481;-0.93536376953125;-2.25311279296875;0.00999999997475243;2;1 A;Current overload
95.2080157596229;-1.10137939453125;-1.80999755859375;0.0199999999495049;3;1 A;
95.2180157595976;-1.1004638671875;-1.5380859375;0.0299999999242573;4;1 A;
95.2280157595724;-1.1004638671875;-1.334228515625;0.0399999998990097;5;1 A;
95.2380157595471;-1.10015869140625;-1.18438720703125;0.0499999998737621;6;1 A;
95.2480157595219;-1.10015869140625;-1.068115234375;0.0599999998485146;7;1 A;
95.2580157594966;-1.0992431640625;-0.9832763671875;0.069999999823267;8;1 A;
95.2680157594714;-1.09954833984375;-0.9130859375;0.0799999997980194;9;1 A;
95.2780157594461;-1.0992431640625;-0.86273193359375;0.0899999997727718;10;1 A;
95.2880157594209;-1.099853515625;-0.811767578125;0.0999999997475243;11;1 A;
95.2980157593956;-1.09954833984375;-0.770263671875;0.109999999722277;12;1 A;
95.3080157593704;-1.0992431640625;-0.72845458984375;0.119999999697029;13;1 A;
95.3180157593451;-1.09954833984375;-0.7025146484375;0.129999999671782;14;1 A;
95.3280157593199;-1.0992431640625;-0.6707763671875;0.139999999646534;15;1 A;
95.3380157592946;-1.09954833984375;-0.650634765625;0.149999999621286;16;1 A;
95.3480157592694;-1.09954833984375;-0.62713623046875;0.159999999596039;17;1 A;
95.3580157592442;-1.09954833984375;-0.60760498046875;0.169999999570791;18;1 A;
95.3680157592189;-1.0992431640625;-0.58624267578125;0.179999999545544;19;1 A;
95.3780157591937;-1.099853515625;-0.5718994140625;0.189999999520296;20;1 A;
95.3880157591684;-1.099853515625;-0.5572509765625;0.199999999495049;21;1 A;
95.3980157591432;-1.0992431640625;-0.54840087890625;0.209999999469801;22;1 A;
95.4080157591179;-1.09954833984375;-0.5322265625;0.219999999444553;23;1 A;
95.4180157590927;-1.0992431640625;-0.52215576171875;0.229999999419306;24;1 A;
95.4280157590674;-1.099853515625;-0.5059814453125;0.239999999394058;25;1 A;
95.4380157590422;-1.09954833984375;-0.4986572265625;0.249999999368811;26;1 A;
95.4480157590169;-1.099853515625;-0.48834228515625;0.259999999343563;27;1 A;
95.4580157589917;-1.099853515625;-0.481842041015625;0.269999999318316;28;1 A;
95.4680157589664;-1.0992431640625;-0.472076416015625;0.279999999293068;29;1 A;
95.4780157589412;-1.0992431640625;-0.464569091796875;0.28999999926782;30;1 A;
95.4880157589159;-1.0992431640625;-0.455474853515625;0.299999999242573;31;1 A;
95.4980157588907;-1.09954833984375;-0.45037841796875;0.309999999217325;32;1 A;
95.5080157588654;-1.099853515625;-0.444183349609375;0.319999999192078;33;1 A;
95.5180157588402;-1.099853515625;-0.443084716796875;0.32999999916683;34;1 A;
95.5280157588149;-1.0992431640625;-0.434173583984375;0.339999999141583;35;1 A;
95.5380157587897;-1.09954833984375;-0.430419921875;0.349999999116335;36;1 A;
95.5480157587644;-1.099853515625;-0.420166015625;0.359999999091087;37;1 A;
95.5580157587392;-1.0992431640625;-0.419097900390625;0.36999999906584;38;1 A;
95.568015758714;-1.09954833984375;-0.41180419921875;0.379999999040592;39;1 A;
95.5780157586887;-1.09954833984375;-0.41033935546875;0.389999999015345;40;1 A;
95.5880157586635;-1.099853515625;-0.4049072265625;0.399999998990097;41;1 A;
95.5980157586382;-1.099853515625;-0.4007568359375;0.40999999896485;42;1 A;
95.608015758613;-1.09954833984375;-0.3946533203125;0.419999998939602;43;1 A;
95.6180157585877;-1.0992431640625;-0.3927001953125;0.429999998914354;44;1 A;
95.6280157585625;-1.09954833984375;-0.389129638671875;0.439999998889107;45;1 A;
95.6380157585372;-1.0992431640625;-0.390167236328125;0.449999998863859;46;1 A;
95.648015758512;-1.099853515625;-0.384552001953125;0.459999998838612;47;1 A;
95.6580157584867;-1.0992431640625;-0.3829345703125;0.469999998813364;48;1 A;
95.6680157584615;-1.0992431640625;-0.3748779296875;0.479999998788116;49;1 A;
95.6780157584362;-1.09954833984375;-0.37591552734375;0.489999998762869;50;1 A;
95.688015758411;-1.0992431640625;-0.371246337890625;0.499999998737621;51;1 A;
95.6980157583857;-1.099853515625;-0.37103271484375;0.509999998712374;52;1 A;
95.7080157583605;-1.09954833984375;-0.3671875;0.519999998687126;53;1 A;
95.7180157583352;-1.09954833984375;-0.364471435546875;0.529999998661879;54;1 A;
95.72801575831;-1.09954833984375;-0.359588623046875;0.539999998636631;55;1 A;
95.7380157582847;-1.09954833984375;-0.359100341796875;0.549999998611383;56;1 A;
95.7480157582595;-1.0992431640625;-0.357147216796875;0.559999998586136;57;1 A;
95.7580157582343;-1.09893798828125;-0.359375;0.569999998560888;58;1 A;
95.768015758209;-1.099853515625;-0.35540771484375;0.579999998535641;59;1 A;
95.7780157581838;-1.09954833984375;-0.35595703125;0.589999998510393;60;1 A;
95.7880157581585;-1.09954833984375;-0.348541259765625;0.599999998485146;61;1 A;
95.7980157581333;-1.10015869140625;-0.350341796875;0.609999998459898;62;1 A;
95.808015758108;-1.09954833984375;-0.346466064453125;0.61999999843465;63;1 A;
95.8180157580828;-1.0992431640625;-0.347625732421875;0.629999998409403;64;1 A;
95.8280157580575;-1.09954833984375;-0.34521484375;0.639999998384155;65;1 A;
95.8380157580323;-1.0992431640625;-0.343231201171875;0.649999998358908;66;1 A;
95.848015758007;-1.09954833984375;-0.339691162109375;0.65999999833366;67;1 A;
95.8580157579818;-1.09954833984375;-0.339691162109375;0.669999998308413;68;1 A;
95.8680157579565;-1.09954833984375;-0.338226318359375;0.679999998283165;69;1 A;
95.8780157579313;-1.09954833984375;-0.34039306640625;0.689999998257917;70;1 A;
95.888015757906;-1.09954833984375;-0.3375244140625;0.69999999823267;71;1 A;
95.8980157578808;-1.0992431640625;-0.3369140625;0.709999998207422;72;1 A;
95.9080157578555;-1.09954833984375;-0.332611083984375;0.719999998182175;73;1 A;
95.9180157578303;-1.09954833984375;-0.333984375;0.729999998156927;74;1 A;
95.928015757805;-1.10015869140625;-0.330413818359375;0.73999999813168;75;1 A;
95.9380157577798;-1.09893798828125;-0.331787109375;0.749999998106432;76;1 A;
95.9480157577545;-1.099853515625;-0.329620361328125;0.759999998081184;77;1 A;
95.9580157577293;-1.09954833984375;-0.329254150390625;0.769999998055937;78;1 A;
95.9680157577041;-1.099853515625;-0.32574462890625;0.779999998030689;79;1 A;
95.9780157576788;-1.099853515625;-0.3250732421875;0.789999998005442;80;1 A;
95.9880157576536;-1.09954833984375;-0.325531005859375;0.799999997980194;81;1 A;
95.9980157576283;-1.09954833984375;-0.32769775390625;0.809999997954947;82;1 A;
96.0080157576031;-1.0992431640625;-0.323638916015625;0.819999997929699;83;1 A;
96.0180157575778;-1.09893798828125;-0.3248291015625;0.829999997904451;84;1 A;
96.0280157575526;-1.0992431640625;-0.31988525390625;0.839999997879204;85;1 A;
96.0380157575273;-1.09954833984375;-0.32080078125;0.849999997853956;86;1 A;
96.0480157575021;-1.09954833984375;-0.319366455078125;0.859999997828709;87;1 A;
96.0580157574768;-1.09954833984375;-0.32037353515625;0.869999997803461;88;1 A;
96.0680157574516;-1.09954833984375;-0.31842041015625;0.879999997778214;89;1 A;
96.0780157574263;-1.0992431640625;-0.31732177734375;0.889999997752966;90;1 A;
96.0880157574011;-1.09954833984375;-0.315643310546875;0.899999997727718;91;1 A;
96.0980157573758;-1.0986328125;-0.314239501953125;0.909999997702471;92;1 A;
96.1080157573506;-1.0992431640625;-0.31463623046875;0.919999997677223;93;1 A;
96.1180157573253;-1.0992431640625;-0.317169189453125;0.929999997651976;94;1 A;
96.1280157573001;-1.09893798828125;-0.313690185546875;0.939999997626728;95;1 A;
96.1380157572748;-1.09893798828125;-0.315216064453125;0.949999997601481;96;1 A;
96.1480157572496;-1.0992431640625;-0.30908203125;0.959999997576233;97;1 A;
96.1580157572243;-1.10015869140625;-0.311737060546875;0.969999997550985;98;1 A;
96.1680157571991;-1.09954833984375;-0.309326171875;0.979999997525738;99;1 A;
96.1780157571739;-1.09954833984375;-0.31121826171875;0.98999999750049;100;1 A;
96.1880157571486;-1.09954833984375;-0.31036376953125;0.999999997475243;101;1 A;
96.1980157571234;-1.09954833984375;-0.309600830078125;1.00999999745;102;1 A;
96.2080157570981;-1.09954833984375;-0.30657958984375;1.01999999742475;103;1 A;
96.2180157570729;-1.0992431640625;-0.307861328125;1.0299999973995;104;1 A;
96.2280157570476;-1.0992431640625;-0.307403564453125;1.03999999737425;105;1 A;
96.2380157570224;-1.09954833984375;-0.3106689453125;1.049999997349;106;1 A;
96.2480157569971;-1.09954833984375;-0.3082275390625;1.05999999732376;107;1 A;
96.2580157569719;-1.0992431640625;-0.3089599609375;1.06999999729851;108;1 A;
96.2680157569466;-1.099853515625;-0.30328369140625;1.07999999727326;109;1 A;
96.2780157569214;-1.099853515625;-0.307464599609375;1.08999999724801;110;1 A;
96.2880157568961;-1.09893798828125;-0.305145263671875;1.09999999722277;111;1 A;
96.2980157568709;-1.09954833984375;-0.30718994140625;1.10999999719752;112;1 A;
96.3080157568456;-1.0992431640625;-0.305877685546875;1.11999999717227;113;1 A;
96.3180157568204;-1.09954833984375;-0.305572509765625;1.12999999714702;114;1 A;
96.3280157567951;-1.0992431640625;-0.30230712890625;1.13999999712178;115;1 A;
96.3380157567699;-1.10015869140625;-0.30450439453125;1.14999999709653;116;1 A;
96.3480157567446;-1.0992431640625;-0.30303955078125;1.15999999707128;117;1 A;
96.3580157567194;-1.09954833984375;-0.30712890625;1.16999999704603;118;1 A;
96.3680157566941;-1.09954833984375;-0.303741455078125;1.17999999702079;119;1 A;
96.3780157566689;-1.0986328125;-0.306060791015625;1.18999999699554;120;1 A;
96.3880157566437;-1.099853515625;-0.299163818359375;1.19999999697029;121;1 A;
96.3980157566184;-1.0992431640625;-0.30340576171875;1.20999999694504;122;1 A;
96.4080157565932;-1.0992431640625;-0.29974365234375;1.2199999969198;123;1 A;
96.4180157565679;-1.09954833984375;-0.30267333984375;1.22999999689455;124;1 A;
96.4280157565427;-1.0992431640625;-0.301025390625;1.2399999968693;125;1 A;
96.4380157565174;-1.09954833984375;-0.30035400390625;1.24999999684405;126;1 A;
96.4480157564922;-1.0992431640625;-0.29730224609375;1.25999999681881;127;1 A;
96.4580157564669;-1.09954833984375;-0.299560546875;1.26999999679356;128;1 A;
96.4680157564417;-1.0992431640625;-0.297882080078125;1.27999999676831;129;1 A;
96.4780157564164;-1.0992431640625;-0.301361083984375;1.28999999674306;130;1 A;
96.4880157563912;-1.09954833984375;-0.298614501953125;1.29999999671782;131;1 A;
96.4980157563659;-1.09954833984375;-0.2991943359375;1.30999999669257;132;1 A;
96.5080157563407;-1.099853515625;-0.295074462890625;1.31999999666732;133;1 A;
96.5180157563154;-1.099853515625;-0.29779052734375;1.32999999664207;134;1 A;
96.5280157562902;-1.09954833984375;-0.29559326171875;1.33999999661683;135;1 A;
96.5380157562649;-1.0992431640625;-0.297515869140625;1.34999999659158;136;1 A;
96.5480157562397;-1.09893798828125;-0.297332763671875;1.35999999656633;137;1 A;
96.5580157562144;-1.09954833984375;-0.296966552734375;1.36999999654108;138;1 A;
96.5680157561892;-1.09954833984375;-0.29486083984375;1.37999999651583;139;1 A;
96.5780157561639;-1.09954833984375;-0.2943115234375;1.38999999649059;140;1 A;
96.5880157561387;-1.0992431640625;-0.29638671875;1.39999999646534;141;1 A;
96.5980157561135;-1.099853515625;-0.299072265625;1.40999999644009;142;1 A;
96.6080157560882;-1.09954833984375;-0.295623779296875;1.41999999641484;143;1 A;
96.618015756063;-1.0992431640625;-0.2979736328125;1.4299999963896;144;1 A;
96.6280157560377;-1.099853515625;-0.29266357421875;1.43999999636435;145;1 A;
96.6380157560125;-1.0992431640625;-0.294158935546875;1.4499999963391;146;1 A;
96.6480157559872;-1.09954833984375;-0.29461669921875;1.45999999631385;147;1 A;
96.658015755962;-1.0992431640625;-0.2962646484375;1.46999999628861;148;1 A;
96.6680157559367;-1.099853515625;-0.295501708984375;1.47999999626336;149;1 A;
96.6780157559115;-1.0992431640625;-0.29437255859375;1.48999999623811;150;1 A;
96.6880157558862;-1.099853515625;-0.293853759765625;1.49999999621286;151;1 A;
96.698015755861;-1.09954833984375;-0.29205322265625;1.50999999618762;152;1 A;
96.7080157558357;-1.09893798828125;-0.29437255859375;1.51999999616237;153;1 A;
96.7180157558105;-1.099853515625;-0.29681396484375;1.52999999613712;154;1 A;
96.7280157557852;-1.09893798828125;-0.294097900390625;1.53999999611187;155;1 A;
96.73801575576;-1.0992431640625;-0.297576904296875;1.54999999608663;156;1 A;
96.7480157557347;-1.09954833984375;-0.29010009765625;1.55999999606138;157;1 A;
96.7580157557095;-1.0992431640625;-0.29437255859375;1.56999999603613;158;1 A;
96.7680157556842;-1.09954833984375;-0.2916259765625;1.57999999601088;159;1 A;
96.778015755659;-1.0992431640625;-0.295318603515625;1.58999999598564;160;1 A;
96.7880157556338;-1.0992431640625;-0.2939453125;1.59999999596039;161;1 A;
96.7980157556085;-1.09954833984375;-0.2950439453125;1.60999999593514;162;1 A;
96.8080157555833;-1.09954833984375;-0.290252685546875;1.61999999590989;163;1 A;
96.818015755558;-1.09954833984375;-0.293243408203125;1.62999999588465;164;1 A;
96.8280157555328;-1.09954833984375;-0.292724609375;1.6399999958594;165;1 A;
96.8380157555075;-1.099853515625;-0.29766845703125;1.64999999583415;166;1 A;
96.8480157554823;-1.09954833984375;-0.293670654296875;1.6599999958089;167;1 A;
96.858015755457;-1.09893798828125;-0.29583740234375;1.66999999578366;168;1 A;
96.8680157554318;-1.09954833984375;-0.288970947265625;1.67999999575841;169;1 A;
96.8780157554065;-1.09893798828125;-0.294586181640625;1.68999999573316;170;1 A;
96.8880157553813;-1.0992431640625;-0.291046142578125;1.69999999570791;171;1 A;
96.898015755356;-1.09954833984375;-0.29473876953125;1.70999999568267;172;1 A;
96.9080157553308;-1.0992431640625;-0.291778564453125;1.71999999565742;173;1 A;
96.9180157553055;-1.09893798828125;-0.293304443359375;1.72999999563217;174;1 A;
96.9280157552803;-1.0992431640625;-0.288421630859375;1.73999999560692;175;1 A;
96.938015755255;-1.09954833984375;-0.292633056640625;1.74999999558167;176;1 A;
96.9480157552298;-1.09954833984375;-0.290802001953125;1.75999999555643;177;1 A;
96.9580157552045;-1.099853515625;-0.296905517578125;1.76999999553118;178;1 A;
96.9680157551793;-1.09893798828125;-0.292022705078125;1.77999999550593;179;1 A;
96.978015755154;-1.0992431640625;-0.29571533203125;1.78999999548068;180;1 A;
96.9880157551288;-1.099853515625;-0.288726806640625;1.79999999545544;181;1 A;
96.9980157551036;-1.0992431640625;-0.293731689453125;1.80999999543019;182;1 A;
97.0080157550783;-1.099853515625;-0.290374755859375;1.81999999540494;183;1 A;
97.0180157550531;-1.09954833984375;-0.294708251953125;1.82999999537969;184;1 A;
97.0280157550278;-1.09954833984375;-0.29302978515625;1.83999999535445;185;1 A;
97.0380157550026;-1.09954833984375;-0.293701171875;1.8499999953292;186;1 A;
97.0480157549773;-1.099853515625;-0.29058837890625;1.85999999530395;187;1 A;
97.0580157549521;-1.0992431640625;-0.294097900390625;1.8699999952787;188;1 A;
97.0680157549268;-1.09954833984375;-0.29241943359375;1.87999999525346;189;1 A;
97.0780157549016;-1.09954833984375;-0.29815673828125;1.88999999522821;190;1 A;
97.0880157548763;-1.09954833984375;-0.293853759765625;1.89999999520296;191;1 A;
97.0980157548511;-1.09893798828125;-0.295379638671875;1.90999999517771;192;1 A;
97.1080157548258;-1.09954833984375;-0.2904052734375;1.91999999515247;193;1 A;
97.1180157548006;-1.09954833984375;-0.294464111328125;1.92999999512722;194;1 A;
97.1280157547753;-1.09954833984375;-0.29150390625;1.93999999510197;195;1 A;
97.1380157547501;-1.0992431640625;-0.295013427734375;1.94999999507672;196;1 A;
97.1480157547248;-1.09954833984375;-0.2945556640625;1.95999999505148;197;1 A;
97.1580157546996;-1.0992431640625;-0.294036865234375;1.96999999502623;198;1 A;
97.1680157546743;-1.0992431640625;-0.292724609375;1.97999999500098;199;1 A;
97.1780157546491;-1.0992431640625;-0.291900634765625;1.98999999497573;200;1 A;
97.1880157546238;-1.0992431640625;-0.293731689453125;1.99999999495049;201;1 A;
97.1980157545986;-1.09954833984375;-0.29754638671875;2.00999999492524;202;1 A;
97.2080157545734;-1.09893798828125;-0.292694091796875;2.01999999489999;203;1 A;
97.2180157545481;-1.09954833984375;-0.295135498046875;2.02999999487474;204;1 A;
97.2280157545229;-1.09893798828125;-0.289215087890625;2.0399999948495;205;1 A;
97.2380157544976;-1.0992431640625;-0.290985107421875;2.04999999482425;206;1 A;
97.2480157544724;-1.099853515625;-0.29095458984375;2.059999994799;207;1 A;
97.2580157544471;-1.0992431640625;-0.2930908203125;2.06999999477375;208;1 A;
97.2680157544219;-1.09954833984375;-0.292022705078125;2.0799999947485;209;1 A;
97.2780157543966;-1.09893798828125;-0.29022216796875;2.08999999472326;210;1 A;
97.2880157543714;-1.0992431640625;-0.290374755859375;2.09999999469801;211;1 A;
97.2980157543461;-1.09954833984375;-0.28759765625;2.10999999467276;212;1 A;
97.3080157543209;-1.10015869140625;-0.29010009765625;2.11999999464751;213;1 A;
97.3180157542956;-1.09954833984375;-0.292877197265625;2.12999999462227;214;1 A;
97.3280157542704;-1.09954833984375;-0.290618896484375;2.13999999459702;215;1 A;
97.3380157542451;-1.09954833984375;-0.293365478515625;2.14999999457177;216;1 A;
97.3480157542199;-1.09954833984375;-0.2855224609375;2.15999999454652;217;1 A;
97.3580157541946;-1.0992431640625;-0.28955078125;2.16999999452128;218;1 A;
97.3680157541694;-1.0992431640625;-0.287445068359375;2.17999999449603;219;1 A;
97.3780157541441;-1.0992431640625;-0.29144287109375;2.18999999447078;220;1 A;
97.3880157541189;-1.09954833984375;-0.29058837890625;2.19999999444553;221;1 A;
97.3980157540936;-1.09893798828125;-0.290679931640625;2.20999999442029;222;1 A;
97.4080157540684;-1.09954833984375;-0.286346435546875;2.21999999439504;223;1 A;
97.4180157540432;-1.0992431640625;-0.28997802734375;2.22999999436979;224;1 A;
97.4280157540179;-1.099853515625;-0.289581298828125;2.23999999434454;225;1 A;
97.4380157539927;-1.09954833984375;-0.294708251953125;2.2499999943193;226;1 A;
97.4480157539674;-1.0992431640625;-0.29205322265625;2.25999999429405;227;1 A;
97.4580157539422;-1.09954833984375;-0.2933349609375;2.2699999942688;228;1 A;
97.4680157539169;-1.099853515625;-0.286651611328125;2.27999999424355;229;1 A;
97.4780157538917;-1.09954833984375;-0.29254150390625;2.28999999421831;230;1 A;
97.4880157538664;-1.0992431640625;-0.289642333984375;2.29999999419306;231;1 A;
97.4980157538412;-1.09954833984375;-0.29345703125;2.30999999416781;232;1 A;
97.5080157538159;-1.0992431640625;-0.29156494140625;2.31999999414256;233;1 A;
97.5180157537907;-1.0992431640625;-0.2930908203125;2.32999999411732;234;1 A;
97.5280157537654;-1.0992431640625;-0.28753662109375;2.33999999409207;235;1 A;
97.5380157537402;-1.09954833984375;-0.292510986328125;2.34999999406682;236;1 A;
97.5480157537149;-1.0992431640625;-0.2906494140625;2.35999999404157;237;1 A;
97.5580157536897;-1.10015869140625;-0.296783447265625;2.36999999401633;238;1 A;
97.5680157536644;-1.099853515625;-0.29144287109375;2.37999999399108;239;1 A;
97.5780157536392;-1.0992431640625;-0.294769287109375;2.38999999396583;240;1 A;
97.5880157536139;-1.09954833984375;-0.28668212890625;2.39999999394058;241;1 A;
97.5980157535887;-1.09954833984375;-0.292266845703125;2.40999999391533;242;1 A;
97.6080157535634;-1.09954833984375;-0.289276123046875;2.41999999389009;243;1 A;
97.6180157535382;-1.09954833984375;-0.293609619140625;2.42999999386484;244;1 A;
97.628015753513;-1.09954833984375;-0.2916259765625;2.43999999383959;245;1 A;
97.6380157534877;-1.09954833984375;-0.292755126953125;2.44999999381434;246;1 A;
97.6480157534625;-1.099853515625;-0.288604736328125;2.4599999937891;247;1 A;
97.6580157534372;-1.09954833984375;-0.292572021484375;2.46999999376385;248;1 A;
97.668015753412;-1.09954833984375;-0.291107177734375;2.4799999937386;249;1 A;
97.6780157533867;-1.09954833984375;-0.297393798828125;2.48999999371335;250;1 A;
97.6880157533615;-1.09954833984375;-0.2921142578125;2.49999999368811;251;1 A;
97.6980157533362;-1.099853515625;-0.295196533203125;2.50999999366286;252;1 A;
97.708015753311;-1.09954833984375;-0.2880859375;2.51999999363761;253;1 A;
97.7180157532857;-1.099853515625;-0.2945556640625;2.52999999361236;254;1 A;
97.7280157532605;-1.09954833984375;-0.2906494140625;2.53999999358712;255;1 A;
97.7380157532352;-1.09893798828125;-0.295257568359375;2.54999999356187;256;1 A;
97.74801575321;-1.09954833984375;-0.294097900390625;2.55999999353662;257;1 A;
97.7580157531847;-1.0992431640625;-0.294708251953125;2.56999999351137;258;1 A;
97.7680157531595;-1.0992431640625;-0.293182373046875;2.57999999348613;259;1 A;
97.7780157531342;-1.099853515625;-0.2945556640625;2.58999999346088;260;1 A;
97.788015753109;-1.099853515625;-0.295501708984375;2.59999999343563;261;1 A;
97.7980157530837;-1.099853515625;-0.300567626953125;2.60999999341038;262;1 A;
97.8080157530585;-1.09954833984375;-0.295440673828125;2.61999999338514;263;1 A;
97.8180157530333;-1.0992431640625;-0.298858642578125;2.62999999335989;264;1 A;
97.828015753008;-1.09893798828125;-0.291107177734375;2.63999999333464;265;1 A;
97.8380157529828;-1.09954833984375;-0.295257568359375;2.64999999330939;266;1 A;
97.8480157529575;-1.09954833984375;-0.2947998046875;2.65999999328415;267;1 A;
97.8580157529323;-1.099853515625;-0.29815673828125;2.6699999932589;268;1 A;
97.868015752907;-1.09954833984375;-0.296875;2.67999999323365;269;1 A;
97.8780157528818;-1.09954833984375;-0.296478271484375;2.6899999932084;270;1 A;
97.8880157528565;-1.09954833984375;-0.295318603515625;2.69999999318316;271;1 A;
97.8980157528313;-1.0992431640625;-0.294708251953125;2.70999999315791;272;1 A;
97.908015752806;-1.0992431640625;-0.297149658203125;2.71999999313266;273;1 A;
97.9180157527808;-1.0992431640625;-0.301300048828125;2.72999999310741;274;1 A;
97.9280157527555;-1.0992431640625;-0.298187255859375;2.73999999308217;275;1 A;
97.9380157527303;-1.09954833984375;-0.30181884765625;2.74999999305692;276;1 A;
97.948015752705;-1.0992431640625;-0.29229736328125;2.75999999303167;277;1 A;
97.9580157526798;-1.0992431640625;-0.297027587890625;2.76999999300642;278;1 A;
97.9680157526545;-1.099853515625;-0.294464111328125;2.77999999298117;279;1 A;
97.9780157526293;-1.099853515625;-0.29937744140625;2.78999999295593;280;1 A;
97.988015752604;-1.0992431640625;-0.29803466796875;2.79999999293068;281;1 A;
97.9980157525788;-1.0992431640625;-0.29888916015625;2.80999999290543;282;1 A;
98.0080157525535;-1.0992431640625;-0.293914794921875;2.81999999288018;283;1 A;
98.0180157525283;-1.09954833984375;-0.29730224609375;2.82999999285494;284;1 A;
98.0280157525031;-1.099853515625;-0.2969970703125;2.83999999282969;285;1 A;
98.0380157524778;-1.10015869140625;-0.302154541015625;2.84999999280444;286;1 A;
98.0480157524526;-1.099853515625;-0.298187255859375;2.85999999277919;287;1 A;
98.0580157524273;-1.0992431640625;-0.300140380859375;2.86999999275395;288;1 A;
98.0680157524021;-1.09954833984375;-0.2933349609375;2.8799999927287;289;1 A;
98.0780157523768;-1.09893798828125;-0.299102783203125;2.88999999270345;290;1 A;
98.0880157523516;-1.0992431640625;-0.29547119140625;2.8999999926782;291;1 A;
98.0980157523263;-1.09832763671875;-0.299896240234375;2.90999999265296;292;1 A;
98.1080157523011;-1.099853515625;-0.29779052734375;2.91999999262771;293;1 A;
98.1180157522758;-1.099853515625;-0.30047607421875;2.92999999260246;294;1 A;
98.1280157522506;-1.09954833984375;-0.294708251953125;2.93999999257721;295;1 A;
98.1380157522253;-1.09954833984375;-0.299407958984375;2.94999999255197;296;1 A;
98.1480157522001;-1.09893798828125;-0.29986572265625;2.95999999252672;297;1 A;
98.1580157521748;-1.0992431640625;-0.3052978515625;2.96999999250147;298;1 A;
98.1680157521496;-1.0992431640625;-0.29998779296875;2.97999999247622;299;1 A;
98.1780157521243;-1.0992431640625;-0.304473876953125;2.98999999245098;300;1 A;
98.1880157520991;-1.0992431640625;-0.296295166015625;2.99999999242573;301;1 A;
98.1980157520738;-1.09954833984375;-0.3016357421875;3.00999999240048;302;1 A;
98.2080157520486;-1.0992431640625;-0.29962158203125;3.01999999237523;303;1 A;
98.2180157520233;-1.0992431640625;-0.304412841796875;3.02999999234999;304;1 A;
98.2280157519981;-1.09954833984375;-0.302825927734375;3.03999999232474;305;1 A;
98.2380157519729;-1.09954833984375;-0.304168701171875;3.04999999229949;306;1 A;
98.2480157519476;-1.0992431640625;-0.300933837890625;3.05999999227424;307;1 A;
98.2580157519224;-1.09893798828125;-0.303741455078125;3.069999992249;308;1 A;
98.2680157518971;-1.09954833984375;-0.30426025390625;3.07999999222375;309;1 A;
98.2780157518719;-1.09954833984375;-0.31036376953125;3.0899999921985;310;1 A;
98.2880157518466;-1.099853515625;-0.304290771484375;3.09999999217325;311;1 A;
98.2980157518214;-1.099853515625;-0.30731201171875;3.109999992148;312;1 A;
98.3080157517961;-1.10015869140625;-0.299102783203125;3.11999999212276;313;1 A;
98.3180157517709;-1.0992431640625;-0.30462646484375;3.12999999209751;314;1 A;
98.3280157517456;-1.09954833984375;-0.301239013671875;3.13999999207226;315;1 A;
98.3380157517204;-1.0992431640625;-0.30548095703125;3.14999999204701;316;1 A;
98.3480157516951;-1.09954833984375;-0.304840087890625;3.15999999202177;317;1 A;
98.3580157516699;-1.09954833984375;-0.304168701171875;3.16999999199652;318;1 A;
98.3680157516446;-1.0992431640625;-0.302093505859375;3.17999999197127;319;1 A;
98.3780157516194;-1.09954833984375;-0.303070068359375;3.18999999194602;320;1 A;
98.3880157515941;-1.09954833984375;-0.303802490234375;3.19999999192078;321;1 A;
98.3980157515689;-1.099853515625;-0.30816650390625;3.20999999189553;322;1 A;
98.4080157515436;-1.0992431640625;-0.30316162109375;3.21999999187028;323;1 A;
98.4180157515184;-1.09954833984375;-0.305511474609375;3.22999999184503;324;1 A;
98.4280157514931;-1.09954833984375;-0.29638671875;3.23999999181979;325;1 A;
98.4380157514679;-1.0992431640625;-0.301177978515625;3.24999999179454;326;1 A;
98.4480157514427;-1.099853515625;-0.299835205078125;3.25999999176929;327;1 A;
98.4580157514174;-1.0992431640625;-0.30230712890625;3.26999999174404;328;1 A;
98.4680157513922;-1.0992431640625;-0.302001953125;3.2799999917188;329;1 A;
98.4780157513669;-1.0992431640625;-0.30035400390625;3.28999999169355;330;1 A;
98.4880157513417;-1.09954833984375;-0.298187255859375;3.2999999916683;331;1 A;
98.4980157513164;-1.10015869140625;-0.298583984375;3.30999999164305;332;1 A;
98.5080157512912;-1.0986328125;-0.299407958984375;3.31999999161781;333;1 A;
98.5180157512659;-1.0992431640625;-0.30364990234375;3.32999999159256;334;1 A;
98.5280157512407;-1.09954833984375;-0.30047607421875;3.33999999156731;335;1 A;
98.5380157512154;-1.0992431640625;-0.303741455078125;3.34999999154206;336;1 A;
98.5480157511902;-1.0992431640625;-0.29315185546875;3.35999999151682;337;1 A;
98.5580157511649;-1.0992431640625;-0.29876708984375;3.36999999149157;338;1 A;
98.5680157511397;-1.099853515625;-0.29486083984375;3.37999999146632;339;1 A;
98.5780157511144;-1.09954833984375;-0.299407958984375;3.38999999144107;340;1 A;
98.5880157510892;-1.09954833984375;-0.298553466796875;3.39999999141583;341;1 A;
98.5980157510639;-1.0992431640625;-0.2982177734375;3.40999999139058;342;1 A;
98.6080157510387;-1.09954833984375;-0.2943115234375;3.41999999136533;343;1 A;
98.6180157510134;-1.09954833984375;-0.297821044921875;3.42999999134008;344;1 A;
98.6280157509882;-1.0992431640625;-0.297088623046875;3.43999999131483;345;1 A;
98.6380157509629;-1.09954833984375;-0.30120849609375;3.44999999128959;346;1 A;
98.6480157509377;-1.0992431640625;-0.29833984375;3.45999999126434;347;1 A;
98.6580157509125;-1.09954833984375;-0.29888916015625;3.46999999123909;348;1 A;
98.6680157508872;-1.099853515625;-0.29254150390625;3.47999999121384;349;1 A;
98.678015750862;-1.09954833984375;-0.297943115234375;3.4899999911886;350;1 A;
98.6880157508367;-1.0992431640625;-0.2940673828125;3.49999999116335;351;1 A;
98.6980157508115;-1.09893798828125;-0.29827880859375;3.5099999911381;352;1 A;
98.7080157507862;-1.09893798828125;-0.297393798828125;3.51999999111285;353;1 A;
98.718015750761;-1.09954833984375;-0.29913330078125;3.52999999108761;354;1 A;
98.7280157507357;-1.10015869140625;-0.29339599609375;3.53999999106236;355;1 A;
98.7380157507105;-1.0992431640625;-0.297454833984375;3.54999999103711;356;1 A;
98.7480157506852;-1.09954833984375;-0.298797607421875;3.55999999101186;357;1 A;
98.75801575066;-1.099853515625;-0.30377197265625;3.56999999098662;358;1 A;
98.7680157506347;-1.0992431640625;-0.298309326171875;3.57999999096137;359;1 A;
98.7780157506095;-1.0992431640625;-0.3018798828125;3.58999999093612;360;1 A;
98.7880157505842;-1.09893798828125;-0.2930908203125;3.59999999091087;361;1 A;
98.798015750559;-1.099853515625;-0.297515869140625;3.60999999088563;362;1 A;
98.8080157505337;-1.0992431640625;-0.296112060546875;3.61999999086038;363;1 A;
98.8180157505085;-1.09954833984375;-0.300201416015625;3.62999999083513;364;1 A;
98.8280157504832;-1.09954833984375;-0.298309326171875;3.63999999080988;365;1 A;
98.838015750458;-1.09954833984375;-0.2987060546875;3.64999999078464;366;1 A;
98.8480157504328;-1.099853515625;-0.295257568359375;3.65999999075939;367;1 A;
98.8580157504075;-1.0992431640625;-0.297332763671875;3.66999999073414;368;1 A;
98.8680157503823;-1.0992431640625;-0.298309326171875;3.67999999070889;369;1 A;
98.878015750357;-1.099853515625;-0.304412841796875;3.68999999068365;370;1 A;
98.8880157503318;-1.099853515625;-0.298004150390625;3.6999999906584;371;1 A;
98.8980157503065;-1.09954833984375;-0.302642822265625;3.70999999063315;372;1 A;
98.9080157502813;-1.09893798828125;-0.291595458984375;3.7199999906079;373;1 A;
98.918015750256;-1.09954833984375;-0.298919677734375;3.72999999058266;374;1 A;
98.9280157502308;-1.099853515625;-0.29510498046875;3.73999999055741;375;1 A;
98.9380157502055;-1.09954833984375;-0.30059814453125;3.74999999053216;376;1 A;
98.9480157501803;-1.0992431640625;-0.299224853515625;3.75999999050691;377;1 A;
98.958015750155;-1.09954833984375;-0.300994873046875;3.76999999048167;378;1 A;
98.9680157501298;-1.09954833984375;-0.296539306640625;3.77999999045642;379;1 A;
98.9780157501045;-1.09954833984375;-0.300689697265625;3.78999999043117;380;1 A;
98.9880157500793;-1.09954833984375;-0.300811767578125;3.79999999040592;381;1 A;
98.998015750054;-1.10015869140625;-0.30706787109375;3.80999999038067;382;1 A;
99.0080157500288;-1.099853515625;-0.301239013671875;3.81999999035543;383;1 A;
99.0180157500035;-1.0992431640625;-0.304962158203125;3.82999999033018;384;1 A;
99.0280157499783;-1.0992431640625;-0.294708251953125;3.83999999030493;385;1 A;
99.038015749953;-1.0992431640625;-0.30303955078125;3.84999999027968;386;1 A;
99.0480157499278;-1.099853515625;-0.299957275390625;3.85999999025444;387;1 A;
99.0580157499026;-1.09893798828125;-0.304595947265625;3.86999999022919;388;1 A;
99.0680157498773;-1.09954833984375;-0.3038330078125;3.87999999020394;389;1 A;
99.0780157498521;-1.0992431640625;-0.304840087890625;3.88999999017869;390;1 A;
99.0880157498268;-1.0992431640625;-0.300506591796875;3.89999999015345;391;1 A;
99.0980157498016;-1.09954833984375;-0.304901123046875;3.9099999901282;392;1 A;
99.1080157497763;-1.09954833984375;-0.304473876953125;3.91999999010295;393;1 A;
99.1180157497511;-1.0992431640625;-0.310638427734375;3.9299999900777;394;1 A;
99.1280157497258;-1.10015869140625;-0.305816650390625;3.93999999005246;395;1 A;
99.1380157497006;-1.099853515625;-0.310455322265625;3.94999999002721;396;1 A;
99.1480157496753;-1.0992431640625;-0.2989501953125;3.95999999000196;397;1 A;
99.1580157496501;-1.09954833984375;-0.30633544921875;3.96999998997671;398;1 A;
99.1680157496248;-1.0992431640625;-0.301727294921875;3.97999998995147;399;1 A;
99.1780157495996;-1.09954833984375;-0.307464599609375;3.98999998992622;400;1 A;
99.1880157495743;-1.0992431640625;-0.306640625;3.99999998990097;401;1 A;
99.1980157495491;-1.09954833984375;-0.30657958984375;4.00999998987572;402;1 A;
99.2080157495238;-1.0992431640625;-0.30328369140625;4.01999998985048;403;1 A;
99.2180157494986;-1.09954833984375;-0.30712890625;4.02999998982523;404;1 A;
99.2280157494733;-1.09954833984375;-0.30645751953125;4.03999998979998;405;1 A;
99.2380157494481;-1.0992431640625;-0.3115234375;4.04999998977473;406;1 A;
99.2480157494228;-1.0992431640625;-0.308013916015625;4.05999998974949;407;1 A;
99.2580157493976;-1.09954833984375;-0.309417724609375;4.06999998972424;408;1 A;
99.2680157493724;-1.09954833984375;-0.303466796875;4.07999998969899;409;1 A;
99.2780157493471;-1.09893798828125;-0.307769775390625;4.08999998967374;410;1 A;
99.2880157493219;-1.09954833984375;-0.30438232421875;4.0999999896485;411;1 A;
99.2980157492966;-1.09954833984375;-0.307952880859375;4.10999998962325;412;1 A;
99.3080157492714;-1.09954833984375;-0.30804443359375;4.119999989598;413;1 A;
99.3180157492461;-1.09954833984375;-0.308746337890625;4.12999998957275;414;1 A;
99.3280157492209;-1.09893798828125;-0.304931640625;4.1399999895475;415;1 A;
99.3380157491956;-1.09893798828125;-0.3057861328125;4.14999998952226;416;1 A;
99.3480157491704;-1.0992431640625;-0.310455322265625;4.15999998949701;417;1 A;
99.3580157491451;-1.09954833984375;-0.314300537109375;4.16999998947176;418;1 A;
99.3680157491199;-1.09954833984375;-0.308258056640625;4.17999998944651;419;1 A;
99.3780157490946;-1.09954833984375;-0.31195068359375;4.18999998942127;420;1 A;
99.3880157490694;-1.0992431640625;-0.303955078125;4.19999998939602;421;1 A;
99.3980157490441;-1.10015869140625;-0.306243896484375;4.20999998937077;422;1 A;
99.4080157490189;-1.099853515625;-0.30767822265625;4.21999998934552;423;1 A;
99.4180157489936;-1.0992431640625;-0.3104248046875;4.22999998932028;424;1 A;
99.4280157489684;-1.10015869140625;-0.310546875;4.23999998929503;425;1 A;
99.4380157489431;-1.09954833984375;-0.308868408203125;4.24999998926978;426;1 A;
99.4480157489179;-1.09954833984375;-0.308837890625;4.25999998924453;427;1 A;
99.4580157488926;-1.09954833984375;-0.306671142578125;4.26999998921929;428;1 A;
99.4680157488674;-1.09954833984375;-0.311309814453125;4.27999998919404;429;1 A;
99.4780157488422;-1.0992431640625;-0.315093994140625;4.28999998916879;430;1 A;
99.4880157488169;-1.09954833984375;-0.310028076171875;4.29999998914354;431;1 A;
99.4980157487917;-1.09954833984375;-0.314971923828125;4.3099999891183;432;1 A;
99.5080157487664;-1.099853515625;-0.303070068359375;4.31999998909305;433;1 A;
99.5180157487412;-1.09954833984375;-0.309844970703125;4.3299999890678;434;1 A;
99.5280157487159;-1.09954833984375;-0.307037353515625;4.33999998904255;435;1 A;
99.5380157486907;-1.0992431640625;-0.311676025390625;4.34999998901731;436;1 A;
99.5480157486654;-1.09893798828125;-0.3115234375;4.35999998899206;437;1 A;
99.5580157486402;-1.0992431640625;-0.312225341796875;4.36999998896681;438;1 A;
99.5680157486149;-1.0992431640625;-0.306854248046875;4.37999998894156;439;1 A;
99.5780157485897;-1.10015869140625;-0.311798095703125;4.38999998891632;440;1 A;
99.5880157485644;-1.099853515625;-0.312957763671875;4.39999998889107;441;1 A;
99.5980157485392;-1.09954833984375;-0.31878662109375;4.40999998886582;442;1 A;
99.6080157485139;-1.09954833984375;-0.3135986328125;4.41999998884057;443;1 A;
99.6180157484887;-1.09954833984375;-0.316375732421875;4.42999998881533;444;1 A;
99.6280157484634;-1.09954833984375;-0.305694580078125;4.43999998879008;445;1 A;
99.6380157484382;-1.0992431640625;-0.314727783203125;4.44999998876483;446;1 A;
99.6480157484129;-1.099853515625;-0.311309814453125;4.45999998873958;447;1 A;
99.6580157483877;-1.09954833984375;-0.315460205078125;4.46999998871433;448;1 A;
99.6680157483624;-1.09954833984375;-0.313720703125;4.47999998868909;449;1 A;
99.6780157483372;-1.09954833984375;-0.31475830078125;4.48999998866384;450;1 A;
99.688015748312;-1.099853515625;-0.308502197265625;4.49999998863859;451;1 A;
99.6980157482867;-1.0992431640625;-0.315155029296875;4.50999998861334;452;1 A;
99.7080157482615;-1.09954833984375;-0.31329345703125;4.5199999885881;453;1 A;
99.7180157482362;-1.09954833984375;-0.320587158203125;4.52999998856285;454;1 A;
99.728015748211;-1.099853515625;-0.31561279296875;4.5399999885376;455;1 A;
99.7380157481857;-1.09954833984375;-0.319915771484375;4.54999998851235;456;1 A;
99.7480157481605;-1.09954833984375;-0.30828857421875;4.55999998848711;457;1 A;
99.7580157481352;-1.10015869140625;-0.315826416015625;4.56999998846186;458;1 A;
99.76801574811;-1.099853515625;-0.311370849609375;4.57999998843661;459;1 A;
99.7780157480847;-1.10015869140625;-0.316864013671875;4.58999998841136;460;1 A;
99.7880157480595;-1.0992431640625;-0.31671142578125;4.59999998838612;461;1 A;
99.7980157480342;-1.0992431640625;-0.316375732421875;4.60999998836087;462;1 A;
99.808015748009;-1.09954833984375;-0.31207275390625;4.61999998833562;463;1 A;
99.8180157479837;-1.0992431640625;-0.31756591796875;4.62999998831037;464;1 A;
99.8280157479585;-1.09954833984375;-0.315032958984375;4.63999998828513;465;1 A;
99.8380157479332;-1.09954833984375;-0.320831298828125;4.64999998825988;466;1 A;
99.848015747908;-1.09954833984375;-0.316009521484375;4.65999998823463;467;1 A;
99.8580157478827;-1.09893798828125;-0.318084716796875;4.66999998820938;468;1 A;
99.8680157478575;-1.09954833984375;-0.31109619140625;4.67999998818414;469;1 A;
99.8780157478323;-1.0992431640625;-0.31610107421875;4.68999998815889;470;1 A;
99.888015747807;-1.0992431640625;-0.312896728515625;4.69999998813364;471;1 A;
99.8980157477818;-1.09893798828125;-0.3160400390625;4.70999998810839;472;1 A;
99.9080157477565;-1.09954833984375;-0.316375732421875;4.71999998808315;473;1 A;
99.9180157477313;-1.09893798828125;-0.3155517578125;4.7299999880579;474;1 A;
99.928015747706;-1.09954833984375;-0.31304931640625;4.73999998803265;475;1 A;
99.9380157476808;-1.099853515625;-0.313232421875;4.7499999880074;476;1 A;
99.9480157476555;-1.0992431640625;-0.317626953125;4.75999998798216;477;1 A;
99.9580157476303;-1.09954833984375;-0.32122802734375;4.76999998795691;478;1 A;
99.968015747605;-1.0992431640625;-0.314605712890625;4.77999998793166;479;1 A;
99.9780157475798;-1.09893798828125;-0.31878662109375;4.78999998790641;480;1 A;
99.9880157475545;-1.09893798828125;-0.308502197265625;4.79999998788116;481;1 A;
99.9980157475293;-1.099853515625;-0.312347412109375;4.80999998785592;482;1 A;
100.008015747504;-1.099853515625;-0.313720703125;4.81999998783067;483;1 A;
100.018015747479;-1.099853515625;-0.316558837890625;4.82999998780542;484;1 A;
100.028015747454;-1.09893798828125;-0.31549072265625;4.83999998778017;485;1 A;
100.038015747428;-1.099853515625;-0.314117431640625;4.84999998775493;486;1 A;
100.048015747403;-1.0992431640625;-0.3135986328125;4.85999998772968;487;1 A;
100.058015747378;-1.09954833984375;-0.311279296875;4.86999998770443;488;1 A;
100.068015747353;-1.09954833984375;-0.3160400390625;4.87999998767918;489;1 A;
100.078015747327;-1.09954833984375;-0.31982421875;4.88999998765394;490;1 A;
100.088015747302;-1.099853515625;-0.3133544921875;4.89999998762869;491;1 A;
100.098015747277;-1.09954833984375;-0.3187255859375;4.90999998760344;492;1 A;
100.108015747252;-1.10015869140625;-0.303436279296875;4.91999998757819;493;1 A;
100.118015747226;-1.09954833984375;-0.31097412109375;4.92999998755295;494;1 A;
100.128015747201;-1.099853515625;-0.306365966796875;4.9399999875277;495;1 A;
100.138015747176;-1.09954833984375;-0.31256103515625;4.94999998750245;496;1 A;
100.148015747151;-1.0992431640625;-0.30987548828125;4.9599999874772;497;1 A;
100.158015747125;-1.09954833984375;-0.311737060546875;4.96999998745196;498;1 A;
100.1680157471;-1.09954833984375;-0.3031005859375;4.97999998742671;499;1 A;
100.178015747075;-1.0992431640625;-0.309600830078125;4.98999998740146;500;1 A;
100.18801574705;-1.09893798828125;-0.30950927734375;4.99999998737621;501;1 A;
100.198015747024;-1.09893798828125;-0.31689453125;5.00999998735097;502;1 A;
100.208015746999;-1.0992431640625;-0.310150146484375;5.01999998732572;503;1 A;
100.218015746974;-1.0992431640625;-0.3134765625;5.02999998730047;504;1 A;
100.228015746949;-1.09954833984375;-0.30126953125;5.03999998727522;505;1 A;
100.238015746923;-1.099853515625;-0.310638427734375;5.04999998724998;506;1 A;
100.248015746898;-1.09954833984375;-0.305328369140625;5.05999998722473;507;1 A;
100.258015746873;-1.099853515625;-0.311431884765625;5.06999998719948;508;1 A;
100.268015746848;-1.09893798828125;-0.307647705078125;5.07999998717423;509;1 A;
100.278015746822;-1.0992431640625;-0.3106689453125;5.08999998714899;510;1 A;
100.288015746797;-1.0992431640625;-0.30242919921875;5.09999998712374;511;1 A;
100.298015746772;-1.099853515625;-0.309478759765625;5.10999998709849;512;1 A;
100.308015746747;-1.09954833984375;-0.306732177734375;5.11999998707324;513;1 A;
100.318015746721;-1.09954833984375;-0.31512451171875;5.129999987048;514;1 A;
100.328015746696;-1.09954833984375;-0.30706787109375;5.13999998702275;515;1 A;
100.338015746671;-1.1004638671875;-0.3125;5.1499999869975;516;1 A;
100.348015746646;-1.099853515625;-0.2991943359375;5.15999998697225;517;1 A;
100.35801574662;-1.099853515625;-0.306854248046875;5.169999986947;518;1 A;
100.368015746595;-1.09954833984375;-0.30078125;5.17999998692176;519;1 A;
100.37801574657;-1.09893798828125;-0.306640625;5.18999998689651;520;1 A;
100.388015746545;-1.099853515625;-0.304168701171875;5.19999998687126;521;1 A;
100.398015746519;-1.0992431640625;-0.3046875;5.20999998684601;522;1 A;
100.408015746494;-1.0992431640625;-0.2989501953125;5.21999998682077;523;1 A;
100.418015746469;-1.0992431640625;-0.304443359375;5.22999998679552;524;1 A;
100.428015746444;-1.09954833984375;-0.301910400390625;5.23999998677027;525;1 A;
100.438015746418;-1.099853515625;-0.309356689453125;5.24999998674502;526;1 A;
100.448015746393;-1.09893798828125;-0.3017578125;5.25999998671978;527;1 A;
100.458015746368;-1.09954833984375;-0.305908203125;5.26999998669453;528;1 A;
100.468015746343;-1.099853515625;-0.29766845703125;5.27999998666928;529;1 A;
100.478015746317;-1.09954833984375;-0.30438232421875;5.28999998664403;530;1 A;
100.488015746292;-1.09954833984375;-0.2989501953125;5.29999998661879;531;1 A;
100.498015746267;-1.0992431640625;-0.30438232421875;5.30999998659354;532;1 A;
100.508015746242;-1.0992431640625;-0.30340576171875;5.31999998656829;533;1 A;
100.518015746216;-1.0992431640625;-0.30242919921875;5.32999998654304;534;1 A;
100.528015746191;-1.09954833984375;-0.301544189453125;5.3399999865178;535;1 A;
100.538015746166;-1.09954833984375;-0.30084228515625;5.34999998649255;536;1 A;
100.548015746141;-1.09954833984375;-0.303985595703125;5.3599999864673;537;1 A;
100.558015746115;-1.09893798828125;-0.30926513671875;5.36999998644205;538;1 A;
100.56801574609;-1.099853515625;-0.302825927734375;5.37999998641681;539;1 A;
100.578015746065;-1.0992431640625;-0.306549072265625;5.38999998639156;540;1 A;
100.58801574604;-1.09954833984375;-0.296722412109375;5.39999998636631;541;1 A;
100.598015746014;-1.09954833984375;-0.30072021484375;5.40999998634106;542;1 A;
100.608015745989;-1.09954833984375;-0.301544189453125;5.41999998631582;543;1 A;
100.618015745964;-1.09954833984375;-0.3046875;5.42999998629057;544;1 A;
100.628015745939;-1.0992431640625;-0.3045654296875;5.43999998626532;545;1 A;
100.638015745913;-1.099853515625;-0.302276611328125;5.44999998624007;546;1 A;
100.648015745888;-1.099853515625;-0.302734375;5.45999998621483;547;1 A;
100.658015745863;-1.0992431640625;-0.299224853515625;5.46999998618958;548;1 A;
100.668015745838;-1.09954833984375;-0.303314208984375;5.47999998616433;549;1 A;
100.678015745812;-1.09954833984375;-0.30712890625;5.48999998613908;550;1 A;
100.688015745787;-1.099853515625;-0.30267333984375;5.49999998611383;551;1 A;
100.698015745762;-1.09954833984375;-0.307159423828125;5.50999998608859;552;1 A;
100.708015745737;-1.09954833984375;-0.292938232421875;5.51999998606334;553;1 A;
100.718015745711;-1.099853515625;-0.30023193359375;5.52999998603809;554;1 A;
100.728015745686;-1.09954833984375;-0.29620361328125;5.53999998601284;555;1 A;
100.738015745661;-1.09954833984375;-0.30206298828125;5.5499999859876;556;1 A;
100.748015745636;-1.09954833984375;-0.299560546875;5.55999998596235;557;1 A;
100.75801574561;-1.099853515625;-0.300628662109375;5.5699999859371;558;1 A;
100.768015745585;-1.099853515625;-0.292999267578125;5.57999998591185;559;1 A;
100.77801574556;-1.0992431640625;-0.29962158203125;5.58999998588661;560;1 A;
100.788015745535;-1.099853515625;-0.299102783203125;5.59999998586136;561;1 A;
100.798015745509;-1.0992431640625;-0.30462646484375;5.60999998583611;562;1 A;
100.808015745484;-1.09954833984375;-0.299774169921875;5.61999998581086;563;1 A;
100.818015745459;-1.0992431640625;-0.301483154296875;5.62999998578562;564;1 A;
100.828015745434;-1.09954833984375;-0.290618896484375;5.63999998576037;565;1 A;
100.838015745408;-1.099853515625;-0.299560546875;5.64999998573512;566;1 A;
100.848015745383;-1.09954833984375;-0.2952880859375;5.65999998570987;567;1 A;
100.858015745358;-1.0992431640625;-0.300872802734375;5.66999998568463;568;1 A;
100.868015745333;-1.099853515625;-0.298309326171875;5.67999998565938;569;1 A;
100.878015745307;-1.09954833984375;-0.30194091796875;5.68999998563413;570;1 A;
100.888015745282;-1.09954833984375;-0.292724609375;5.69999998560888;571;1 A;
100.898015745257;-1.0992431640625;-0.30029296875;5.70999998558364;572;1 A;
100.908015745232;-1.099853515625;-0.2989501953125;5.71999998555839;573;1 A;
100.918015745207;-1.09954833984375;-0.30657958984375;5.72999998553314;574;1 A;
100.928015745181;-1.099853515625;-0.299530029296875;5.73999998550789;575;1 A;
100.938015745156;-1.0992431640625;-0.30499267578125;5.74999998548265;576;1 A;
100.948015745131;-1.099853515625;-0.29205322265625;5.7599999854574;577;1 A;
100.958015745106;-1.099853515625;-0.30010986328125;5.76999998543215;578;1 A;
100.96801574508;-1.09954833984375;-0.296661376953125;5.7799999854069;579;1 A;
100.978015745055;-1.09954833984375;-0.302734375;5.78999998538166;580;1 A;
100.98801574503;-1.0992431640625;-0.301727294921875;5.79999998535641;581;1 A;
100.998015745005;-1.09954833984375;-0.30364990234375;5.80999998533116;582;1 A;
101.008015744979;-1.0992431640625;-0.2978515625;5.81999998530591;583;1 A;
101.018015744954;-1.099853515625;-0.30352783203125;5.82999998528066;584;1 A;
101.028015744929;-1.09954833984375;-0.30157470703125;5.83999998525542;585;1 A;
101.038015744904;-1.09954833984375;-0.309417724609375;5.84999998523017;586;1 A;
101.048015744878;-1.09954833984375;-0.30120849609375;5.85999998520492;587;1 A;
101.058015744853;-1.0992431640625;-0.306793212890625;5.86999998517967;588;1 A;
101.068015744828;-1.09954833984375;-0.296112060546875;5.87999998515443;589;1 A;
101.078015744803;-1.09954833984375;-0.305023193359375;5.88999998512918;590;1 A;
101.088015744777;-1.09954833984375;-0.29925537109375;5.89999998510393;591;1 A;
101.098015744752;-1.09954833984375;-0.305389404296875;5.90999998507868;592;1 A;
101.108015744727;-1.099853515625;-0.303619384765625;5.91999998505344;593;1 A;
101.118015744702;-1.099853515625;-0.304901123046875;5.92999998502819;594;1 A;
101.128015744676;-1.09954833984375;-0.302032470703125;5.93999998500294;595;1 A;
101.138015744651;-1.0992431640625;-0.304351806640625;5.94999998497769;596;1 A;
101.148015744626;-1.09954833984375;-0.3055419921875;5.95999998495245;597;1 A;
101.158015744601;-1.09954833984375;-0.311614990234375;5.9699999849272;598;1 A;
101.168015744575;-1.09954833984375;-0.30389404296875;5.97999998490195;599;1 A;
101.17801574455;-1.09954833984375;-0.308746337890625;5.9899999848767;600;1 A;
101.188015744525;-1.0992431640625;-0.29559326171875;5.99999998485146;601;1 A;
101.1980157445;-1.09954833984375;-0.303314208984375;6.00999998482621;602;1 A;
101.208015744474;-1.09954833984375;-0.3026123046875;6.01999998480096;603;1 A;
101.218015744449;-1.09954833984375;-0.306640625;6.02999998477571;604;1 A;
101.228015744424;-1.0992431640625;-0.305267333984375;6.03999998475047;605;1 A;
101.238015744399;-1.099853515625;-0.304656982421875;6.04999998472522;606;1 A;
101.248015744373;-1.0992431640625;-0.302001953125;6.05999998469997;607;1 A;
101.258015744348;-1.09954833984375;-0.302703857421875;6.06999998467472;608;1 A;
101.268015744323;-1.09954833984375;-0.30523681640625;6.07999998464948;609;1 A;
101.278015744298;-1.0992431640625;-0.3104248046875;6.08999998462423;610;1 A;
101.288015744272;-1.099853515625;-0.305328369140625;6.09999998459898;611;1 A;
101.298015744247;-1.0992431640625;-0.310516357421875;6.10999998457373;612;1 A;
101.308015744222;-1.09954833984375;-0.2952880859375;6.11999998454849;613;1 A;
101.318015744197;-1.09954833984375;-0.30364990234375;6.12999998452324;614;1 A;
101.328015744171;-1.09954833984375;-0.299163818359375;6.13999998449799;615;1 A;
101.338015744146;-1.0992431640625;-0.306640625;6.14999998447274;616;1 A;
101.348015744121;-1.0992431640625;-0.304901123046875;6.1599999844475;617;1 A;
101.358015744096;-1.0992431640625;-0.3060302734375;6.16999998442225;618;1 A;
101.36801574407;-1.0986328125;-0.30059814453125;6.179999984397;619;1 A;
101.378015744045;-1.0992431640625;-0.306488037109375;6.18999998437175;620;1 A;
101.38801574402;-1.09954833984375;-0.307159423828125;6.1999999843465;621;1 A;
101.398015743995;-1.09954833984375;-0.3128662109375;6.20999998432126;622;1 A;
101.408015743969;-1.09954833984375;-0.308013916015625;6.21999998429601;623;1 A;
101.418015743944;-1.09954833984375;-0.31024169921875;6.22999998427076;624;1 A;
101.428015743919;-1.099853515625;-0.30108642578125;6.23999998424551;625;1 A;
101.438015743894;-1.09954833984375;-0.30963134765625;6.24999998422027;626;1 A;
101.448015743868;-1.0992431640625;-0.3056640625;6.25999998419502;627;1 A;
101.458015743843;-1.09954833984375;-0.311798095703125;6.26999998416977;628;1 A;
101.468015743818;-1.099853515625;-0.309844970703125;6.27999998414452;629;1 A;
101.478015743793;-1.0992431640625;-0.31378173828125;6.28999998411928;630;1 A;
101.488015743767;-1.099853515625;-0.3046875;6.29999998409403;631;1 A;
101.498015743742;-1.09954833984375;-0.31146240234375;6.30999998406878;632;1 A;
101.508015743717;-1.0992431640625;-0.31280517578125;6.31999998404353;633;1 A;
101.518015743692;-1.0992431640625;-0.31964111328125;6.32999998401829;634;1 A;
101.528015743666;-1.0992431640625;-0.311492919921875;6.33999998399304;635;1 A;
101.538015743641;-1.0992431640625;-0.3173828125;6.34999998396779;636;1 A;
101.548015743616;-1.09954833984375;-0.303985595703125;6.35999998394254;637;1 A;
101.558015743591;-1.099853515625;-0.311553955078125;6.3699999839173;638;1 A;
101.568015743565;-1.0992431640625;-0.3087158203125;6.37999998389205;639;1 A;
101.57801574354;-1.099853515625;-0.31597900390625;6.3899999838668;640;1 A;
101.588015743515;-1.09954833984375;-0.313507080078125;6.39999998384155;641;1 A;
101.59801574349;-1.09893798828125;-0.31475830078125;6.40999998381631;642;1 A;
101.608015743464;-1.0992431640625;-0.31097412109375;6.41999998379106;643;1 A;
101.618015743439;-1.099853515625;-0.314361572265625;6.42999998376581;644;1 A;
101.628015743414;-1.09954833984375;-0.315155029296875;6.43999998374056;645;1 A;
101.638015743389;-1.09954833984375;-0.322509765625;6.44999998371532;646;1 A;
101.648015743363;-1.09954833984375;-0.313812255859375;6.45999998369007;647;1 A;
101.658015743338;-1.09954833984375;-0.319488525390625;6.46999998366482;648;1 A;
101.668015743313;-1.09954833984375;-0.3082275390625;6.47999998363957;649;1 A;
101.678015743288;-1.099853515625;-0.316864013671875;6.48999998361433;650;1 A;
101.688015743262;-1.0992431640625;-0.31292724609375;6.49999998358908;651;1 A;
101.698015743237;-1.099853515625;-0.318572998046875;6.50999998356383;652;1 A;
101.708015743212;-1.09954833984375;-0.31854248046875;6.51999998353858;653;1 A;
101.718015743187;-1.0992431640625;-0.318572998046875;6.52999998351333;654;1 A;
101.728015743161;-1.10015869140625;-0.316986083984375;6.53999998348809;655;1 A;
101.738015743136;-1.09954833984375;-0.319854736328125;6.54999998346284;656;1 A;
101.748015743111;-1.09954833984375;-0.3214111328125;6.55999998343759;657;1 A;
101.758015743086;-1.0992431640625;-0.327362060546875;6.56999998341234;658;1 A;
101.76801574306;-1.09954833984375;-0.3214111328125;6.5799999833871;659;1 A;
101.778015743035;-1.099853515625;-0.32476806640625;6.58999998336185;660;1 A;
101.78801574301;-1.0992431640625;-0.311859130859375;6.5999999833366;661;1 A;
101.798015742985;-1.09954833984375;-0.321044921875;6.60999998331135;662;1 A;
101.808015742959;-1.09954833984375;-0.319671630859375;6.61999998328611;663;1 A;
101.818015742934;-1.0992431640625;-0.32330322265625;6.62999998326086;664;1 A;
101.828015742909;-1.09954833984375;-0.324188232421875;6.63999998323561;665;1 A;
101.838015742884;-1.09954833984375;-0.322845458984375;6.64999998321036;666;1 A;
101.848015742858;-1.09954833984375;-0.31927490234375;6.65999998318512;667;1 A;
101.858015742833;-1.09954833984375;-0.323150634765625;6.66999998315987;668;1 A;
101.868015742808;-1.0992431640625;-0.323394775390625;6.67999998313462;669;1 A;
101.878015742783;-1.09954833984375;-0.32958984375;6.68999998310937;670;1 A;
101.888015742757;-1.099853515625;-0.32464599609375;6.69999998308413;671;1 A;
101.898015742732;-1.0992431640625;-0.32879638671875;6.70999998305888;672;1 A;
101.908015742707;-1.099853515625;-0.312835693359375;6.71999998303363;673;1 A;
101.918015742682;-1.09954833984375;-0.321502685546875;6.72999998300838;674;1 A;
101.928015742656;-1.09954833984375;-0.31793212890625;6.73999998298314;675;1 A;
101.938015742631;-1.0992431640625;-0.324493408203125;6.74999998295789;676;1 A;
101.948015742606;-1.0992431640625;-0.32537841796875;6.75999998293264;677;1 A;
101.958015742581;-1.0992431640625;-0.324951171875;6.76999998290739;678;1 A;
101.968015742556;-1.09954833984375;-0.319732666015625;6.77999998288215;679;1 A;
101.97801574253;-1.0992431640625;-0.325042724609375;6.7899999828569;680;1 A;
101.988015742505;-1.0992431640625;-0.32470703125;6.79999998283165;681;1 A;
101.99801574248;-1.0992431640625;-0.329254150390625;6.8099999828064;682;1 A;
102.008015742455;-1.0992431640625;-0.325592041015625;6.81999998278116;683;1 A;
102.018015742429;-1.09954833984375;-0.3267822265625;6.82999998275591;684;1 A;
102.028015742404;-1.09954833984375;-0.31622314453125;6.83999998273066;685;1 A;
102.038015742379;-1.099853515625;-0.324462890625;6.84999998270541;686;1 A;
102.048015742354;-1.0992431640625;-0.320098876953125;6.85999998268016;687;1 A;
102.058015742328;-1.099853515625;-0.32550048828125;6.86999998265492;688;1 A;
102.068015742303;-1.10015869140625;-0.324920654296875;6.87999998262967;689;1 A;
102.078015742278;-1.09954833984375;-0.32769775390625;6.88999998260442;690;1 A;
102.088015742253;-1.099853515625;-0.31768798828125;6.89999998257917;691;1 A;
102.098015742227;-1.0992431640625;-0.3228759765625;6.90999998255393;692;1 A;
102.108015742202;-1.09954833984375;-0.326019287109375;6.91999998252868;693;1 A;
102.118015742177;-1.099853515625;-0.331085205078125;6.92999998250343;694;1 A;
102.128015742152;-1.099853515625;-0.322967529296875;6.93999998247818;695;1 A;
102.138015742126;-1.09954833984375;-0.3289794921875;6.94999998245294;696;1 A;
102.148015742101;-1.099853515625;-0.314971923828125;6.95999998242769;697;1 A;
102.158015742076;-1.099853515625;-0.32171630859375;6.96999998240244;698;1 A;
102.168015742051;-1.099853515625;-0.3203125;6.97999998237719;699;1 A;
102.178015742025;-1.09954833984375;-0.3275146484375;6.98999998235195;700;1 A;
102.188015742;-1.099853515625;-0.32489013671875;6.9999999823267;701;1 A;
102.198015741975;-1.10015869140625;-0.325958251953125;7.00999998230145;702;1 A;
102.20801574195;-1.09893798828125;-0.32171630859375;7.0199999822762;703;1 A;
102.218015741924;-1.0992431640625;-0.32342529296875;7.02999998225096;704;1 A;
102.228015741899;-1.099853515625;-0.32550048828125;7.03999998222571;705;1 A;
102.238015741874;-1.09954833984375;-0.33184814453125;7.04999998220046;706;1 A;
102.248015741849;-1.0992431640625;-0.321533203125;7.05999998217521;707;1 A;
102.258015741823;-1.09954833984375;-0.329010009765625;7.06999998214997;708;1 A;
102.268015741798;-1.09954833984375;-0.312713623046875;7.07999998212472;709;1 A;
102.278015741773;-1.09954833984375;-0.32342529296875;7.08999998209947;710;1 A;
102.288015741748;-1.09954833984375;-0.319061279296875;7.09999998207422;711;1 A;
102.298015741722;-1.09954833984375;-0.326385498046875;7.10999998204898;712;1 A;
102.308015741697;-1.09954833984375;-0.324676513671875;7.11999998202373;713;1 A;
102.318015741672;-1.09893798828125;-0.326934814453125;7.12999998199848;714;1 A;
102.328015741647;-1.10015869140625;-0.31878662109375;7.13999998197323;715;1 A;
102.338015741621;-1.0992431640625;-0.324737548828125;7.14999998194799;716;1 A;
102.348015741596;-1.099853515625;-0.325469970703125;7.15999998192274;717;1 A;
102.358015741571;-1.0992431640625;-0.332275390625;7.16999998189749;718;1 A;
102.368015741546;-1.09954833984375;-0.323150634765625;7.17999998187224;719;1 A;
102.37801574152;-1.0992431640625;-0.328094482421875;7.189999981847;720;1 A;
102.388015741495;-1.09954833984375;-0.312255859375;7.19999998182175;721;1 A;
102.39801574147;-1.0992431640625;-0.325164794921875;7.2099999817965;722;1 A;
102.408015741445;-1.09893798828125;-0.3214111328125;7.21999998177125;723;1 A;
102.418015741419;-1.0992431640625;-0.327362060546875;7.229999981746;724;1 A;
102.428015741394;-1.0992431640625;-0.324981689453125;7.23999998172076;725;1 A;
102.438015741369;-1.09954833984375;-0.32763671875;7.24999998169551;726;1 A;
102.448015741344;-1.0992431640625;-0.319122314453125;7.25999998167026;727;1 A;
102.458015741318;-1.1004638671875;-0.3265380859375;7.26999998164501;728;1 A;
102.468015741293;-1.0992431640625;-0.32464599609375;7.27999998161977;729;1 A;
102.478015741268;-1.0992431640625;-0.333221435546875;7.28999998159452;730;1 A;
102.488015741243;-1.09954833984375;-0.3250732421875;7.29999998156927;731;1 A;
102.498015741217;-1.0992431640625;-0.33221435546875;7.30999998154402;732;1 A;
102.508015741192;-1.099853515625;-0.314727783203125;7.31999998151878;733;1 A;
102.518015741167;-1.0992431640625;-0.32513427734375;7.32999998149353;734;1 A;
102.528015741142;-1.09954833984375;-0.31884765625;7.33999998146828;735;1 A;
102.538015741116;-1.099853515625;-0.32781982421875;7.34999998144303;736;1 A;
102.548015741091;-1.0992431640625;-0.326812744140625;7.35999998141779;737;1 A;
102.558015741066;-1.09954833984375;-0.327362060546875;7.36999998139254;738;1 A;
102.568015741041;-1.09954833984375;-0.321197509765625;7.37999998136729;739;1 A;
102.578015741015;-1.09954833984375;-0.326995849609375;7.38999998134204;740;1 A;
102.58801574099;-1.099853515625;-0.325042724609375;7.3999999813168;741;1 A;
102.598015740965;-1.09893798828125;-0.330810546875;7.40999998129155;742;1 A;
102.60801574094;-1.09954833984375;-0.3245849609375;7.4199999812663;743;1 A;
102.618015740914;-1.09954833984375;-0.327301025390625;7.42999998124105;744;1 A;
102.628015740889;-1.09893798828125;-0.317413330078125;7.43999998121581;745;1 A;
102.638015740864;-1.09954833984375;-0.324188232421875;7.44999998119056;746;1 A;
102.648015740839;-1.0992431640625;-0.31927490234375;7.45999998116531;747;1 A;
102.658015740813;-1.0992431640625;-0.326080322265625;7.46999998114006;748;1 A;
102.668015740788;-1.09954833984375;-0.32611083984375;7.47999998111482;749;1 A;
102.678015740763;-1.09893798828125;-0.326019287109375;7.48999998108957;750;1 A;
102.688015740738;-1.09954833984375;-0.320709228515625;7.49999998106432;751;1 A;
102.698015740712;-1.09954833984375;-0.32073974609375;7.50999998103907;752;1 A;
102.708015740687;-1.09954833984375;-0.32757568359375;7.51999998101383;753;1 A;
102.718015740662;-1.099853515625;-0.33099365234375;7.52999998098858;754;1 A;
102.728015740637;-1.099853515625;-0.3233642578125;7.53999998096333;755;1 A;
102.738015740611;-1.09954833984375;-0.327117919921875;7.54999998093808;756;1 A;
102.748015740586;-1.0992431640625;-0.315643310546875;7.55999998091283;757;1 A;
102.758015740561;-1.0992431640625;-0.31768798828125;7.56999998088759;758;1 A;
102.768015740536;-1.09954833984375;-0.321014404296875;7.57999998086234;759;1 A;
102.77801574051;-1.0992431640625;-0.326019287109375;7.58999998083709;760;1 A;
102.788015740485;-1.099853515625;-0.326446533203125;7.59999998081184;761;1 A;
102.79801574046;-1.09954833984375;-0.3231201171875;7.6099999807866;762;1 A;
102.808015740435;-1.0992431640625;-0.323150634765625;7.61999998076135;763;1 A;
102.818015740409;-1.09954833984375;-0.319061279296875;7.6299999807361;764;1 A;
102.828015740384;-1.09954833984375;-0.325469970703125;7.63999998071085;765;1 A;
102.838015740359;-1.09954833984375;-0.329071044921875;7.64999998068561;766;1 A;
102.848015740334;-1.09954833984375;-0.322265625;7.65999998066036;767;1 A;
102.858015740308;-1.09954833984375;-0.32781982421875;7.66999998063511;768;1 A;
102.868015740283;-1.09954833984375;-0.310333251953125;7.67999998060986;769;1 A;
102.878015740258;-1.0992431640625;-0.319366455078125;7.68999998058462;770;1 A;
102.888015740233;-1.09954833984375;-0.3162841796875;7.69999998055937;771;1 A;
102.898015740207;-1.09954833984375;-0.3232421875;7.70999998053412;772;1 A;
102.908015740182;-1.09954833984375;-0.322998046875;7.71999998050887;773;1 A;
102.918015740157;-1.09893798828125;-0.324554443359375;7.72999998048363;774;1 A;
102.928015740132;-1.099853515625;-0.314697265625;7.73999998045838;775;1 A;
102.938015740106;-1.09954833984375;-0.3231201171875;7.74999998043313;776;1 A;
102.948015740081;-1.099853515625;-0.323822021484375;7.75999998040788;777;1 A;
102.958015740056;-1.099853515625;-0.3306884765625;7.76999998038264;778;1 A;
102.968015740031;-1.0992431640625;-0.3226318359375;7.77999998035739;779;1 A;
102.978015740006;-1.0992431640625;-0.326019287109375;7.78999998033214;780;1 A;
102.98801573998;-1.099853515625;-0.310028076171875;7.79999998030689;781;1 A;
102.998015739955;-1.09954833984375;-0.32342529296875;7.80999998028165;782;1 A;
103.00801573993;-1.09954833984375;-0.318756103515625;7.8199999802564;783;1 A;
103.018015739905;-1.09893798828125;-0.324371337890625;7.82999998023115;784;1 A;
103.028015739879;-1.0992431640625;-0.321807861328125;7.8399999802059;785;1 A;
103.038015739854;-1.09954833984375;-0.325103759765625;7.84999998018066;786;1 A;
103.048015739829;-1.0992431640625;-0.31488037109375;7.85999998015541;787;1 A;
103.058015739804;-1.0992431640625;-0.32550048828125;7.86999998013016;788;1 A;
103.068015739778;-1.10015869140625;-0.3226318359375;7.87999998010491;789;1 A;
103.078015739753;-1.09954833984375;-0.33197021484375;7.88999998007966;790;1 A;
103.088015739728;-1.09954833984375;-0.324615478515625;7.89999998005442;791;1 A;
103.098015739703;-1.09954833984375;-0.3319091796875;7.90999998002917;792;1 A;
103.108015739677;-1.09954833984375;-0.314300537109375;7.91999998000392;793;1 A;
103.118015739652;-1.09893798828125;-0.326019287109375;7.92999997997867;794;1 A;
103.128015739627;-1.099853515625;-0.320098876953125;7.93999997995343;795;1 A;
103.138015739602;-1.0992431640625;-0.328338623046875;7.94999997992818;796;1 A;
103.148015739576;-1.099853515625;-0.32861328125;7.95999997990293;797;1 A;
103.158015739551;-1.0992431640625;-0.329681396484375;7.96999997987768;798;1 A;
103.168015739526;-1.0992431640625;-0.3221435546875;7.97999997985244;799;1 A;
103.178015739501;-1.0992431640625;-0.331085205078125;7.98999997982719;800;1 A;
103.188015739475;-1.0992431640625;-0.327239990234375;7.99999997980194;801;1 A;
103.19801573945;-1.0992431640625;-0.33526611328125;8.00999997977669;802;1 A;
103.208015739425;-1.099853515625;-0.3275146484375;8.01999997975145;803;1 A;
103.2180157394;-1.0992431640625;-0.332489013671875;8.0299999797262;804;1 A;
103.228015739374;-1.0992431640625;-0.32257080078125;8.03999997970095;805;1 A;
103.238015739349;-1.09954833984375;-0.331268310546875;8.0499999796757;806;1 A;
103.248015739324;-1.09954833984375;-0.326202392578125;8.05999997965046;807;1 A;
103.258015739299;-1.099853515625;-0.332427978515625;8.06999997962521;808;1 A;
103.268015739273;-1.0992431640625;-0.333770751953125;8.07999997959996;809;1 A;
103.278015739248;-1.0992431640625;-0.3330078125;8.08999997957471;810;1 A;
103.288015739223;-1.09954833984375;-0.328826904296875;8.09999997954947;811;1 A;
103.298015739198;-1.0992431640625;-0.32928466796875;8.10999997952422;812;1 A;
103.308015739172;-1.099853515625;-0.335540771484375;8.11999997949897;813;1 A;
103.318015739147;-1.09954833984375;-0.34014892578125;8.12999997947372;814;1 A;
103.328015739122;-1.099853515625;-0.331512451171875;8.13999997944848;815;1 A;
103.338015739097;-1.09954833984375;-0.33782958984375;8.14999997942323;816;1 A;
103.348015739071;-1.0992431640625;-0.3245849609375;8.15999997939798;817;1 A;
103.358015739046;-1.09954833984375;-0.32958984375;8.16999997937273;818;1 A;
103.368015739021;-1.099853515625;-0.333526611328125;8.17999997934749;819;1 A;
103.378015738996;-1.099853515625;-0.33782958984375;8.18999997932224;820;1 A;
103.38801573897;-1.099853515625;-0.33770751953125;8.19999997929699;821;1 A;
103.398015738945;-1.09954833984375;-0.33563232421875;8.20999997927174;822;1 A;
103.40801573892;-1.09954833984375;-0.335723876953125;8.2199999792465;823;1 A;
103.418015738895;-1.0992431640625;-0.33123779296875;8.22999997922125;824;1 A;
103.428015738869;-1.0992431640625;-0.3392333984375;8.239999979196;825;1 A;
103.438015738844;-1.0992431640625;-0.3441162109375;8.24999997917075;826;1 A;
103.448015738819;-1.0992431640625;-0.3363037109375;8.2599999791455;827;1 A;
103.458015738794;-1.09893798828125;-0.344085693359375;8.26999997912026;828;1 A;
103.468015738768;-1.099853515625;-0.325347900390625;8.27999997909501;829;1 A;
103.478015738743;-1.099853515625;-0.3360595703125;8.28999997906976;830;1 A;
103.488015738718;-1.09954833984375;-0.3328857421875;8.29999997904451;831;1 A;
103.498015738693;-1.099853515625;-0.34149169921875;8.30999997901927;832;1 A;
103.508015738667;-1.0992431640625;-0.338287353515625;8.31999997899402;833;1 A;
103.518015738642;-1.0992431640625;-0.34185791015625;8.32999997896877;834;1 A;
103.528015738617;-1.0992431640625;-0.3299560546875;8.33999997894352;835;1 A;
103.538015738592;-1.09893798828125;-0.340484619140625;8.34999997891828;836;1 A;
103.548015738566;-1.0992431640625;-0.341552734375;8.35999997889303;837;1 A;
103.558015738541;-1.0992431640625;-0.34991455078125;8.36999997886778;838;1 A;
103.568015738516;-1.09954833984375;-0.34112548828125;8.37999997884253;839;1 A;
103.578015738491;-1.0992431640625;-0.345977783203125;8.38999997881729;840;1 A;
103.588015738465;-1.0992431640625;-0.329864501953125;8.39999997879204;841;1 A;
103.59801573844;-1.09954833984375;-0.344329833984375;8.40999997876679;842;1 A;
103.608015738415;-1.099853515625;-0.340545654296875;8.41999997874154;843;1 A;
103.61801573839;-1.0992431640625;-0.347808837890625;8.4299999787163;844;1 A;
103.628015738364;-1.0992431640625;-0.34466552734375;8.43999997869105;845;1 A;
103.638015738339;-1.09954833984375;-0.350830078125;8.4499999786658;846;1 A;
103.648015738314;-1.099853515625;-0.337310791015625;8.45999997864055;847;1 A;
103.658015738289;-1.0992431640625;-0.3494873046875;8.46999997861531;848;1 A;
103.668015738263;-1.09954833984375;-0.347076416015625;8.47999997859006;849;1 A;
103.678015738238;-1.09954833984375;-0.357818603515625;8.48999997856481;850;1 A;
103.688015738213;-1.09954833984375;-0.348297119140625;8.49999997853956;851;1 A;
103.698015738188;-1.09954833984375;-0.358001708984375;8.50999997851432;852;1 A;
103.708015738162;-1.099853515625;-0.339630126953125;8.51999997848907;853;1 A;
103.718015738137;-1.0992431640625;-0.35174560546875;8.52999997846382;854;1 A;
103.728015738112;-1.09893798828125;-0.346435546875;8.53999997843857;855;1 A;
103.738015738087;-1.0992431640625;-0.356414794921875;8.54999997841333;856;1 A;
103.748015738061;-1.09954833984375;-0.354339599609375;8.55999997838808;857;1 A;
103.758015738036;-1.09954833984375;-0.358428955078125;8.56999997836283;858;1 A;
103.768015738011;-1.09954833984375;-0.349761962890625;8.57999997833758;859;1 A;
103.778015737986;-1.099853515625;-0.359283447265625;8.58999997831233;860;1 A;
103.78801573796;-1.099853515625;-0.35626220703125;8.59999997828709;861;1 A;
103.798015737935;-1.099853515625;-0.366973876953125;8.60999997826184;862;1 A;
103.80801573791;-1.09954833984375;-0.356170654296875;8.61999997823659;863;1 A;
103.818015737885;-1.09954833984375;-0.36474609375;8.62999997821134;864;1 A;
103.828015737859;-1.10015869140625;-0.352447509765625;8.6399999781861;865;1 A;
103.838015737834;-1.09954833984375;-0.364288330078125;8.64999997816085;866;1 A;
103.848015737809;-1.0992431640625;-0.358489990234375;8.6599999781356;867;1 A;
103.858015737784;-1.099853515625;-0.36669921875;8.66999997811035;868;1 A;
103.868015737758;-1.09954833984375;-0.367950439453125;8.67999997808511;869;1 A;
103.878015737733;-1.099853515625;-0.367950439453125;8.68999997805986;870;1 A;
103.888015737708;-1.09954833984375;-0.366058349609375;8.69999997803461;871;1 A;
103.898015737683;-1.0992431640625;-0.36712646484375;8.70999997800936;872;1 A;
103.908015737657;-1.09954833984375;-0.370941162109375;8.71999997798412;873;1 A;
103.918015737632;-1.0992431640625;-0.377471923828125;8.72999997795887;874;1 A;
103.928015737607;-1.09954833984375;-0.367919921875;8.73999997793362;875;1 A;
103.938015737582;-1.0992431640625;-0.374481201171875;8.74999997790837;876;1 A;
103.948015737556;-1.099853515625;-0.35986328125;8.75999997788313;877;1 A;
103.958015737531;-1.09954833984375;-0.367156982421875;8.76999997785788;878;1 A;
103.968015737506;-1.09893798828125;-0.36932373046875;8.77999997783263;879;1 A;
103.978015737481;-1.0992431640625;-0.372894287109375;8.78999997780738;880;1 A;
103.988015737455;-1.09954833984375;-0.373779296875;8.79999997778214;881;1 A;
103.99801573743;-1.09954833984375;-0.371063232421875;8.80999997775689;882;1 A;
104.008015737405;-1.10015869140625;-0.3707275390625;8.81999997773164;883;1 A;
104.01801573738;-1.099853515625;-0.367462158203125;8.82999997770639;884;1 A;
104.028015737355;-1.0992431640625;-0.373992919921875;8.83999997768115;885;1 A;
104.038015737329;-1.09954833984375;-0.379150390625;8.8499999776559;886;1 A;
104.048015737304;-1.09954833984375;-0.374237060546875;8.85999997763065;887;1 A;
104.058015737279;-1.0992431640625;-0.380157470703125;8.8699999776054;888;1 A;
104.068015737254;-1.0992431640625;-0.36053466796875;8.87999997758016;889;1 A;
104.078015737228;-1.09893798828125;-0.3704833984375;8.88999997755491;890;1 A;
104.088015737203;-1.099853515625;-0.36785888671875;8.89999997752966;891;1 A;
104.098015737178;-1.09893798828125;-0.37640380859375;8.90999997750441;892;1 A;
104.108015737153;-1.09893798828125;-0.3751220703125;8.91999997747916;893;1 A;
104.118015737127;-1.10015869140625;-0.376617431640625;8.92999997745392;894;1 A;
104.128015737102;-1.099853515625;-0.367462158203125;8.93999997742867;895;1 A;
104.138015737077;-1.09954833984375;-0.3768310546875;8.94999997740342;896;1 A;
104.148015737052;-1.09954833984375;-0.378021240234375;8.95999997737817;897;1 A;
104.158015737026;-1.09893798828125;-0.38397216796875;8.96999997735293;898;1 A;
104.168015737001;-1.09954833984375;-0.378204345703125;8.97999997732768;899;1 A;
104.178015736976;-1.09954833984375;-0.381439208984375;8.98999997730243;900;1 A;
104.188015736951;-1.0992431640625;-0.36663818359375;8.99999997727718;901;1 A;
104.198015736925;-1.0992431640625;-0.37994384765625;9.00999997725194;902;1 A;
104.2080157369;-1.09954833984375;-0.375274658203125;9.01999997722669;903;1 A;
104.218015736875;-1.09954833984375;-0.381256103515625;9.02999997720144;904;1 A;
104.22801573685;-1.0992431640625;-0.3770751953125;9.03999997717619;905;1 A;
104.238015736824;-1.0992431640625;-0.384002685546875;9.04999997715095;906;1 A;
104.248015736799;-1.09954833984375;-0.36834716796875;9.0599999771257;907;1 A;
104.258015736774;-1.09893798828125;-0.380859375;9.06999997710045;908;1 A;
104.268015736749;-1.09954833984375;-0.379974365234375;9.0799999770752;909;1 A;
104.278015736723;-1.09954833984375;-0.389404296875;9.08999997704996;910;1 A;
104.288015736698;-1.099853515625;-0.378875732421875;9.09999997702471;911;1 A;
104.298015736673;-1.09954833984375;-0.388671875;9.10999997699946;912;1 A;
104.308015736648;-1.09954833984375;-0.36834716796875;9.11999997697421;913;1 A;
104.318015736622;-1.0992431640625;-0.380767822265625;9.12999997694897;914;1 A;
104.328015736597;-1.09954833984375;-0.376190185546875;9.13999997692372;915;1 A;
104.338015736572;-1.09893798828125;-0.384857177734375;9.14999997689847;916;1 A;
104.348015736547;-1.099853515625;-0.382781982421875;9.15999997687322;917;1 A;
104.358015736521;-1.09954833984375;-0.3858642578125;9.16999997684798;918;1 A;
104.368015736496;-1.09954833984375;-0.375732421875;9.17999997682273;919;1 A;
104.378015736471;-1.09954833984375;-0.38433837890625;9.18999997679748;920;1 A;
104.388015736446;-1.09954833984375;-0.382293701171875;9.19999997677223;921;1 A;
104.39801573642;-1.099853515625;-0.39215087890625;9.20999997674699;922;1 A;
104.408015736395;-1.0992431640625;-0.37945556640625;9.21999997672174;923;1 A;
104.41801573637;-1.0992431640625;-0.388763427734375;9.22999997669649;924;1 A;
104.428015736345;-1.0992431640625;-0.371490478515625;9.23999997667124;925;1 A;
104.438015736319;-1.09954833984375;-0.384918212890625;9.249999976646;926;1 A;
104.448015736294;-1.0992431640625;-0.379547119140625;9.25999997662075;927;1 A;
104.458015736269;-1.10015869140625;-0.38787841796875;9.2699999765955;928;1 A;
104.468015736244;-1.0992431640625;-0.3876953125;9.27999997657025;929;1 A;
104.478015736218;-1.09954833984375;-0.3896484375;9.289999976545;930;1 A;
104.488015736193;-1.09954833984375;-0.385589599609375;9.29999997651976;931;1 A;
104.498015736168;-1.09893798828125;-0.388885498046875;9.30999997649451;932;1 A;
104.508015736143;-1.0992431640625;-0.392120361328125;9.31999997646926;933;1 A;
104.518015736117;-1.09954833984375;-0.399322509765625;9.32999997644401;934;1 A;
104.528015736092;-1.099853515625;-0.38861083984375;9.33999997641877;935;1 A;
104.538015736067;-1.09954833984375;-0.395233154296875;9.34999997639352;936;1 A;
104.548015736042;-1.0992431640625;-0.37664794921875;9.35999997636827;937;1 A;
104.558015736016;-1.0992431640625;-0.388275146484375;9.36999997634302;938;1 A;
104.568015735991;-1.09954833984375;-0.389373779296875;9.37999997631778;939;1 A;
104.578015735966;-1.09954833984375;-0.3927001953125;9.38999997629253;940;1 A;
104.588015735941;-1.09893798828125;-0.39215087890625;9.39999997626728;941;1 A;
104.598015735915;-1.0992431640625;-0.392059326171875;9.40999997624203;942;1 A;
104.60801573589;-1.09954833984375;-0.387451171875;9.41999997621679;943;1 A;
104.618015735865;-1.09954833984375;-0.389312744140625;9.42999997619154;944;1 A;
104.62801573584;-1.099853515625;-0.394073486328125;9.43999997616629;945;1 A;
104.638015735814;-1.0992431640625;-0.4000244140625;9.44999997614104;946;1 A;
104.648015735789;-1.0992431640625;-0.392669677734375;9.4599999761158;947;1 A;
104.658015735764;-1.09893798828125;-0.4005126953125;9.46999997609055;948;1 A;
104.668015735739;-1.09954833984375;-0.3780517578125;9.4799999760653;949;1 A;
104.678015735713;-1.09954833984375;-0.390045166015625;9.48999997604005;950;1 A;
104.688015735688;-1.09954833984375;-0.386505126953125;9.49999997601481;951;1 A;
104.698015735663;-1.09954833984375;-0.396026611328125;9.50999997598956;952;1 A;
104.708015735638;-1.09954833984375;-0.392822265625;9.51999997596431;953;1 A;
104.718015735612;-1.099853515625;-0.39483642578125;9.52999997593906;954;1 A;
104.728015735587;-1.09954833984375;-0.386260986328125;9.53999997591382;955;1 A;
104.738015735562;-1.0992431640625;-0.39434814453125;9.54999997588857;956;1 A;
104.748015735537;-1.09893798828125;-0.396270751953125;9.55999997586332;957;1 A;
104.758015735511;-1.09954833984375;-0.402679443359375;9.56999997583807;958;1 A;
104.768015735486;-1.09954833984375;-0.394378662109375;9.57999997581283;959;1 A;
104.778015735461;-1.09893798828125;-0.398406982421875;9.58999997578758;960;1 A;
104.788015735436;-1.099853515625;-0.38507080078125;9.59999997576233;961;1 A;
104.79801573541;-1.09893798828125;-0.3955078125;9.60999997573708;962;1 A;
104.808015735385;-1.09893798828125;-0.390655517578125;9.61999997571183;963;1 A;
104.81801573536;-1.09954833984375;-0.398162841796875;9.62999997568659;964;1 A;
104.828015735335;-1.09954833984375;-0.39520263671875;9.63999997566134;965;1 A;
104.838015735309;-1.09954833984375;-0.400665283203125;9.64999997563609;966;1 A;
104.848015735284;-1.09954833984375;-0.38690185546875;9.65999997561084;967;1 A;
104.858015735259;-1.09954833984375;-0.395111083984375;9.6699999755856;968;1 A;
104.868015735234;-1.0992431640625;-0.39801025390625;9.67999997556035;969;1 A;
104.878015735208;-1.0992431640625;-0.40545654296875;9.6899999755351;970;1 A;
104.888015735183;-1.099853515625;-0.394561767578125;9.69999997550985;971;1 A;
104.898015735158;-1.0992431640625;-0.404449462890625;9.70999997548461;972;1 A;
104.908015735133;-1.09893798828125;-0.386749267578125;9.71999997545936;973;1 A;
104.918015735107;-1.09954833984375;-0.39654541015625;9.72999997543411;974;1 A;
104.928015735082;-1.09954833984375;-0.395294189453125;9.73999997540886;975;1 A;
104.938015735057;-1.099853515625;-0.404876708984375;9.74999997538362;976;1 A;
104.948015735032;-1.09954833984375;-0.4024658203125;9.75999997535837;977;1 A;
104.958015735006;-1.0992431640625;-0.40386962890625;9.76999997533312;978;1 A;
104.968015734981;-1.0992431640625;-0.398712158203125;9.77999997530787;979;1 A;
104.978015734956;-1.09954833984375;-0.4014892578125;9.78999997528263;980;1 A;
104.988015734931;-1.0992431640625;-0.40325927734375;9.79999997525738;981;1 A;
104.998015734905;-1.0986328125;-0.411956787109375;9.80999997523213;982;1 A;
105.00801573488;-1.099853515625;-0.397186279296875;9.81999997520688;983;1 A;
105.018015734855;-1.09893798828125;-0.409027099609375;9.82999997518164;984;1 A;
105.02801573483;-1.09954833984375;-0.3897705078125;9.83999997515639;985;1 A;
105.038015734805;-1.0992431640625;-0.40460205078125;9.84999997513114;986;1 A;
105.048015734779;-1.09954833984375;-0.399261474609375;9.85999997510589;987;1 A;
105.058015734754;-1.0992431640625;-0.408477783203125;9.86999997508065;988;1 A;
105.068015734729;-1.099853515625;-0.408538818359375;9.8799999750554;989;1 A;
105.078015734704;-1.09954833984375;-0.410247802734375;9.88999997503015;990;1 A;
105.088015734678;-1.099853515625;-0.40399169921875;9.8999999750049;991;1 A;
105.098015734653;-1.0992431640625;-0.40936279296875;9.90999997497966;992;1 A;
105.108015734628;-1.09954833984375;-0.41131591796875;9.91999997495441;993;1 A;
105.118015734603;-1.09954833984375;-0.419403076171875;9.92999997492916;994;1 A;
105.128015734577;-1.0992431640625;-0.409454345703125;9.93999997490391;995;1 A;
105.138015734552;-1.0992431640625;-0.414459228515625;9.94999997487866;996;1 A;
105.148015734527;-1.0992431640625;-0.39459228515625;9.95999997485342;997;1 A;
105.158015734502;-1.0992431640625;-0.40924072265625;9.96999997482817;998;1 A;
105.168015734476;-1.0992431640625;-0.40765380859375;9.97999997480292;999;1 A;
105.178015734451;-1.099853515625;-0.409332275390625;9.98999997477767;1000;1 A;
