Time (s);WE(1).Potential (V);WE(1).Current (A);Corrected time (s);Index;Current range
0.49316799875487;0.400604248046875;0.011004638671875;0;1;100 mA
0.503167998729623;0.400543212890625;0.008251953125;0.00999999997475243;2;100 mA
0.513167998704375;0.400543212890625;0.0066619873046875;0.0199999999495049;3;100 mA
0.523167998679128;0.400482177734375;0.00562744140625;0.0299999999242573;4;100 mA
0.53316799865388;0.400543212890625;0.004913330078125;0.0399999998990097;5;100 mA
0.543167998628633;0.4005126953125;0.004371337890625;0.0499999998737621;6;100 mA
0.553167998603385;0.40045166015625;0.00395355224609375;0.0599999998485146;7;100 mA
0.563167998578137;0.40057373046875;0.0036297607421875;0.069999999823267;8;100 mA
0.57316799855289;0.400543212890625;0.0033551025390625;0.0799999997980194;9;100 mA
0.583167998527642;0.400543212890625;0.00312255859375;0.0899999997727718;10;100 mA
0.593167998502395;0.400604248046875;0.0029071044921875;0.0999999997475243;11;100 mA
0.603167998477147;0.400604248046875;0.00273651123046875;0.109999999722277;12;100 mA
0.6131679984519;0.40045166015625;0.00258392333984375;0.119999999697029;13;100 mA
0.623167998426652;0.400604248046875;0.00243621826171875;0.129999999671782;14;100 mA
0.633167998401404;0.400665283203125;0.00232879638671875;0.139999999646534;15;100 mA
0.643167998376157;0.40057373046875;0.00222747802734375;0.149999999621286;16;100 mA
0.653167998350909;0.400604248046875;0.002139892578125;0.159999999596039;17;100 mA
0.663167998325662;0.4005126953125;0.0020452880859375;0.169999999570791;18;100 mA
0.673167998300414;0.400604248046875;0.00196075439453125;0.179999999545544;19;100 mA
0.683167998275167;0.400543212890625;0.00189117431640625;0.189999999520296;20;100 mA
0.693167998249919;0.400482177734375;0.0018231201171875;0.199999999495049;21;100 mA
0.703167998224671;0.400604248046875;0.00175750732421875;0.209999999469801;22;100 mA
0.713167998199424;0.4005126953125;0.0017022705078125;0.219999999444553;23;100 mA
0.723167998174176;0.4005126953125;0.00165985107421875;0.229999999419306;24;100 mA
0.733167998148929;0.40057373046875;0.0016168212890625;0.239999999394058;25;100 mA
0.743167998123681;0.400604248046875;0.00156585693359375;0.249999999368811;26;100 mA
0.753167998098434;0.40057373046875;0.0015234375;0.259999999343563;27;100 mA
0.763167998073186;0.4005126953125;0.00146759033203125;0.269999999318316;28;100 mA
0.773167998047938;0.4005126953125;0.00144256591796875;0.279999999293068;29;100 mA
0.783167998022691;0.400543212890625;0.0014013671875;0.28999999926782;30;100 mA
0.793167997997443;0.400604248046875;0.0013702392578125;0.299999999242573;31;100 mA
0.803167997972196;0.40069580078125;0.001357421875;0.309999999217325;32;100 mA
0.813167997946948;0.400543212890625;0.0013226318359375;0.319999999192078;33;100 mA
0.823167997921701;0.400543212890625;0.0012896728515625;0.32999999916683;34;100 mA
0.833167997896453;0.400482177734375;0.00126312255859375;0.339999999141583;35;100 mA
0.843167997871205;0.40057373046875;0.00122406005859375;0.349999999116335;36;100 mA
0.853167997845958;0.40045166015625;0.00121612548828125;0.359999999091087;37;100 mA
0.86316799782071;0.40057373046875;0.00117279052734375;0.36999999906584;38;100 mA
0.873167997795463;0.400543212890625;0.00115753173828125;0.379999999040592;39;100 mA
0.883167997770215;0.4005126953125;0.00114776611328125;0.389999999015345;40;100 mA
0.893167997744968;0.400543212890625;0.00112884521484375;0.399999998990097;41;100 mA
0.90316799771972;0.400543212890625;0.00111114501953125;0.40999999896485;42;100 mA
0.913167997694472;0.400634765625;0.00108551025390625;0.419999998939602;43;100 mA
0.923167997669225;0.400604248046875;0.00105621337890625;0.429999998914354;44;100 mA
0.933167997643977;0.400543212890625;0.00105072021484375;0.439999998889107;45;100 mA
0.94316799761873;0.400543212890625;0.00102203369140625;0.449999998863859;46;100 mA
0.953167997593482;0.40057373046875;0.0010125732421875;0.459999998838612;47;100 mA
0.963167997568235;0.400634765625;0.0010064697265625;0.469999998813364;48;100 mA
0.973167997542987;0.400543212890625;0.0009918212890625;0.479999998788116;49;100 mA
0.983167997517739;0.400543212890625;0.00097686767578125;0.489999998762869;50;100 mA
0.993167997492492;0.4005126953125;0.00095489501953125;0.499999998737621;51;100 mA
1.00316799746724;0.400543212890625;0.00093963623046875;0.509999998712374;52;100 mA
1.013167997442;0.400421142578125;0.0009356689453125;0.519999998687126;53;100 mA
1.02316799741675;0.40057373046875;0.000909423828125;0.529999998661879;54;100 mA
1.0331679973915;0.400665283203125;0.00090911865234375;0.539999998636631;55;100 mA
1.04316799736625;0.40057373046875;0.000897216796875;0.549999998611383;56;100 mA
1.05316799734101;0.400604248046875;0.00089752197265625;0.559999998586136;57;100 mA
1.06316799731576;0.400543212890625;0.00087615966796875;0.569999998560888;58;100 mA
1.07316799729051;0.400604248046875;0.0008612060546875;0.579999998535641;59;100 mA
1.08316799726526;0.400543212890625;0.000849609375;0.589999998510393;60;100 mA
1.09316799724002;0.4005126953125;0.000844726562500001;0.599999998485146;61;100 mA
1.10316799721477;0.400634765625;0.000828857421875;0.609999998459898;62;100 mA
1.11316799718952;0.400543212890625;0.000818786621093751;0.61999999843465;63;100 mA
1.12316799716427;0.400543212890625;0.00082366943359375;0.629999998409403;64;100 mA
1.13316799713903;0.400543212890625;0.000823974609375;0.639999998384155;65;100 mA
1.14316799711378;0.400604248046875;0.000797424316406251;0.649999998358908;66;100 mA
1.15316799708853;0.400604248046875;0.000792236328125;0.65999999833366;67;100 mA
1.16316799706328;0.400482177734375;0.00077362060546875;0.669999998308413;68;100 mA
1.17316799703804;0.400482177734375;0.0007757568359375;0.679999998283165;69;100 mA
1.18316799701279;0.400482177734375;0.00076416015625;0.689999998257917;70;100 mA
1.19316799698754;0.400604248046875;0.00075347900390625;0.69999999823267;71;100 mA
1.20316799696229;0.400604248046875;0.00076171875;0.709999998207422;72;100 mA
1.21316799693705;0.400543212890625;0.00075531005859375;0.719999998182175;73;100 mA
1.2231679969118;0.400634765625;0.000740966796875001;0.729999998156927;74;100 mA
1.23316799688655;0.4005126953125;0.00073272705078125;0.73999999813168;75;100 mA
1.2431679968613;0.400543212890625;0.00071533203125;0.749999998106432;76;100 mA
1.25316799683605;0.40045166015625;0.000726928710937499;0.759999998081184;77;100 mA
1.26316799681081;0.40057373046875;0.000710449218750001;0.769999998055937;78;100 mA
1.27316799678556;0.400543212890625;0.00070465087890625;0.779999998030689;79;100 mA
1.28316799676031;0.400604248046875;0.00070709228515625;0.789999998005442;80;100 mA
1.29316799673506;0.40045166015625;0.00070343017578125;0.799999997980194;81;100 mA
1.30316799670982;0.4005126953125;0.000701293945312501;0.809999997954947;82;100 mA
1.31316799668457;0.400604248046875;0.000689697265625;0.819999997929699;83;100 mA
1.32316799665932;0.400604248046875;0.000670776367187501;0.829999997904451;84;100 mA
1.33316799663407;0.40057373046875;0.000678405761718751;0.839999997879204;85;100 mA
1.34316799660883;0.4005126953125;0.00066070556640625;0.849999997853956;86;100 mA
1.35316799658358;0.400543212890625;0.000662841796875;0.859999997828709;87;100 mA
1.36316799655833;0.400634765625;0.00066497802734375;0.869999997803461;88;100 mA
1.37316799653308;0.40057373046875;0.0006622314453125;0.879999997778214;89;100 mA
1.38316799650784;0.40057373046875;0.000652160644531249;0.889999997752966;90;100 mA
1.39316799648259;0.400421142578125;0.000641784667968751;0.899999997727718;91;100 mA
1.40316799645734;0.400543212890625;0.0006378173828125;0.909999997702471;92;100 mA
1.41316799643209;0.4005126953125;0.000640869140625;0.919999997677223;93;100 mA
1.42316799640685;0.400604248046875;0.000626525878906251;0.929999997651976;94;100 mA
1.4331679963816;0.400665283203125;0.000629272460937499;0.939999997626728;95;100 mA
1.44316799635635;0.4005126953125;0.00062286376953125;0.949999997601481;96;100 mA
1.4531679963311;0.400482177734375;0.00063201904296875;0.959999997576233;97;100 mA
1.46316799630586;0.4005126953125;0.00061614990234375;0.969999997550985;98;100 mA
1.47316799628061;0.40057373046875;0.00060577392578125;0.979999997525738;99;100 mA
1.48316799625536;0.400604248046875;0.000595703124999999;0.98999999750049;100;100 mA
1.49316799623011;0.400482177734375;0.000598754882812499;0.999999997475243;101;100 mA
1.50316799620487;0.4005126953125;0.000596008300781251;1.00999999745;102;100 mA
1.51316799617962;0.4005126953125;0.000589904785156251;1.01999999742475;103;100 mA
1.52316799615437;0.40057373046875;0.000596008300781251;1.0299999973995;104;100 mA
1.53316799612912;0.4005126953125;0.000597229003906249;1.03999999737425;105;100 mA
1.54316799610388;0.40057373046875;0.000583496093749999;1.049999997349;106;100 mA
1.55316799607863;0.400543212890625;0.00058624267578125;1.05999999732376;107;100 mA
1.56316799605338;0.400482177734375;0.000567626953125;1.06999999729851;108;100 mA
1.57316799602813;0.40057373046875;0.00057037353515625;1.07999999727326;109;100 mA
1.58316799600289;0.400634765625;0.0005657958984375;1.08999999724801;110;100 mA
1.59316799597764;0.400604248046875;0.00056182861328125;1.09999999722277;111;100 mA
1.60316799595239;0.4005126953125;0.000571594238281251;1.10999999719752;112;100 mA
1.61316799592714;0.400543212890625;0.00056732177734375;1.11999999717227;113;100 mA
1.62316799590189;0.400543212890625;0.000563659667968749;1.12999999714702;114;100 mA
1.63316799587665;0.40057373046875;0.000557861328125001;1.13999999712178;115;100 mA
1.6431679958514;0.40057373046875;0.000541076660156251;1.14999999709653;116;100 mA
1.65316799582615;0.400482177734375;0.000559387207031251;1.15999999707128;117;100 mA
1.6631679958009;0.400634765625;0.000546875;1.16999999704603;118;100 mA
1.67316799577566;0.4005126953125;0.000540771484374999;1.17999999702079;119;100 mA
1.68316799575041;0.40057373046875;0.00054931640625;1.18999999699554;120;100 mA
1.69316799572516;0.4005126953125;0.0005450439453125;1.19999999697029;121;100 mA
1.70316799569991;0.400604248046875;0.0005419921875;1.20999999694504;122;100 mA
1.71316799567467;0.400604248046875;0.000534667968749999;1.2199999969198;123;100 mA
1.72316799564942;0.4005126953125;0.0005230712890625;1.22999999689455;124;100 mA
1.73316799562417;0.400543212890625;0.000531005859375;1.2399999968693;125;100 mA
1.74316799559892;0.400543212890625;0.000516357421875;1.24999999684405;126;100 mA
1.75316799557368;0.400604248046875;0.0005230712890625;1.25999999681881;127;100 mA
1.76316799554843;0.400634765625;0.000524291992187501;1.26999999679356;128;100 mA
1.77316799552318;0.40045166015625;0.000525817871093751;1.27999999676831;129;100 mA
1.78316799549793;0.4005126953125;0.000519714355468751;1.28999999674306;130;100 mA
1.79316799547269;0.400543212890625;0.00050689697265625;1.29999999671782;131;100 mA
1.80316799544744;0.4005126953125;0.000505981445312501;1.30999999669257;132;100 mA
1.81316799542219;0.400482177734375;0.000507507324218751;1.31999999666732;133;100 mA
1.82316799539694;0.400604248046875;0.00049774169921875;1.32999999664207;134;100 mA
1.8331679953717;0.4005126953125;0.000507202148437499;1.33999999661683;135;100 mA
1.84316799534645;0.400543212890625;0.000501708984375;1.34999999659158;136;100 mA
1.8531679953212;0.4005126953125;0.00051300048828125;1.35999999656633;137;100 mA
1.86316799529595;0.4005126953125;0.0005010986328125;1.36999999654108;138;100 mA
1.87316799527071;0.400634765625;0.000493774414062501;1.37999999651583;139;100 mA
1.88316799524546;0.400543212890625;0.0004840087890625;1.38999999649059;140;100 mA
1.89316799522021;0.40057373046875;0.000485839843749999;1.39999999646534;141;100 mA
1.90316799519496;0.400482177734375;0.00049346923828125;1.40999999644009;142;100 mA
1.91316799516972;0.400543212890625;0.000484619140625001;1.41999999641484;143;100 mA
1.92316799514447;0.40057373046875;0.000489501953125;1.4299999963896;144;100 mA
1.93316799511922;0.4005126953125;0.000496826171875001;1.43999999636435;145;100 mA
1.94316799509397;0.400543212890625;0.000481567382812501;1.4499999963391;146;100 mA
1.95316799506872;0.400543212890625;0.000485839843749999;1.45999999631385;147;100 mA
1.96316799504348;0.400543212890625;0.000470581054687499;1.46999999628861;148;100 mA
1.97316799501823;0.4005126953125;0.00047332763671875;1.47999999626336;149;100 mA
1.98316799499298;0.400604248046875;0.000473632812499999;1.48999999623811;150;100 mA
1.99316799496773;0.400665283203125;0.00046875;1.49999999621286;151;100 mA
2.00316799494249;0.4005126953125;0.000479736328124999;1.50999999618762;152;100 mA
2.01316799491724;0.400482177734375;0.0004803466796875;1.51999999616237;153;100 mA
2.02316799489199;0.400543212890625;0.0004718017578125;1.52999999613712;154;100 mA
2.03316799486674;0.40057373046875;0.0004669189453125;1.53999999611187;155;100 mA
2.0431679948415;0.400543212890625;0.00044677734375;1.54999999608663;156;100 mA
2.05316799481625;0.400543212890625;0.00046661376953125;1.55999999606138;157;100 mA
2.063167994791;0.4005126953125;0.00046051025390625;1.56999999603613;158;100 mA
2.07316799476575;0.4005126953125;0.000458984375;1.57999999601088;159;100 mA
2.08316799474051;0.400634765625;0.0004608154296875;1.58999999598564;160;100 mA
2.09316799471526;0.400482177734375;0.00045928955078125;1.59999999596039;161;100 mA
2.10316799469001;0.400634765625;0.0004620361328125;1.60999999593514;162;100 mA
2.11316799466476;0.40057373046875;0.00045135498046875;1.61999999590989;163;100 mA
2.12316799463952;0.4005126953125;0.00043914794921875;1.62999999588465;164;100 mA
2.13316799461427;0.400421142578125;0.000450744628906249;1.6399999958594;165;100 mA
2.14316799458902;0.4005126953125;0.000437011718749999;1.64999999583415;166;100 mA
2.15316799456377;0.40057373046875;0.00045135498046875;1.6599999958089;167;100 mA
2.16316799453853;0.400604248046875;0.0004425048828125;1.66999999578366;168;100 mA
2.17316799451328;0.400482177734375;0.000452575683593751;1.67999999575841;169;100 mA
2.18316799448803;0.4005126953125;0.000444946289062501;1.68999999573316;170;100 mA
2.19316799446278;0.4005126953125;0.000435485839843749;1.69999999570791;171;100 mA
2.20316799443754;0.40057373046875;0.000430908203124999;1.70999999568267;172;100 mA
2.21316799441229;0.400482177734375;0.000432739257812501;1.71999999565742;173;100 mA
2.22316799438704;0.400634765625;0.000432739257812501;1.72999999563217;174;100 mA
2.23316799436179;0.4005126953125;0.000432434082031249;1.73999999560692;175;100 mA
2.24316799433655;0.400543212890625;0.00043060302734375;1.74999999558167;176;100 mA
2.2531679943113;0.400482177734375;0.00044708251953125;1.75999999555643;177;100 mA
2.26316799428605;0.40057373046875;0.00043487548828125;1.76999999553118;178;100 mA
2.2731679942608;0.40057373046875;0.000423278808593749;1.77999999550593;179;100 mA
2.28316799423555;0.4005126953125;0.000421142578125;1.78999999548068;180;100 mA
2.29316799421031;0.400543212890625;0.000418701171874999;1.79999999545544;181;100 mA
2.30316799418506;0.400543212890625;0.000426330566406249;1.80999999543019;182;100 mA
2.31316799415981;0.40057373046875;0.000420227050781249;1.81999999540494;183;100 mA
2.32316799413456;0.400634765625;0.00041961669921875;1.82999999537969;184;100 mA
2.33316799410932;0.4005126953125;0.000434265136718751;1.83999999535445;185;100 mA
2.34316799408407;0.40057373046875;0.000417175292968749;1.8499999953292;186;100 mA
2.35316799405882;0.4005126953125;0.00042449951171875;1.85999999530395;187;100 mA
2.36316799403357;0.400543212890625;0.000405273437500001;1.8699999952787;188;100 mA
2.37316799400833;0.400543212890625;0.00041229248046875;1.87999999525346;189;100 mA
2.38316799398308;0.400604248046875;0.0004119873046875;1.88999999522821;190;100 mA
2.39316799395783;0.400543212890625;0.000406799316406251;1.89999999520296;191;100 mA
2.40316799393258;0.400543212890625;0.000416259765625;1.90999999517771;192;100 mA
2.41316799390734;0.400543212890625;0.00042083740234375;1.91999999515247;193;100 mA
2.42316799388209;0.400543212890625;0.000409545898437499;1.92999999512722;194;100 mA
2.43316799385684;0.400604248046875;0.00041046142578125;1.93999999510197;195;100 mA
2.44316799383159;0.400543212890625;0.000392761230468749;1.94999999507672;196;100 mA
2.45316799380635;0.400543212890625;0.00040863037109375;1.95999999505148;197;100 mA
2.4631679937811;0.400543212890625;0.00039794921875;1.96999999502623;198;100 mA
2.47316799375585;0.400543212890625;0.0004058837890625;1.97999999500098;199;100 mA
2.4831679937306;0.40057373046875;0.000408325195312501;1.98999999497573;200;100 mA
2.49316799370536;0.4005126953125;0.000405273437500001;1.99999999495049;201;100 mA
2.50316799368011;0.40057373046875;0.00040557861328125;2.00999999492524;202;100 mA
2.51316799365486;0.4005126953125;0.000397644042968751;2.01999999489999;203;100 mA
2.52316799362961;0.4005126953125;0.000386657714843749;2.02999999487474;204;100 mA
2.53316799360437;0.4005126953125;0.000400695800781251;2.0399999948495;205;100 mA
2.54316799357912;0.40057373046875;0.000388488769531251;2.04999999482425;206;100 mA
2.55316799355387;0.400604248046875;0.00040130615234375;2.059999994799;207;100 mA
2.56316799352862;0.4005126953125;0.000389709472656249;2.06999999477375;208;100 mA
2.57316799350338;0.400543212890625;0.0004010009765625;2.0799999947485;209;100 mA
2.58316799347813;0.400543212890625;0.000395812988281249;2.08999999472326;210;100 mA
2.59316799345288;0.400604248046875;0.0003857421875;2.09999999469801;211;100 mA
2.60316799342763;0.400543212890625;0.000385131835937499;2.10999999467276;212;100 mA
2.61316799340239;0.400543212890625;0.000385131835937499;2.11999999464751;213;100 mA
2.62316799337714;0.4005126953125;0.000383911132812501;2.12999999462227;214;100 mA
2.63316799335189;0.4005126953125;0.000393066406250001;2.13999999459702;215;100 mA
2.64316799332664;0.400604248046875;0.000380554199218749;2.14999999457177;216;100 mA
2.65316799330139;0.4005126953125;0.000400390624999999;2.15999999454652;217;100 mA
2.66316799327615;0.400543212890625;0.00038909912109375;2.16999999452128;218;100 mA
2.6731679932509;0.4005126953125;0.000383605957031249;2.17999999449603;219;100 mA
2.68316799322565;0.400482177734375;0.00037689208984375;2.18999999447078;220;100 mA
2.6931679932004;0.400543212890625;0.000372924804687499;2.19999999444553;221;100 mA
2.70316799317516;0.4005126953125;0.000382080078124999;2.20999999442029;222;100 mA
2.71316799314991;0.400604248046875;0.000377502441406249;2.21999999439504;223;100 mA
2.72316799312466;0.400604248046875;0.00037872314453125;2.22999999436979;224;100 mA
2.73316799309941;0.400421142578125;0.0003924560546875;2.23999999434454;225;100 mA
2.74316799307417;0.400543212890625;0.00037506103515625;2.2499999943193;226;100 mA
2.75316799304892;0.40057373046875;0.000383911132812501;2.25999999429405;227;100 mA
2.76316799302367;0.40057373046875;0.000367126464843751;2.2699999942688;228;100 mA
2.77316799299842;0.400543212890625;0.000374450683593749;2.27999999424355;229;100 mA
2.78316799297318;0.400634765625;0.00037567138671875;2.28999999421831;230;100 mA
2.79316799294793;0.400482177734375;0.00036773681640625;2.29999999419306;231;100 mA
2.80316799292268;0.40045166015625;0.00037506103515625;2.30999999416781;232;100 mA
2.81316799289743;0.4005126953125;0.00038482666015625;2.31999999414256;233;100 mA
2.82316799287219;0.40057373046875;0.000374755859375001;2.32999999411732;234;100 mA
2.83316799284694;0.40057373046875;0.00037567138671875;2.33999999409207;235;100 mA
2.84316799282169;0.40057373046875;0.00035247802734375;2.34999999406682;236;100 mA
2.85316799279644;0.400604248046875;0.00036895751953125;2.35999999404157;237;100 mA
2.8631679927712;0.400634765625;0.00036468505859375;2.36999999401633;238;100 mA
2.87316799274595;0.40057373046875;0.0003680419921875;2.37999999399108;239;100 mA
2.8831679927207;0.400665283203125;0.00036773681640625;2.38999999396583;240;100 mA
2.89316799269545;0.40045166015625;0.00037384033203125;2.39999999394058;241;100 mA
2.90316799267021;0.400604248046875;0.000372314453125;2.40999999391533;242;100 mA
2.91316799264496;0.4005126953125;0.000365600585937501;2.41999999389009;243;100 mA
2.92316799261971;0.40057373046875;0.0003497314453125;2.42999999386484;244;100 mA
2.93316799259446;0.400543212890625;0.000356140136718749;2.43999999383959;245;100 mA
2.94316799256922;0.400604248046875;0.00035247802734375;2.44999999381434;246;100 mA
2.95316799254397;0.400604248046875;0.00036590576171875;2.4599999937891;247;100 mA
2.96316799251872;0.4005126953125;0.00035247802734375;2.46999999376385;248;100 mA
2.97316799249347;0.400482177734375;0.000369873046874999;2.4799999937386;249;100 mA
2.98316799246822;0.40057373046875;0.00036346435546875;2.48999999371335;250;100 mA
2.99316799244298;0.40057373046875;0.0003497314453125;2.49999999368811;251;100 mA
3.00316799241773;0.400543212890625;0.000350036621093749;2.50999999366286;252;100 mA
3.01316799239248;0.4005126953125;0.000353088378906249;2.51999999363761;253;100 mA
3.02316799236723;0.40057373046875;0.000352783203125;2.52999999361236;254;100 mA
3.03316799234199;0.400482177734375;0.00036285400390625;2.53999999358712;255;100 mA
3.04316799231674;0.400604248046875;0.00034912109375;2.54999999356187;256;100 mA
3.05316799229149;0.400421142578125;0.00037078857421875;2.55999999353662;257;100 mA
3.06316799226624;0.400604248046875;0.00035247802734375;2.56999999351137;258;100 mA
3.073167992241;0.400543212890625;0.000351562499999999;2.57999999348613;259;100 mA
3.08316799221575;0.40045166015625;0.00034515380859375;2.58999999346088;260;100 mA
3.0931679921905;0.400543212890625;0.00034515380859375;2.59999999343563;261;100 mA
3.10316799216525;0.400543212890625;0.00035125732421875;2.60999999341038;262;100 mA
3.11316799214001;0.400665283203125;0.00035125732421875;2.61999999338514;263;100 mA
3.12316799211476;0.400482177734375;0.000343017578125;2.62999999335989;264;100 mA
3.13316799208951;0.400482177734375;0.000362548828125001;2.63999999333464;265;100 mA
3.14316799206426;0.400543212890625;0.00034912109375;2.64999999330939;266;100 mA
3.15316799203902;0.400543212890625;0.0003521728515625;2.65999999328415;267;100 mA
3.16316799201377;0.400604248046875;0.00033294677734375;2.6699999932589;268;100 mA
3.17316799198852;0.4005126953125;0.000341186523437501;2.67999999323365;269;100 mA
3.18316799196327;0.400543212890625;0.000348510742187499;2.6899999932084;270;100 mA
3.19316799193803;0.400421142578125;0.000336608886718751;2.69999999318316;271;100 mA
3.20316799191278;0.40057373046875;0.00034332275390625;2.70999999315791;272;100 mA
3.21316799188753;0.400482177734375;0.000351562499999999;2.71999999313266;273;100 mA
3.22316799186228;0.400543212890625;0.00034515380859375;2.72999999310741;274;100 mA
3.23316799183704;0.40057373046875;0.0003466796875;2.73999999308217;275;100 mA
3.24316799181179;0.400543212890625;0.000328979492187501;2.74999999305692;276;100 mA
3.25316799178654;0.400604248046875;0.000336608886718751;2.75999999303167;277;100 mA
3.26316799176129;0.400543212890625;0.00033721923828125;2.76999999300642;278;100 mA
3.27316799173605;0.40057373046875;0.000339660644531251;2.77999999298117;279;100 mA
3.2831679917108;0.40057373046875;0.000336303710937499;2.78999999295593;280;100 mA
3.29316799168555;0.4005126953125;0.000343933105468749;2.79999999293068;281;100 mA
3.3031679916603;0.40057373046875;0.0003448486328125;2.80999999290543;282;100 mA
3.31316799163505;0.400482177734375;0.0003375244140625;2.81999999288018;283;100 mA
3.32316799160981;0.400604248046875;0.000322265625;2.82999999285494;284;100 mA
3.33316799158456;0.400482177734375;0.00033599853515625;2.83999999282969;285;100 mA
3.34316799155931;0.40057373046875;0.00032958984375;2.84999999280444;286;100 mA
3.35316799153406;0.400421142578125;0.000333557128906251;2.85999999277919;287;100 mA
3.36316799150882;0.400543212890625;0.000328674316406249;2.86999999275395;288;100 mA
3.37316799148357;0.40045166015625;0.000341796875;2.8799999927287;289;100 mA
3.38316799145832;0.400543212890625;0.000339660644531251;2.88999999270345;290;100 mA
3.39316799143307;0.400665283203125;0.00032623291015625;2.8999999926782;291;100 mA
3.40316799140783;0.40057373046875;0.00032470703125;2.90999999265296;292;100 mA
3.41316799138258;0.400634765625;0.000325927734375001;2.91999999262771;293;100 mA
3.42316799135733;0.400482177734375;0.000327148437499999;2.92999999260246;294;100 mA
3.43316799133208;0.400543212890625;0.00032928466796875;2.93999999257721;295;100 mA
3.44316799130684;0.400634765625;0.000318298339843751;2.94999999255197;296;100 mA
3.45316799128159;0.40045166015625;0.000342407226562499;2.95999999252672;297;100 mA
3.46316799125634;0.400543212890625;0.000333557128906251;2.96999999250147;298;100 mA
3.47316799123109;0.400482177734375;0.00032684326171875;2.97999999247622;299;100 mA
3.48316799120585;0.400634765625;0.000321044921874999;2.98999999245098;300;100 mA
3.4931679911806;0.400604248046875;0.00031463623046875;2.99999999242573;301;100 mA
3.50316799115535;0.40057373046875;0.000324096679687499;3.00999999240048;302;100 mA
3.5131679911301;0.400634765625;0.000325927734375001;3.01999999237523;303;100 mA
3.52316799110486;0.400482177734375;0.00032012939453125;3.02999999234999;304;100 mA
3.53316799107961;0.4005126953125;0.00033538818359375;3.03999999232474;305;100 mA
3.54316799105436;0.400543212890625;0.000325927734375001;3.04999999229949;306;100 mA
3.55316799102911;0.40057373046875;0.000330505371093751;3.05999999227424;307;100 mA
3.56316799100387;0.400543212890625;0.000314941406249999;3.069999992249;308;100 mA
3.57316799097862;0.40057373046875;0.000318603515625;3.07999999222375;309;100 mA
3.58316799095337;0.400482177734375;0.000322875976562501;3.0899999921985;310;100 mA
3.59316799092812;0.4005126953125;0.00031890869140625;3.09999999217325;311;100 mA
3.60316799090288;0.400634765625;0.0003253173828125;3.109999992148;312;100 mA
3.61316799087763;0.400482177734375;0.00033294677734375;3.11999999212276;313;100 mA
3.62316799085238;0.40057373046875;0.000325927734375001;3.12999999209751;314;100 mA
3.63316799082713;0.40057373046875;0.000323486328125;3.13999999207226;315;100 mA
3.64316799080189;0.40057373046875;0.00030853271484375;3.14999999204701;316;100 mA
3.65316799077664;0.400604248046875;0.0003125;3.15999999202177;317;100 mA
3.66316799075139;0.40057373046875;0.000312194824218751;3.16999999199652;318;100 mA
3.67316799072614;0.40057373046875;0.000314941406249999;3.17999999197127;319;100 mA
3.68316799070089;0.400482177734375;0.00031402587890625;3.18999999194602;320;100 mA
3.69316799067565;0.40045166015625;0.000322875976562501;3.19999999192078;321;100 mA
3.7031679906504;0.400543212890625;0.000324096679687499;3.20999999189553;322;100 mA
3.71316799062515;0.4005126953125;0.0003173828125;3.21999999187028;323;100 mA
3.7231679905999;0.400665283203125;0.000303955078125;3.22999999184503;324;100 mA
3.73316799057466;0.40057373046875;0.000312194824218751;3.23999999181979;325;100 mA
3.74316799054941;0.400665283203125;0.000308837890624999;3.24999999179454;326;100 mA
3.75316799052416;0.4005126953125;0.00031463623046875;3.25999999176929;327;100 mA
3.76316799049891;0.400543212890625;0.00030792236328125;3.26999999174404;328;100 mA
3.77316799047367;0.4005126953125;0.00032073974609375;3.2799999917188;329;100 mA
3.78316799044842;0.400543212890625;0.000319519042968749;3.28999999169355;330;100 mA
3.79316799042317;0.40057373046875;0.0003131103515625;3.2999999916683;331;100 mA
3.80316799039792;0.400543212890625;0.00030975341796875;3.30999999164305;332;100 mA
3.81316799037268;0.400543212890625;0.00031097412109375;3.31999999161781;333;100 mA
3.82316799034743;0.4005126953125;0.000311889648437499;3.32999999159256;334;100 mA
3.83316799032218;0.40057373046875;0.0003204345703125;3.33999999156731;335;100 mA
3.84316799029693;0.40057373046875;0.000304565429687501;3.34999999154206;336;100 mA
3.85316799027169;0.400543212890625;0.000322570800781249;3.35999999151682;337;100 mA
3.86316799024644;0.40057373046875;0.00031768798828125;3.36999999149157;338;100 mA
3.87316799022119;0.40045166015625;0.000316162109375;3.37999999146632;339;100 mA
3.88316799019594;0.40057373046875;0.00031097412109375;3.38999999144107;340;100 mA
3.8931679901707;0.400604248046875;0.00030487060546875;3.39999999141583;341;100 mA
3.90316799014545;0.40057373046875;0.000311889648437499;3.40999999139058;342;100 mA
3.9131679901202;0.400482177734375;0.000313415527343749;3.41999999136533;343;100 mA
3.92316799009495;0.400543212890625;0.000306091308593751;3.42999999134008;344;100 mA
3.93316799006971;0.40057373046875;0.000322570800781249;3.43999999131483;345;100 mA
3.94316799004446;0.40057373046875;0.00031097412109375;3.44999999128959;346;100 mA
3.95316799001921;0.400604248046875;0.00031768798828125;3.45999999126434;347;100 mA
3.96316798999396;0.400604248046875;0.0003021240234375;3.46999999123909;348;100 mA
3.97316798996872;0.400634765625;0.00030029296875;3.47999999121384;349;100 mA
3.98316798994347;0.400543212890625;0.00031097412109375;3.4899999911886;350;100 mA
3.99316798991822;0.400604248046875;0.000307312011718749;3.49999999116335;351;100 mA
4.00316798989297;0.400634765625;0.00031005859375;3.5099999911381;352;100 mA
4.01316798986772;0.400482177734375;0.000318298339843751;3.51999999111285;353;100 mA
4.02316798984248;0.4005126953125;0.00031463623046875;3.52999999108761;354;100 mA
4.03316798981723;0.4005126953125;0.0003155517578125;3.53999999106236;355;100 mA
4.04316798979198;0.400604248046875;0.000299987792968751;3.54999999103711;356;100 mA
4.05316798976673;0.40057373046875;0.00030029296875;3.55999999101186;357;100 mA
4.06316798974149;0.400543212890625;0.0003082275390625;3.56999999098662;358;100 mA
4.07316798971624;0.400604248046875;0.000309143066406251;3.57999999096137;359;100 mA
4.08316798969099;0.400482177734375;0.000305786132812499;3.58999999093612;360;100 mA
4.09316798966574;0.4005126953125;0.000311279296875;3.59999999091087;361;100 mA
4.1031679896405;0.40057373046875;0.0003155517578125;3.60999999088563;362;100 mA
4.11316798961525;0.400634765625;0.000310668945312501;3.61999999086038;363;100 mA
4.12316798959;0.40057373046875;0.000298156738281249;3.62999999083513;364;100 mA
4.13316798956475;0.40057373046875;0.000301513671875001;3.63999999080988;365;100 mA
4.14316798953951;0.400482177734375;0.0003033447265625;3.64999999078464;366;100 mA
4.15316798951426;0.400543212890625;0.00030792236328125;3.65999999075939;367;100 mA
4.16316798948901;0.400543212890625;0.000301513671875001;3.66999999073414;368;100 mA
4.17316798946376;0.400543212890625;0.00031097412109375;3.67999999070889;369;100 mA
4.18316798943852;0.40057373046875;0.00030853271484375;3.68999999068365;370;100 mA
4.19316798941327;0.400543212890625;0.00030364990234375;3.6999999906584;371;100 mA
4.20316798938802;0.400543212890625;0.00030029296875;3.70999999063315;372;100 mA
4.21316798936277;0.400604248046875;0.00029876708984375;3.7199999906079;373;100 mA
4.22316798933753;0.400543212890625;0.000299682617187499;3.72999999058266;374;100 mA
4.23316798931228;0.400634765625;0.000304565429687501;3.73999999055741;375;100 mA
4.24316798928703;0.4005126953125;0.0002947998046875;3.74999999053216;376;100 mA
4.25316798926178;0.4005126953125;0.000313415527343749;3.75999999050691;377;100 mA
4.26316798923654;0.4005126953125;0.00030975341796875;3.76999999048167;378;100 mA
4.27316798921129;0.400543212890625;0.000304260253906249;3.77999999045642;379;100 mA
4.28316798918604;0.40069580078125;0.000296630859374999;3.78999999043117;380;100 mA
4.29316798916079;0.400604248046875;0.000287475585937499;3.79999999040592;381;100 mA
4.30316798913555;0.400604248046875;0.000295410156250001;3.80999999038067;382;100 mA
4.3131679891103;0.4005126953125;0.0003009033203125;3.81999999035543;383;100 mA
4.32316798908505;0.400543212890625;0.000296630859374999;3.82999999033018;384;100 mA
4.3331679890598;0.40057373046875;0.0003082275390625;3.83999999030493;385;100 mA
4.34316798903455;0.400543212890625;0.000304260253906249;3.84999999027968;386;100 mA
4.35316798900931;0.400665283203125;0.00030242919921875;3.85999999025444;387;100 mA
4.36316798898406;0.40057373046875;0.00029754638671875;3.86999999022919;388;100 mA
4.37316798895881;0.400665283203125;0.000290527343749999;3.87999999020394;389;100 mA
4.38316798893356;0.400543212890625;0.0002960205078125;3.88999999017869;390;100 mA
4.39316798890832;0.40057373046875;0.00029754638671875;3.89999999015345;391;100 mA
4.40316798888307;0.40057373046875;0.0002972412109375;3.9099999901282;392;100 mA
4.41316798885782;0.4005126953125;0.00030548095703125;3.91999999010295;393;100 mA
4.42316798883257;0.400543212890625;0.00030364990234375;3.9299999900777;394;100 mA
4.43316798880733;0.400543212890625;0.000299987792968751;3.93999999005246;395;100 mA
4.44316798878208;0.40057373046875;0.000292358398437501;3.94999999002721;396;100 mA
4.45316798875683;0.400604248046875;0.000291748046875;3.95999999000196;397;100 mA
4.46316798873158;0.40057373046875;0.00029937744140625;3.96999998997671;398;100 mA
4.47316798870634;0.400482177734375;0.00029876708984375;3.97999998995147;399;100 mA
4.48316798868109;0.400604248046875;0.000293579101562499;3.98999998992622;400;100 mA
4.49316798865584;0.400543212890625;0.0003033447265625;3.99999998990097;401;100 mA
4.50316798863059;0.400604248046875;0.00029937744140625;4.00999998987572;402;100 mA
4.51316798860535;0.400665283203125;0.0003009033203125;4.01999998985048;403;100 mA
4.5231679885801;0.400604248046875;0.0002911376953125;4.02999998982523;404;100 mA
4.53316798855485;0.40069580078125;0.000290527343749999;4.03999998979998;405;100 mA
4.5431679885296;0.400482177734375;0.000292053222656249;4.04999998977473;406;100 mA
4.55316798850436;0.400604248046875;0.0002972412109375;4.05999998974949;407;100 mA
4.56316798847911;0.40057373046875;0.00029266357421875;4.06999998972424;408;100 mA
4.57316798845386;0.400634765625;0.00029296875;4.07999998969899;409;100 mA
4.58316798842861;0.400543212890625;0.00030364990234375;4.08999998967374;410;100 mA
4.59316798840337;0.4005126953125;0.000298156738281249;4.0999999896485;411;100 mA
4.60316798837812;0.400604248046875;0.000294189453125;4.10999998962325;412;100 mA
4.61316798835287;0.400604248046875;0.000289001464843749;4.119999989598;413;100 mA
4.62316798832762;0.4005126953125;0.0002911376953125;4.12999998957275;414;100 mA
4.63316798830238;0.40057373046875;0.00030029296875;4.1399999895475;415;100 mA
4.64316798827713;0.400421142578125;0.000292053222656249;4.14999998952226;416;100 mA
4.65316798825188;0.40045166015625;0.000302734374999999;4.15999998949701;417;100 mA
4.66316798822663;0.400543212890625;0.00030364990234375;4.16999998947176;418;100 mA
4.67316798820139;0.400665283203125;0.000299072265625;4.17999998944651;419;100 mA
4.68316798817614;0.400543212890625;0.000290527343749999;4.18999998942127;420;100 mA
4.69316798815089;0.400604248046875;0.0002825927734375;4.19999998939602;421;100 mA
4.70316798812564;0.400543212890625;0.000289306640625001;4.20999998937077;422;100 mA
4.71316798810039;0.400482177734375;0.0002960205078125;4.21999998934552;423;100 mA
4.72316798807515;0.400543212890625;0.000291748046875;4.22999998932028;424;100 mA
4.7331679880499;0.400543212890625;0.0002978515625;4.23999998929503;425;100 mA
4.74316798802465;0.400634765625;0.00029449462890625;4.24999998926978;426;100 mA
4.7531679879994;0.400543212890625;0.00030181884765625;4.25999998924453;427;100 mA
4.76316798797416;0.40057373046875;0.0002911376953125;4.26999998921929;428;100 mA
4.77316798794891;0.40057373046875;0.00028411865234375;4.27999998919404;429;100 mA
4.78316798792366;0.40057373046875;0.000289001464843749;4.28999998916879;430;100 mA
4.79316798789841;0.400604248046875;0.000292358398437501;4.29999998914354;431;100 mA
4.80316798787317;0.4005126953125;0.000289001464843749;4.3099999891183;432;100 mA
4.81316798784792;0.400543212890625;0.000296936035156251;4.31999998909305;433;100 mA
4.82316798782267;0.400543212890625;0.000296936035156251;4.3299999890678;434;100 mA
4.83316798779742;0.40057373046875;0.000298156738281249;4.33999998904255;435;100 mA
4.84316798777218;0.40057373046875;0.0002886962890625;4.34999998901731;436;100 mA
4.85316798774693;0.400634765625;0.00028564453125;4.35999998899206;437;100 mA
4.86316798772168;0.400665283203125;0.0002880859375;4.36999998896681;438;100 mA
4.87316798769643;0.400482177734375;0.0002880859375;4.37999998894156;439;100 mA
4.88316798767119;0.40057373046875;0.00028839111328125;4.38999998891632;440;100 mA
4.89316798764594;0.4005126953125;0.000294189453125;4.39999998889107;441;100 mA
4.90316798762069;0.400634765625;0.000295410156250001;4.40999998886582;442;100 mA
4.91316798759544;0.400634765625;0.000293579101562499;4.41999998884057;443;100 mA
4.9231679875702;0.400543212890625;0.000285949707031249;4.42999998881533;444;100 mA
4.93316798754495;0.400604248046875;0.000283203125000001;4.43999998879008;445;100 mA
4.9431679875197;0.400482177734375;0.00028533935546875;4.44999998876483;446;100 mA
4.95316798749445;0.40057373046875;0.00028961181640625;4.45999998873958;447;100 mA
4.96316798746921;0.40057373046875;0.000287475585937499;4.46999998871433;448;100 mA
4.97316798744396;0.400543212890625;0.00028961181640625;4.47999998868909;449;100 mA
4.98316798741871;0.40057373046875;0.00029754638671875;4.48999998866384;450;100 mA
4.99316798739346;0.400543212890625;0.00029144287109375;4.49999998863859;451;100 mA
5.00316798736822;0.400604248046875;0.0002911376953125;4.50999998861334;452;100 mA
5.01316798734297;0.400665283203125;0.00027801513671875;4.5199999885881;453;100 mA
5.02316798731772;0.40057373046875;0.00028533935546875;4.52999998856285;454;100 mA
5.03316798729247;0.400604248046875;0.000289306640625001;4.5399999885376;455;100 mA
5.04316798726722;0.4005126953125;0.00027923583984375;4.54999998851235;456;100 mA
5.05316798724198;0.400482177734375;0.000293579101562499;4.55999998848711;457;100 mA
5.06316798721673;0.400604248046875;0.000296630859374999;4.56999998846186;458;100 mA
5.07316798719148;0.400604248046875;0.0002960205078125;4.57999998843661;459;100 mA
5.08316798716623;0.40057373046875;0.00028839111328125;4.58999998841136;460;100 mA
5.09316798714099;0.400634765625;0.000276794433593749;4.59999998838612;461;100 mA
5.10316798711574;0.4005126953125;0.0002825927734375;4.60999998836087;462;100 mA
5.11316798709049;0.400543212890625;0.0002825927734375;4.61999998833562;463;100 mA
5.12316798706524;0.40057373046875;0.000278625488281251;4.62999998831037;464;100 mA
5.13316798704;0.400543212890625;0.000290527343749999;4.63999998828513;465;100 mA
5.14316798701475;0.40057373046875;0.0002880859375;4.64999998825988;466;100 mA
5.1531679869895;0.400543212890625;0.000289001464843749;4.65999998823463;467;100 mA
5.16316798696425;0.400604248046875;0.0002880859375;4.66999998820938;468;100 mA
5.17316798693901;0.400665283203125;0.000272521972656251;4.67999998818414;469;100 mA
5.18316798691376;0.400543212890625;0.000287780761718751;4.68999998815889;470;100 mA
5.19316798688851;0.40057373046875;0.000281677246093751;4.69999998813364;471;100 mA
5.20316798686326;0.40045166015625;0.0002838134765625;4.70999998810839;472;100 mA
5.21316798683802;0.400634765625;0.000294189453125;4.71999998808315;473;100 mA
5.22316798681277;0.400543212890625;0.000287475585937499;4.7299999880579;474;100 mA
5.23316798678752;0.400665283203125;0.000289306640625001;4.73999998803265;475;100 mA
5.24316798676227;0.40069580078125;0.0002777099609375;4.7499999880074;476;100 mA
5.25316798673703;0.400634765625;0.000276794433593749;4.75999998798216;477;100 mA
5.26316798671178;0.400543212890625;0.000281372070312499;4.76999998795691;478;100 mA
5.27316798668653;0.400604248046875;0.000279846191406249;4.77999998793166;479;100 mA
5.28316798666128;0.40057373046875;0.000280151367187501;4.78999998790641;480;100 mA
5.29316798663604;0.40057373046875;0.000278625488281251;4.79999998788116;481;100 mA
5.30316798661079;0.400543212890625;0.00029144287109375;4.80999998785592;482;100 mA
5.31316798658554;0.400543212890625;0.000286865234375;4.81999998783067;483;100 mA
5.32316798656029;0.400604248046875;0.00027435302734375;4.82999998780542;484;100 mA
5.33316798653505;0.400604248046875;0.0002764892578125;4.83999998778017;485;100 mA
5.3431679865098;0.4005126953125;0.00027587890625;4.84999998775493;486;100 mA
5.35316798648455;0.400634765625;0.000281677246093751;4.85999998772968;487;100 mA
5.3631679864593;0.40045166015625;0.00027740478515625;4.86999998770443;488;100 mA
5.37316798643405;0.400604248046875;0.0002850341796875;4.87999998767918;489;100 mA
5.38316798640881;0.400543212890625;0.00029022216796875;4.88999998765394;490;100 mA
5.39316798638356;0.400634765625;0.000282897949218749;4.89999998762869;491;100 mA
5.40316798635831;0.400604248046875;0.00028411865234375;4.90999998760344;492;100 mA
5.41316798633306;0.400634765625;0.00027191162109375;4.91999998757819;493;100 mA
5.42316798630782;0.400543212890625;0.00027130126953125;4.92999998755295;494;100 mA
5.43316798628257;0.400482177734375;0.0002825927734375;4.9399999875277;495;100 mA
5.44316798625732;0.40057373046875;0.0002685546875;4.94999998750245;496;100 mA
5.45316798623207;0.40057373046875;0.000281677246093751;4.9599999874772;497;100 mA
5.46316798620683;0.40057373046875;0.000287780761718751;4.96999998745196;498;100 mA
5.47316798618158;0.40057373046875;0.000284423828124999;4.97999998742671;499;100 mA
5.48316798615633;0.4005126953125;0.00028350830078125;4.98999998740146;500;100 mA
5.49316798613108;0.400665283203125;0.000266418457031251;4.99999998737621;501;100 mA
5.50316798610584;0.40057373046875;0.00027801513671875;5.00999998735097;502;100 mA
5.51316798608059;0.400634765625;0.0002777099609375;5.01999998732572;503;100 mA
5.52316798605534;0.4005126953125;0.000276794433593749;5.02999998730047;504;100 mA
5.53316798603009;0.400604248046875;0.00028411865234375;5.03999998727522;505;100 mA
5.54316798600485;0.40057373046875;0.000279846191406249;5.04999998724998;506;100 mA
5.5531679859796;0.4005126953125;0.0002880859375;5.05999998722473;507;100 mA
5.56316798595435;0.400604248046875;0.00028045654296875;5.06999998719948;508;100 mA
5.5731679859291;0.400634765625;0.000269165039062499;5.07999998717423;509;100 mA
5.58316798590386;0.400634765625;0.00028228759765625;5.08999998714899;510;100 mA
5.59316798587861;0.400482177734375;0.000274047851562501;5.09999998712374;511;100 mA
5.60316798585336;0.400543212890625;0.00027587890625;5.10999998709849;512;100 mA
5.61316798582811;0.400665283203125;0.000275573730468751;5.11999998707324;513;100 mA
5.62316798580287;0.40057373046875;0.00028076171875;5.129999987048;514;100 mA
5.63316798577762;0.400634765625;0.000289001464843749;5.13999998702275;515;100 mA
5.64316798575237;0.400543212890625;0.00027923583984375;5.1499999869975;516;100 mA
5.65316798572712;0.400604248046875;0.000277099609375001;5.15999998697225;517;100 mA
5.66316798570188;0.400543212890625;0.000274047851562501;5.169999986947;518;100 mA
5.67316798567663;0.40057373046875;0.00027618408203125;5.17999998692176;519;100 mA
5.68316798565138;0.400634765625;0.000282897949218749;5.18999998689651;520;100 mA
5.69316798562613;0.400543212890625;0.00027618408203125;5.19999998687126;521;100 mA
5.70316798560089;0.40057373046875;0.000287780761718751;5.20999998684601;522;100 mA
5.71316798557564;0.400482177734375;0.00028350830078125;5.21999998682077;523;100 mA
5.72316798555039;0.400604248046875;0.000278625488281251;5.22999998679552;524;100 mA
5.73316798552514;0.400604248046875;0.00027618408203125;5.23999998677027;525;100 mA
5.74316798549989;0.400634765625;0.00027587890625;5.24999998674502;526;100 mA
5.75316798547465;0.400543212890625;0.000281372070312499;5.25999998671978;527;100 mA
5.7631679854494;0.40057373046875;0.00027923583984375;5.26999998669453;528;100 mA
5.77316798542415;0.400543212890625;0.00027587890625;5.27999998666928;529;100 mA
5.7831679853989;0.400543212890625;0.000290832519531251;5.28999998664403;530;100 mA
5.79316798537366;0.400665283203125;0.00027435302734375;5.29999998661879;531;100 mA
5.80316798534841;0.400634765625;0.00028656005859375;5.30999998659354;532;100 mA
5.81316798532316;0.400634765625;0.0002716064453125;5.31999998656829;533;100 mA
5.82316798529791;0.400543212890625;0.0002716064453125;5.32999998654304;534;100 mA
5.83316798527267;0.400482177734375;0.000281982421875;5.3399999865178;535;100 mA
5.84316798524742;0.400634765625;0.00027130126953125;5.34999998649255;536;100 mA
5.85316798522217;0.400604248046875;0.000283203125000001;5.3599999864673;537;100 mA
5.86316798519692;0.40057373046875;0.000286865234375;5.36999998644205;538;100 mA
5.87316798517168;0.40057373046875;0.000284729003906251;5.37999998641681;539;100 mA
5.88316798514643;0.400543212890625;0.000287780761718751;5.38999998639156;540;100 mA
5.89316798512118;0.400604248046875;0.00026580810546875;5.39999998636631;541;100 mA
5.90316798509593;0.400604248046875;0.000277099609375001;5.40999998634106;542;100 mA
5.91316798507069;0.400634765625;0.000278625488281251;5.41999998631582;543;100 mA
5.92316798504544;0.400482177734375;0.000273742675781249;5.42999998629057;544;100 mA
5.93316798502019;0.400634765625;0.00028076171875;5.43999998626532;545;100 mA
5.94316798499494;0.400543212890625;0.000275573730468751;5.44999998624007;546;100 mA
5.9531679849697;0.400604248046875;0.000284729003906251;5.45999998621483;547;100 mA
5.96316798494445;0.400604248046875;0.000281677246093751;5.46999998618958;548;100 mA
5.9731679849192;0.400604248046875;0.00027130126953125;5.47999998616433;549;100 mA
5.98316798489395;0.400543212890625;0.000281982421875;5.48999998613908;550;100 mA
5.99316798486871;0.40057373046875;0.0002685546875;5.49999998611383;551;100 mA
6.00316798484346;0.400543212890625;0.000278625488281251;5.50999998608859;552;100 mA
6.01316798481821;0.400604248046875;0.000278625488281251;5.51999998606334;553;100 mA
6.02316798479296;0.400543212890625;0.000279846191406249;5.52999998603809;554;100 mA
6.03316798476772;0.4005126953125;0.000290832519531251;5.53999998601284;555;100 mA
6.04316798474247;0.40057373046875;0.00027801513671875;5.5499999859876;556;100 mA
6.05316798471722;0.400634765625;0.000269165039062499;5.55999998596235;557;100 mA
6.06316798469197;0.400543212890625;0.000275573730468751;5.5699999859371;558;100 mA
6.07316798466672;0.40057373046875;0.000274658203125;5.57999998591185;559;100 mA
6.08316798464148;0.400543212890625;0.000278320312499999;5.58999998588661;560;100 mA
6.09316798461623;0.400634765625;0.0002685546875;5.59999998586136;561;100 mA
6.10316798459098;0.40057373046875;0.000282897949218749;5.60999998583611;562;100 mA
6.11316798456573;0.400543212890625;0.0002825927734375;5.61999998581086;563;100 mA
6.12316798454049;0.40057373046875;0.0002825927734375;5.62999998578562;564;100 mA
6.13316798451524;0.400665283203125;0.00027008056640625;5.63999998576037;565;100 mA
6.14316798448999;0.400634765625;0.000266418457031251;5.64999998573512;566;100 mA
6.15316798446474;0.400482177734375;0.000275268554687499;5.65999998570987;567;100 mA
6.1631679844395;0.400482177734375;0.00027801513671875;5.66999998568463;568;100 mA
6.17316798441425;0.400604248046875;0.0002728271484375;5.67999998565938;569;100 mA
6.183167984389;0.400543212890625;0.000285949707031249;5.68999998563413;570;100 mA
6.19316798436375;0.400604248046875;0.00027587890625;5.69999998560888;571;100 mA
6.20316798433851;0.400604248046875;0.0002825927734375;5.70999998558364;572;100 mA
6.21316798431326;0.400604248046875;0.0002703857421875;5.71999998555839;573;100 mA
6.22316798428801;0.40057373046875;0.000269165039062499;5.72999998553314;574;100 mA
6.23316798426276;0.400604248046875;0.00028076171875;5.73999998550789;575;100 mA
6.24316798423752;0.400665283203125;0.0002685546875;5.74999998548265;576;100 mA
6.25316798421227;0.400604248046875;0.000277099609375001;5.7599999854574;577;100 mA
6.26316798418702;0.40057373046875;0.000278320312499999;5.76999998543215;578;100 mA
6.27316798416177;0.4005126953125;0.000278320312499999;5.7799999854069;579;100 mA
6.28316798413653;0.40057373046875;0.00028533935546875;5.78999998538166;580;100 mA
6.29316798411128;0.400634765625;0.000264587402343749;5.79999998535641;581;100 mA
6.30316798408603;0.40057373046875;0.0002728271484375;5.80999998533116;582;100 mA
6.31316798406078;0.400482177734375;0.00027435302734375;5.81999998530591;583;100 mA
6.32316798403554;0.400543212890625;0.000270996093750001;5.82999998528066;584;100 mA
6.33316798401029;0.40057373046875;0.00027801513671875;5.83999998525542;585;100 mA
6.34316798398504;0.400543212890625;0.000274047851562501;5.84999998523017;586;100 mA
6.35316798395979;0.400604248046875;0.0002838134765625;5.85999998520492;587;100 mA
6.36316798393455;0.400634765625;0.000281982421875;5.86999998517967;588;100 mA
6.3731679839093;0.400634765625;0.000267944335937501;5.87999998515443;589;100 mA
6.38316798388405;0.400543212890625;0.0002734375;5.88999998512918;590;100 mA
6.3931679838588;0.400634765625;0.0002655029296875;5.89999998510393;591;100 mA
6.40316798383355;0.4005126953125;0.00028106689453125;5.90999998507868;592;100 mA
6.41316798380831;0.40057373046875;0.00028045654296875;5.91999998505344;593;100 mA
6.42316798378306;0.40057373046875;0.000280151367187501;5.92999998502819;594;100 mA
6.43316798375781;0.4005126953125;0.000289001464843749;5.93999998500294;595;100 mA
6.44316798373256;0.40057373046875;0.00027923583984375;5.94999998497769;596;100 mA
6.45316798370732;0.40057373046875;0.000272521972656251;5.95999998495245;597;100 mA
6.46316798368207;0.400604248046875;0.000270690917968749;5.9699999849272;598;100 mA
6.47316798365682;0.400604248046875;0.0002685546875;5.97999998490195;599;100 mA
6.48316798363157;0.4005126953125;0.00027801513671875;5.9899999848767;600;100 mA
6.49316798360633;0.40057373046875;0.000269165039062499;5.99999998485146;601;100 mA
6.50316798358108;0.400543212890625;0.00028350830078125;6.00999998482621;602;100 mA
6.51316798355583;0.40057373046875;0.00028533935546875;6.01999998480096;603;100 mA
6.52316798353058;0.400634765625;0.000278320312499999;6.02999998477571;604;100 mA
6.53316798350534;0.400634765625;0.0002703857421875;6.03999998475047;605;100 mA
6.54316798348009;0.400543212890625;0.0002655029296875;6.04999998472522;606;100 mA
6.55316798345484;0.4005126953125;0.000275573730468751;6.05999998469997;607;100 mA
6.56316798342959;0.40057373046875;0.00027191162109375;6.06999998467472;608;100 mA
6.57316798340435;0.4005126953125;0.00027008056640625;6.07999998464948;609;100 mA
6.5831679833791;0.400604248046875;0.000283203125000001;6.08999998462423;610;100 mA
6.59316798335385;0.4005126953125;0.00027313232421875;6.09999998459898;611;100 mA
6.6031679833286;0.400543212890625;0.0002838134765625;6.10999998457373;612;100 mA
6.61316798330336;0.40057373046875;0.000275573730468751;6.11999998454849;613;100 mA
6.62316798327811;0.400543212890625;0.00027008056640625;6.12999998452324;614;100 mA
6.63316798325286;0.400634765625;0.00027496337890625;6.13999998449799;615;100 mA
6.64316798322761;0.4005126953125;0.000267333984375;6.14999998447274;616;100 mA
6.65316798320237;0.400604248046875;0.000272216796874999;6.1599999844475;617;100 mA
6.66316798317712;0.400482177734375;0.0002764892578125;6.16999998442225;618;100 mA
6.67316798315187;0.40057373046875;0.000275573730468751;6.179999984397;619;100 mA
6.68316798312662;0.40057373046875;0.0002838134765625;6.18999998437175;620;100 mA
6.69316798310138;0.400604248046875;0.000261840820312501;6.1999999843465;621;100 mA
6.70316798307613;0.400604248046875;0.0002642822265625;6.20999998432126;622;100 mA
6.71316798305088;0.400482177734375;0.00027008056640625;6.21999998429601;623;100 mA
6.72316798302563;0.40057373046875;0.000269775390625;6.22999998427076;624;100 mA
6.73316798300038;0.400634765625;0.00027618408203125;6.23999998424551;625;100 mA
6.74316798297514;0.400604248046875;0.000267639160156249;6.24999998422027;626;100 mA
6.75316798294989;0.400634765625;0.0002789306640625;6.25999998419502;627;100 mA
6.76316798292464;0.400543212890625;0.000278625488281251;6.26999998416977;628;100 mA
6.77316798289939;0.400543212890625;0.00026519775390625;6.27999998414452;629;100 mA
6.78316798287415;0.40057373046875;0.0002703857421875;6.28999998411928;630;100 mA
6.7931679828489;0.400604248046875;0.00025909423828125;6.29999998409403;631;100 mA
6.80316798282365;0.4005126953125;0.0002703857421875;6.30999998406878;632;100 mA
6.8131679827984;0.40057373046875;0.000270690917968749;6.31999998404353;633;100 mA
6.82316798277316;0.40057373046875;0.00027130126953125;6.32999998401829;634;100 mA
6.83316798274791;0.40057373046875;0.00027740478515625;6.33999998399304;635;100 mA
6.84316798272266;0.400604248046875;0.0002728271484375;6.34999998396779;636;100 mA
6.85316798269741;0.400604248046875;0.000267944335937501;6.35999998394254;637;100 mA
6.86316798267217;0.400665283203125;0.00026519775390625;6.3699999839173;638;100 mA
6.87316798264692;0.400482177734375;0.00026580810546875;6.37999998389205;639;100 mA
6.88316798262167;0.4005126953125;0.00027130126953125;6.3899999838668;640;100 mA
6.89316798259642;0.400604248046875;0.000261535644531249;6.39999998384155;641;100 mA
6.90316798257118;0.40057373046875;0.000274047851562501;6.40999998381631;642;100 mA
6.91316798254593;0.40057373046875;0.00027801513671875;6.41999998379106;643;100 mA
6.92316798252068;0.400543212890625;0.000275573730468751;6.42999998376581;644;100 mA
6.93316798249543;0.400634765625;0.000266113281249999;6.43999998374056;645;100 mA
6.94316798247019;0.400482177734375;0.00025909423828125;6.44999998371532;646;100 mA
6.95316798244494;0.400604248046875;0.000269470214843751;6.45999998369007;647;100 mA
6.96316798241969;0.400634765625;0.0002655029296875;6.46999998366482;648;100 mA
6.97316798239444;0.40057373046875;0.000264587402343749;6.47999998363957;649;100 mA
6.9831679823692;0.400604248046875;0.000276794433593749;6.48999998361433;650;100 mA
6.99316798234395;0.400482177734375;0.000267944335937501;6.49999998358908;651;100 mA
7.0031679823187;0.4005126953125;0.000280151367187501;6.50999998356383;652;100 mA
7.01316798229345;0.400543212890625;0.000266418457031251;6.51999998353858;653;100 mA
7.02316798226821;0.400604248046875;0.0002606201171875;6.52999998351333;654;100 mA
7.03316798224296;0.400543212890625;0.000267639160156249;6.53999998348809;655;100 mA
7.04316798221771;0.400543212890625;0.000261535644531249;6.54999998346284;656;100 mA
7.05316798219246;0.400604248046875;0.000264892578125001;6.55999998343759;657;100 mA
7.06316798216722;0.400543212890625;0.00027008056640625;6.56999998341234;658;100 mA
7.07316798214197;0.40057373046875;0.00027008056640625;6.5799999833871;659;100 mA
7.08316798211672;0.4005126953125;0.00027801513671875;6.58999998336185;660;100 mA
7.09316798209147;0.400665283203125;0.000256958007812499;6.5999999833366;661;100 mA
7.10316798206622;0.400543212890625;0.000263061523437499;6.60999998331135;662;100 mA
7.11316798204098;0.400604248046875;0.0002606201171875;6.61999998328611;663;100 mA
7.12316798201573;0.40057373046875;0.000272521972656251;6.62999998326086;664;100 mA
7.13316798199048;0.400604248046875;0.000263366699218751;6.63999998323561;665;100 mA
7.14316798196523;0.400543212890625;0.00026519775390625;6.64999998321036;666;100 mA
7.15316798193999;0.400543212890625;0.000272521972656251;6.65999998318512;667;100 mA
7.16316798191474;0.40057373046875;0.000274658203125;6.66999998315987;668;100 mA
7.17316798188949;0.400543212890625;0.0002581787109375;6.67999998313462;669;100 mA
7.18316798186424;0.40057373046875;0.000258483886718749;6.68999998310937;670;100 mA
7.193167981839;0.400665283203125;0.00025146484375;6.69999998308413;671;100 mA
7.20316798181375;0.40045166015625;0.00026702880859375;6.70999998305888;672;100 mA
7.2131679817885;0.40057373046875;0.000263366699218751;6.71999998303363;673;100 mA
7.22316798176325;0.400482177734375;0.00026580810546875;6.72999998300838;674;100 mA
7.23316798173801;0.400634765625;0.000269470214843751;6.73999998298314;675;100 mA
7.24316798171276;0.40057373046875;0.000263671875;6.74999998295789;676;100 mA
7.25316798168751;0.400634765625;0.00025665283203125;6.75999998293264;677;100 mA
7.26316798166226;0.400543212890625;0.0002545166015625;6.76999998290739;678;100 mA
7.27316798163702;0.4005126953125;0.000252380371093749;6.77999998288215;679;100 mA
7.28316798161177;0.400543212890625;0.0002655029296875;6.7899999828569;680;100 mA
7.29316798158652;0.400604248046875;0.000252685546875001;6.79999998283165;681;100 mA
7.30316798156127;0.400543212890625;0.000264587402343749;6.8099999828064;682;100 mA
7.31316798153603;0.400604248046875;0.000263061523437499;6.81999998278116;683;100 mA
7.32316798151078;0.400543212890625;0.000263366699218751;6.82999998275591;684;100 mA
7.33316798148553;0.400543212890625;0.000260009765624999;6.83999998273066;685;100 mA
7.34316798146028;0.4005126953125;0.00025146484375;6.84999998270541;686;100 mA
7.35316798143504;0.400634765625;0.00025146484375;6.85999998268016;687;100 mA
7.36316798140979;0.4005126953125;0.000257263183593751;6.86999998265492;688;100 mA
7.37316798138454;0.400634765625;0.00025054931640625;6.87999998262967;689;100 mA
7.38316798135929;0.40057373046875;0.0002606201171875;6.88999998260442;690;100 mA
7.39316798133405;0.40057373046875;0.00025604248046875;6.89999998257917;691;100 mA
7.4031679813088;0.400634765625;0.000260009765624999;6.90999998255393;692;100 mA
7.41316798128355;0.400604248046875;0.000255432128906249;6.91999998252868;693;100 mA
7.4231679812583;0.400604248046875;0.0002471923828125;6.92999998250343;694;100 mA
7.43316798123305;0.400482177734375;0.000254211425781251;6.93999998247818;695;100 mA
7.44316798120781;0.400543212890625;0.000250854492187499;6.94999998245294;696;100 mA
7.45316798118256;0.40069580078125;0.00024566650390625;6.95999998242769;697;100 mA
7.46316798115731;0.400604248046875;0.000257568359375;6.96999998240244;698;100 mA
7.47316798113206;0.400634765625;0.00025360107421875;6.97999998237719;699;100 mA
7.48316798110682;0.400482177734375;0.000266418457031251;6.98999998235195;700;100 mA
7.49316798108157;0.40057373046875;0.000245056152343751;6.9999999823267;701;100 mA
7.50316798105632;0.400482177734375;0.000249633789062501;7.00999998230145;702;100 mA
7.51316798103107;0.40057373046875;0.00025146484375;7.0199999822762;703;100 mA
7.52316798100583;0.400543212890625;0.000249633789062501;7.02999998225096;704;100 mA
7.53316798098058;0.40057373046875;0.0002532958984375;7.03999998222571;705;100 mA
7.54316798095533;0.400543212890625;0.00025360107421875;7.04999998220046;706;100 mA
7.55316798093008;0.400482177734375;0.000257263183593751;7.05999998217521;707;100 mA
7.56316798090484;0.4005126953125;0.00026397705078125;7.06999998214997;708;100 mA
7.57316798087959;0.400665283203125;0.00024444580078125;7.07999998212472;709;100 mA
7.58316798085434;0.400604248046875;0.00025299072265625;7.08999998209947;710;100 mA
7.59316798082909;0.4005126953125;0.000244750976562499;7.09999998207422;711;100 mA
7.60316798080385;0.400543212890625;0.000256958007812499;7.10999998204898;712;100 mA
7.6131679807786;0.400634765625;0.000249328613281249;7.11999998202373;713;100 mA
7.62316798075335;0.40057373046875;0.000256958007812499;7.12999998199848;714;100 mA
7.6331679807281;0.400634765625;0.000258483886718749;7.13999998197323;715;100 mA
7.64316798070286;0.40057373046875;0.0002606201171875;7.14999998194799;716;100 mA
7.65316798067761;0.400634765625;0.00025177001953125;7.15999998192274;717;100 mA
7.66316798065236;0.40057373046875;0.0002459716796875;7.16999998189749;718;100 mA
7.67316798062711;0.4005126953125;0.00024383544921875;7.17999998187224;719;100 mA
7.68316798060187;0.400634765625;0.0002581787109375;7.189999981847;720;100 mA
7.69316798057662;0.400604248046875;0.000243530273437501;7.19999998182175;721;100 mA
7.70316798055137;0.400543212890625;0.000257263183593751;7.2099999817965;722;100 mA
7.71316798052612;0.400482177734375;0.0002593994140625;7.21999998177125;723;100 mA
7.72316798050088;0.40057373046875;0.00025909423828125;7.229999981746;724;100 mA
7.73316798047563;0.40057373046875;0.00025360107421875;7.23999998172076;725;100 mA
7.74316798045038;0.400665283203125;0.000240173339843749;7.24999998169551;726;100 mA
7.75316798042513;0.40057373046875;0.000240478515625001;7.25999998167026;727;100 mA
7.76316798039988;0.4005126953125;0.000255126953125;7.26999998164501;728;100 mA
7.77316798037464;0.400634765625;0.000246276855468749;7.27999998161977;729;100 mA
7.78316798034939;0.400634765625;0.00025482177734375;7.28999998159452;730;100 mA
7.79316798032414;0.400604248046875;0.0002484130859375;7.29999998156927;731;100 mA
7.80316798029889;0.4005126953125;0.000257568359375;7.30999998154402;732;100 mA
7.81316798027365;0.40057373046875;0.000255432128906249;7.31999998151878;733;100 mA
7.8231679802484;0.400543212890625;0.00024139404296875;7.32999998149353;734;100 mA
7.83316798022315;0.400482177734375;0.00025177001953125;7.33999998146828;735;100 mA
7.8431679801979;0.400543212890625;0.000253906249999999;7.34999998144303;736;100 mA
7.85316798017266;0.40069580078125;0.000251159667968751;7.35999998141779;737;100 mA
7.86316798014741;0.400604248046875;0.000255126953125;7.36999998139254;738;100 mA
7.87316798012216;0.400482177734375;0.00025299072265625;7.37999998136729;739;100 mA
7.88316798009691;0.4005126953125;0.000264587402343749;7.38999998134204;740;100 mA
7.89316798007167;0.400604248046875;0.00024749755859375;7.3999999813168;741;100 mA
7.90316798004642;0.400604248046875;0.0002490234375;7.40999998129155;742;100 mA
7.91316798002117;0.400604248046875;0.00025299072265625;7.4199999812663;743;100 mA
7.92316797999592;0.400482177734375;0.0002545166015625;7.42999998124105;744;100 mA
7.93316797997068;0.40057373046875;0.000254211425781251;7.43999998121581;745;100 mA
7.94316797994543;0.4005126953125;0.000255737304687501;7.44999998119056;746;100 mA
7.95316797992018;0.400543212890625;0.000257568359375;7.45999998116531;747;100 mA
7.96316797989493;0.400482177734375;0.000263366699218751;7.46999998114006;748;100 mA
7.97316797986969;0.400604248046875;0.000250854492187499;7.47999998111482;749;100 mA
7.98316797984444;0.4005126953125;0.00025146484375;7.48999998108957;750;100 mA
7.99316797981919;0.4005126953125;0.000249328613281249;7.49999998106432;751;100 mA
8.00316797979394;0.400604248046875;0.0002593994140625;7.50999998103907;752;100 mA
8.0131679797687;0.400604248046875;0.000255737304687501;7.51999998101383;753;100 mA
8.02316797974345;0.40057373046875;0.00025634765625;7.52999998098858;754;100 mA
8.0331679797182;0.400543212890625;0.00026519775390625;7.53999998096333;755;100 mA
8.04316797969295;0.40057373046875;0.0002581787109375;7.54999998093808;756;100 mA
8.05316797966771;0.400543212890625;0.00025634765625;7.55999998091283;757;100 mA
8.06316797964246;0.400543212890625;0.00025054931640625;7.56999998088759;758;100 mA
8.07316797961721;0.400665283203125;0.00024139404296875;7.57999998086234;759;100 mA
8.08316797959196;0.400543212890625;0.000263061523437499;7.58999998083709;760;100 mA
8.09316797956672;0.40057373046875;0.00024688720703125;7.59999998081184;761;100 mA
8.10316797954147;0.4005126953125;0.00025787353515625;7.6099999807866;762;100 mA
8.11316797951622;0.4005126953125;0.000260314941406251;7.61999998076135;763;100 mA
8.12316797949097;0.400634765625;0.00025787353515625;7.6299999807361;764;100 mA
8.13316797946572;0.400604248046875;0.000258483886718749;7.63999998071085;765;100 mA
8.14316797944048;0.400634765625;0.000245361328125;7.64999998068561;766;100 mA
8.15316797941523;0.400543212890625;0.0002459716796875;7.65999998066036;767;100 mA
8.16316797938998;0.400543212890625;0.0002581787109375;7.66999998063511;768;100 mA
8.17316797936473;0.400604248046875;0.00024688720703125;7.67999998060986;769;100 mA
8.18316797933949;0.400543212890625;0.0002593994140625;7.68999998058462;770;100 mA
8.19316797931424;0.400604248046875;0.00025482177734375;7.69999998055937;771;100 mA
8.20316797928899;0.4005126953125;0.000264587402343749;7.70999998053412;772;100 mA
8.21316797926374;0.400543212890625;0.00025299072265625;7.71999998050887;773;100 mA
8.2231679792385;0.40057373046875;0.00024688720703125;7.72999998048363;774;100 mA
8.23316797921325;0.40057373046875;0.000252380371093749;7.73999998045838;775;100 mA
8.243167979188;0.400604248046875;0.00025604248046875;7.74999998043313;776;100 mA
8.25316797916275;0.400634765625;0.000249328613281249;7.75999998040788;777;100 mA
8.26316797913751;0.400543212890625;0.000256958007812499;7.76999998038264;778;100 mA
8.27316797911226;0.40057373046875;0.00025604248046875;7.77999998035739;779;100 mA
8.28316797908701;0.400543212890625;0.00026092529296875;7.78999998033214;780;100 mA
8.29316797906176;0.4005126953125;0.000255126953125;7.79999998030689;781;100 mA
8.30316797903652;0.40057373046875;0.00024993896484375;7.80999998028165;782;100 mA
8.31316797901127;0.400543212890625;0.0002471923828125;7.8199999802564;783;100 mA
8.32316797898602;0.4005126953125;0.000257263183593751;7.82999998023115;784;100 mA
8.33316797896077;0.400604248046875;0.00025604248046875;7.8399999802059;785;100 mA
8.34316797893553;0.400543212890625;0.000255737304687501;7.84999998018066;786;100 mA
8.35316797891028;0.400634765625;0.000254211425781251;7.85999998015541;787;100 mA
8.36316797888503;0.400543212890625;0.0002593994140625;7.86999998013016;788;100 mA
8.37316797885978;0.400604248046875;0.00025299072265625;7.87999998010491;789;100 mA
8.38316797883454;0.40057373046875;0.00025054931640625;7.88999998007966;790;100 mA
8.39316797880929;0.40057373046875;0.000240478515625001;7.89999998005442;791;100 mA
8.40316797878404;0.400634765625;0.000255126953125;7.90999998002917;792;100 mA
8.41316797875879;0.40057373046875;0.0002490234375;7.91999998000392;793;100 mA
8.42316797873355;0.400604248046875;0.000252685546875001;7.92999997997867;794;100 mA
8.4331679787083;0.400543212890625;0.0002581787109375;7.93999997995343;795;100 mA
8.44316797868305;0.400604248046875;0.0002545166015625;7.94999997992818;796;100 mA
8.4531679786578;0.400543212890625;0.000252380371093749;7.95999997990293;797;100 mA
8.46316797863255;0.400604248046875;0.0002471923828125;7.96999997987768;798;100 mA
8.47316797860731;0.40057373046875;0.000245056152343751;7.97999997985244;799;100 mA
8.48316797858206;0.4005126953125;0.00025909423828125;7.98999997982719;800;100 mA
8.49316797855681;0.40057373046875;0.000245056152343751;7.99999997980194;801;100 mA
8.50316797853156;0.4005126953125;0.000257263183593751;8.00999997977669;802;100 mA
8.51316797850632;0.400634765625;0.000260009765624999;8.01999997975145;803;100 mA
8.52316797848107;0.400543212890625;0.000256958007812499;8.0299999797262;804;100 mA
8.53316797845582;0.40057373046875;0.000257263183593751;8.03999997970095;805;100 mA
8.54316797843057;0.4005126953125;0.000244750976562499;8.0499999796757;806;100 mA
8.55316797840533;0.400543212890625;0.00024566650390625;8.05999997965046;807;100 mA
8.56316797838008;0.40057373046875;0.00025787353515625;8.06999997962521;808;100 mA
8.57316797835483;0.400634765625;0.000242004394531251;8.07999997959996;809;100 mA
8.58316797832958;0.400604248046875;0.00025665283203125;8.08999997957471;810;100 mA
8.59316797830434;0.40045166015625;0.00025054931640625;8.09999997954947;811;100 mA
8.60316797827909;0.4005126953125;0.00025604248046875;8.10999997952422;812;100 mA
8.61316797825384;0.4005126953125;0.0002520751953125;8.11999997949897;813;100 mA
8.62316797822859;0.400604248046875;0.00024261474609375;8.12999997947372;814;100 mA
8.63316797820335;0.400665283203125;0.0002490234375;8.13999997944848;815;100 mA
8.6431679781781;0.400543212890625;0.000250854492187499;8.14999997942323;816;100 mA
8.65316797815285;0.400665283203125;0.000248107910156251;8.15999997939798;817;100 mA
8.6631679781276;0.40057373046875;0.000252380371093749;8.16999997937273;818;100 mA
8.67316797810236;0.400634765625;0.000250854492187499;8.17999997934749;819;100 mA
8.68316797807711;0.400604248046875;0.00025604248046875;8.18999997932224;820;100 mA
8.69316797805186;0.40045166015625;0.000252380371093749;8.19999997929699;821;100 mA
8.70316797802661;0.400482177734375;0.000243225097656249;8.20999997927174;822;100 mA
8.71316797800137;0.400543212890625;0.00024383544921875;8.2199999792465;823;100 mA
8.72316797797612;0.400634765625;0.000250244140625;8.22999997922125;824;100 mA
8.73316797795087;0.40057373046875;0.00024993896484375;8.239999979196;825;100 mA
8.74316797792562;0.40057373046875;0.0002484130859375;8.24999997917075;826;100 mA
8.75316797790038;0.400543212890625;0.0002490234375;8.2599999791455;827;100 mA
8.76316797787513;0.400543212890625;0.00025604248046875;8.26999997912026;828;100 mA
8.77316797784988;0.40057373046875;0.0002490234375;8.27999997909501;829;100 mA
8.78316797782463;0.400543212890625;0.00024444580078125;8.28999997906976;830;100 mA
8.79316797779938;0.40057373046875;0.00024261474609375;8.29999997904451;831;100 mA
8.80316797777414;0.400604248046875;0.0002520751953125;8.30999997901927;832;100 mA
8.81316797774889;0.40057373046875;0.00024749755859375;8.31999997899402;833;100 mA
8.82316797772364;0.40057373046875;0.0002459716796875;8.32999997896877;834;100 mA
8.83316797769839;0.400604248046875;0.00025482177734375;8.33999997894352;835;100 mA
8.84316797767315;0.400543212890625;0.00025146484375;8.34999997891828;836;100 mA
8.8531679776479;0.40057373046875;0.0002532958984375;8.35999997889303;837;100 mA
8.86316797762265;0.400634765625;0.000243530273437501;8.36999997886778;838;100 mA
8.8731679775974;0.400482177734375;0.000243530273437501;8.37999997884253;839;100 mA
8.88316797757216;0.400543212890625;0.00025604248046875;8.38999997881729;840;100 mA
8.89316797754691;0.400604248046875;0.000244140625;8.39999997879204;841;100 mA
8.90316797752166;0.400604248046875;0.000249633789062501;8.40999997876679;842;100 mA
8.91316797749641;0.400665283203125;0.000249633789062501;8.41999997874154;843;100 mA
8.92316797747117;0.400482177734375;0.0002532958984375;8.4299999787163;844;100 mA
8.93316797744592;0.400482177734375;0.0002545166015625;8.43999997869105;845;100 mA
8.94316797742067;0.400543212890625;0.000242004394531251;8.4499999786658;846;100 mA
8.95316797739542;0.40057373046875;0.000244750976562499;8.45999997864055;847;100 mA
8.96316797737018;0.400604248046875;0.00025909423828125;8.46999997861531;848;100 mA
8.97316797734493;0.400665283203125;0.00024444580078125;8.47999997859006;849;100 mA
8.98316797731968;0.400482177734375;0.00025054931640625;8.48999997856481;850;100 mA
8.99316797729443;0.4005126953125;0.00024566650390625;8.49999997853956;851;100 mA
9.00316797726919;0.40057373046875;0.00024444580078125;8.50999997851432;852;100 mA
9.01316797724394;0.4005126953125;0.000250244140625;8.51999997848907;853;100 mA
9.02316797721869;0.400634765625;0.00024139404296875;8.52999997846382;854;100 mA
9.03316797719344;0.400543212890625;0.00024993896484375;8.53999997843857;855;100 mA
9.0431679771682;0.4005126953125;0.000254211425781251;8.54999997841333;856;100 mA
9.05316797714295;0.40057373046875;0.0002484130859375;8.55999997838808;857;100 mA
9.0631679771177;0.4005126953125;0.00025360107421875;8.56999997836283;858;100 mA
9.07316797709245;0.400634765625;0.000244140625;8.57999997833758;859;100 mA
9.08316797706721;0.400543212890625;0.0002532958984375;8.58999997831233;860;100 mA
9.09316797704196;0.400543212890625;0.00024688720703125;8.59999997828709;861;100 mA
9.10316797701671;0.400634765625;0.00024078369140625;8.60999997826184;862;100 mA
9.11316797699146;0.40057373046875;0.000242919921875;8.61999997823659;863;100 mA
9.12316797696622;0.40057373046875;0.000249328613281249;8.62999997821134;864;100 mA
9.13316797694097;0.400634765625;0.000246582031250001;8.6399999781861;865;100 mA
9.14316797691572;0.400543212890625;0.0002471923828125;8.64999997816085;866;100 mA
9.15316797689047;0.4005126953125;0.00024749755859375;8.6599999781356;867;100 mA
9.16316797686522;0.400543212890625;0.00025177001953125;8.66999997811035;868;100 mA
9.17316797683998;0.4005126953125;0.000243225097656249;8.67999997808511;869;100 mA
9.18316797681473;0.400604248046875;0.00024078369140625;8.68999997805986;870;100 mA
9.19316797678948;0.400482177734375;0.000241699218749999;8.69999997803461;871;100 mA
9.20316797676423;0.4005126953125;0.000252685546875001;8.70999997800936;872;100 mA
9.21316797673899;0.400604248046875;0.0002459716796875;8.71999997798412;873;100 mA
9.22316797671374;0.4005126953125;0.00024688720703125;8.72999997795887;874;100 mA
9.23316797668849;0.40069580078125;0.000248107910156251;8.73999997793362;875;100 mA
9.24316797666324;0.4005126953125;0.000248107910156251;8.74999997790837;876;100 mA
9.253167976638;0.400482177734375;0.000246276855468749;8.75999997788313;877;100 mA
9.26316797661275;0.400482177734375;0.000243225097656249;8.76999997785788;878;100 mA
9.2731679765875;0.400604248046875;0.000235900878906251;8.77999997783263;879;100 mA
9.28316797656225;0.400604248046875;0.000255432128906249;8.78999997780738;880;100 mA
9.29316797653701;0.400604248046875;0.000238037109375;8.79999997778214;881;100 mA
9.30316797651176;0.4005126953125;0.000240478515625001;8.80999997775689;882;100 mA
9.31316797648651;0.400482177734375;0.00024383544921875;8.81999997773164;883;100 mA
9.32316797646126;0.4005126953125;0.000245056152343751;8.82999997770639;884;100 mA
9.33316797643602;0.40045166015625;0.000253906249999999;8.83999997768115;885;100 mA
9.34316797641077;0.400543212890625;0.00023681640625;8.8499999776559;886;100 mA
9.35316797638552;0.400665283203125;0.000234375000000001;8.85999997763065;887;100 mA
9.36316797636027;0.4005126953125;0.000254211425781251;8.8699999776054;888;100 mA
9.37316797633503;0.40057373046875;0.000244140625;8.87999997758016;889;100 mA
9.38316797630978;0.400543212890625;0.0002423095703125;8.88999997755491;890;100 mA
9.39316797628453;0.40057373046875;0.000242919921875;8.89999997752966;891;100 mA
9.40316797625928;0.400604248046875;0.00024383544921875;8.90999997750441;892;100 mA
9.41316797623404;0.400634765625;0.0002423095703125;8.91999997747916;893;100 mA
9.42316797620879;0.4005126953125;0.0002362060546875;8.92999997745392;894;100 mA
9.43316797618354;0.400543212890625;0.0002398681640625;8.93999997742867;895;100 mA
9.44316797615829;0.400634765625;0.0002490234375;8.94999997740342;896;100 mA
9.45316797613305;0.40057373046875;0.0002490234375;8.95999997737817;897;100 mA
9.4631679761078;0.40057373046875;0.00024566650390625;8.96999997735293;898;100 mA
9.47316797608255;0.4005126953125;0.00024444580078125;8.97999997732768;899;100 mA
9.4831679760573;0.400543212890625;0.00024993896484375;8.98999997730243;900;100 mA
9.49316797603205;0.400482177734375;0.000246276855468749;8.99999997727718;901;100 mA
9.50316797600681;0.400543212890625;0.000242919921875;9.00999997725194;902;100 mA
9.51316797598156;0.400634765625;0.00024444580078125;9.01999997722669;903;100 mA
9.52316797595631;0.400482177734375;0.00024749755859375;9.02999997720144;904;100 mA
9.53316797593106;0.400543212890625;0.00025054931640625;9.03999997717619;905;100 mA
9.54316797590582;0.400543212890625;0.000243530273437501;9.04999997715095;906;100 mA
9.55316797588057;0.400543212890625;0.000249328613281249;9.0599999771257;907;100 mA
9.56316797585532;0.400543212890625;0.00024993896484375;9.06999997710045;908;100 mA
9.57316797583007;0.400543212890625;0.0002490234375;9.0799999770752;909;100 mA
9.58316797580483;0.400604248046875;0.00024688720703125;9.08999997704996;910;100 mA
9.59316797577958;0.400482177734375;0.000240173339843749;9.09999997702471;911;100 mA
9.60316797575433;0.40057373046875;0.00024993896484375;9.10999997699946;912;100 mA
9.61316797572908;0.40057373046875;0.0002471923828125;9.11999997697421;913;100 mA
9.62316797570384;0.400634765625;0.000247802734374999;9.12999997694897;914;100 mA
9.63316797567859;0.400604248046875;0.000254211425781251;9.13999997692372;915;100 mA
9.64316797565334;0.4005126953125;0.00024749755859375;9.14999997689847;916;100 mA
9.65316797562809;0.4005126953125;0.00025299072265625;9.15999997687322;917;100 mA
9.66316797560285;0.400543212890625;0.000244140625;9.16999997684798;918;100 mA
9.6731679755776;0.400665283203125;0.000243530273437501;9.17999997682273;919;100 mA
9.68316797555235;0.400543212890625;0.0002593994140625;9.18999997679748;920;100 mA
9.6931679755271;0.400604248046875;0.0002484130859375;9.19999997677223;921;100 mA
9.70316797550186;0.40057373046875;0.0002490234375;9.20999997674699;922;100 mA
9.71316797547661;0.400543212890625;0.00024871826171875;9.21999997672174;923;100 mA
9.72316797545136;0.40057373046875;0.000249328613281249;9.22999997669649;924;100 mA
9.73316797542611;0.4005126953125;0.000258483886718749;9.23999997667124;925;100 mA
9.74316797540087;0.40057373046875;0.000244750976562499;9.249999976646;926;100 mA
9.75316797537562;0.40045166015625;0.00024871826171875;9.25999997662075;927;100 mA
9.76316797535037;0.40057373046875;0.000257568359375;9.2699999765955;928;100 mA
9.77316797532512;0.40057373046875;0.0002490234375;9.27999997657025;929;100 mA
9.78316797529988;0.400543212890625;0.00025634765625;9.289999976545;930;100 mA
9.79316797527463;0.400604248046875;0.000251159667968751;9.29999997651976;931;100 mA
9.80316797524938;0.400543212890625;0.000254211425781251;9.30999997649451;932;100 mA
9.81316797522413;0.400543212890625;0.000250854492187499;9.31999997646926;933;100 mA
9.82316797519888;0.400482177734375;0.00024688720703125;9.32999997644401;934;100 mA
9.83316797517364;0.40057373046875;0.00024993896484375;9.33999997641877;935;100 mA
9.84316797514839;0.400604248046875;0.00025787353515625;9.34999997639352;936;100 mA
9.85316797512314;0.40057373046875;0.000255126953125;9.35999997636827;937;100 mA
9.86316797509789;0.4005126953125;0.00025634765625;9.36999997634302;938;100 mA
9.87316797507265;0.400482177734375;0.00024871826171875;9.37999997631778;939;100 mA
9.8831679750474;0.4005126953125;0.000257263183593751;9.38999997629253;940;100 mA
9.89316797502215;0.40057373046875;0.000250854492187499;9.39999997626728;941;100 mA
9.9031679749969;0.400604248046875;0.0002484130859375;9.40999997624203;942;100 mA
9.91316797497166;0.400604248046875;0.0002484130859375;9.41999997621679;943;100 mA
9.92316797494641;0.400543212890625;0.000261535644531249;9.42999997619154;944;100 mA
9.93316797492116;0.40057373046875;0.0002593994140625;9.43999997616629;945;100 mA
9.94316797489591;0.400604248046875;0.000252380371093749;9.44999997614104;946;100 mA
9.95316797487067;0.400634765625;0.00025299072265625;9.4599999761158;947;100 mA
9.96316797484542;0.400543212890625;0.000257568359375;9.46999997609055;948;100 mA
9.97316797482017;0.40057373046875;0.000255737304687501;9.4799999760653;949;100 mA
9.98316797479492;0.4005126953125;0.00025299072265625;9.48999997604005;950;100 mA
9.99316797476968;0.400543212890625;0.000247802734374999;9.49999997601481;951;100 mA
10.0031679747444;0.400604248046875;0.000260314941406251;9.50999997598956;952;100 mA
10.0131679747192;0.4005126953125;0.0002581787109375;9.51999997596431;953;100 mA
10.0231679746939;0.400604248046875;0.000253906249999999;9.52999997593906;954;100 mA
10.0331679746687;0.400543212890625;0.00026214599609375;9.53999997591382;955;100 mA
10.0431679746434;0.4005126953125;0.000257568359375;9.54999997588857;956;100 mA
10.0531679746182;0.40057373046875;0.00025909423828125;9.55999997586332;957;100 mA
10.0631679745929;0.400604248046875;0.000250854492187499;9.56999997583807;958;100 mA
10.0731679745677;0.40057373046875;0.0002532958984375;9.57999997581283;959;100 mA
10.0831679745424;0.4005126953125;0.0002655029296875;9.58999997578758;960;100 mA
10.0931679745172;0.400543212890625;0.000256958007812499;9.59999997576233;961;100 mA
10.103167974492;0.4005126953125;0.00025665283203125;9.60999997573708;962;100 mA
10.1131679744667;0.400604248046875;0.000255126953125;9.61999997571183;963;100 mA
10.1231679744415;0.400482177734375;0.000252685546875001;9.62999997568659;964;100 mA
10.1331679744162;0.400482177734375;0.000262451171875;9.63999997566134;965;100 mA
10.143167974391;0.400482177734375;0.000250244140625;9.64999997563609;966;100 mA
10.1531679743657;0.400482177734375;0.00025360107421875;9.65999997561084;967;100 mA
10.1631679743405;0.400634765625;0.000263061523437499;9.6699999755856;968;100 mA
10.1731679743152;0.40057373046875;0.000255126953125;9.67999997556035;969;100 mA
10.18316797429;0.40057373046875;0.00025970458984375;9.6899999755351;970;100 mA
10.1931679742647;0.400543212890625;0.00025146484375;9.69999997550985;971;100 mA
10.2031679742395;0.40057373046875;0.00025360107421875;9.70999997548461;972;100 mA
10.2131679742142;0.400482177734375;0.000263366699218751;9.71999997545936;973;100 mA
10.223167974189;0.400604248046875;0.0002545166015625;9.72999997543411;974;100 mA
10.2331679741637;0.400665283203125;0.000256958007812499;9.73999997540886;975;100 mA
10.2431679741385;0.4005126953125;0.00025634765625;9.74999997538362;976;100 mA
10.2531679741132;0.40057373046875;0.000263671875;9.75999997535837;977;100 mA
10.263167974088;0.400482177734375;0.00026214599609375;9.76999997533312;978;100 mA
10.2731679740627;0.400543212890625;0.000257263183593751;9.77999997530787;979;100 mA
10.2831679740375;0.400604248046875;0.00025482177734375;9.78999997528263;980;100 mA
10.2931679740122;0.400482177734375;0.00025665283203125;9.79999997525738;981;100 mA
10.303167973987;0.400543212890625;0.000255432128906249;9.80999997523213;982;100 mA
10.3131679739618;0.400543212890625;0.00025146484375;9.81999997520688;983;100 mA
10.3231679739365;0.400543212890625;0.00025909423828125;9.82999997518164;984;100 mA
10.3331679739113;0.4005126953125;0.00026397705078125;9.83999997515639;985;100 mA
10.343167973886;0.400543212890625;0.000255737304687501;9.84999997513114;986;100 mA
10.3531679738608;0.40057373046875;0.000250854492187499;9.85999997510589;987;100 mA
10.3631679738355;0.400482177734375;0.000254211425781251;9.86999997508065;988;100 mA
10.3731679738103;0.4005126953125;0.000257263183593751;9.8799999750554;989;100 mA
10.383167973785;0.40057373046875;0.000255432128906249;9.88999997503015;990;100 mA
10.3931679737598;0.400634765625;0.000247802734374999;9.8999999750049;991;100 mA
10.4031679737345;0.400634765625;0.00025787353515625;9.90999997497966;992;100 mA
10.4131679737093;0.400634765625;0.0002593994140625;9.91999997495441;993;100 mA
10.423167973684;0.400543212890625;0.0002532958984375;9.92999997492916;994;100 mA
10.4331679736588;0.400634765625;0.0002581787109375;9.93999997490391;995;100 mA
10.4431679736335;0.4005126953125;0.000249328613281249;9.94999997487866;996;100 mA
10.4531679736083;0.4005126953125;0.000260009765624999;9.95999997485342;997;100 mA
10.463167973583;0.400604248046875;0.00025299072265625;9.96999997482817;998;100 mA
10.4731679735578;0.400543212890625;0.000246276855468749;9.97999997480292;999;100 mA
10.4831679735325;0.4005126953125;0.000263366699218751;9.98999997477767;1000;100 mA
