Time (s);WE(1).Potential (V);WE(1).Current (A);Corrected time (s);Index;Current range
11.0383539721308;0.291900634765625;-0.000262451171875;0;1;100 mA
11.0483539721056;0.301025390625;-0.000599365234375;0.00999999997475243;2;100 mA
11.0583539720803;0.300445556640625;-0.00039825439453125;0.0199999999495049;3;100 mA
11.0683539720551;0.299896240234375;-0.00029449462890625;0.0299999999242573;4;100 mA
11.0783539720298;0.300537109375;-0.000232849121093751;0.0399999998990097;5;100 mA
11.0883539720046;0.300445556640625;-0.00017120361328125;0.0499999998737621;6;100 mA
11.0983539719793;0.300537109375;-0.000148620605468749;0.0599999998485146;7;100 mA
11.1083539719541;0.300537109375;-0.000113830566406251;0.069999999823267;8;100 mA
11.1183539719289;0.30047607421875;-8.30078124999995E-05;0.0799999997980194;9;100 mA
11.1283539719036;0.300506591796875;-6.80541992187506E-05;0.0899999997727718;10;100 mA
11.1383539718784;0.300567626953125;-4.76074218749997E-05;0.0999999997475243;11;100 mA
11.1483539718531;0.30035400390625;-3.72314453124995E-05;0.109999999722277;12;100 mA
11.1583539718279;0.300445556640625;-2.41088867187503E-05;0.119999999697029;13;100 mA
11.1683539718026;0.300537109375;-9.15527343750555E-07;0.129999999671782;14;100 mA
11.1783539717774;0.300537109375;-3.0517578125E-06;0.139999999646534;15;100 mA
11.1883539717521;0.300689697265625;1.220703125E-05;0.149999999621286;16;100 mA
11.1983539717269;0.300506591796875;2.07519531250006E-05;0.159999999596039;17;100 mA
11.2083539717016;0.300506591796875;3.54003906249997E-05;0.169999999570791;18;100 mA
11.2183539716764;0.3004150390625;3.75366210937506E-05;0.179999999545544;19;100 mA
11.2283539716511;0.300567626953125;3.57055664062494E-05;0.189999999520296;20;100 mA
11.2383539716259;0.300506591796875;4.85229492187503E-05;0.199999999495049;21;100 mA
11.2483539716006;0.300445556640625;5.18798828125E-05;0.209999999469801;22;100 mA
11.2583539715754;0.30059814453125;5.31005859375003E-05;0.219999999444553;23;100 mA
11.2683539715501;0.300628662109375;6.74438476562497E-05;0.229999999419306;24;100 mA
11.2783539715249;0.300567626953125;6.65283203125006E-05;0.239999999394058;25;100 mA
11.2883539714996;0.300445556640625;7.9345703125E-05;0.249999999368811;26;100 mA
11.2983539714744;0.300567626953125;7.59887695312503E-05;0.259999999343563;27;100 mA
11.3083539714492;0.300445556640625;7.99560546874994E-05;0.269999999318316;28;100 mA
11.3183539714239;0.3004150390625;8.23974609375E-05;0.279999999293068;29;100 mA
11.3283539713987;0.30047607421875;8.697509765625E-05;0.28999999926782;30;100 mA
11.3383539713734;0.30047607421875;8.97216796875003E-05;0.299999999242573;31;100 mA
11.3483539713482;0.300628662109375;9.24682617187506E-05;0.309999999217325;32;100 mA
11.3583539713229;0.300506591796875;9.70458984375006E-05;0.319999999192078;33;100 mA
11.3683539712977;0.300537109375;0.000101623535156251;0.32999999916683;34;100 mA
11.3783539712724;0.300537109375;9.79614257812497E-05;0.339999999141583;35;100 mA
11.3883539712472;0.300537109375;0.0001025390625;0.349999999116335;36;100 mA
11.3983539712219;0.30059814453125;9.52148437499994E-05;0.359999999091087;37;100 mA
11.4083539711967;0.300506591796875;0.000113830566406251;0.36999999906584;38;100 mA
11.4183539711714;0.30059814453125;0.0001068115234375;0.379999999040592;39;100 mA
11.4283539711462;0.300628662109375;0.00011322021484375;0.389999999015345;40;100 mA
11.4383539711209;0.300445556640625;0.00011749267578125;0.399999998990097;41;100 mA
11.4483539710957;0.300506591796875;0.000116882324218751;0.40999999896485;42;100 mA
11.4583539710704;0.300537109375;0.000119934082031251;0.419999998939602;43;100 mA
11.4683539710452;0.300567626953125;0.000124511718750001;0.429999998914354;44;100 mA
11.4783539710199;0.300506591796875;0.000113525390624999;0.439999998889107;45;100 mA
11.4883539709947;0.30047607421875;0.000128784179687499;0.449999998863859;46;100 mA
11.4983539709694;0.300506591796875;0.0001190185546875;0.459999998838612;47;100 mA
11.5083539709442;0.3006591796875;0.00013458251953125;0.469999998813364;48;100 mA
11.518353970919;0.3006591796875;0.00013092041015625;0.479999998788116;49;100 mA
11.5283539708937;0.300506591796875;0.000133361816406249;0.489999998762869;50;100 mA
11.5383539708685;0.300537109375;0.000133666992187501;0.499999998737621;51;100 mA
11.5483539708432;0.300537109375;0.000121154785156249;0.509999998712374;52;100 mA
11.558353970818;0.30047607421875;0.00012664794921875;0.519999998687126;53;100 mA
11.5683539707927;0.3004150390625;0.000140380859375;0.529999998661879;54;100 mA
11.5783539707675;0.300567626953125;0.000133056640625;0.539999998636631;55;100 mA
11.5883539707422;0.30059814453125;0.000137939453124999;0.549999998611383;56;100 mA
11.598353970717;0.30047607421875;0.000137939453124999;0.559999998586136;57;100 mA
11.6083539706917;0.300506591796875;0.0001434326171875;0.569999998560888;58;100 mA
11.6183539706665;0.30047607421875;0.0001422119140625;0.579999998535641;59;100 mA
11.6283539706412;0.300567626953125;0.00013458251953125;0.589999998510393;60;100 mA
11.638353970616;0.300537109375;0.000139465332031249;0.599999998485146;61;100 mA
11.6483539705907;0.300506591796875;0.000138244628906251;0.609999998459898;62;100 mA
11.6583539705655;0.30047607421875;0.000140991210937499;0.61999999843465;63;100 mA
11.6683539705402;0.300628662109375;0.000151977539062501;0.629999998409403;64;100 mA
11.678353970515;0.30059814453125;0.000147399902343751;0.639999998384155;65;100 mA
11.6883539704897;0.300506591796875;0.00015380859375;0.649999998358908;66;100 mA
11.6983539704645;0.300567626953125;0.000147094726562499;0.65999999833366;67;100 mA
11.7083539704392;0.30047607421875;0.000145568847656249;0.669999998308413;68;100 mA
11.718353970414;0.300506591796875;0.00014678955078125;0.679999998283165;69;100 mA
11.7283539703888;0.300445556640625;0.0001507568359375;0.689999998257917;70;100 mA
11.7383539703635;0.300537109375;0.000151977539062501;0.69999999823267;71;100 mA
11.7483539703383;0.300567626953125;0.000152587890625;0.709999998207422;72;100 mA
11.758353970313;0.300506591796875;0.00014984130859375;0.719999998182175;73;100 mA
11.7683539702878;0.300506591796875;0.000162353515624999;0.729999998156927;74;100 mA
11.7783539702625;0.300537109375;0.00014984130859375;0.73999999813168;75;100 mA
11.7883539702373;0.30059814453125;0.00014984130859375;0.749999998106432;76;100 mA
11.798353970212;0.300506591796875;0.00015289306640625;0.759999998081184;77;100 mA
11.8083539701868;0.300445556640625;0.00015869140625;0.769999998055937;78;100 mA
11.8183539701615;0.300445556640625;0.0001605224609375;0.779999998030689;79;100 mA
11.8283539701363;0.300506591796875;0.000156249999999999;0.789999998005442;80;100 mA
11.838353970111;0.300537109375;0.000165405273437499;0.799999997980194;81;100 mA
11.8483539700858;0.30047607421875;0.00015838623046875;0.809999997954947;82;100 mA
11.8583539700605;0.30059814453125;0.00015899658203125;0.819999997929699;83;100 mA
11.8683539700353;0.30047607421875;0.0001556396484375;0.829999997904451;84;100 mA
11.87835397001;0.30047607421875;0.000155029296875001;0.839999997879204;85;100 mA
11.8883539699848;0.300445556640625;0.00016510009765625;0.849999997853956;86;100 mA
11.8983539699595;0.300506591796875;0.00015594482421875;0.859999997828709;87;100 mA
11.9083539699343;0.300628662109375;0.000168762207031251;0.869999997803461;88;100 mA
11.918353969909;0.300445556640625;0.000167236328125001;0.879999997778214;89;100 mA
11.9283539698838;0.300537109375;0.00016326904296875;0.889999997752966;90;100 mA
11.9383539698586;0.3004150390625;0.000166015625;0.899999997727718;91;100 mA
11.9483539698333;0.30059814453125;0.00015533447265625;0.909999997702471;92;100 mA
11.9583539698081;0.300506591796875;0.000155029296875001;0.919999997677223;93;100 mA
11.9683539697828;0.300506591796875;0.0001666259765625;0.929999997651976;94;100 mA
11.9783539697576;0.300537109375;0.00015869140625;0.939999997626728;95;100 mA
11.9883539697323;0.300445556640625;0.00017059326171875;0.949999997601481;96;100 mA
11.9983539697071;0.300537109375;0.000161132812500001;0.959999997576233;97;100 mA
12.0083539696818;0.30047607421875;0.000174865722656251;0.969999997550985;98;100 mA
12.0183539696566;0.300537109375;0.000167236328125001;0.979999997525738;99;100 mA
12.0283539696313;0.30059814453125;0.000157775878906249;0.98999999750049;100;100 mA
12.0383539696061;0.30047607421875;0.00016326904296875;0.999999997475243;101;100 mA
12.0483539695808;0.300506591796875;0.00016632080078125;1.00999999745;102;100 mA
12.0583539695556;0.300506591796875;0.000164794921875;1.01999999742475;103;100 mA
12.0683539695303;0.300537109375;0.00017822265625;1.0299999973995;104;100 mA
12.0783539695051;0.300506591796875;0.0001666259765625;1.03999999737425;105;100 mA
12.0883539694798;0.300537109375;0.0001727294921875;1.049999997349;106;100 mA
12.0983539694546;0.30047607421875;0.000163879394531249;1.05999999732376;107;100 mA
12.1083539694293;0.30059814453125;0.0001617431640625;1.06999999729851;108;100 mA
12.1183539694041;0.300506591796875;0.000164794921875;1.07999999727326;109;100 mA
12.1283539693788;0.30047607421875;0.0001666259765625;1.08999999724801;110;100 mA
12.1383539693536;0.300506591796875;0.00016754150390625;1.09999999722277;111;100 mA
12.1483539693284;0.30047607421875;0.0001727294921875;1.10999999719752;112;100 mA
12.1583539693031;0.300537109375;0.0001678466796875;1.11999999717227;113;100 mA
12.1683539692779;0.300445556640625;0.000180969238281251;1.12999999714702;114;100 mA
12.1783539692526;0.300567626953125;0.000173034667968749;1.13999999712178;115;100 mA
12.1883539692274;0.300537109375;0.00016632080078125;1.14999999709653;116;100 mA
12.1983539692021;0.30047607421875;0.000163879394531249;1.15999999707128;117;100 mA
12.2083539691769;0.300445556640625;0.000172119140625;1.16999999704603;118;100 mA
12.2183539691516;0.3004150390625;0.0001727294921875;1.17999999702079;119;100 mA
12.2283539691264;0.300506591796875;0.00017364501953125;1.18999999699554;120;100 mA
12.2383539691011;0.300506591796875;0.00017822265625;1.19999999697029;121;100 mA
12.2483539690759;0.300506591796875;0.000176391601562501;1.20999999694504;122;100 mA
12.2583539690506;0.30047607421875;0.0001751708984375;1.2199999969198;123;100 mA
12.2683539690254;0.300537109375;0.000169677734375;1.22999999689455;124;100 mA
12.2783539690001;0.300567626953125;0.000167236328125001;1.2399999968693;125;100 mA
12.2883539689749;0.300506591796875;0.00017242431640625;1.24999999684405;126;100 mA
12.2983539689496;0.300537109375;0.000168457031249999;1.25999999681881;127;100 mA
12.3083539689244;0.3004150390625;0.0001800537109375;1.26999999679356;128;100 mA
12.3183539688991;0.300537109375;0.00017669677734375;1.27999999676831;129;100 mA
12.3283539688739;0.300506591796875;0.00017852783203125;1.28999999674306;130;100 mA
12.3383539688487;0.300506591796875;0.00018035888671875;1.29999999671782;131;100 mA
12.3483539688234;0.300567626953125;0.00016326904296875;1.30999999669257;132;100 mA
12.3583539687982;0.3004150390625;0.000166931152343749;1.31999999666732;133;100 mA
12.3683539687729;0.300445556640625;0.00017822265625;1.32999999664207;134;100 mA
12.3783539687477;0.3004150390625;0.00017547607421875;1.33999999661683;135;100 mA
12.3883539687224;0.300537109375;0.00018280029296875;1.34999999659158;136;100 mA
12.3983539686972;0.30059814453125;0.00017852783203125;1.35999999656633;137;100 mA
12.4083539686719;0.300537109375;0.0001873779296875;1.36999999654108;138;100 mA
12.4183539686467;0.300506591796875;0.000177917480468751;1.37999999651583;139;100 mA
12.4283539686214;0.300537109375;0.00016815185546875;1.38999999649059;140;100 mA
12.4383539685962;0.300506591796875;0.00017425537109375;1.39999999646534;141;100 mA
12.4483539685709;0.300506591796875;0.0001739501953125;1.40999999644009;142;100 mA
12.4583539685457;0.300628662109375;0.00016937255859375;1.41999999641484;143;100 mA
12.4683539685204;0.30029296875;0.000189208984375;1.4299999963896;144;100 mA
12.4783539684952;0.300445556640625;0.000174560546874999;1.43999999636435;145;100 mA
12.4883539684699;0.300445556640625;0.0001849365234375;1.4499999963391;146;100 mA
12.4983539684447;0.300567626953125;0.00017852783203125;1.45999999631385;147;100 mA
12.5083539684194;0.300628662109375;0.00017547607421875;1.46999999628861;148;100 mA
12.5183539683942;0.300567626953125;0.00017364501953125;1.47999999626336;149;100 mA
12.5283539683689;0.300537109375;0.000177612304687499;1.48999999623811;150;100 mA
12.5383539683437;0.300445556640625;0.0001800537109375;1.49999999621286;151;100 mA
12.5483539683185;0.300506591796875;0.00018280029296875;1.50999999618762;152;100 mA
12.5583539682932;0.300537109375;0.00017669677734375;1.51999999616237;153;100 mA
12.568353968268;0.300537109375;0.000189208984375;1.52999999613712;154;100 mA
12.5783539682427;0.300506591796875;0.00018310546875;1.53999999611187;155;100 mA
12.5883539682175;0.30047607421875;0.00017669677734375;1.54999999608663;156;100 mA
12.5983539681922;0.300445556640625;0.000168457031249999;1.55999999606138;157;100 mA
12.608353968167;0.300537109375;0.000184326171875;1.56999999603613;158;100 mA
12.6183539681417;0.300506591796875;0.00018341064453125;1.57999999601088;159;100 mA
12.6283539681165;0.30047607421875;0.0001849365234375;1.58999999598564;160;100 mA
12.6383539680912;0.30047607421875;0.00018463134765625;1.59999999596039;161;100 mA
12.648353968066;0.300506591796875;0.000185546875000001;1.60999999593514;162;100 mA
12.6583539680407;0.300537109375;0.00018035888671875;1.61999999590989;163;100 mA
12.6683539680155;0.30059814453125;0.000182189941406249;1.62999999588465;164;100 mA
12.6783539679902;0.30059814453125;0.00017822265625;1.6399999958594;165;100 mA
12.688353967965;0.300537109375;0.00018157958984375;1.64999999583415;166;100 mA
12.6983539679397;0.300445556640625;0.00017822265625;1.6599999958089;167;100 mA
12.7083539679145;0.300445556640625;0.000189208984375;1.66999999578366;168;100 mA
12.7183539678892;0.300506591796875;0.000182495117187501;1.67999999575841;169;100 mA
12.728353967864;0.300506591796875;0.000191345214843749;1.68999999573316;170;100 mA
12.7383539678387;0.300537109375;0.00018798828125;1.69999999570791;171;100 mA
12.7483539678135;0.300506591796875;0.000176086425781249;1.70999999568267;172;100 mA
12.7583539677883;0.30047607421875;0.000176086425781249;1.71999999565742;173;100 mA
12.768353967763;0.30047607421875;0.000182189941406249;1.72999999563217;174;100 mA
12.7783539677378;0.300628662109375;0.000182189941406249;1.73999999560692;175;100 mA
12.7883539677125;0.30047607421875;0.0001922607421875;1.74999999558167;176;100 mA
12.7983539676873;0.300445556640625;0.00018310546875;1.75999999555643;177;100 mA
12.808353967662;0.300445556640625;0.00019500732421875;1.76999999553118;178;100 mA
12.8183539676368;0.300506591796875;0.00018646240234375;1.77999999550593;179;100 mA
12.8283539676115;0.3006591796875;0.00017852783203125;1.78999999548068;180;100 mA
12.8383539675863;0.300537109375;0.000181884765625;1.79999999545544;181;100 mA
12.848353967561;0.300537109375;0.000177917480468751;1.80999999543019;182;100 mA
12.8583539675358;0.30047607421875;0.00017852783203125;1.81999999540494;183;100 mA
12.8683539675105;0.300384521484375;0.00019683837890625;1.82999999537969;184;100 mA
12.8783539674853;0.300567626953125;0.000179138183593749;1.83999999535445;185;100 mA
12.88835396746;0.30047607421875;0.000194091796875;1.8499999953292;186;100 mA
12.8983539674348;0.300567626953125;0.0001849365234375;1.85999999530395;187;100 mA
12.9083539674095;0.300537109375;0.000180664062499999;1.8699999952787;188;100 mA
12.9183539673843;0.300506591796875;0.000180664062499999;1.87999999525346;189;100 mA
12.928353967359;0.30047607421875;0.00018157958984375;1.88999999522821;190;100 mA
12.9383539673338;0.30047607421875;0.000191650390625001;1.89999999520296;191;100 mA
12.9483539673085;0.300506591796875;0.000189819335937499;1.90999999517771;192;100 mA
12.9583539672833;0.300445556640625;0.00018463134765625;1.91999999515247;193;100 mA
12.9683539672581;0.300445556640625;0.0001953125;1.92999999512722;194;100 mA
12.9783539672328;0.30047607421875;0.000188598632812501;1.93999999510197;195;100 mA
12.9883539672076;0.300628662109375;0.00018310546875;1.94999999507672;196;100 mA
12.9983539671823;0.300537109375;0.00018341064453125;1.95999999505148;197;100 mA
13.0083539671571;0.300506591796875;0.00018890380859375;1.96999999502623;198;100 mA
13.0183539671318;0.3004150390625;0.00018890380859375;1.97999999500098;199;100 mA
13.0283539671066;0.3004150390625;0.000191345214843749;1.98999999497573;200;100 mA
13.0383539670813;0.300567626953125;0.00018585205078125;1.99999999495049;201;100 mA
13.0483539670561;0.300506591796875;0.000189819335937499;2.00999999492524;202;100 mA
13.0583539670308;0.300567626953125;0.00018341064453125;2.01999999489999;203;100 mA
13.0683539670056;0.300506591796875;0.00018951416015625;2.02999999487474;204;100 mA
13.0783539669803;0.300537109375;0.0001861572265625;2.0399999948495;205;100 mA
13.0883539669551;0.30047607421875;0.0001873779296875;2.04999999482425;206;100 mA
13.0983539669298;0.30047607421875;0.0001873779296875;2.059999994799;207;100 mA
13.1083539669046;0.300567626953125;0.000196533203125;2.06999999477375;208;100 mA
13.1183539668793;0.30047607421875;0.00018798828125;2.0799999947485;209;100 mA
13.1283539668541;0.300506591796875;0.0001971435546875;2.08999999472326;210;100 mA
13.1383539668288;0.30047607421875;0.000194091796875;2.09999999469801;211;100 mA
13.1483539668036;0.30059814453125;0.000182189941406249;2.10999999467276;212;100 mA
13.1583539667783;0.300506591796875;0.0001800537109375;2.11999999464751;213;100 mA
13.1683539667531;0.300537109375;0.00018646240234375;2.12999999462227;214;100 mA
13.1783539667279;0.30047607421875;0.000191650390625001;2.13999999459702;215;100 mA
13.1883539667026;0.3004150390625;0.000194396972656249;2.14999999457177;216;100 mA
13.1983539666774;0.30047607421875;0.000183715820312499;2.15999999454652;217;100 mA
13.2083539666521;0.300445556640625;0.0001995849609375;2.16999999452128;218;100 mA
13.2183539666269;0.300506591796875;0.00019073486328125;2.17999999449603;219;100 mA
13.2283539666016;0.300628662109375;0.000181884765625;2.18999999447078;220;100 mA
13.2383539665764;0.300384521484375;0.000188293457031249;2.19999999444553;221;100 mA
13.2483539665511;0.300506591796875;0.0001800537109375;2.20999999442029;222;100 mA
13.2583539665259;0.30047607421875;0.00018463134765625;2.21999999439504;223;100 mA
13.2683539665006;0.3004150390625;0.000197753906250001;2.22999999436979;224;100 mA
13.2783539664754;0.300445556640625;0.000189819335937499;2.23999999434454;225;100 mA
13.2883539664501;0.300506591796875;0.000196228027343751;2.2499999943193;226;100 mA
13.2983539664249;0.300506591796875;0.00018646240234375;2.25999999429405;227;100 mA
13.3083539663996;0.30059814453125;0.0001849365234375;2.2699999942688;228;100 mA
13.3183539663744;0.300567626953125;0.00018646240234375;2.27999999424355;229;100 mA
13.3283539663491;0.300506591796875;0.00018585205078125;2.28999999421831;230;100 mA
13.3383539663239;0.300567626953125;0.000192871093749999;2.29999999419306;231;100 mA
13.3483539662986;0.300384521484375;0.0001910400390625;2.30999999416781;232;100 mA
13.3583539662734;0.30047607421875;0.00018280029296875;2.31999999414256;233;100 mA
13.3683539662482;0.300445556640625;0.00019805908203125;2.32999999411732;234;100 mA
13.3783539662229;0.30059814453125;0.000189819335937499;2.33999999409207;235;100 mA
13.3883539661977;0.300628662109375;0.0001873779296875;2.34999999406682;236;100 mA
13.3983539661724;0.30047607421875;0.00018157958984375;2.35999999404157;237;100 mA
13.4083539661472;0.300506591796875;0.00018310546875;2.36999999401633;238;100 mA
13.4183539661219;0.30035400390625;0.000190124511718751;2.37999999399108;239;100 mA
13.4283539660967;0.300506591796875;0.00019073486328125;2.38999999396583;240;100 mA
13.4383539660714;0.30047607421875;0.0001934814453125;2.39999999394058;241;100 mA
13.4483539660462;0.300537109375;0.0001922607421875;2.40999999391533;242;100 mA
13.4583539660209;0.30047607421875;0.00018646240234375;2.41999999389009;243;100 mA
13.4683539659957;0.300506591796875;0.00019073486328125;2.42999999386484;244;100 mA
13.4783539659704;0.300537109375;0.000184326171875;2.43999999383959;245;100 mA
13.4883539659452;0.300537109375;0.000182189941406249;2.44999999381434;246;100 mA
13.4983539659199;0.300537109375;0.000187072753906251;2.4599999937891;247;100 mA
13.5083539658947;0.3004150390625;0.00019866943359375;2.46999999376385;248;100 mA
13.5183539658694;0.300445556640625;0.00018768310546875;2.4799999937386;249;100 mA
13.5283539658442;0.300506591796875;0.000194702148437501;2.48999999371335;250;100 mA
13.5383539658189;0.30059814453125;0.000191650390625001;2.49999999368811;251;100 mA
13.5483539657937;0.30059814453125;0.000182495117187501;2.50999999366286;252;100 mA
13.5583539657684;0.30047607421875;0.000177917480468751;2.51999999363761;253;100 mA
13.5683539657432;0.30047607421875;0.000186767578124999;2.52999999361236;254;100 mA
13.578353965718;0.300445556640625;0.00018768310546875;2.53999999358712;255;100 mA
13.5883539656927;0.300445556640625;0.000194702148437501;2.54999999356187;256;100 mA
13.5983539656675;0.300567626953125;0.0001873779296875;2.55999999353662;257;100 mA
13.6083539656422;0.30059814453125;0.0002001953125;2.56999999351137;258;100 mA
13.618353965617;0.300506591796875;0.00019073486328125;2.57999999348613;259;100 mA
13.6283539655917;0.30047607421875;0.000180969238281251;2.58999999346088;260;100 mA
13.6383539655665;0.300506591796875;0.000188293457031249;2.59999999343563;261;100 mA
13.6483539655412;0.300537109375;0.00018341064453125;2.60999999341038;262;100 mA
13.658353965516;0.300567626953125;0.000180664062499999;2.61999999338514;263;100 mA
13.6683539654907;0.300445556640625;0.00019989013671875;2.62999999335989;264;100 mA
13.6783539654655;0.300537109375;0.000185546875000001;2.63999999333464;265;100 mA
13.6883539654402;0.300506591796875;0.0002001953125;2.64999999330939;266;100 mA
13.698353965415;0.300506591796875;0.000188293457031249;2.65999999328415;267;100 mA
13.7083539653897;0.300628662109375;0.000184020996093751;2.6699999932589;268;100 mA
13.7183539653645;0.300537109375;0.00018798828125;2.67999999323365;269;100 mA
13.7283539653392;0.300567626953125;0.00018157958984375;2.6899999932084;270;100 mA
13.738353965314;0.3004150390625;0.00019073486328125;2.69999999318316;271;100 mA
13.7483539652887;0.3004150390625;0.00019073486328125;2.70999999315791;272;100 mA
13.7583539652635;0.300537109375;0.00018341064453125;2.71999999313266;273;100 mA
13.7683539652382;0.300506591796875;0.00020111083984375;2.72999999310741;274;100 mA
13.778353965213;0.300506591796875;0.000191345214843749;2.73999999308217;275;100 mA
13.7883539651878;0.30047607421875;0.0001861572265625;2.74999999305692;276;100 mA
13.7983539651625;0.300537109375;0.000182495117187501;2.75999999303167;277;100 mA
13.8083539651373;0.30047607421875;0.000183715820312499;2.76999999300642;278;100 mA
13.818353965112;0.300567626953125;0.0001910400390625;2.77999999298117;279;100 mA
13.8283539650868;0.300445556640625;0.000189819335937499;2.78999999295593;280;100 mA
13.8383539650615;0.3004150390625;0.0001910400390625;2.79999999293068;281;100 mA
13.8483539650363;0.30047607421875;0.00019256591796875;2.80999999290543;282;100 mA
13.858353965011;0.300445556640625;0.000185241699218749;2.81999999288018;283;100 mA
13.8683539649858;0.30059814453125;0.000186767578124999;2.82999999285494;284;100 mA
13.8783539649605;0.30047607421875;0.000182495117187501;2.83999999282969;285;100 mA
13.8883539649353;0.300537109375;0.000184020996093751;2.84999999280444;286;100 mA
13.89835396491;0.300384521484375;0.000181884765625;2.85999999277919;287;100 mA
13.9083539648848;0.300384521484375;0.000194091796875;2.86999999275395;288;100 mA
13.9183539648595;0.30047607421875;0.000188293457031249;2.8799999927287;289;100 mA
13.9283539648343;0.30047607421875;0.00019805908203125;2.88999999270345;290;100 mA
13.938353964809;0.300567626953125;0.000192871093749999;2.8999999926782;291;100 mA
13.9483539647838;0.300506591796875;0.00018157958984375;2.90999999265296;292;100 mA
13.9583539647585;0.30047607421875;0.0001800537109375;2.91999999262771;293;100 mA
13.9683539647333;0.300445556640625;0.00018157958984375;2.92999999260246;294;100 mA
13.978353964708;0.300537109375;0.00018798828125;2.93999999257721;295;100 mA
13.9883539646828;0.300506591796875;0.000193176269531251;2.94999999255197;296;100 mA
13.9983539646576;0.30047607421875;0.00018310546875;2.95999999252672;297;100 mA
14.0083539646323;0.300384521484375;0.000195922851562499;2.96999999250147;298;100 mA
14.0183539646071;0.3004150390625;0.00018463134765625;2.97999999247622;299;100 mA
14.0283539645818;0.300628662109375;0.000182495117187501;2.98999999245098;300;100 mA
14.0383539645566;0.300445556640625;0.000187072753906251;2.99999999242573;301;100 mA
14.0483539645313;0.300537109375;0.00017669677734375;3.00999999240048;302;100 mA
14.0583539645061;0.300445556640625;0.000179138183593749;3.01999999237523;303;100 mA
14.0683539644808;0.30047607421875;0.000191650390625001;3.02999999234999;304;100 mA
14.0783539644556;0.300537109375;0.000188293457031249;3.03999999232474;305;100 mA
14.0883539644303;0.300537109375;0.0001934814453125;3.04999999229949;306;100 mA
14.0983539644051;0.300537109375;0.00018951416015625;3.05999999227424;307;100 mA
14.1083539643798;0.30047607421875;0.000191345214843749;3.069999992249;308;100 mA
14.1183539643546;0.300506591796875;0.000180664062499999;3.07999999222375;309;100 mA
14.1283539643293;0.300506591796875;0.0001788330078125;3.0899999921985;310;100 mA
14.1383539643041;0.30047607421875;0.000189208984375;3.09999999217325;311;100 mA
14.1483539642788;0.300445556640625;0.00018890380859375;3.109999992148;312;100 mA
14.1583539642536;0.300384521484375;0.000182189941406249;3.11999999212276;313;100 mA
14.1683539642283;0.300506591796875;0.000195922851562499;3.12999999209751;314;100 mA
14.1783539642031;0.30047607421875;0.0001910400390625;3.13999999207226;315;100 mA
14.1883539641778;0.30059814453125;0.00018585205078125;3.14999999204701;316;100 mA
14.1983539641526;0.300537109375;0.000183715820312499;3.15999999202177;317;100 mA
14.2083539641274;0.300567626953125;0.00018310546875;3.16999999199652;318;100 mA
14.2183539641021;0.300506591796875;0.00018951416015625;3.17999999197127;319;100 mA
14.2283539640769;0.3004150390625;0.00018798828125;3.18999999194602;320;100 mA
14.2383539640516;0.300506591796875;0.000189208984375;3.19999999192078;321;100 mA
14.2483539640264;0.30047607421875;0.00018890380859375;3.20999999189553;322;100 mA
14.2583539640011;0.300506591796875;0.000184020996093751;3.21999999187028;323;100 mA
14.2683539639759;0.300567626953125;0.000183715820312499;3.22999999184503;324;100 mA
14.2783539639506;0.300506591796875;0.000184326171875;3.23999999181979;325;100 mA
14.2883539639254;0.30047607421875;0.000184326171875;3.24999999179454;326;100 mA
14.2983539639001;0.30047607421875;0.0001812744140625;3.25999999176929;327;100 mA
14.3083539638749;0.300567626953125;0.000194396972656249;3.26999999174404;328;100 mA
14.3183539638496;0.30047607421875;0.0001910400390625;3.2799999917188;329;100 mA
14.3283539638244;0.300537109375;0.0001953125;3.28999999169355;330;100 mA
14.3383539637991;0.30047607421875;0.00019195556640625;3.2999999916683;331;100 mA
14.3483539637739;0.30059814453125;0.000181884765625;3.30999999164305;332;100 mA
14.3583539637486;0.300567626953125;0.00018310546875;3.31999999161781;333;100 mA
14.3683539637234;0.300506591796875;0.000182495117187501;3.32999999159256;334;100 mA
14.3783539636981;0.300506591796875;0.000186767578124999;3.33999999156731;335;100 mA
14.3883539636729;0.3004150390625;0.000194702148437501;3.34999999154206;336;100 mA
14.3983539636477;0.30047607421875;0.000187072753906251;3.35999999151682;337;100 mA
14.4083539636224;0.300445556640625;0.000201416015625;3.36999999149157;338;100 mA
14.4183539635972;0.300537109375;0.00019561767578125;3.37999999146632;339;100 mA
14.4283539635719;0.300567626953125;0.0001922607421875;3.38999999144107;340;100 mA
14.4383539635467;0.30047607421875;0.0001934814453125;3.39999999141583;341;100 mA
14.4483539635214;0.300445556640625;0.0001861572265625;3.40999999139058;342;100 mA
14.4583539634962;0.3004150390625;0.000188598632812501;3.41999999136533;343;100 mA
14.4683539634709;0.300506591796875;0.0002001953125;3.42999999134008;344;100 mA
14.4783539634457;0.300506591796875;0.00019073486328125;3.43999999131483;345;100 mA
14.4883539634204;0.300567626953125;0.00020599365234375;3.44999999128959;346;100 mA
14.4983539633952;0.300445556640625;0.000194091796875;3.45999999126434;347;100 mA
14.5083539633699;0.30059814453125;0.000196533203125;3.46999999123909;348;100 mA
14.5183539633447;0.300506591796875;0.000194702148437501;3.47999999121384;349;100 mA
14.5283539633194;0.30047607421875;0.000189819335937499;3.4899999911886;350;100 mA
14.5383539632942;0.300567626953125;0.000193176269531251;3.49999999116335;351;100 mA
14.5483539632689;0.3004150390625;0.000197448730468749;3.5099999911381;352;100 mA
14.5583539632437;0.30047607421875;0.00019195556640625;3.51999999111285;353;100 mA
14.5683539632184;0.300506591796875;0.00020416259765625;3.52999999108761;354;100 mA
14.5783539631932;0.300567626953125;0.000199279785156251;3.53999999106236;355;100 mA
14.5883539631679;0.300506591796875;0.0001971435546875;3.54999999103711;356;100 mA
14.5983539631427;0.300506591796875;0.00019378662109375;3.55999999101186;357;100 mA
14.6083539631175;0.300537109375;0.0001904296875;3.56999999098662;358;100 mA
14.6183539630922;0.30047607421875;0.000192871093749999;3.57999999096137;359;100 mA
14.628353963067;0.300506591796875;0.000197448730468749;3.58999999093612;360;100 mA
14.6383539630417;0.300506591796875;0.000200500488281249;3.59999999091087;361;100 mA
14.6483539630165;0.300506591796875;0.000203857421875001;3.60999999088563;362;100 mA
14.6583539629912;0.30047607421875;0.0001971435546875;3.61999999086038;363;100 mA
14.668353962966;0.30047607421875;0.00020111083984375;3.62999999083513;364;100 mA
14.6783539629407;0.300537109375;0.0001995849609375;3.63999999080988;365;100 mA
14.6883539629155;0.300567626953125;0.00019195556640625;3.64999999078464;366;100 mA
14.6983539628902;0.300537109375;0.000197753906250001;3.65999999075939;367;100 mA
14.708353962865;0.30047607421875;0.000202026367187499;3.66999999073414;368;100 mA
14.7183539628397;0.300506591796875;0.000199279785156251;3.67999999070889;369;100 mA
14.7283539628145;0.30047607421875;0.00020904541015625;3.68999999068365;370;100 mA
14.7383539627892;0.300506591796875;0.000206909179687501;3.6999999906584;371;100 mA
14.748353962764;0.30059814453125;0.000194396972656249;3.70999999063315;372;100 mA
14.7583539627387;0.300445556640625;0.0001934814453125;3.7199999906079;373;100 mA
14.7683539627135;0.300506591796875;0.000194396972656249;3.72999999058266;374;100 mA
14.7783539626882;0.3004150390625;0.000203552246093749;3.73999999055741;375;100 mA
14.788353962663;0.30047607421875;0.0002032470703125;3.74999999053216;376;100 mA
14.7983539626377;0.300537109375;0.000198974609374999;3.75999999050691;377;100 mA
14.8083539626125;0.300567626953125;0.0002105712890625;3.76999999048167;378;100 mA
14.8183539625873;0.300537109375;0.000206604003906249;3.77999999045642;379;100 mA
14.828353962562;0.300537109375;0.000201416015625;3.78999999043117;380;100 mA
14.8383539625368;0.300506591796875;0.000200805664062501;3.79999999040592;381;100 mA
14.8483539625115;0.30047607421875;0.00018890380859375;3.80999999038067;382;100 mA
14.8583539624863;0.30047607421875;0.00019500732421875;3.81999999035543;383;100 mA
14.868353962461;0.300567626953125;0.000206909179687501;3.82999999033018;384;100 mA
14.8783539624358;0.30047607421875;0.000202026367187499;3.83999999030493;385;100 mA
14.8883539624105;0.300567626953125;0.0002056884765625;3.84999999027968;386;100 mA
14.8983539623853;0.3004150390625;0.0002044677734375;3.85999999025444;387;100 mA
14.90835396236;0.300537109375;0.00020782470703125;3.86999999022919;388;100 mA
14.9183539623348;0.300537109375;0.0001995849609375;3.87999999020394;389;100 mA
14.9283539623095;0.300537109375;0.000193176269531251;3.88999999017869;390;100 mA
14.9383539622843;0.30059814453125;0.00019866943359375;3.89999999015345;391;100 mA
14.948353962259;0.300445556640625;0.000200500488281249;3.9099999901282;392;100 mA
14.9583539622338;0.30047607421875;0.000197448730468749;3.91999999010295;393;100 mA
14.9683539622085;0.300506591796875;0.000206909179687501;3.9299999900777;394;100 mA
14.9783539621833;0.30047607421875;0.0002093505859375;3.93999999005246;395;100 mA
14.988353962158;0.300506591796875;0.000202331542968751;3.94999999002721;396;100 mA
14.9983539621328;0.3004150390625;0.0001983642578125;3.95999999000196;397;100 mA
15.0083539621075;0.30047607421875;0.0001983642578125;3.96999998997671;398;100 mA
15.0183539620823;0.300445556640625;0.000197753906250001;3.97999998995147;399;100 mA
15.0283539620571;0.300537109375;0.000198974609374999;3.98999998992622;400;100 mA
15.0383539620318;0.300537109375;0.00019805908203125;3.99999998990097;401;100 mA
15.0483539620066;0.300537109375;0.000200500488281249;4.00999998987572;402;100 mA
15.0583539619813;0.300506591796875;0.00019500732421875;4.01999998985048;403;100 mA
15.0683539619561;0.300445556640625;0.000203552246093749;4.02999998982523;404;100 mA
15.0783539619308;0.300506591796875;0.000201416015625;4.03999998979998;405;100 mA
15.0883539619056;0.300537109375;0.000193176269531251;4.04999998977473;406;100 mA
15.0983539618803;0.300537109375;0.00019561767578125;4.05999998974949;407;100 mA
15.1083539618551;0.300506591796875;0.000203857421875001;4.06999998972424;408;100 mA
15.1183539618298;0.300445556640625;0.000202331542968751;4.07999998969899;409;100 mA
15.1283539618046;0.300567626953125;0.00020111083984375;4.08999998967374;410;100 mA
15.1383539617793;0.300445556640625;0.000208129882812499;4.0999999896485;411;100 mA
15.1483539617541;0.300567626953125;0.0001971435546875;4.10999998962325;412;100 mA
15.1583539617288;0.300445556640625;0.000194091796875;4.119999989598;413;100 mA
15.1683539617036;0.300506591796875;0.000193176269531251;4.12999998957275;414;100 mA
15.1783539616783;0.300445556640625;0.000202026367187499;4.1399999895475;415;100 mA
15.1883539616531;0.3004150390625;0.00020172119140625;4.14999998952226;416;100 mA
15.1983539616278;0.300537109375;0.000196228027343751;4.15999998949701;417;100 mA
15.2083539616026;0.300506591796875;0.000206604003906249;4.16999998947176;418;100 mA
15.2183539615773;0.300506591796875;0.000205383300781251;4.17999998944651;419;100 mA
15.2283539615521;0.30047607421875;0.0002001953125;4.18999998942127;420;100 mA
15.2383539615269;0.300537109375;0.0002001953125;4.19999998939602;421;100 mA
15.2483539615016;0.300445556640625;0.0001934814453125;4.20999998937077;422;100 mA
15.2583539614764;0.30047607421875;0.000194702148437501;4.21999998934552;423;100 mA
15.2683539614511;0.300506591796875;0.000203857421875001;4.22999998932028;424;100 mA
15.2783539614259;0.300445556640625;0.000201416015625;4.23999998929503;425;100 mA
15.2883539614006;0.300537109375;0.000205383300781251;4.24999998926978;426;100 mA
15.2983539613754;0.30047607421875;0.00020263671875;4.25999998924453;427;100 mA
15.3083539613501;0.300537109375;0.00020416259765625;4.26999998921929;428;100 mA
15.3183539613249;0.300506591796875;0.000200805664062501;4.27999998919404;429;100 mA
15.3283539612996;0.300506591796875;0.00019195556640625;4.28999998916879;430;100 mA
15.3383539612744;0.300628662109375;0.000197448730468749;4.29999998914354;431;100 mA
15.3483539612491;0.300445556640625;0.000195922851562499;4.3099999891183;432;100 mA
15.3583539612239;0.300445556640625;0.00019683837890625;4.31999998909305;433;100 mA
15.3683539611986;0.30047607421875;0.000205383300781251;4.3299999890678;434;100 mA
15.3783539611734;0.300506591796875;0.000205078124999999;4.33999998904255;435;100 mA
15.3883539611481;0.30047607421875;0.0002032470703125;4.34999998901731;436;100 mA
15.3983539611229;0.300445556640625;0.00019561767578125;4.35999998899206;437;100 mA
15.4083539610976;0.300537109375;0.0001934814453125;4.36999998896681;438;100 mA
15.4183539610724;0.300445556640625;0.000200500488281249;4.37999998894156;439;100 mA
15.4283539610472;0.300567626953125;0.0002001953125;4.38999998891632;440;100 mA
15.4383539610219;0.30059814453125;0.000203552246093749;4.39999998889107;441;100 mA
15.4483539609967;0.300506591796875;0.000201416015625;4.40999998886582;442;100 mA
15.4583539609714;0.300537109375;0.000197753906250001;4.41999998884057;443;100 mA
15.4683539609462;0.30047607421875;0.000201416015625;4.42999998881533;444;100 mA
15.4783539609209;0.300537109375;0.000196533203125;4.43999998879008;445;100 mA
15.4883539608957;0.300537109375;0.00019073486328125;4.44999998876483;446;100 mA
15.4983539608704;0.300537109375;0.00019561767578125;4.45999998873958;447;100 mA
15.5083539608452;0.300506591796875;0.000200805664062501;4.46999998871433;448;100 mA
15.5183539608199;0.3004150390625;0.000198974609374999;4.47999998868909;449;100 mA
15.5283539607947;0.300506591796875;0.00020294189453125;4.48999998866384;450;100 mA
15.5383539607694;0.30047607421875;0.0002032470703125;4.49999998863859;451;100 mA
15.5483539607442;0.300537109375;0.000197448730468749;4.50999998861334;452;100 mA
15.5583539607189;0.30047607421875;0.00019378662109375;4.5199999885881;453;100 mA
15.5683539606937;0.300537109375;0.000191650390625001;4.52999998856285;454;100 mA
15.5783539606684;0.30047607421875;0.0001953125;4.5399999885376;455;100 mA
15.5883539606432;0.300445556640625;0.0002044677734375;4.54999998851235;456;100 mA
15.5983539606179;0.300567626953125;0.0001934814453125;4.55999998848711;457;100 mA
15.6083539605927;0.300567626953125;0.000203552246093749;4.56999998846186;458;100 mA
15.6183539605674;0.300537109375;0.000202331542968751;4.57999998843661;459;100 mA
15.6283539605422;0.300537109375;0.000197753906250001;4.58999998841136;460;100 mA
15.638353960517;0.30047607421875;0.0001995849609375;4.59999998838612;461;100 mA
15.6483539604917;0.300537109375;0.00018951416015625;4.60999998836087;462;100 mA
15.6583539604665;0.300445556640625;0.0001873779296875;4.61999998833562;463;100 mA
15.6683539604412;0.300506591796875;0.0001971435546875;4.62999998831037;464;100 mA
15.678353960416;0.30047607421875;0.0002001953125;4.63999998828513;465;100 mA
15.6883539603907;0.300567626953125;0.00020294189453125;4.64999998825988;466;100 mA
15.6983539603655;0.3004150390625;0.000197448730468749;4.65999998823463;467;100 mA
15.7083539603402;0.300537109375;0.000203857421875001;4.66999998820938;468;100 mA
15.718353960315;0.30059814453125;0.000195922851562499;4.67999998818414;469;100 mA
15.7283539602897;0.300537109375;0.000189208984375;4.68999998815889;470;100 mA
15.7383539602645;0.300628662109375;0.00019805908203125;4.69999998813364;471;100 mA
15.7483539602392;0.300445556640625;0.000197448730468749;4.70999998810839;472;100 mA
15.758353960214;0.30047607421875;0.000193176269531251;4.71999998808315;473;100 mA
15.7683539601887;0.300537109375;0.000200805664062501;4.7299999880579;474;100 mA
15.7783539601635;0.30047607421875;0.000205078124999999;4.73999998803265;475;100 mA
15.7883539601382;0.300445556640625;0.000200805664062501;4.7499999880074;476;100 mA
15.798353960113;0.300445556640625;0.00019378662109375;4.75999998798216;477;100 mA
15.8083539600877;0.300537109375;0.0001922607421875;4.76999998795691;478;100 mA
15.8183539600625;0.30047607421875;0.0001971435546875;4.77999998793166;479;100 mA
15.8283539600372;0.30059814453125;0.00019805908203125;4.78999998790641;480;100 mA
15.838353960012;0.300567626953125;0.00020111083984375;4.79999998788116;481;100 mA
15.8483539599868;0.30059814453125;0.000196228027343751;4.80999998785592;482;100 mA
15.8583539599615;0.300537109375;0.000191650390625001;4.81999998783067;483;100 mA
15.8683539599363;0.30047607421875;0.000200805664062501;4.82999998780542;484;100 mA
15.878353959911;0.30047607421875;0.00020294189453125;4.83999998778017;485;100 mA
15.8883539598858;0.300537109375;0.00019195556640625;4.84999998775493;486;100 mA
15.8983539598605;0.300567626953125;0.00019195556640625;4.85999998772968;487;100 mA
15.9083539598353;0.30047607421875;0.00020111083984375;4.86999998770443;488;100 mA
15.91835395981;0.300445556640625;0.000200500488281249;4.87999998767918;489;100 mA
15.9283539597848;0.300445556640625;0.00020416259765625;4.88999998765394;490;100 mA
15.9383539597595;0.300506591796875;0.000205078124999999;4.89999998762869;491;100 mA
15.9483539597343;0.300506591796875;0.00019805908203125;4.90999998760344;492;100 mA
15.958353959709;0.300537109375;0.000194702148437501;4.91999998757819;493;100 mA
15.9683539596838;0.300567626953125;0.00019073486328125;4.92999998755295;494;100 mA
15.9783539596585;0.300445556640625;0.000195922851562499;4.9399999875277;495;100 mA
15.9883539596333;0.300506591796875;0.000202026367187499;4.94999998750245;496;100 mA
15.998353959608;0.300537109375;0.000197753906250001;4.9599999874772;497;100 mA
16.0083539595828;0.300567626953125;0.000208435058593751;4.96999998745196;498;100 mA
16.0183539595575;0.300506591796875;0.000205078124999999;4.97999998742671;499;100 mA
16.0283539595323;0.300445556640625;0.000200805664062501;4.98999998740146;500;100 mA
16.038353959507;0.3004150390625;0.00020782470703125;4.99999998737621;501;100 mA
16.0483539594818;0.300506591796875;0.000191345214843749;5.00999998735097;502;100 mA
16.0583539594566;0.300445556640625;0.0001934814453125;5.01999998732572;503;100 mA
16.0683539594313;0.30059814453125;0.000193176269531251;5.02999998730047;504;100 mA
16.0783539594061;0.30047607421875;0.00020111083984375;5.03999998727522;505;100 mA
16.0883539593808;0.300506591796875;0.00020599365234375;5.04999998724998;506;100 mA
16.0983539593556;0.300445556640625;0.0002032470703125;5.05999998722473;507;100 mA
16.1083539593303;0.300537109375;0.00020904541015625;5.06999998719948;508;100 mA
16.1183539593051;0.300537109375;0.0002032470703125;5.07999998717423;509;100 mA
16.1283539592798;0.300537109375;0.0001953125;5.08999998714899;510;100 mA
16.1383539592546;0.300537109375;0.000202331542968751;5.09999998712374;511;100 mA
16.1483539592293;0.30047607421875;0.00019989013671875;5.10999998709849;512;100 mA
16.1583539592041;0.300506591796875;0.000197448730468749;5.11999998707324;513;100 mA
16.1683539591788;0.300506591796875;0.000205078124999999;5.129999987048;514;100 mA
16.1783539591536;0.300506591796875;0.000211486816406251;5.13999998702275;515;100 mA
16.1883539591283;0.30047607421875;0.000214233398437499;5.1499999869975;516;100 mA
16.1983539591031;0.300445556640625;0.00019561767578125;5.15999998697225;517;100 mA
16.2083539590778;0.300537109375;0.0001995849609375;5.169999986947;518;100 mA
16.2183539590526;0.30047607421875;0.000200805664062501;5.17999998692176;519;100 mA
16.2283539590273;0.300506591796875;0.000201416015625;5.18999998689651;520;100 mA
16.2383539590021;0.300567626953125;0.0002044677734375;5.19999998687126;521;100 mA
16.2483539589768;0.300537109375;0.000206298828125;5.20999998684601;522;100 mA
16.2583539589516;0.300506591796875;0.00020111083984375;5.21999998682077;523;100 mA
16.2683539589264;0.300506591796875;0.000206298828125;5.22999998679552;524;100 mA
16.2783539589011;0.300506591796875;0.00020782470703125;5.23999998677027;525;100 mA
16.2883539588759;0.30047607421875;0.00019989013671875;5.24999998674502;526;100 mA
16.2983539588506;0.300567626953125;0.0001971435546875;5.25999998671978;527;100 mA
16.3083539588254;0.300506591796875;0.000206298828125;5.26999998669453;528;100 mA
16.3183539588001;0.3004150390625;0.00020751953125;5.27999998666928;529;100 mA
16.3283539587749;0.30047607421875;0.00021087646484375;5.28999998664403;530;100 mA
16.3383539587496;0.300537109375;0.00021087646484375;5.29999998661879;531;100 mA
16.3483539587244;0.300537109375;0.0002093505859375;5.30999998659354;532;100 mA
16.3583539586991;0.300537109375;0.00019866943359375;5.31999998656829;533;100 mA
16.3683539586739;0.30059814453125;0.00019378662109375;5.32999998654304;534;100 mA
16.3783539586486;0.3004150390625;0.000199279785156251;5.3399999865178;535;100 mA
16.3883539586234;0.30047607421875;0.00020782470703125;5.34999998649255;536;100 mA
16.3983539585981;0.300537109375;0.00020294189453125;5.3599999864673;537;100 mA
16.4083539585729;0.300567626953125;0.000206298828125;5.36999998644205;538;100 mA
16.4183539585476;0.30047607421875;0.000206909179687501;5.37999998641681;539;100 mA
16.4283539585224;0.3004150390625;0.000206909179687501;5.38999998639156;540;100 mA
16.4383539584971;0.300506591796875;0.00020782470703125;5.39999998636631;541;100 mA
16.4483539584719;0.300506591796875;0.00019195556640625;5.40999998634106;542;100 mA
16.4583539584467;0.300537109375;0.000195922851562499;5.41999998631582;543;100 mA
16.4683539584214;0.300628662109375;0.000191650390625001;5.42999998629057;544;100 mA
16.4783539583962;0.30047607421875;0.00020477294921875;5.43999998626532;545;100 mA
16.4883539583709;0.300567626953125;0.00020599365234375;5.44999998624007;546;100 mA
16.4983539583457;0.30047607421875;0.000202026367187499;5.45999998621483;547;100 mA
16.5083539583204;0.300506591796875;0.0002093505859375;5.46999998618958;548;100 mA
16.5183539582952;0.300537109375;0.00019866943359375;5.47999998616433;549;100 mA
16.5283539582699;0.300537109375;0.00019866943359375;5.48999998613908;550;100 mA
16.5383539582447;0.300506591796875;0.00019805908203125;5.49999998611383;551;100 mA
16.5483539582194;0.300445556640625;0.000196228027343751;5.50999998608859;552;100 mA
16.5583539581942;0.30047607421875;0.00020172119140625;5.51999998606334;553;100 mA
16.5683539581689;0.300537109375;0.000198974609374999;5.52999998603809;554;100 mA
16.5783539581437;0.300537109375;0.00021026611328125;5.53999998601284;555;100 mA
16.5883539581184;0.300506591796875;0.000206909179687501;5.5499999859876;556;100 mA
16.5983539580932;0.300445556640625;0.000200805664062501;5.55999998596235;557;100 mA
16.6083539580679;0.300506591796875;0.000198974609374999;5.5699999859371;558;100 mA
16.6183539580427;0.3004150390625;0.000194702148437501;5.57999998591185;559;100 mA
16.6283539580174;0.300537109375;0.000199279785156251;5.58999998588661;560;100 mA
16.6383539579922;0.300506591796875;0.000206909179687501;5.59999998586136;561;100 mA
16.6483539579669;0.300567626953125;0.00020294189453125;5.60999998583611;562;100 mA
16.6583539579417;0.30047607421875;0.000200500488281249;5.61999998581086;563;100 mA
16.6683539579165;0.3004150390625;0.000205383300781251;5.62999998578562;564;100 mA
16.6783539578912;0.300537109375;0.000202026367187499;5.63999998576037;565;100 mA
16.688353957866;0.300506591796875;0.000196533203125;5.64999998573512;566;100 mA
16.6983539578407;0.300567626953125;0.00019378662109375;5.65999998570987;567;100 mA
16.7083539578155;0.30047607421875;0.000195922851562499;5.66999998568463;568;100 mA
16.7183539577902;0.300445556640625;0.000200805664062501;5.67999998565938;569;100 mA
16.728353957765;0.300537109375;0.00020416259765625;5.68999998563413;570;100 mA
16.7383539577397;0.300537109375;0.000203552246093749;5.69999998560888;571;100 mA
16.7483539577145;0.300506591796875;0.00020172119140625;5.70999998558364;572;100 mA
16.7583539576892;0.300506591796875;0.000197753906250001;5.71999998555839;573;100 mA
16.768353957664;0.300567626953125;0.00018890380859375;5.72999998553314;574;100 mA
16.7783539576387;0.300445556640625;0.000194702148437501;5.73999998550789;575;100 mA
16.7883539576135;0.300567626953125;0.000200500488281249;5.74999998548265;576;100 mA
16.7983539575882;0.300567626953125;0.00019378662109375;5.7599999854574;577;100 mA
16.808353957563;0.300506591796875;0.00020477294921875;5.76999998543215;578;100 mA
16.8183539575377;0.300537109375;0.00020263671875;5.7799999854069;579;100 mA
16.8283539575125;0.300445556640625;0.0002044677734375;5.78999998538166;580;100 mA
16.8383539574872;0.30059814453125;0.000195922851562499;5.79999998535641;581;100 mA
16.848353957462;0.30047607421875;0.00018890380859375;5.80999998533116;582;100 mA
16.8583539574367;0.300537109375;0.00018585205078125;5.81999998530591;583;100 mA
16.8683539574115;0.3006591796875;0.000188293457031249;5.82999998528066;584;100 mA
16.8783539573863;0.300445556640625;0.00020416259765625;5.83999998525542;585;100 mA
16.888353957361;0.300506591796875;0.000201416015625;5.84999998523017;586;100 mA
16.8983539573358;0.300445556640625;0.00020172119140625;5.85999998520492;587;100 mA
16.9083539573105;0.300506591796875;0.00021392822265625;5.86999998517967;588;100 mA
16.9183539572853;0.300537109375;0.00020263671875;5.87999998515443;589;100 mA
16.92835395726;0.30059814453125;0.00019561767578125;5.88999998512918;590;100 mA
16.9383539572348;0.300567626953125;0.00019378662109375;5.89999998510393;591;100 mA
16.9483539572095;0.300506591796875;0.000191650390625001;5.90999998507868;592;100 mA
16.9583539571843;0.300567626953125;0.000196228027343751;5.91999998505344;593;100 mA
16.968353957159;0.300537109375;0.00019500732421875;5.92999998502819;594;100 mA
16.9783539571338;0.300537109375;0.00020111083984375;5.93999998500294;595;100 mA
16.9883539571085;0.30047607421875;0.00020751953125;5.94999998497769;596;100 mA
16.9983539570833;0.300537109375;0.00019500732421875;5.95999998495245;597;100 mA
17.008353957058;0.300567626953125;0.000193176269531251;5.9699999849272;598;100 mA
17.0183539570328;0.30047607421875;0.00019073486328125;5.97999998490195;599;100 mA
17.0283539570075;0.300537109375;0.00019256591796875;5.9899999848767;600;100 mA
17.0383539569823;0.300506591796875;0.0001995849609375;5.99999998485146;601;100 mA
17.048353956957;0.300537109375;0.00019683837890625;6.00999998482621;602;100 mA
17.0583539569318;0.30047607421875;0.00019561767578125;6.01999998480096;603;100 mA
17.0683539569065;0.3004150390625;0.0002001953125;6.02999998477571;604;100 mA
17.0783539568813;0.300537109375;0.0001983642578125;6.03999998475047;605;100 mA
17.0883539568561;0.300537109375;0.000194702148437501;6.04999998472522;606;100 mA
17.0983539568308;0.300537109375;0.000193176269531251;6.05999998469997;607;100 mA
17.1083539568056;0.300537109375;0.000197753906250001;6.06999998467472;608;100 mA
17.1183539567803;0.30047607421875;0.000197448730468749;6.07999998464948;609;100 mA
17.1283539567551;0.300506591796875;0.00019866943359375;6.08999998462423;610;100 mA
17.1383539567298;0.300537109375;0.000206298828125;6.09999998459898;611;100 mA
17.1483539567046;0.300445556640625;0.000206604003906249;6.10999998457373;612;100 mA
17.1583539566793;0.300506591796875;0.000191650390625001;6.11999998454849;613;100 mA
17.1683539566541;0.300567626953125;0.000186767578124999;6.12999998452324;614;100 mA
17.1783539566288;0.3004150390625;0.000194702148437501;6.13999998449799;615;100 mA
17.1883539566036;0.300537109375;0.000191345214843749;6.14999998447274;616;100 mA
17.1983539565783;0.300567626953125;0.000194702148437501;6.1599999844475;617;100 mA
17.2083539565531;0.30059814453125;0.00020599365234375;6.16999998442225;618;100 mA
17.2183539565278;0.300506591796875;0.000201416015625;6.179999984397;619;100 mA
17.2283539565026;0.3004150390625;0.000208740234375;6.18999998437175;620;100 mA
17.2383539564773;0.300567626953125;0.000200500488281249;6.1999999843465;621;100 mA
17.2483539564521;0.300537109375;0.000188293457031249;6.20999998432126;622;100 mA
17.2583539564268;0.300567626953125;0.000184326171875;6.21999998429601;623;100 mA
17.2683539564016;0.300567626953125;0.00018768310546875;6.22999998427076;624;100 mA
17.2783539563763;0.300445556640625;0.000200500488281249;6.23999998424551;625;100 mA
17.2883539563511;0.300537109375;0.000198974609374999;6.24999998422027;626;100 mA
17.2983539563259;0.300445556640625;0.000194091796875;6.25999998419502;627;100 mA
17.3083539563006;0.300445556640625;0.00021331787109375;6.26999998416977;628;100 mA
17.3183539562754;0.300506591796875;0.000197753906250001;6.27999998414452;629;100 mA
17.3283539562501;0.300537109375;0.00019256591796875;6.28999998411928;630;100 mA
17.3383539562249;0.300506591796875;0.00019378662109375;6.29999998409403;631;100 mA
17.3483539561996;0.300506591796875;0.0001873779296875;6.30999998406878;632;100 mA
17.3583539561744;0.300537109375;0.00019561767578125;6.31999998404353;633;100 mA
17.3683539561491;0.300567626953125;0.000194702148437501;6.32999998401829;634;100 mA
17.3783539561239;0.300506591796875;0.00020294189453125;6.33999998399304;635;100 mA
17.3883539560986;0.300384521484375;0.00020751953125;6.34999998396779;636;100 mA
17.3983539560734;0.30047607421875;0.00019561767578125;6.35999998394254;637;100 mA
17.4083539560481;0.30047607421875;0.00019683837890625;6.3699999839173;638;100 mA
17.4183539560229;0.300567626953125;0.00018798828125;6.37999998389205;639;100 mA
17.4283539559976;0.300567626953125;0.000192871093749999;6.3899999838668;640;100 mA
17.4383539559724;0.300537109375;0.00020172119140625;6.39999998384155;641;100 mA
17.4483539559471;0.300567626953125;0.000193176269531251;6.40999998381631;642;100 mA
17.4583539559219;0.300506591796875;0.0001971435546875;6.41999998379106;643;100 mA
17.4683539558966;0.300506591796875;0.00020111083984375;6.42999998376581;644;100 mA
17.4783539558714;0.300537109375;0.000195922851562499;6.43999998374056;645;100 mA
17.4883539558462;0.300537109375;0.000196228027343751;6.44999998371532;646;100 mA
17.4983539558209;0.300628662109375;0.0001873779296875;6.45999998369007;647;100 mA
17.5083539557957;0.300506591796875;0.000194702148437501;6.46999998366482;648;100 mA
17.5183539557704;0.300506591796875;0.00019866943359375;6.47999998363957;649;100 mA
17.5283539557452;0.300506591796875;0.0001995849609375;6.48999998361433;650;100 mA
17.5383539557199;0.300506591796875;0.00020263671875;6.49999998358908;651;100 mA
17.5483539556947;0.300506591796875;0.000201416015625;6.50999998356383;652;100 mA
17.5583539556694;0.300537109375;0.000197753906250001;6.51999998353858;653;100 mA
17.5683539556442;0.300567626953125;0.0001873779296875;6.52999998351333;654;100 mA
17.5783539556189;0.30047607421875;0.00019073486328125;6.53999998348809;655;100 mA
17.5883539555937;0.300537109375;0.000196533203125;6.54999998346284;656;100 mA
17.5983539555684;0.300628662109375;0.000191345214843749;6.55999998343759;657;100 mA
17.6083539555432;0.30047607421875;0.0002032470703125;6.56999998341234;658;100 mA
17.6183539555179;0.300567626953125;0.00019500732421875;6.5799999833871;659;100 mA
17.6283539554927;0.3004150390625;0.0002044677734375;6.58999998336185;660;100 mA
17.6383539554674;0.300506591796875;0.000200805664062501;6.5999999833366;661;100 mA
17.6483539554422;0.300506591796875;0.00018646240234375;6.60999998331135;662;100 mA
17.6583539554169;0.300537109375;0.00019195556640625;6.61999998328611;663;100 mA
17.6683539553917;0.300567626953125;0.000191345214843749;6.62999998326086;664;100 mA
17.6783539553664;0.30047607421875;0.0001971435546875;6.63999998323561;665;100 mA
17.6883539553412;0.30047607421875;0.000200500488281249;6.64999998321036;666;100 mA
17.698353955316;0.300506591796875;0.0001934814453125;6.65999998318512;667;100 mA
17.7083539552907;0.3004150390625;0.000208435058593751;6.66999998315987;668;100 mA
17.7183539552655;0.30047607421875;0.00019683837890625;6.67999998313462;669;100 mA
17.7283539552402;0.300506591796875;0.00019683837890625;6.68999998310937;670;100 mA
17.738353955215;0.30047607421875;0.000194091796875;6.69999998308413;671;100 mA
17.7483539551897;0.30047607421875;0.000188293457031249;6.70999998305888;672;100 mA
17.7583539551645;0.30059814453125;0.000195922851562499;6.71999998303363;673;100 mA
17.7683539551392;0.300445556640625;0.000196533203125;6.72999998300838;674;100 mA
17.778353955114;0.300567626953125;0.000202331542968751;6.73999998298314;675;100 mA
17.7883539550887;0.3004150390625;0.000203857421875001;6.74999998295789;676;100 mA
17.7983539550635;0.30047607421875;0.000193176269531251;6.75999998293264;677;100 mA
17.8083539550382;0.300445556640625;0.00019805908203125;6.76999998290739;678;100 mA
17.818353955013;0.300506591796875;0.0001873779296875;6.77999998288215;679;100 mA
17.8283539549877;0.3006591796875;0.000189819335937499;6.7899999828569;680;100 mA
17.8383539549625;0.300506591796875;0.00019989013671875;6.79999998283165;681;100 mA
17.8483539549372;0.300506591796875;0.0001971435546875;6.8099999828064;682;100 mA
17.858353954912;0.300537109375;0.00019378662109375;6.81999998278116;683;100 mA
17.8683539548867;0.300537109375;0.000200805664062501;6.82999998275591;684;100 mA
17.8783539548615;0.300506591796875;0.00019805908203125;6.83999998273066;685;100 mA
17.8883539548362;0.300506591796875;0.000194091796875;6.84999998270541;686;100 mA
17.898353954811;0.30059814453125;0.000189208984375;6.85999998268016;687;100 mA
17.9083539547858;0.300445556640625;0.000194702148437501;6.86999998265492;688;100 mA
17.9183539547605;0.300506591796875;0.000202331542968751;6.87999998262967;689;100 mA
17.9283539547353;0.300506591796875;0.000197448730468749;6.88999998260442;690;100 mA
17.93835395471;0.300537109375;0.000202331542968751;6.89999998257917;691;100 mA
17.9483539546848;0.3004150390625;0.000199279785156251;6.90999998255393;692;100 mA
17.9583539546595;0.300537109375;0.0001904296875;6.91999998252868;693;100 mA
17.9683539546343;0.300537109375;0.000186767578124999;6.92999998250343;694;100 mA
17.978353954609;0.30047607421875;0.0001910400390625;6.93999998247818;695;100 mA
17.9883539545838;0.300537109375;0.00019195556640625;6.94999998245294;696;100 mA
17.9983539545585;0.300506591796875;0.0001922607421875;6.95999998242769;697;100 mA
18.0083539545333;0.300506591796875;0.00020172119140625;6.96999998240244;698;100 mA
18.018353954508;0.300506591796875;0.000195922851562499;6.97999998237719;699;100 mA
18.0283539544828;0.30035400390625;0.000203552246093749;6.98999998235195;700;100 mA
18.0383539544575;0.30047607421875;0.00019989013671875;6.9999999823267;701;100 mA
18.0483539544323;0.300537109375;0.000187072753906251;7.00999998230145;702;100 mA
18.058353954407;0.3006591796875;0.00018798828125;7.0199999822762;703;100 mA
18.0683539543818;0.300628662109375;0.000182189941406249;7.02999998225096;704;100 mA
18.0783539543565;0.30047607421875;0.000196228027343751;7.03999998222571;705;100 mA
18.0883539543313;0.300537109375;0.000197753906250001;7.04999998220046;706;100 mA
18.098353954306;0.300445556640625;0.00019195556640625;7.05999998217521;707;100 mA
18.1083539542808;0.3004150390625;0.000203552246093749;7.06999998214997;708;100 mA
18.1183539542556;0.300506591796875;0.0001934814453125;7.07999998212472;709;100 mA
18.1283539542303;0.300537109375;0.000194702148437501;7.08999998209947;710;100 mA
18.1383539542051;0.30047607421875;0.0001910400390625;7.09999998207422;711;100 mA
18.1483539541798;0.300506591796875;0.00018768310546875;7.10999998204898;712;100 mA
18.1583539541546;0.300567626953125;0.00019805908203125;7.11999998202373;713;100 mA
18.1683539541293;0.300537109375;0.000195922851562499;7.12999998199848;714;100 mA
18.1783539541041;0.300537109375;0.000200500488281249;7.13999998197323;715;100 mA
18.1883539540788;0.300445556640625;0.000201416015625;7.14999998194799;716;100 mA
18.1983539540536;0.300445556640625;0.0001934814453125;7.15999998192274;717;100 mA
18.2083539540283;0.300506591796875;0.0001983642578125;7.16999998189749;718;100 mA
18.2183539540031;0.300506591796875;0.0001910400390625;7.17999998187224;719;100 mA
18.2283539539778;0.3006591796875;0.000187072753906251;7.189999981847;720;100 mA
18.2383539539526;0.30047607421875;0.00020477294921875;7.19999998182175;721;100 mA
18.2483539539273;0.300537109375;0.00019256591796875;7.2099999817965;722;100 mA
18.2583539539021;0.300384521484375;0.0001971435546875;7.21999998177125;723;100 mA
18.2683539538768;0.3004150390625;0.000202026367187499;7.229999981746;724;100 mA
18.2783539538516;0.30047607421875;0.000195922851562499;7.23999998172076;725;100 mA
18.2883539538263;0.300537109375;0.000195922851562499;7.24999998169551;726;100 mA
18.2983539538011;0.300537109375;0.00018951416015625;7.25999998167026;727;100 mA
18.3083539537758;0.300445556640625;0.0001983642578125;7.26999998164501;728;100 mA
18.3183539537506;0.30047607421875;0.000196228027343751;7.27999998161977;729;100 mA
18.3283539537254;0.300506591796875;0.000194702148437501;7.28999998159452;730;100 mA
18.3383539537001;0.300567626953125;0.00020172119140625;7.29999998156927;731;100 mA
18.3483539536749;0.300445556640625;0.000197448730468749;7.30999998154402;732;100 mA
18.3583539536496;0.300506591796875;0.000194702148437501;7.31999998151878;733;100 mA
18.3683539536244;0.300506591796875;0.00018890380859375;7.32999998149353;734;100 mA
18.3783539535991;0.30047607421875;0.00019195556640625;7.33999998146828;735;100 mA
18.3883539535739;0.30059814453125;0.0001953125;7.34999998144303;736;100 mA
18.3983539535486;0.300537109375;0.0001953125;7.35999998141779;737;100 mA
18.4083539535234;0.300567626953125;0.000203552246093749;7.36999998139254;738;100 mA
18.4183539534981;0.300537109375;0.000200500488281249;7.37999998136729;739;100 mA
18.4283539534729;0.300445556640625;0.00020416259765625;7.38999998134204;740;100 mA
18.4383539534476;0.30047607421875;0.00020111083984375;7.3999999813168;741;100 mA
18.4483539534224;0.300567626953125;0.00018798828125;7.40999998129155;742;100 mA
18.4583539533971;0.30059814453125;0.000193176269531251;7.4199999812663;743;100 mA
18.4683539533719;0.300567626953125;0.000191345214843749;7.42999998124105;744;100 mA
18.4783539533466;0.300506591796875;0.00020111083984375;7.43999998121581;745;100 mA
18.4883539533214;0.30047607421875;0.000202026367187499;7.44999998119056;746;100 mA
18.4983539532961;0.30047607421875;0.00019683837890625;7.45999998116531;747;100 mA
18.5083539532709;0.30047607421875;0.00020599365234375;7.46999998114006;748;100 mA
18.5183539532457;0.30047607421875;0.000197448730468749;7.47999998111482;749;100 mA
18.5283539532204;0.300537109375;0.000194702148437501;7.48999998108957;750;100 mA
18.5383539531952;0.30047607421875;0.00019866943359375;7.49999998106432;751;100 mA
18.5483539531699;0.300567626953125;0.0001904296875;7.50999998103907;752;100 mA
18.5583539531447;0.300537109375;0.000203552246093749;7.51999998101383;753;100 mA
18.5683539531194;0.300567626953125;0.00019805908203125;7.52999998098858;754;100 mA
18.5783539530942;0.300537109375;0.000200805664062501;7.53999998096333;755;100 mA
18.5883539530689;0.3004150390625;0.000206298828125;7.54999998093808;756;100 mA
18.5983539530437;0.30047607421875;0.0001983642578125;7.55999998091283;757;100 mA
18.6083539530184;0.300445556640625;0.00020416259765625;7.56999998088759;758;100 mA
18.6183539529932;0.300567626953125;0.00019561767578125;7.57999998086234;759;100 mA
18.6283539529679;0.30059814453125;0.000193176269531251;7.58999998083709;760;100 mA
18.6383539529427;0.30047607421875;0.000202331542968751;7.59999998081184;761;100 mA
18.6483539529174;0.30047607421875;0.0001953125;7.6099999807866;762;100 mA
18.6583539528922;0.3004150390625;0.0002001953125;7.61999998076135;763;100 mA
18.6683539528669;0.300567626953125;0.000198974609374999;7.6299999807361;764;100 mA
18.6783539528417;0.300506591796875;0.000198974609374999;7.63999998071085;765;100 mA
18.6883539528164;0.300537109375;0.000201416015625;7.64999998068561;766;100 mA
18.6983539527912;0.300567626953125;0.000188293457031249;7.65999998066036;767;100 mA
18.7083539527659;0.30047607421875;0.000197448730468749;7.66999998063511;768;100 mA
18.7183539527407;0.30059814453125;0.00019683837890625;7.67999998060986;769;100 mA
18.7283539527155;0.300506591796875;0.0001983642578125;7.68999998058462;770;100 mA
18.7383539526902;0.300506591796875;0.000206298828125;7.69999998055937;771;100 mA
18.748353952665;0.300445556640625;0.000196228027343751;7.70999998053412;772;100 mA
18.7583539526397;0.300506591796875;0.000196533203125;7.71999998050887;773;100 mA
18.7683539526145;0.30047607421875;0.000196533203125;7.72999998048363;774;100 mA
18.7783539525892;0.30047607421875;0.000190124511718751;7.73999998045838;775;100 mA
18.788353952564;0.30059814453125;0.000196533203125;7.74999998043313;776;100 mA
18.7983539525387;0.300567626953125;0.00019683837890625;7.75999998040788;777;100 mA
18.8083539525135;0.300537109375;0.000205078124999999;7.76999998038264;778;100 mA
18.8183539524882;0.300506591796875;0.0002001953125;7.77999998035739;779;100 mA
18.828353952463;0.300384521484375;0.0002056884765625;7.78999998033214;780;100 mA
18.8383539524377;0.300567626953125;0.00019989013671875;7.79999998030689;781;100 mA
18.8483539524125;0.300445556640625;0.00019378662109375;7.80999998028165;782;100 mA
18.8583539523872;0.300567626953125;0.0001922607421875;7.8199999802564;783;100 mA
18.868353952362;0.300506591796875;0.0001910400390625;7.82999998023115;784;100 mA
18.8783539523367;0.300537109375;0.00020294189453125;7.8399999802059;785;100 mA
18.8883539523115;0.300537109375;0.000200805664062501;7.84999998018066;786;100 mA
18.8983539522862;0.30047607421875;0.0001983642578125;7.85999998015541;787;100 mA
18.908353952261;0.300445556640625;0.000211181640624999;7.86999998013016;788;100 mA
18.9183539522357;0.30047607421875;0.000202026367187499;7.87999998010491;789;100 mA
18.9283539522105;0.300537109375;0.0002001953125;7.88999998007966;790;100 mA
18.9383539521853;0.300506591796875;0.000199279785156251;7.89999998005442;791;100 mA
18.94835395216;0.300567626953125;0.000192871093749999;7.90999998002917;792;100 mA
18.9583539521348;0.300567626953125;0.0002056884765625;7.91999998000392;793;100 mA
18.9683539521095;0.300537109375;0.00020111083984375;7.92999997997867;794;100 mA
18.9783539520843;0.30047607421875;0.000203857421875001;7.93999997995343;795;100 mA
18.988353952059;0.3004150390625;0.00020751953125;7.94999997992818;796;100 mA
18.9983539520338;0.300506591796875;0.00019561767578125;7.95999997990293;797;100 mA
19.0083539520085;0.300445556640625;0.0002044677734375;7.96999997987768;798;100 mA
19.0183539519833;0.300537109375;0.000196533203125;7.97999997985244;799;100 mA
19.028353951958;0.300567626953125;0.000195922851562499;7.98999997982719;800;100 mA
19.0383539519328;0.300506591796875;0.00020477294921875;7.99999997980194;801;100 mA
19.0483539519075;0.300537109375;0.0001971435546875;8.00999997977669;802;100 mA
19.0583539518823;0.300506591796875;0.0002044677734375;8.01999997975145;803;100 mA
19.068353951857;0.300506591796875;0.000203857421875001;8.0299999797262;804;100 mA
19.0783539518318;0.300506591796875;0.000194702148437501;8.03999997970095;805;100 mA
19.0883539518065;0.30047607421875;0.000205383300781251;8.0499999796757;806;100 mA
19.0983539517813;0.300506591796875;0.0001910400390625;8.05999997965046;807;100 mA
19.108353951756;0.30047607421875;0.000200805664062501;8.06999997962521;808;100 mA
19.1183539517308;0.30047607421875;0.0002044677734375;8.07999997959996;809;100 mA
19.1283539517055;0.300537109375;0.00020172119140625;8.08999997957471;810;100 mA
19.1383539516803;0.300506591796875;0.000203857421875001;8.09999997954947;811;100 mA
19.1483539516551;0.30047607421875;0.000194091796875;8.10999997952422;812;100 mA
19.1583539516298;0.30047607421875;0.0002032470703125;8.11999997949897;813;100 mA
19.1683539516046;0.30047607421875;0.000197753906250001;8.12999997947372;814;100 mA
19.1783539515793;0.30047607421875;0.000192871093749999;8.13999997944848;815;100 mA
19.1883539515541;0.300567626953125;0.00019805908203125;8.14999997942323;816;100 mA
19.1983539515288;0.30047607421875;0.00020294189453125;8.15999997939798;817;100 mA
19.2083539515036;0.300537109375;0.00020721435546875;8.16999997937273;818;100 mA
19.2183539514783;0.3004150390625;0.000206909179687501;8.17999997934749;819;100 mA
19.2283539514531;0.300445556640625;0.00020294189453125;8.18999997932224;820;100 mA
19.2383539514278;0.300567626953125;0.000198974609374999;8.19999997929699;821;100 mA
19.2483539514026;0.300506591796875;0.000194091796875;8.20999997927174;822;100 mA
19.2583539513773;0.300628662109375;0.000195922851562499;8.2199999792465;823;100 mA
19.2683539513521;0.300537109375;0.000194702148437501;8.22999997922125;824;100 mA
19.2783539513268;0.300537109375;0.000203857421875001;8.239999979196;825;100 mA
19.2883539513016;0.30047607421875;0.00020599365234375;8.24999997917075;826;100 mA
19.2983539512763;0.300537109375;0.00020172119140625;8.2599999791455;827;100 mA
19.3083539512511;0.30047607421875;0.0002105712890625;8.26999997912026;828;100 mA
19.3183539512258;0.300445556640625;0.000201416015625;8.27999997909501;829;100 mA
19.3283539512006;0.300537109375;0.00020263671875;8.28999997906976;830;100 mA
19.3383539511753;0.30047607421875;0.000200805664062501;8.29999997904451;831;100 mA
19.3483539511501;0.300567626953125;0.000195922851562499;8.30999997901927;832;100 mA
19.3583539511249;0.300628662109375;0.0002117919921875;8.31999997899402;833;100 mA
19.3683539510996;0.300537109375;0.0002044677734375;8.32999997896877;834;100 mA
19.3783539510744;0.30047607421875;0.00020416259765625;8.33999997894352;835;100 mA
19.3883539510491;0.300384521484375;0.00020721435546875;8.34999997891828;836;100 mA
19.3983539510239;0.300537109375;0.000194091796875;8.35999997889303;837;100 mA
19.4083539509986;0.300445556640625;0.00021087646484375;8.36999997886778;838;100 mA
19.4183539509734;0.300537109375;0.00019866943359375;8.37999997884253;839;100 mA
19.4283539509481;0.300537109375;0.00019805908203125;8.38999997881729;840;100 mA
19.4383539509229;0.300506591796875;0.000205383300781251;8.39999997879204;841;100 mA
19.4483539508976;0.3004150390625;0.000200500488281249;8.40999997876679;842;100 mA
19.4583539508724;0.300506591796875;0.000206604003906249;8.41999997874154;843;100 mA
19.4683539508471;0.300506591796875;0.0002044677734375;8.4299999787163;844;100 mA
19.4783539508219;0.300445556640625;0.0002001953125;8.43999997869105;845;100 mA
19.4883539507966;0.300537109375;0.000208740234375;8.4499999786658;846;100 mA
19.4983539507714;0.3004150390625;0.0001953125;8.45999997864055;847;100 mA
19.5083539507461;0.300537109375;0.00020294189453125;8.46999997861531;848;100 mA
19.5183539507209;0.300537109375;0.00021240234375;8.47999997859006;849;100 mA
19.5283539506956;0.300567626953125;0.0002032470703125;8.48999997856481;850;100 mA
19.5383539506704;0.30059814453125;0.000211181640624999;8.49999997853956;851;100 mA
19.5483539506452;0.30047607421875;0.000203552246093749;8.50999997851432;852;100 mA
19.5583539506199;0.300537109375;0.000209960937500001;8.51999997848907;853;100 mA
19.5683539505947;0.300537109375;0.000206604003906249;8.52999997846382;854;100 mA
19.5783539505694;0.300567626953125;0.0002001953125;8.53999997843857;855;100 mA
19.5883539505442;0.30059814453125;0.00020904541015625;8.54999997841333;856;100 mA
19.5983539505189;0.300506591796875;0.000205078124999999;8.55999997838808;857;100 mA
19.6083539504937;0.30047607421875;0.00021331787109375;8.56999997836283;858;100 mA
19.6183539504684;0.300384521484375;0.0002117919921875;8.57999997833758;859;100 mA
19.6283539504432;0.30047607421875;0.000209960937500001;8.58999997831233;860;100 mA
19.6383539504179;0.300537109375;0.000208740234375;8.59999997828709;861;100 mA
19.6483539503927;0.3004150390625;0.00020599365234375;8.60999997826184;862;100 mA
19.6583539503674;0.30047607421875;0.00021209716796875;8.61999997823659;863;100 mA
19.6683539503422;0.30047607421875;0.000205078124999999;8.62999997821134;864;100 mA
19.6783539503169;0.300537109375;0.000209960937500001;8.6399999781861;865;100 mA
19.6883539502917;0.300506591796875;0.00021484375;8.64999997816085;866;100 mA
19.6983539502664;0.300628662109375;0.000208435058593751;8.6599999781356;867;100 mA
19.7083539502412;0.30047607421875;0.0002166748046875;8.66999997811035;868;100 mA
19.7183539502159;0.30047607421875;0.0002105712890625;8.67999997808511;869;100 mA
19.7283539501907;0.300506591796875;0.00021026611328125;8.68999997805986;870;100 mA
19.7383539501654;0.300506591796875;0.000213623046875;8.69999997803461;871;100 mA
19.7483539501402;0.30059814453125;0.000203552246093749;8.70999997800936;872;100 mA
19.758353950115;0.300506591796875;0.000214538574218751;8.71999997798412;873;100 mA
19.7683539500897;0.300537109375;0.00021942138671875;8.72999997795887;874;100 mA
19.7783539500645;0.300537109375;0.000208129882812499;8.73999997793362;875;100 mA
19.7883539500392;0.30047607421875;0.000213012695312501;8.74999997790837;876;100 mA
19.798353950014;0.300537109375;0.00020599365234375;8.75999997788313;877;100 mA
19.8083539499887;0.300506591796875;0.0002178955078125;8.76999997785788;878;100 mA
19.8183539499635;0.300628662109375;0.000208435058593751;8.77999997783263;879;100 mA
19.8283539499382;0.300506591796875;0.000209655761718749;8.78999997780738;880;100 mA
19.838353949913;0.300445556640625;0.000220642089843751;8.79999997778214;881;100 mA
19.8483539498877;0.30047607421875;0.0002093505859375;8.80999997775689;882;100 mA
19.8583539498625;0.30047607421875;0.00021514892578125;8.81999997773164;883;100 mA
19.8683539498372;0.300445556640625;0.000217590332031251;8.82999997770639;884;100 mA
19.878353949812;0.300506591796875;0.0002093505859375;8.83999997768115;885;100 mA
19.8883539497867;0.30047607421875;0.000221862792968749;8.8499999776559;886;100 mA
19.8983539497615;0.300445556640625;0.00020477294921875;8.85999997763065;887;100 mA
19.9083539497362;0.30047607421875;0.000216064453125001;8.8699999776054;888;100 mA
19.918353949711;0.300537109375;0.00021820068359375;8.87999997758016;889;100 mA
19.9283539496857;0.300567626953125;0.00021331787109375;8.88999997755491;890;100 mA
19.9383539496605;0.30047607421875;0.000222167968750001;8.89999997752966;891;100 mA
19.9483539496352;0.3004150390625;0.00020599365234375;8.90999997750441;892;100 mA
19.95835394961;0.300537109375;0.0002166748046875;8.91999997747916;893;100 mA
19.9683539495848;0.300506591796875;0.000215759277343749;8.92999997745392;894;100 mA
19.9783539495595;0.300537109375;0.00020721435546875;8.93999997742867;895;100 mA
19.9883539495343;0.300567626953125;0.0002166748046875;8.94999997740342;896;100 mA
19.998353949509;0.300445556640625;0.00021026611328125;8.95999997737817;897;100 mA
20.0083539494838;0.30047607421875;0.00022308349609375;8.96999997735293;898;100 mA
20.0183539494585;0.3004150390625;0.000217285156249999;8.97999997732768;899;100 mA
20.0283539494333;0.30047607421875;0.00021331787109375;8.98999997730243;900;100 mA
20.038353949408;0.300537109375;0.000213623046875;8.99999997727718;901;100 mA
20.0483539493828;0.30047607421875;0.00021087646484375;9.00999997725194;902;100 mA
20.0583539493575;0.300506591796875;0.00021514892578125;9.01999997722669;903;100 mA
20.0683539493323;0.300537109375;0.000214233398437499;9.02999997720144;904;100 mA
20.078353949307;0.300567626953125;0.00021484375;9.03999997717619;905;100 mA
20.0883539492818;0.300445556640625;0.0002178955078125;9.04999997715095;906;100 mA
20.0983539492565;0.300537109375;0.0002117919921875;9.0599999771257;907;100 mA
20.1083539492313;0.300506591796875;0.0002178955078125;9.06999997710045;908;100 mA
20.118353949206;0.30047607421875;0.00021331787109375;9.0799999770752;909;100 mA
20.1283539491808;0.30047607421875;0.00021240234375;9.08999997704996;910;100 mA
20.1383539491555;0.300506591796875;0.000213012695312501;9.09999997702471;911;100 mA
20.1483539491303;0.300567626953125;0.00021087646484375;9.10999997699946;912;100 mA
20.158353949105;0.300537109375;0.000220642089843751;9.11999997697421;913;100 mA
20.1683539490798;0.300537109375;0.00021942138671875;9.12999997694897;914;100 mA
20.1783539490546;0.300445556640625;0.0002166748046875;9.13999997692372;915;100 mA
20.1883539490293;0.30047607421875;0.000214538574218751;9.14999997689847;916;100 mA
20.1983539490041;0.300537109375;0.0002117919921875;9.15999997687322;917;100 mA
20.2083539489788;0.300506591796875;0.0002178955078125;9.16999997684798;918;100 mA
20.2183539489536;0.300567626953125;0.000211486816406251;9.17999997682273;919;100 mA
20.2283539489283;0.300506591796875;0.00020782470703125;9.18999997679748;920;100 mA
20.2383539489031;0.30047607421875;0.000219116210937501;9.19999997677223;921;100 mA
20.2483539488778;0.30047607421875;0.000211181640624999;9.20999997674699;922;100 mA
20.2583539488526;0.300537109375;0.00021942138671875;9.21999997672174;923;100 mA
20.2683539488273;0.300537109375;0.0002178955078125;9.22999997669649;924;100 mA
20.2783539488021;0.300506591796875;0.00021087646484375;9.23999997667124;925;100 mA
20.2883539487768;0.300537109375;0.000219116210937501;9.249999976646;926;100 mA
20.2983539487516;0.30047607421875;0.000206298828125;9.25999997662075;927;100 mA
20.3083539487263;0.300567626953125;0.000213012695312501;9.2699999765955;928;100 mA
20.3183539487011;0.30059814453125;0.000214538574218751;9.27999997657025;929;100 mA
20.3283539486758;0.300506591796875;0.00021331787109375;9.289999976545;930;100 mA
20.3383539486506;0.300506591796875;0.000221862792968749;9.29999997651976;931;100 mA
20.3483539486253;0.3004150390625;0.0002093505859375;9.30999997649451;932;100 mA
20.3583539486001;0.300506591796875;0.000218505859375;9.31999997646926;933;100 mA
20.3683539485748;0.30047607421875;0.000220336914062499;9.32999997644401;934;100 mA
20.3783539485496;0.30059814453125;0.00020904541015625;9.33999997641877;935;100 mA
20.3883539485244;0.300506591796875;0.00021331787109375;9.34999997639352;936;100 mA
20.3983539484991;0.300445556640625;0.00021087646484375;9.35999997636827;937;100 mA
20.4083539484739;0.30047607421875;0.000220336914062499;9.36999997634302;938;100 mA
20.4183539484486;0.300445556640625;0.0002197265625;9.37999997631778;939;100 mA
20.4283539484234;0.300537109375;0.0002117919921875;9.38999997629253;940;100 mA
20.4383539483981;0.300537109375;0.000215759277343749;9.39999997626728;941;100 mA
20.4483539483729;0.300537109375;0.00021087646484375;9.40999997624203;942;100 mA
20.4583539483476;0.3004150390625;0.000212707519531249;9.41999997621679;943;100 mA
20.4683539483224;0.300445556640625;0.00021484375;9.42999997619154;944;100 mA
20.4783539482971;0.300567626953125;0.0002166748046875;9.43999997616629;945;100 mA
20.4883539482719;0.300506591796875;0.000217285156249999;9.44999997614104;946;100 mA
20.4983539482466;0.300537109375;0.00021026611328125;9.4599999761158;947;100 mA
20.5083539482214;0.300445556640625;0.000218811035156249;9.46999997609055;948;100 mA
20.5183539481961;0.30047607421875;0.00021209716796875;9.4799999760653;949;100 mA
20.5283539481709;0.300537109375;0.000209960937500001;9.48999997604005;950;100 mA
20.5383539481456;0.300537109375;0.000209960937500001;9.49999997601481;951;100 mA
20.5483539481204;0.30059814453125;0.00020599365234375;9.50999997598956;952;100 mA
20.5583539480951;0.300445556640625;0.000220336914062499;9.51999997596431;953;100 mA
20.5683539480699;0.300445556640625;0.000220336914062499;9.52999997593906;954;100 mA
20.5783539480447;0.300445556640625;0.00021026611328125;9.53999997591382;955;100 mA
20.5883539480194;0.300445556640625;0.00021484375;9.54999997588857;956;100 mA
20.5983539479942;0.30047607421875;0.00020599365234375;9.55999997586332;957;100 mA
20.6083539479689;0.30047607421875;0.000211486816406251;9.56999997583807;958;100 mA
20.6183539479437;0.30047607421875;0.000208740234375;9.57999997581283;959;100 mA
20.6283539479184;0.300506591796875;0.000201416015625;9.58999997578758;960;100 mA
20.6383539478932;0.300537109375;0.0002154541015625;9.59999997576233;961;100 mA
20.6483539478679;0.30047607421875;0.000206909179687501;9.60999997573708;962;100 mA
20.6583539478427;0.300537109375;0.00021484375;9.61999997571183;963;100 mA
20.6683539478174;0.300567626953125;0.0002093505859375;9.62999997568659;964;100 mA
20.6783539477922;0.300445556640625;0.00020111083984375;9.63999997566134;965;100 mA
20.6883539477669;0.30047607421875;0.000213012695312501;9.64999997563609;966;100 mA
20.6983539477417;0.300445556640625;0.000200500488281249;9.65999997561084;967;100 mA
20.7083539477164;0.300506591796875;0.00021087646484375;9.6699999755856;968;100 mA
20.7183539476912;0.30047607421875;0.00021209716796875;9.67999997556035;969;100 mA
20.7283539476659;0.300537109375;0.00020751953125;9.6899999755351;970;100 mA
20.7383539476407;0.30047607421875;0.000208129882812499;9.69999997550985;971;100 mA
20.7483539476154;0.30047607421875;0.000200805664062501;9.70999997548461;972;100 mA
20.7583539475902;0.300445556640625;0.0002117919921875;9.71999997545936;973;100 mA
20.7683539475649;0.3004150390625;0.000213012695312501;9.72999997543411;974;100 mA
20.7783539475397;0.30059814453125;0.00019989013671875;9.73999997540886;975;100 mA
20.7883539475145;0.300506591796875;0.000206604003906249;9.74999997538362;976;100 mA
20.7983539474892;0.30047607421875;0.000206604003906249;9.75999997535837;977;100 mA
20.808353947464;0.30047607421875;0.000209960937500001;9.76999997533312;978;100 mA
20.8183539474387;0.300506591796875;0.000211181640624999;9.77999997530787;979;100 mA
20.8283539474135;0.300537109375;0.00020477294921875;9.78999997528263;980;100 mA
20.8383539473882;0.300506591796875;0.000205383300781251;9.79999997525738;981;100 mA
20.848353947363;0.300506591796875;0.00020294189453125;9.80999997523213;982;100 mA
20.8583539473377;0.300323486328125;0.000208740234375;9.81999997520688;983;100 mA
20.8683539473125;0.300537109375;0.00020782470703125;9.82999997518164;984;100 mA
20.8783539472872;0.30059814453125;0.000206604003906249;9.83999997515639;985;100 mA
20.888353947262;0.30047607421875;0.00021240234375;9.84999997513114;986;100 mA
20.8983539472367;0.30059814453125;0.00020263671875;9.85999997510589;987;100 mA
20.9083539472115;0.3004150390625;0.000206298828125;9.86999997508065;988;100 mA
20.9183539471862;0.300537109375;0.000206298828125;9.8799999750554;989;100 mA
20.928353947161;0.300537109375;0.0002032470703125;9.88999997503015;990;100 mA
20.9383539471357;0.30059814453125;0.0002056884765625;9.8999999750049;991;100 mA
20.9483539471105;0.30047607421875;0.0002001953125;9.90999997497966;992;100 mA
20.9583539470852;0.30047607421875;0.000211486816406251;9.91999997495441;993;100 mA
20.96835394706;0.300506591796875;0.0002117919921875;9.92999997492916;994;100 mA
20.9783539470347;0.300445556640625;0.00020477294921875;9.93999997490391;995;100 mA
20.9883539470095;0.300567626953125;0.000205383300781251;9.94999997487866;996;100 mA
20.9983539469843;0.300506591796875;0.0001983642578125;9.95999997485342;997;100 mA
21.008353946959;0.300537109375;0.000208740234375;9.96999997482817;998;100 mA
21.0183539469338;0.3004150390625;0.000206604003906249;9.97999997480292;999;100 mA
21.0283539469085;0.300506591796875;0.00020294189453125;9.98999997477767;1000;100 mA
