Time (s);WE(1).Potential (V);WE(1).Current (A);Corrected time (s);Index;Current range
21.5306129456404;0.195587158203125;-0.00048828125;0;1;100 mA
21.5406129456152;0.200836181640625;-0.00067047119140625;0.00999999997475243;2;100 mA
21.5506129455899;0.200469970703125;-0.000467529296874999;0.0199999999495049;3;100 mA
21.5606129455647;0.200439453125;-0.0003643798828125;0.0299999999242573;4;100 mA
21.5706129455394;0.20050048828125;-0.00030548095703125;0.0399999998990097;5;100 mA
21.5806129455142;0.200439453125;-0.00023773193359375;0.0499999998737621;6;100 mA
21.5906129454889;0.2005615234375;-0.000206298828125;0.0599999998485146;7;100 mA
21.6006129454637;0.2005615234375;-0.000173034667968749;0.069999999823267;8;100 mA
21.6106129454384;0.20062255859375;-0.000141296386718751;0.0799999997980194;9;100 mA
21.6206129454132;0.200531005859375;-0.00012847900390625;0.0899999997727718;10;100 mA
21.630612945388;0.200439453125;-0.0001019287109375;0.0999999997475243;11;100 mA
21.6406129453627;0.20050048828125;-9.73510742187503E-05;0.109999999722277;12;100 mA
21.6506129453375;0.200408935546875;-7.38525390624995E-05;0.119999999697029;13;100 mA
21.6606129453122;0.200531005859375;-5.73730468750006E-05;0.129999999671782;14;100 mA
21.670612945287;0.20050048828125;-5.00488281250003E-05;0.139999999646534;15;100 mA
21.6806129452617;0.200531005859375;-3.60107421875006E-05;0.149999999621286;16;100 mA
21.6906129452365;0.200408935546875;-3.11279296874994E-05;0.159999999596039;17;100 mA
21.7006129452112;0.200592041015625;-2.65502929687494E-05;0.169999999570791;18;100 mA
21.710612945186;0.200531005859375;-1.89208984374994E-05;0.179999999545544;19;100 mA
21.7206129451607;0.200531005859375;-1.31225585937506E-05;0.189999999520296;20;100 mA
21.7306129451355;0.2005615234375;-3.35693359374972E-06;0.199999999495049;21;100 mA
21.7406129451102;0.200469970703125;-3.05175781249722E-07;0.209999999469801;22;100 mA
21.750612945085;0.200439453125;6.40869140624972E-06;0.219999999444553;23;100 mA
21.7606129450597;0.20050048828125;2.288818359375E-05;0.229999999419306;24;100 mA
21.7706129450345;0.200592041015625;1.64794921875003E-05;0.239999999394058;25;100 mA
21.7806129450092;0.20062255859375;2.44140625E-05;0.249999999368811;26;100 mA
21.790612944984;0.20050048828125;2.07519531250006E-05;0.259999999343563;27;100 mA
21.8006129449587;0.200439453125;2.65502929687494E-05;0.269999999318316;28;100 mA
21.8106129449335;0.200469970703125;3.509521484375E-05;0.279999999293068;29;100 mA
21.8206129449082;0.200531005859375;3.84521484374997E-05;0.28999999926782;30;100 mA
21.830612944883;0.20062255859375;4.66918945312506E-05;0.299999999242573;31;100 mA
21.8406129448578;0.200592041015625;3.84521484374997E-05;0.309999999217325;32;100 mA
21.8506129448325;0.200469970703125;5.21850585937497E-05;0.319999999192078;33;100 mA
21.8606129448073;0.200439453125;5.06591796874997E-05;0.32999999916683;34;100 mA
21.870612944782;0.20050048828125;5.12695312500006E-05;0.339999999141583;35;100 mA
21.8806129447568;0.20050048828125;5.950927734375E-05;0.349999999116335;36;100 mA
21.8906129447315;0.200592041015625;5.61523437500003E-05;0.359999999091087;37;100 mA
21.9006129447063;0.20050048828125;6.16455078124994E-05;0.36999999906584;38;100 mA
21.910612944681;0.20050048828125;6.46972656249994E-05;0.379999999040592;39;100 mA
21.9206129446558;0.200469970703125;6.95800781250006E-05;0.389999999015345;40;100 mA
21.9306129446305;0.200531005859375;7.38525390624995E-05;0.399999998990097;41;100 mA
21.9406129446053;0.20050048828125;5.79833984375E-05;0.40999999896485;42;100 mA
21.95061294458;0.200469970703125;6.98852539062503E-05;0.419999998939602;43;100 mA
21.9606129445548;0.200531005859375;7.50732421874997E-05;0.429999998914354;44;100 mA
21.9706129445295;0.200469970703125;6.98852539062503E-05;0.439999998889107;45;100 mA
21.9806129445043;0.200439453125;8.63647460937506E-05;0.449999998863859;46;100 mA
21.990612944479;0.20050048828125;7.81249999999997E-05;0.459999998838612;47;100 mA
22.0006129444538;0.200469970703125;8.36181640625003E-05;0.469999998813364;48;100 mA
22.0106129444285;0.20050048828125;8.91113281249995E-05;0.479999998788116;49;100 mA
22.0206129444033;0.20050048828125;8.087158203125E-05;0.489999998762869;50;100 mA
22.030612944378;0.200531005859375;8.78906250000006E-05;0.499999998737621;51;100 mA
22.0406129443528;0.20050048828125;8.02612304687506E-05;0.509999998712374;52;100 mA
22.0506129443276;0.20050048828125;8.05664062500003E-05;0.519999998687126;53;100 mA
22.0606129443023;0.2005615234375;9.24682617187506E-05;0.529999998661879;54;100 mA
22.0706129442771;0.200469970703125;8.75854492187494E-05;0.539999998636631;55;100 mA
22.0806129442518;0.200469970703125;9.79614257812497E-05;0.549999998611383;56;100 mA
22.0906129442266;0.200469970703125;9.27734375000003E-05;0.559999998586136;57;100 mA
22.1006129442013;0.200653076171875;8.85009765625E-05;0.569999998560888;58;100 mA
22.1106129441761;0.200531005859375;9.06372070312495E-05;0.579999998535641;59;100 mA
22.1206129441508;0.200469970703125;9.1552734375E-05;0.589999998510393;60;100 mA
22.1306129441256;0.200469970703125;9.82666015624995E-05;0.599999998485146;61;100 mA
22.1406129441003;0.200469970703125;9.27734375000003E-05;0.609999998459898;62;100 mA
22.1506129440751;0.200531005859375;9.73510742187503E-05;0.61999999843465;63;100 mA
22.1606129440498;0.20050048828125;0.000103149414062501;0.629999998409403;64;100 mA
22.1706129440246;0.2005615234375;0.000104675292968751;0.639999998384155;65;100 mA
22.1806129439993;0.200531005859375;0.0001019287109375;0.649999998358908;66;100 mA
22.1906129439741;0.200469970703125;9.79614257812497E-05;0.65999999833366;67;100 mA
22.2006129439488;0.2005615234375;9.33837890624997E-05;0.669999998308413;68;100 mA
22.2106129439236;0.20050048828125;0.000101318359374999;0.679999998283165;69;100 mA
22.2206129438983;0.20050048828125;0.000106201171875001;0.689999998257917;70;100 mA
22.2306129438731;0.200531005859375;0.000110778808593751;0.69999999823267;71;100 mA
22.2406129438479;0.200469970703125;0.00010406494140625;0.709999998207422;72;100 mA
22.2506129438226;0.20050048828125;0.000111999511718749;0.719999998182175;73;100 mA
22.2606129437974;0.20050048828125;0.000105895996093749;0.729999998156927;74;100 mA
22.2706129437721;0.200531005859375;0.000105895996093749;0.73999999813168;75;100 mA
22.2806129437469;0.200439453125;0.00011260986328125;0.749999998106432;76;100 mA
22.2906129437216;0.2005615234375;0.00010955810546875;0.759999998081184;77;100 mA
22.3006129436964;0.200531005859375;0.000108947753906249;0.769999998055937;78;100 mA
22.3106129436711;0.200469970703125;0.000116882324218751;0.779999998030689;79;100 mA
22.3206129436459;0.200439453125;0.00011322021484375;0.789999998005442;80;100 mA
22.3306129436206;0.200469970703125;0.00012542724609375;0.799999997980194;81;100 mA
22.3406129435954;0.200531005859375;0.000103759765625;0.809999997954947;82;100 mA
22.3506129435701;0.200439453125;0.00010833740234375;0.819999997929699;83;100 mA
22.3606129435449;0.200469970703125;0.0001129150390625;0.829999997904451;84;100 mA
22.3706129435196;0.200408935546875;0.00011138916015625;0.839999997879204;85;100 mA
22.3806129434944;0.200531005859375;0.00012542724609375;0.849999997853956;86;100 mA
22.3906129434691;0.2005615234375;0.000116577148437499;0.859999997828709;87;100 mA
22.4006129434439;0.20050048828125;0.00012176513671875;0.869999997803461;88;100 mA
22.4106129434186;0.20050048828125;0.000122985839843751;0.879999997778214;89;100 mA
22.4206129433934;0.20050048828125;0.000113830566406251;0.889999997752966;90;100 mA
22.4306129433681;0.2005615234375;0.0001190185546875;0.899999997727718;91;100 mA
22.4406129433429;0.200439453125;0.000111999511718749;0.909999997702471;92;100 mA
22.4506129433177;0.20062255859375;0.0001116943359375;0.919999997677223;93;100 mA
22.4606129432924;0.200439453125;0.000125732421874999;0.929999997651976;94;100 mA
22.4706129432672;0.20050048828125;0.000123291015625;0.939999997626728;95;100 mA
22.4806129432419;0.20050048828125;0.00013153076171875;0.949999997601481;96;100 mA
22.4906129432167;0.200439453125;0.000127258300781249;0.959999997576233;97;100 mA
22.5006129431914;0.200592041015625;0.0001171875;0.969999997550985;98;100 mA
22.5106129431662;0.20050048828125;0.000121459960937501;0.979999997525738;99;100 mA
22.5206129431409;0.200531005859375;0.0001202392578125;0.98999999750049;100;100 mA
22.5306129431157;0.20050048828125;0.000121459960937501;0.999999997475243;101;100 mA
22.5406129430904;0.200469970703125;0.0001202392578125;1.00999999745;102;100 mA
22.5506129430652;0.2005615234375;0.000122985839843751;1.01999999742475;103;100 mA
22.5606129430399;0.20050048828125;0.000130615234375001;1.0299999973995;104;100 mA
22.5706129430147;0.200531005859375;0.0001300048828125;1.03999999737425;105;100 mA
22.5806129429894;0.200439453125;0.00012664794921875;1.049999997349;106;100 mA
22.5906129429642;0.200469970703125;0.00011932373046875;1.05999999732376;107;100 mA
22.6006129429389;0.200531005859375;0.00012359619140625;1.06999999729851;108;100 mA
22.6106129429137;0.200469970703125;0.000122680664062499;1.07999999727326;109;100 mA
22.6206129428884;0.2005615234375;0.00012969970703125;1.08999999724801;110;100 mA
22.6306129428632;0.200439453125;0.00013580322265625;1.09999999722277;111;100 mA
22.6406129428379;0.2005615234375;0.000128173828125;1.10999999719752;112;100 mA
22.6506129428127;0.20050048828125;0.00012969970703125;1.11999999717227;113;100 mA
22.6606129427875;0.2005615234375;0.000128173828125;1.12999999714702;114;100 mA
22.6706129427622;0.20050048828125;0.000125732421874999;1.13999999712178;115;100 mA
22.680612942737;0.20050048828125;0.00013092041015625;1.14999999709653;116;100 mA
22.6906129427117;0.200469970703125;0.0001251220703125;1.15999999707128;117;100 mA
22.7006129426865;0.200439453125;0.00013458251953125;1.16999999704603;118;100 mA
22.7106129426612;0.20050048828125;0.000136718750000001;1.17999999702079;119;100 mA
22.720612942636;0.200469970703125;0.0001312255859375;1.18999999699554;120;100 mA
22.7306129426107;0.2005615234375;0.00014068603515625;1.19999999697029;121;100 mA
22.7406129425855;0.200531005859375;0.000124511718750001;1.20999999694504;122;100 mA
22.7506129425602;0.20050048828125;0.00012359619140625;1.2199999969198;123;100 mA
22.760612942535;0.20050048828125;0.00012481689453125;1.22999999689455;124;100 mA
22.7706129425097;0.200439453125;0.00012664794921875;1.2399999968693;125;100 mA
22.7806129424845;0.2005615234375;0.00014312744140625;1.24999999684405;126;100 mA
22.7906129424592;0.200531005859375;0.000133361816406249;1.25999999681881;127;100 mA
22.800612942434;0.200531005859375;0.000141296386718751;1.26999999679356;128;100 mA
22.8106129424087;0.200469970703125;0.00014007568359375;1.27999999676831;129;100 mA
22.8206129423835;0.200531005859375;0.000128784179687499;1.28999999674306;130;100 mA
22.8306129423582;0.20050048828125;0.00013397216796875;1.29999999671782;131;100 mA
22.840612942333;0.2005615234375;0.000126953125;1.30999999669257;132;100 mA
22.8506129423077;0.200592041015625;0.00013092041015625;1.31999999666732;133;100 mA
22.8606129422825;0.200408935546875;0.00013763427734375;1.32999999664207;134;100 mA
22.8706129422573;0.20050048828125;0.000134887695312499;1.33999999661683;135;100 mA
22.880612942232;0.200408935546875;0.000145263671875;1.34999999659158;136;100 mA
22.8906129422068;0.2005615234375;0.00013885498046875;1.35999999656633;137;100 mA
22.9006129421815;0.2005615234375;0.000133666992187501;1.36999999654108;138;100 mA
22.9106129421563;0.200439453125;0.000132141113281251;1.37999999651583;139;100 mA
22.920612942131;0.200439453125;0.00012969970703125;1.38999999649059;140;100 mA
22.9306129421058;0.200408935546875;0.000136718750000001;1.39999999646534;141;100 mA
22.9406129420805;0.200531005859375;0.000135192871093751;1.40999999644009;142;100 mA
22.9506129420553;0.200531005859375;0.000135192871093751;1.41999999641484;143;100 mA
22.96061294203;0.20050048828125;0.000142822265625001;1.4299999963896;144;100 mA
22.9706129420048;0.2005615234375;0.00013885498046875;1.43999999636435;145;100 mA
22.9806129419795;0.20050048828125;0.0001385498046875;1.4499999963391;146;100 mA
22.9906129419543;0.20050048828125;0.000129089355468751;1.45999999631385;147;100 mA
23.000612941929;0.20050048828125;0.000133056640625;1.46999999628861;148;100 mA
23.0106129419038;0.200531005859375;0.00013580322265625;1.47999999626336;149;100 mA
23.0206129418785;0.200439453125;0.000137939453124999;1.48999999623811;150;100 mA
23.0306129418533;0.200469970703125;0.000147399902343751;1.49999999621286;151;100 mA
23.040612941828;0.2005615234375;0.000139465332031249;1.50999999618762;152;100 mA
23.0506129418028;0.200531005859375;0.000142822265625001;1.51999999616237;153;100 mA
23.0606129417775;0.200531005859375;0.00013397216796875;1.52999999613712;154;100 mA
23.0706129417523;0.20050048828125;0.000134887695312499;1.53999999611187;155;100 mA
23.0806129417271;0.200531005859375;0.00013885498046875;1.54999999608663;156;100 mA
23.0906129417018;0.200408935546875;0.00013275146484375;1.55999999606138;157;100 mA
23.1006129416766;0.200439453125;0.00014495849609375;1.56999999603613;158;100 mA
23.1106129416513;0.2005615234375;0.00013916015625;1.57999999601088;159;100 mA
23.1206129416261;0.200531005859375;0.00014312744140625;1.58999999598564;160;100 mA
23.1306129416008;0.2005615234375;0.0001513671875;1.59999999596039;161;100 mA
23.1406129415756;0.200592041015625;0.00013092041015625;1.60999999593514;162;100 mA
23.1506129415503;0.200531005859375;0.00013427734375;1.61999999590989;163;100 mA
23.1606129415251;0.200531005859375;0.0001361083984375;1.62999999588465;164;100 mA
23.1706129414998;0.200531005859375;0.000133666992187501;1.6399999958594;165;100 mA
23.1806129414746;0.200531005859375;0.000153198242187499;1.64999999583415;166;100 mA
23.1906129414493;0.200469970703125;0.0001434326171875;1.6599999958089;167;100 mA
23.2006129414241;0.200469970703125;0.000147399902343751;1.66999999578366;168;100 mA
23.2106129413988;0.200408935546875;0.000152587890625;1.67999999575841;169;100 mA
23.2206129413736;0.2005615234375;0.0001416015625;1.68999999573316;170;100 mA
23.2306129413483;0.2005615234375;0.000139770507812501;1.69999999570791;171;100 mA
23.2406129413231;0.20050048828125;0.00013702392578125;1.70999999568267;172;100 mA
23.2506129412978;0.200531005859375;0.000136413574218749;1.71999999565742;173;100 mA
23.2606129412726;0.200408935546875;0.000145874023437501;1.72999999563217;174;100 mA
23.2706129412474;0.2005615234375;0.000142822265625001;1.73999999560692;175;100 mA
23.2806129412221;0.20050048828125;0.00015228271484375;1.74999999558167;176;100 mA
23.2906129411969;0.2005615234375;0.000151672363281249;1.75999999555643;177;100 mA
23.3006129411716;0.200592041015625;0.000139465332031249;1.76999999553118;178;100 mA
23.3106129411464;0.200408935546875;0.000145263671875;1.77999999550593;179;100 mA
23.3206129411211;0.200408935546875;0.000136413574218749;1.78999999548068;180;100 mA
23.3306129410959;0.200439453125;0.000142822265625001;1.79999999545544;181;100 mA
23.3406129410706;0.200531005859375;0.000144348144531251;1.80999999543019;182;100 mA
23.3506129410454;0.200531005859375;0.00014190673828125;1.81999999540494;183;100 mA
23.3606129410201;0.200469970703125;0.00014923095703125;1.82999999537969;184;100 mA
23.3706129409949;0.200469970703125;0.000150146484374999;1.83999999535445;185;100 mA
23.3806129409696;0.2005615234375;0.000145568847656249;1.8499999953292;186;100 mA
23.3906129409444;0.200531005859375;0.00013885498046875;1.85999999530395;187;100 mA
23.4006129409191;0.200531005859375;0.000140380859375;1.8699999952787;188;100 mA
23.4106129408939;0.200592041015625;0.00014007568359375;1.87999999525346;189;100 mA
23.4206129408686;0.200469970703125;0.000144042968749999;1.88999999522821;190;100 mA
23.4306129408434;0.200469970703125;0.000146484375;1.89999999520296;191;100 mA
23.4406129408181;0.2005615234375;0.00014495849609375;1.90999999517771;192;100 mA
23.4506129407929;0.200592041015625;0.000148925781250001;1.91999999515247;193;100 mA
23.4606129407676;0.20062255859375;0.000139770507812501;1.92999999512722;194;100 mA
23.4706129407424;0.200439453125;0.000140991210937499;1.93999999510197;195;100 mA
23.4806129407172;0.20050048828125;0.000140991210937499;1.94999999507672;196;100 mA
23.4906129406919;0.200408935546875;0.000141296386718751;1.95999999505148;197;100 mA
23.5006129406667;0.200531005859375;0.00014495849609375;1.96999999502623;198;100 mA
23.5106129406414;0.2005615234375;0.000145263671875;1.97999999500098;199;100 mA
23.5206129406162;0.200531005859375;0.000147094726562499;1.98999999497573;200;100 mA
23.5306129405909;0.20050048828125;0.00015899658203125;1.99999999495049;201;100 mA
23.5406129405657;0.20050048828125;0.000142822265625001;2.00999999492524;202;100 mA
23.5506129405404;0.20062255859375;0.000138244628906251;2.01999999489999;203;100 mA
23.5606129405152;0.200469970703125;0.0001446533203125;2.02999999487474;204;100 mA
23.5706129404899;0.2005615234375;0.00014007568359375;2.0399999948495;205;100 mA
23.5806129404647;0.200469970703125;0.0001513671875;2.04999999482425;206;100 mA
23.5906129404394;0.200439453125;0.000148620605468749;2.059999994799;207;100 mA
23.6006129404142;0.200469970703125;0.000150451660156251;2.06999999477375;208;100 mA
23.6106129403889;0.20050048828125;0.00015289306640625;2.0799999947485;209;100 mA
23.6206129403637;0.200592041015625;0.000139465332031249;2.08999999472326;210;100 mA
23.6306129403384;0.200531005859375;0.000145568847656249;2.09999999469801;211;100 mA
23.6406129403132;0.2005615234375;0.000144042968749999;2.10999999467276;212;100 mA
23.6506129402879;0.20050048828125;0.0001361083984375;2.11999999464751;213;100 mA
23.6606129402627;0.20050048828125;0.00014495849609375;2.12999999462227;214;100 mA
23.6706129402374;0.200531005859375;0.000145874023437501;2.13999999459702;215;100 mA
23.6806129402122;0.2005615234375;0.00015380859375;2.14999999457177;216;100 mA
23.690612940187;0.200531005859375;0.0001513671875;2.15999999454652;217;100 mA
23.7006129401617;0.200531005859375;0.000144348144531251;2.16999999452128;218;100 mA
23.7106129401365;0.20050048828125;0.000139465332031249;2.17999999449603;219;100 mA
23.7206129401112;0.20050048828125;0.00014068603515625;2.18999999447078;220;100 mA
23.730612940086;0.2005615234375;0.0001434326171875;2.19999999444553;221;100 mA
23.7406129400607;0.2005615234375;0.000147399902343751;2.20999999442029;222;100 mA
23.7506129400355;0.20050048828125;0.00014984130859375;2.21999999439504;223;100 mA
23.7606129400102;0.20050048828125;0.000152587890625;2.22999999436979;224;100 mA
23.770612939985;0.200531005859375;0.00015228271484375;2.23999999434454;225;100 mA
23.7806129399597;0.200592041015625;0.000150451660156251;2.2499999943193;226;100 mA
23.7906129399345;0.20050048828125;0.00014007568359375;2.25999999429405;227;100 mA
23.8006129399092;0.20050048828125;0.000145874023437501;2.2699999942688;228;100 mA
23.810612939884;0.200469970703125;0.000142822265625001;2.27999999424355;229;100 mA
23.8206129398587;0.200408935546875;0.0001495361328125;2.28999999421831;230;100 mA
23.8306129398335;0.200531005859375;0.00015838623046875;2.29999999419306;231;100 mA
23.8406129398082;0.200469970703125;0.00015411376953125;2.30999999416781;232;100 mA
23.850612939783;0.200592041015625;0.00015869140625;2.31999999414256;233;100 mA
23.8606129397577;0.200531005859375;0.000148620605468749;2.32999999411732;234;100 mA
23.8706129397325;0.20050048828125;0.00014678955078125;2.33999999409207;235;100 mA
23.8806129397072;0.200469970703125;0.000148620605468749;2.34999999406682;236;100 mA
23.890612939682;0.200408935546875;0.000146484375;2.35999999404157;237;100 mA
23.9006129396568;0.200531005859375;0.000152587890625;2.36999999401633;238;100 mA
23.9106129396315;0.200469970703125;0.000153503417968751;2.37999999399108;239;100 mA
23.9206129396063;0.200531005859375;0.00015106201171875;2.38999999396583;240;100 mA
23.930612939581;0.200439453125;0.000164794921875;2.39999999394058;241;100 mA
23.9406129395558;0.200469970703125;0.000154724121093749;2.40999999391533;242;100 mA
23.9506129395305;0.200531005859375;0.0001507568359375;2.41999999389009;243;100 mA
23.9606129395053;0.20062255859375;0.000147399902343751;2.42999999386484;244;100 mA
23.97061293948;0.2005615234375;0.000148925781250001;2.43999999383959;245;100 mA
23.9806129394548;0.200439453125;0.00015594482421875;2.44999999381434;246;100 mA
23.9906129394295;0.200531005859375;0.000152587890625;2.4599999937891;247;100 mA
24.0006129394043;0.200469970703125;0.00016326904296875;2.46999999376385;248;100 mA
24.010612939379;0.200531005859375;0.000166015625;2.4799999937386;249;100 mA
24.0206129393538;0.2005615234375;0.000151672363281249;2.48999999371335;250;100 mA
24.0306129393285;0.20050048828125;0.000158081054687501;2.49999999368811;251;100 mA
24.0406129393033;0.200469970703125;0.00015289306640625;2.50999999366286;252;100 mA
24.050612939278;0.200531005859375;0.0001513671875;2.51999999363761;253;100 mA
24.0606129392528;0.200531005859375;0.000156555175781251;2.52999999361236;254;100 mA
24.0706129392275;0.20050048828125;0.000157775878906249;2.53999999358712;255;100 mA
24.0806129392023;0.200531005859375;0.000171813964843751;2.54999999356187;256;100 mA
24.090612939177;0.2005615234375;0.00016326904296875;2.55999999353662;257;100 mA
24.1006129391518;0.200469970703125;0.000157470703125;2.56999999351137;258;100 mA
24.1106129391266;0.200531005859375;0.0001556396484375;2.57999999348613;259;100 mA
24.1206129391013;0.200592041015625;0.000148925781250001;2.58999999346088;260;100 mA
24.1306129390761;0.200592041015625;0.00015899658203125;2.59999999343563;261;100 mA
24.1406129390508;0.200439453125;0.000165405273437499;2.60999999341038;262;100 mA
24.1506129390256;0.200592041015625;0.0001605224609375;2.61999999338514;263;100 mA
24.1606129390003;0.20050048828125;0.00016448974609375;2.62999999335989;264;100 mA
24.1706129389751;0.200531005859375;0.00016632080078125;2.63999999333464;265;100 mA
24.1806129389498;0.200592041015625;0.000164184570312501;2.64999999330939;266;100 mA
24.1906129389246;0.200531005859375;0.0001556396484375;2.65999999328415;267;100 mA
24.2006129388993;0.2005615234375;0.00015533447265625;2.6699999932589;268;100 mA
24.2106129388741;0.200439453125;0.00015533447265625;2.67999999323365;269;100 mA
24.2206129388488;0.20050048828125;0.00016204833984375;2.6899999932084;270;100 mA
24.2306129388236;0.200592041015625;0.0001678466796875;2.69999999318316;271;100 mA
24.2406129387983;0.2005615234375;0.000168457031249999;2.70999999315791;272;100 mA
24.2506129387731;0.200592041015625;0.000171813964843751;2.71999999313266;273;100 mA
24.2606129387478;0.20050048828125;0.000156249999999999;2.72999999310741;274;100 mA
24.2706129387226;0.200469970703125;0.00015838623046875;2.73999999308217;275;100 mA
24.2806129386973;0.20050048828125;0.000165710449218751;2.74999999305692;276;100 mA
24.2906129386721;0.200531005859375;0.000154724121093749;2.75999999303167;277;100 mA
24.3006129386469;0.200469970703125;0.0001666259765625;2.76999999300642;278;100 mA
24.3106129386216;0.20050048828125;0.000162658691406251;2.77999999298117;279;100 mA
24.3206129385964;0.20050048828125;0.000164184570312501;2.78999999295593;280;100 mA
24.3306129385711;0.200439453125;0.0001751708984375;2.79999999293068;281;100 mA
24.3406129385459;0.200592041015625;0.00016204833984375;2.80999999290543;282;100 mA
24.3506129385206;0.20050048828125;0.0001617431640625;2.81999999288018;283;100 mA
24.3606129384954;0.200592041015625;0.000154724121093749;2.82999999285494;284;100 mA
24.3706129384701;0.200439453125;0.000152587890625;2.83999999282969;285;100 mA
24.3806129384449;0.200439453125;0.000166931152343749;2.84999999280444;286;100 mA
24.3906129384196;0.200439453125;0.00016143798828125;2.85999999277919;287;100 mA
24.4006129383944;0.200469970703125;0.000170288085937501;2.86999999275395;288;100 mA
24.4106129383691;0.2005615234375;0.000174560546874999;2.8799999927287;289;100 mA
24.4206129383439;0.200439453125;0.00016357421875;2.88999999270345;290;100 mA
24.4306129383186;0.200469970703125;0.00016204833984375;2.8999999926782;291;100 mA
24.4406129382934;0.200469970703125;0.000157470703125;2.90999999265296;292;100 mA
24.4506129382681;0.200531005859375;0.000156249999999999;2.91999999262771;293;100 mA
24.4606129382429;0.2005615234375;0.00016357421875;2.92999999260246;294;100 mA
24.4706129382176;0.200531005859375;0.000159301757812499;2.93999999257721;295;100 mA
24.4806129381924;0.2005615234375;0.000167236328125001;2.94999999255197;296;100 mA
24.4906129381671;0.200439453125;0.000168457031249999;2.95999999252672;297;100 mA
24.5006129381419;0.2005615234375;0.00016326904296875;2.96999999250147;298;100 mA
24.5106129381167;0.200592041015625;0.00015838623046875;2.97999999247622;299;100 mA
24.5206129380914;0.200531005859375;0.000152587890625;2.98999999245098;300;100 mA
24.5306129380662;0.200531005859375;0.00016204833984375;2.99999999242573;301;100 mA
24.5406129380409;0.20050048828125;0.00016143798828125;3.00999999240048;302;100 mA
24.5506129380157;0.2005615234375;0.000162353515624999;3.01999999237523;303;100 mA
24.5606129379904;0.200531005859375;0.0001678466796875;3.02999999234999;304;100 mA
24.5706129379652;0.200531005859375;0.00016754150390625;3.03999999232474;305;100 mA
24.5806129379399;0.2005615234375;0.00016754150390625;3.04999999229949;306;100 mA
24.5906129379147;0.20050048828125;0.000154724121093749;3.05999999227424;307;100 mA
24.6006129378894;0.200531005859375;0.000156249999999999;3.069999992249;308;100 mA
24.6106129378642;0.2005615234375;0.000157775878906249;3.07999999222375;309;100 mA
24.6206129378389;0.200592041015625;0.00015869140625;3.0899999921985;310;100 mA
24.6306129378137;0.200469970703125;0.00017120361328125;3.09999999217325;311;100 mA
24.6406129377884;0.2005615234375;0.000169982910156249;3.109999992148;312;100 mA
24.6506129377632;0.20050048828125;0.000166931152343749;3.11999999212276;313;100 mA
24.6606129377379;0.200469970703125;0.00016448974609375;3.12999999209751;314;100 mA
24.6706129377127;0.2005615234375;0.0001556396484375;3.13999999207226;315;100 mA
24.6806129376874;0.20050048828125;0.00015838623046875;3.14999999204701;316;100 mA
24.6906129376622;0.20062255859375;0.0001507568359375;3.15999999202177;317;100 mA
24.7006129376369;0.200408935546875;0.0001666259765625;3.16999999199652;318;100 mA
24.7106129376117;0.2005615234375;0.000164184570312501;3.17999999197127;319;100 mA
24.7206129375865;0.200469970703125;0.000167236328125001;3.18999999194602;320;100 mA
24.7306129375612;0.200592041015625;0.000177917480468751;3.19999999192078;321;100 mA
24.740612937536;0.200531005859375;0.00016510009765625;3.20999999189553;322;100 mA
24.7506129375107;0.20050048828125;0.0001629638671875;3.21999999187028;323;100 mA
24.7606129374855;0.200592041015625;0.0001556396484375;3.22999999184503;324;100 mA
24.7706129374602;0.200439453125;0.00015716552734375;3.23999999181979;325;100 mA
24.780612937435;0.20050048828125;0.0001678466796875;3.24999999179454;326;100 mA
24.7906129374097;0.200531005859375;0.000165405273437499;3.25999999176929;327;100 mA
24.8006129373845;0.20050048828125;0.00016815185546875;3.26999999174404;328;100 mA
24.8106129373592;0.200531005859375;0.00017059326171875;3.2799999917188;329;100 mA
24.820612937334;0.20050048828125;0.000165710449218751;3.28999999169355;330;100 mA
24.8306129373087;0.200469970703125;0.00016754150390625;3.2999999916683;331;100 mA
24.8406129372835;0.2005615234375;0.000161132812500001;3.30999999164305;332;100 mA
24.8506129372582;0.2005615234375;0.000156555175781251;3.31999999161781;333;100 mA
24.860612937233;0.200408935546875;0.00016632080078125;3.32999999159256;334;100 mA
24.8706129372077;0.20050048828125;0.000164184570312501;3.33999999156731;335;100 mA
24.8806129371825;0.200469970703125;0.0001751708984375;3.34999999154206;336;100 mA
24.8906129371572;0.200469970703125;0.000169677734375;3.35999999151682;337;100 mA
24.900612937132;0.2005615234375;0.000166015625;3.36999999149157;338;100 mA
24.9106129371067;0.200408935546875;0.000163879394531249;3.37999999146632;339;100 mA
24.9206129370815;0.200592041015625;0.00015411376953125;3.38999999144107;340;100 mA
24.9306129370563;0.200469970703125;0.00016204833984375;3.39999999141583;341;100 mA
24.940612937031;0.20050048828125;0.00016448974609375;3.40999999139058;342;100 mA
24.9506129370058;0.2005615234375;0.000165710449218751;3.41999999136533;343;100 mA
24.9606129369805;0.200469970703125;0.00017059326171875;3.42999999134008;344;100 mA
24.9706129369553;0.200531005859375;0.000168762207031251;3.43999999131483;345;100 mA
24.98061293693;0.200469970703125;0.0001708984375;3.44999999128959;346;100 mA
24.9906129369048;0.20050048828125;0.0001629638671875;3.45999999126434;347;100 mA
25.0006129368795;0.20050048828125;0.00015533447265625;3.46999999123909;348;100 mA
25.0106129368543;0.200531005859375;0.000161132812500001;3.47999999121384;349;100 mA
25.020612936829;0.2005615234375;0.00016204833984375;3.4899999911886;350;100 mA
25.0306129368038;0.200469970703125;0.0001708984375;3.49999999116335;351;100 mA
25.0406129367785;0.2005615234375;0.000172119140625;3.5099999911381;352;100 mA
25.0506129367533;0.20050048828125;0.0001678466796875;3.51999999111285;353;100 mA
25.060612936728;0.20050048828125;0.000168762207031251;3.52999999108761;354;100 mA
25.0706129367028;0.2005615234375;0.000160827636718749;3.53999999106236;355;100 mA
25.0806129366775;0.200531005859375;0.0001629638671875;3.54999999103711;356;100 mA
25.0906129366523;0.20050048828125;0.0001544189453125;3.55999999101186;357;100 mA
25.100612936627;0.200439453125;0.000166931152343749;3.56999999098662;358;100 mA
25.1106129366018;0.2005615234375;0.000167236328125001;3.57999999096137;359;100 mA
25.1206129365765;0.200531005859375;0.00016632080078125;3.58999999093612;360;100 mA
25.1306129365513;0.2005615234375;0.0001788330078125;3.59999999091087;361;100 mA
25.1406129365261;0.2005615234375;0.000167236328125001;3.60999999088563;362;100 mA
25.1506129365008;0.200469970703125;0.000165405273437499;3.61999999086038;363;100 mA
25.1606129364756;0.200469970703125;0.00015869140625;3.62999999083513;364;100 mA
25.1706129364503;0.20050048828125;0.000157470703125;3.63999999080988;365;100 mA
25.1806129364251;0.20062255859375;0.000165405273437499;3.64999999078464;366;100 mA
25.1906129363998;0.200531005859375;0.000161132812500001;3.65999999075939;367;100 mA
25.2006129363746;0.200592041015625;0.0001678466796875;3.66999999073414;368;100 mA
25.2106129363493;0.200531005859375;0.000173034667968749;3.67999999070889;369;100 mA
25.2206129363241;0.200531005859375;0.0001629638671875;3.68999999068365;370;100 mA
25.2306129362988;0.2005615234375;0.000167236328125001;3.6999999906584;371;100 mA
25.2406129362736;0.200592041015625;0.000159912109375;3.70999999063315;372;100 mA
25.2506129362483;0.200592041015625;0.00016357421875;3.7199999906079;373;100 mA
25.2606129362231;0.200439453125;0.00016632080078125;3.72999999058266;374;100 mA
25.2706129361978;0.200439453125;0.000166015625;3.73999999055741;375;100 mA
25.2806129361726;0.200531005859375;0.00017364501953125;3.74999999053216;376;100 mA
25.2906129361473;0.200592041015625;0.00016754150390625;3.75999999050691;377;100 mA
25.3006129361221;0.20050048828125;0.00017120361328125;3.76999999048167;378;100 mA
25.3106129360968;0.200531005859375;0.000167236328125001;3.77999999045642;379;100 mA
25.3206129360716;0.200469970703125;0.000157775878906249;3.78999999043117;380;100 mA
25.3306129360464;0.20050048828125;0.000165405273437499;3.79999999040592;381;100 mA
25.3406129360211;0.2005615234375;0.000165710449218751;3.80999999038067;382;100 mA
25.3506129359959;0.2005615234375;0.000169677734375;3.81999999035543;383;100 mA
25.3606129359706;0.200531005859375;0.00017364501953125;3.82999999033018;384;100 mA
25.3706129359454;0.200439453125;0.0001727294921875;3.83999999030493;385;100 mA
25.3806129359201;0.200439453125;0.00017547607421875;3.84999999027968;386;100 mA
25.3906129358949;0.20050048828125;0.000165405273437499;3.85999999025444;387;100 mA
25.4006129358696;0.2005615234375;0.000159912109375;3.86999999022919;388;100 mA
25.4106129358444;0.20050048828125;0.000164794921875;3.87999999020394;389;100 mA
25.4206129358191;0.200469970703125;0.000161132812500001;3.88999999017869;390;100 mA
25.4306129357939;0.200469970703125;0.000177917480468751;3.89999999015345;391;100 mA
25.4406129357686;0.200531005859375;0.0001727294921875;3.9099999901282;392;100 mA
25.4506129357434;0.200531005859375;0.000174865722656251;3.91999999010295;393;100 mA
25.4606129357181;0.20062255859375;0.000173034667968749;3.9299999900777;394;100 mA
25.4706129356929;0.200531005859375;0.000164184570312501;3.93999999005246;395;100 mA
25.4806129356676;0.200592041015625;0.000163879394531249;3.94999999002721;396;100 mA
25.4906129356424;0.200408935546875;0.00015869140625;3.95999999000196;397;100 mA
25.5006129356171;0.200531005859375;0.000167236328125001;3.96999998997671;398;100 mA
25.5106129355919;0.200531005859375;0.00016937255859375;3.97999998995147;399;100 mA
25.5206129355666;0.200531005859375;0.000166931152343749;3.98999998992622;400;100 mA
25.5306129355414;0.2005615234375;0.00018035888671875;3.99999998990097;401;100 mA
25.5406129355162;0.200469970703125;0.0001708984375;4.00999998987572;402;100 mA
25.5506129354909;0.20050048828125;0.0001678466796875;4.01999998985048;403;100 mA
25.5606129354657;0.200531005859375;0.000163879394531249;4.02999998982523;404;100 mA
25.5706129354404;0.20062255859375;0.00016021728515625;4.03999998979998;405;100 mA
25.5806129354152;0.200592041015625;0.00017364501953125;4.04999998977473;406;100 mA
25.5906129353899;0.200439453125;0.000164184570312501;4.05999998974949;407;100 mA
25.6006129353647;0.2005615234375;0.0001727294921875;4.06999998972424;408;100 mA
25.6106129353394;0.200469970703125;0.000176086425781249;4.07999998969899;409;100 mA
25.6206129353142;0.20050048828125;0.0001678466796875;4.08999998967374;410;100 mA
25.6306129352889;0.20050048828125;0.000174865722656251;4.0999999896485;411;100 mA
25.6406129352637;0.200531005859375;0.0001629638671875;4.10999998962325;412;100 mA
25.6506129352384;0.200469970703125;0.000162353515624999;4.119999989598;413;100 mA
25.6606129352132;0.200469970703125;0.000168457031249999;4.12999998957275;414;100 mA
25.6706129351879;0.200531005859375;0.00016357421875;4.1399999895475;415;100 mA
25.6806129351627;0.200531005859375;0.00017547607421875;4.14999998952226;416;100 mA
25.6906129351374;0.2005615234375;0.000171508789062499;4.15999998949701;417;100 mA
25.7006129351122;0.200531005859375;0.000166931152343749;4.16999998947176;418;100 mA
25.7106129350869;0.20050048828125;0.00016815185546875;4.17999998944651;419;100 mA
25.7206129350617;0.20050048828125;0.000159912109375;4.18999998942127;420;100 mA
25.7306129350364;0.200592041015625;0.000165710449218751;4.19999998939602;421;100 mA
25.7406129350112;0.20062255859375;0.00016448974609375;4.20999998937077;422;100 mA
25.750612934986;0.200469970703125;0.00017059326171875;4.21999998934552;423;100 mA
25.7606129349607;0.20050048828125;0.000172119140625;4.22999998932028;424;100 mA
25.7706129349355;0.200439453125;0.000168762207031251;4.23999998929503;425;100 mA
25.7806129349102;0.200531005859375;0.0001739501953125;4.24999998926978;426;100 mA
25.790612934885;0.2005615234375;0.0001617431640625;4.25999998924453;427;100 mA
25.8006129348597;0.200592041015625;0.000159912109375;4.26999998921929;428;100 mA
25.8106129348345;0.2005615234375;0.000158081054687501;4.27999998919404;429;100 mA
25.8206129348092;0.200408935546875;0.000161132812500001;4.28999998916879;430;100 mA
25.830612934784;0.200469970703125;0.000174865722656251;4.29999998914354;431;100 mA
25.8406129347587;0.2005615234375;0.000169982910156249;4.3099999891183;432;100 mA
25.8506129347335;0.20062255859375;0.000169982910156249;4.31999998909305;433;100 mA
25.8606129347082;0.200439453125;0.000173339843750001;4.3299999890678;434;100 mA
25.870612934683;0.200469970703125;0.00015869140625;4.33999998904255;435;100 mA
25.8806129346577;0.2005615234375;0.0001629638671875;4.34999998901731;436;100 mA
25.8906129346325;0.2005615234375;0.000155029296875001;4.35999998899206;437;100 mA
25.9006129346072;0.200592041015625;0.000161132812500001;4.36999998896681;438;100 mA
25.910612934582;0.20050048828125;0.00017364501953125;4.37999998894156;439;100 mA
25.9206129345567;0.20050048828125;0.000165405273437499;4.38999998891632;440;100 mA
25.9306129345315;0.20050048828125;0.00017730712890625;4.39999998889107;441;100 mA
25.9406129345062;0.2005615234375;0.00016754150390625;4.40999998886582;442;100 mA
25.950612934481;0.200531005859375;0.00016448974609375;4.41999998884057;443;100 mA
25.9606129344558;0.200531005859375;0.00016204833984375;4.42999998881533;444;100 mA
25.9706129344305;0.200592041015625;0.000155029296875001;4.43999998879008;445;100 mA
25.9806129344053;0.200469970703125;0.00016937255859375;4.44999998876483;446;100 mA
25.99061293438;0.20050048828125;0.0001666259765625;4.45999998873958;447;100 mA
26.0006129343548;0.200469970703125;0.00016357421875;4.46999998871433;448;100 mA
26.0106129343295;0.2005615234375;0.000174865722656251;4.47999998868909;449;100 mA
26.0206129343043;0.20050048828125;0.00016510009765625;4.48999998866384;450;100 mA
26.030612934279;0.200469970703125;0.00016815185546875;4.49999998863859;451;100 mA
26.0406129342538;0.200531005859375;0.00016021728515625;4.50999998861334;452;100 mA
26.0506129342285;0.200469970703125;0.000162353515624999;4.5199999885881;453;100 mA
26.0606129342033;0.20050048828125;0.00016815185546875;4.52999998856285;454;100 mA
26.070612934178;0.200592041015625;0.000164184570312501;4.5399999885376;455;100 mA
26.0806129341528;0.2005615234375;0.000177612304687499;4.54999998851235;456;100 mA
26.0906129341275;0.2005615234375;0.000169982910156249;4.55999998848711;457;100 mA
26.1006129341023;0.200439453125;0.00017059326171875;4.56999998846186;458;100 mA
26.110612934077;0.20050048828125;0.0001678466796875;4.57999998843661;459;100 mA
26.1206129340518;0.200531005859375;0.00015411376953125;4.58999998841136;460;100 mA
26.1306129340265;0.200531005859375;0.000166015625;4.59999998838612;461;100 mA
26.1406129340013;0.20050048828125;0.00016815185546875;4.60999998836087;462;100 mA
26.150612933976;0.200439453125;0.000172119140625;4.61999998833562;463;100 mA
26.1606129339508;0.20050048828125;0.0001727294921875;4.62999998831037;464;100 mA
26.1706129339256;0.200469970703125;0.000171508789062499;4.63999998828513;465;100 mA
26.1806129339003;0.20050048828125;0.000177001953125;4.64999998825988;466;100 mA
26.1906129338751;0.20050048828125;0.000162658691406251;4.65999998823463;467;100 mA
26.2006129338498;0.2005615234375;0.000160827636718749;4.66999998820938;468;100 mA
26.2106129338246;0.200439453125;0.000165405273437499;4.67999998818414;469;100 mA
26.2206129337993;0.200469970703125;0.00016448974609375;4.68999998815889;470;100 mA
26.2306129337741;0.2005615234375;0.000174560546874999;4.69999998813364;471;100 mA
26.2406129337488;0.200531005859375;0.00017059326171875;4.70999998810839;472;100 mA
26.2506129337236;0.200531005859375;0.000170288085937501;4.71999998808315;473;100 mA
26.2606129336983;0.200439453125;0.00017578125;4.7299999880579;474;100 mA
26.2706129336731;0.20050048828125;0.000164184570312501;4.73999998803265;475;100 mA
26.2806129336478;0.200531005859375;0.000168457031249999;4.7499999880074;476;100 mA
26.2906129336226;0.200531005859375;0.00015716552734375;4.75999998798216;477;100 mA
26.3006129335973;0.200531005859375;0.000164794921875;4.76999998795691;478;100 mA
26.3106129335721;0.200469970703125;0.000173034667968749;4.77999998793166;479;100 mA
26.3206129335468;0.200531005859375;0.00016754150390625;4.78999998790641;480;100 mA
26.3306129335216;0.200469970703125;0.000177612304687499;4.79999998788116;481;100 mA
26.3406129334963;0.20050048828125;0.0001751708984375;4.80999998785592;482;100 mA
26.3506129334711;0.200469970703125;0.000166015625;4.81999998783067;483;100 mA
26.3606129334459;0.200469970703125;0.0001690673828125;4.82999998780542;484;100 mA
26.3706129334206;0.200408935546875;0.000159912109375;4.83999998778017;485;100 mA
26.3806129333954;0.200439453125;0.00017242431640625;4.84999998775493;486;100 mA
26.3906129333701;0.200469970703125;0.00016754150390625;4.85999998772968;487;100 mA
26.4006129333449;0.20050048828125;0.000171813964843751;4.86999998770443;488;100 mA
26.4106129333196;0.200531005859375;0.00017364501953125;4.87999998767918;489;100 mA
26.4206129332944;0.200469970703125;0.0001678466796875;4.88999998765394;490;100 mA
26.4306129332691;0.20050048828125;0.000167236328125001;4.89999998762869;491;100 mA
26.4406129332439;0.200469970703125;0.00016357421875;4.90999998760344;492;100 mA
26.4506129332186;0.200531005859375;0.0001678466796875;4.91999998757819;493;100 mA
26.4606129331934;0.2005615234375;0.000168762207031251;4.92999998755295;494;100 mA
26.4706129331681;0.200469970703125;0.000168457031249999;4.9399999875277;495;100 mA
26.4806129331429;0.200531005859375;0.000176391601562501;4.94999998750245;496;100 mA
26.4906129331176;0.200439453125;0.000165710449218751;4.9599999874772;497;100 mA
26.5006129330924;0.20050048828125;0.000173034667968749;4.96999998745196;498;100 mA
26.5106129330671;0.20050048828125;0.000170288085937501;4.97999998742671;499;100 mA
26.5206129330419;0.200531005859375;0.000157470703125;4.98999998740146;500;100 mA
26.5306129330166;0.200531005859375;0.0001678466796875;4.99999998737621;501;100 mA
26.5406129329914;0.200531005859375;0.0001629638671875;5.00999998735097;502;100 mA
26.5506129329661;0.200469970703125;0.000168457031249999;5.01999998732572;503;100 mA
26.5606129329409;0.2005615234375;0.000172119140625;5.02999998730047;504;100 mA
26.5706129329157;0.200531005859375;0.000166931152343749;5.03999998727522;505;100 mA
26.5806129328904;0.20050048828125;0.000176391601562501;5.04999998724998;506;100 mA
26.5906129328652;0.2005615234375;0.000157470703125;5.05999998722473;507;100 mA
26.6006129328399;0.200469970703125;0.000166015625;5.06999998719948;508;100 mA
26.6106129328147;0.200469970703125;0.0001629638671875;5.07999998717423;509;100 mA
26.6206129327894;0.200531005859375;0.0001605224609375;5.08999998714899;510;100 mA
26.6306129327642;0.200531005859375;0.00017669677734375;5.09999998712374;511;100 mA
26.6406129327389;0.2005615234375;0.00016510009765625;5.10999998709849;512;100 mA
26.6506129327137;0.200439453125;0.000171813964843751;5.11999998707324;513;100 mA
26.6606129326884;0.20050048828125;0.00017120361328125;5.129999987048;514;100 mA
26.6706129326632;0.2005615234375;0.000159606933593751;5.13999998702275;515;100 mA
26.6806129326379;0.20050048828125;0.000170288085937501;5.1499999869975;516;100 mA
26.6906129326127;0.200714111328125;0.000157775878906249;5.15999998697225;517;100 mA
26.7006129325874;0.200469970703125;0.000162658691406251;5.169999986947;518;100 mA
26.7106129325622;0.20050048828125;0.000172119140625;5.17999998692176;519;100 mA
26.7206129325369;0.200531005859375;0.000166931152343749;5.18999998689651;520;100 mA
26.7306129325117;0.2005615234375;0.000174865722656251;5.19999998687126;521;100 mA
26.7406129324864;0.20050048828125;0.00017364501953125;5.20999998684601;522;100 mA
26.7506129324612;0.200439453125;0.000167236328125001;5.21999998682077;523;100 mA
26.7606129324359;0.20050048828125;0.00016937255859375;5.22999998679552;524;100 mA
26.7706129324107;0.200439453125;0.0001556396484375;5.23999998677027;525;100 mA
26.7806129323855;0.200531005859375;0.000169677734375;5.24999998674502;526;100 mA
26.7906129323602;0.200592041015625;0.00016815185546875;5.25999998671978;527;100 mA
26.800612932335;0.200531005859375;0.00016357421875;5.26999998669453;528;100 mA
26.8106129323097;0.2005615234375;0.000171508789062499;5.27999998666928;529;100 mA
26.8206129322845;0.200408935546875;0.00016326904296875;5.28999998664403;530;100 mA
26.8306129322592;0.20050048828125;0.000173034667968749;5.29999998661879;531;100 mA
26.840612932234;0.20050048828125;0.00016204833984375;5.30999998659354;532;100 mA
26.8506129322087;0.2005615234375;0.000162353515624999;5.31999998656829;533;100 mA
26.8606129321835;0.200469970703125;0.0001678466796875;5.32999998654304;534;100 mA
26.8706129321582;0.200531005859375;0.00016815185546875;5.3399999865178;535;100 mA
26.880612932133;0.20050048828125;0.00017425537109375;5.34999998649255;536;100 mA
26.8906129321077;0.200469970703125;0.000167236328125001;5.3599999864673;537;100 mA
26.9006129320825;0.200531005859375;0.00016754150390625;5.36999998644205;538;100 mA
26.9106129320572;0.200469970703125;0.00016632080078125;5.37999998641681;539;100 mA
26.920612932032;0.20050048828125;0.000162353515624999;5.38999998639156;540;100 mA
26.9306129320067;0.20050048828125;0.000165405273437499;5.39999998636631;541;100 mA
26.9406129319815;0.2005615234375;0.000164794921875;5.40999998634106;542;100 mA
26.9506129319562;0.200531005859375;0.0001678466796875;5.41999998631582;543;100 mA
26.960612931931;0.200531005859375;0.000171813964843751;5.42999998629057;544;100 mA
26.9706129319057;0.200531005859375;0.00016326904296875;5.43999998626532;545;100 mA
26.9806129318805;0.200439453125;0.00017669677734375;5.44999998624007;546;100 mA
26.9906129318553;0.200531005859375;0.000163879394531249;5.45999998621483;547;100 mA
27.00061293183;0.20050048828125;0.000158081054687501;5.46999998618958;548;100 mA
27.0106129318048;0.200469970703125;0.0001617431640625;5.47999998616433;549;100 mA
27.0206129317795;0.200592041015625;0.00015594482421875;5.48999998613908;550;100 mA
27.0306129317543;0.200439453125;0.0001788330078125;5.49999998611383;551;100 mA
27.040612931729;0.20062255859375;0.00016754150390625;5.50999998608859;552;100 mA
27.0506129317038;0.200469970703125;0.0001666259765625;5.51999998606334;553;100 mA
27.0606129316785;0.20050048828125;0.000171813964843751;5.52999998603809;554;100 mA
27.0706129316533;0.2005615234375;0.00016357421875;5.53999998601284;555;100 mA
27.080612931628;0.200531005859375;0.000168457031249999;5.5499999859876;556;100 mA
27.0906129316028;0.20050048828125;0.00015899658203125;5.55999998596235;557;100 mA
27.1006129315775;0.200531005859375;0.000158081054687501;5.5699999859371;558;100 mA
27.1106129315523;0.20111083984375;0.00017822265625;5.57999998591185;559;100 mA
27.120612931527;0.200531005859375;0.000165405273437499;5.58999998588661;560;100 mA
27.1306129315018;0.200469970703125;0.000174865722656251;5.59999998586136;561;100 mA
27.1406129314765;0.200469970703125;0.00016754150390625;5.60999998583611;562;100 mA
27.1506129314513;0.200469970703125;0.000162353515624999;5.61999998581086;563;100 mA
27.160612931426;0.200439453125;0.000169982910156249;5.62999998578562;564;100 mA
27.1706129314008;0.20050048828125;0.00015594482421875;5.63999998576037;565;100 mA
27.1806129313755;0.200531005859375;0.0001708984375;5.64999998573512;566;100 mA
27.1906129313503;0.200469970703125;0.000169982910156249;5.65999998570987;567;100 mA
27.2006129313251;0.20050048828125;0.00016448974609375;5.66999998568463;568;100 mA
27.2106129312998;0.200531005859375;0.00016632080078125;5.67999998565938;569;100 mA
27.2206129312746;0.200439453125;0.0001678466796875;5.68999998563413;570;100 mA
27.2306129312493;0.20050048828125;0.00017364501953125;5.69999998560888;571;100 mA
27.2406129312241;0.2005615234375;0.0001605224609375;5.70999998558364;572;100 mA
27.2506129311988;0.200531005859375;0.000166931152343749;5.71999998555839;573;100 mA
27.2606129311736;0.200469970703125;0.000165405273437499;5.72999998553314;574;100 mA
27.2706129311483;0.201141357421875;0.00017242431640625;5.73999998550789;575;100 mA
27.2806129311231;0.200531005859375;0.00017364501953125;5.74999998548265;576;100 mA
27.2906129310978;0.200531005859375;0.000170288085937501;5.7599999854574;577;100 mA
27.3006129310726;0.200531005859375;0.00016815185546875;5.76999998543215;578;100 mA
27.3106129310473;0.200439453125;0.00017059326171875;5.7799999854069;579;100 mA
27.3206129310221;0.20050048828125;0.00016021728515625;5.78999998538166;580;100 mA
27.3306129309968;0.200469970703125;0.000168762207031251;5.79999998535641;581;100 mA
27.3406129309716;0.2005615234375;0.00016143798828125;5.80999998533116;582;100 mA
27.3506129309463;0.2005615234375;0.00017547607421875;5.81999998530591;583;100 mA
27.3606129309211;0.200531005859375;0.000174865722656251;5.82999998528066;584;100 mA
27.3706129308958;0.20050048828125;0.000165405273437499;5.83999998525542;585;100 mA
27.3806129308706;0.200408935546875;0.00017822265625;5.84999998523017;586;100 mA
27.3906129308454;0.200592041015625;0.00016937255859375;5.85999998520492;587;100 mA
27.4006129308201;0.2005615234375;0.0001629638671875;5.86999998517967;588;100 mA
27.4106129307949;0.200592041015625;0.000168762207031251;5.87999998515443;589;100 mA
27.4206129307696;0.200439453125;0.00016632080078125;5.88999998512918;590;100 mA
27.4306129307444;0.200927734375;0.0001873779296875;5.89999998510393;591;100 mA
27.4406129307191;0.200531005859375;0.000172119140625;5.90999998507868;592;100 mA
27.4506129306939;0.20050048828125;0.00017425537109375;5.91999998505344;593;100 mA
27.4606129306686;0.200439453125;0.000179138183593749;5.92999998502819;594;100 mA
27.4706129306434;0.20050048828125;0.00016815185546875;5.93999998500294;595;100 mA
27.4806129306181;0.200469970703125;0.000180969238281251;5.94999998497769;596;100 mA
27.4906129305929;0.200469970703125;0.000168762207031251;5.95999998495245;597;100 mA
27.5006129305676;0.20050048828125;0.00017059326171875;5.9699999849272;598;100 mA
27.5106129305424;0.200531005859375;0.000183715820312499;5.97999998490195;599;100 mA
27.5206129305171;0.200531005859375;0.000173339843750001;5.9899999848767;600;100 mA
27.5306129304919;0.20050048828125;0.000177612304687499;5.99999998485146;601;100 mA
27.5406129304666;0.200439453125;0.00017822265625;6.00999998482621;602;100 mA
27.5506129304414;0.200469970703125;0.00017120361328125;6.01999998480096;603;100 mA
27.5606129304161;0.20050048828125;0.00017669677734375;6.02999998477571;604;100 mA
27.5706129303909;0.200592041015625;0.0001678466796875;6.03999998475047;605;100 mA
27.5806129303656;0.2005615234375;0.00017578125;6.04999998472522;606;100 mA
27.5906129303404;0.200958251953125;0.00018341064453125;6.05999998469997;607;100 mA
27.6006129303152;0.20050048828125;0.00017578125;6.06999998467472;608;100 mA
27.6106129302899;0.200469970703125;0.00017547607421875;6.07999998464948;609;100 mA
27.6206129302647;0.20050048828125;0.000173034667968749;6.08999998462423;610;100 mA
27.6306129302394;0.200531005859375;0.000179138183593749;6.09999998459898;611;100 mA
27.6406129302142;0.200531005859375;0.0001708984375;6.10999998457373;612;100 mA
27.6506129301889;0.20037841796875;0.000179138183593749;6.11999998454849;613;100 mA
27.6606129301637;0.20050048828125;0.0001727294921875;6.12999998452324;614;100 mA
27.6706129301384;0.20050048828125;0.000184020996093751;6.13999998449799;615;100 mA
27.6806129301132;0.200469970703125;0.000185241699218749;6.14999998447274;616;100 mA
27.6906129300879;0.2005615234375;0.000176391601562501;6.1599999844475;617;100 mA
27.7006129300627;0.200469970703125;0.00017547607421875;6.16999998442225;618;100 mA
27.7106129300374;0.20050048828125;0.000177917480468751;6.179999984397;619;100 mA
27.7206129300122;0.200439453125;0.000171813964843751;6.18999998437175;620;100 mA
27.7306129299869;0.2005615234375;0.000180969238281251;6.1999999843465;621;100 mA
27.7406129299617;0.200531005859375;0.000169982910156249;6.20999998432126;622;100 mA
27.7506129299364;0.2005615234375;0.00018646240234375;6.21999998429601;623;100 mA
27.7606129299112;0.200469970703125;0.00018341064453125;6.22999998427076;624;100 mA
27.7706129298859;0.200439453125;0.000171813964843751;6.23999998424551;625;100 mA
27.7806129298607;0.20050048828125;0.0001812744140625;6.24999998422027;626;100 mA
27.7906129298354;0.20050048828125;0.00017547607421875;6.25999998419502;627;100 mA
27.8006129298102;0.2005615234375;0.0001739501953125;6.26999998416977;628;100 mA
27.810612929785;0.200439453125;0.000179443359375001;6.27999998414452;629;100 mA
27.8206129297597;0.20050048828125;0.00016754150390625;6.28999998411928;630;100 mA
27.8306129297345;0.2005615234375;0.000192871093749999;6.29999998409403;631;100 mA
27.8406129297092;0.20050048828125;0.000173339843750001;6.30999998406878;632;100 mA
27.850612929684;0.20050048828125;0.0001727294921875;6.31999998404353;633;100 mA
27.8606129296587;0.200439453125;0.000181884765625;6.32999998401829;634;100 mA
27.8706129296335;0.20050048828125;0.00017059326171875;6.33999998399304;635;100 mA
27.8806129296082;0.200408935546875;0.00018035888671875;6.34999998396779;636;100 mA
27.890612929583;0.20050048828125;0.000174560546874999;6.35999998394254;637;100 mA
27.9006129295577;0.200653076171875;0.000168762207031251;6.3699999839173;638;100 mA
27.9106129295325;0.200439453125;0.000191345214843749;6.37999998389205;639;100 mA
27.9206129295072;0.2005615234375;0.0001739501953125;6.3899999838668;640;100 mA
27.930612929482;0.200469970703125;0.00018035888671875;6.39999998384155;641;100 mA
27.9406129294567;0.20050048828125;0.000176391601562501;6.40999998381631;642;100 mA
27.9506129294315;0.200531005859375;0.00017730712890625;6.41999998379106;643;100 mA
27.9606129294062;0.20050048828125;0.00017669677734375;6.42999998376581;644;100 mA
27.970612929381;0.2005615234375;0.000171508789062499;6.43999998374056;645;100 mA
27.9806129293557;0.20050048828125;0.00017852783203125;6.44999998371532;646;100 mA
27.9906129293305;0.20050048828125;0.000185546875000001;6.45999998369007;647;100 mA
28.0006129293052;0.20050048828125;0.000177001953125;6.46999998366482;648;100 mA
28.01061292928;0.20050048828125;0.000176086425781249;6.47999998363957;649;100 mA
28.0206129292548;0.200469970703125;0.000174560546874999;6.48999998361433;650;100 mA
28.0306129292295;0.200469970703125;0.0001812744140625;6.49999998358908;651;100 mA
28.0406129292043;0.200469970703125;0.0001690673828125;6.50999998356383;652;100 mA
28.050612929179;0.200408935546875;0.0001751708984375;6.51999998353858;653;100 mA
28.0606129291538;0.2005615234375;0.000173339843750001;6.52999998351333;654;100 mA
28.0706129291285;0.200469970703125;0.000187072753906251;6.53999998348809;655;100 mA
28.0806129291033;0.20062255859375;0.000179138183593749;6.54999998346284;656;100 mA
28.090612929078;0.200469970703125;0.00017578125;6.55999998343759;657;100 mA
28.1006129290528;0.200469970703125;0.000177001953125;6.56999998341234;658;100 mA
28.1106129290275;0.2005615234375;0.00017364501953125;6.5799999833871;659;100 mA
28.1206129290023;0.200469970703125;0.00016937255859375;6.58999998336185;660;100 mA
28.130612928977;0.200592041015625;0.000176086425781249;6.5999999833366;661;100 mA
28.1406129289518;0.20050048828125;0.000166931152343749;6.60999998331135;662;100 mA
28.1506129289265;0.200531005859375;0.000185241699218749;6.61999998328611;663;100 mA
28.1606129289013;0.200531005859375;0.00017730712890625;6.62999998326086;664;100 mA
28.170612928876;0.200531005859375;0.000166015625;6.63999998323561;665;100 mA
28.1806129288508;0.200469970703125;0.0001849365234375;6.64999998321036;666;100 mA
28.1906129288255;0.200469970703125;0.00017242431640625;6.65999998318512;667;100 mA
28.2006129288003;0.2005615234375;0.000168457031249999;6.66999998315987;668;100 mA
28.210612928775;0.200439453125;0.0001727294921875;6.67999998313462;669;100 mA
28.2206129287498;0.2005615234375;0.00016510009765625;6.68999998310937;670;100 mA
28.2306129287246;0.200439453125;0.000191650390625001;6.69999998308413;671;100 mA
28.2406129286993;0.20050048828125;0.000168762207031251;6.70999998305888;672;100 mA
28.2506129286741;0.200408935546875;0.0001708984375;6.71999998303363;673;100 mA
28.2606129286488;0.200439453125;0.000174865722656251;6.72999998300838;674;100 mA
28.2706129286236;0.20050048828125;0.00016937255859375;6.73999998298314;675;100 mA
28.2806129285983;0.20050048828125;0.000172119140625;6.74999998295789;676;100 mA
28.2906129285731;0.200592041015625;0.0001708984375;6.75999998293264;677;100 mA
28.3006129285478;0.2005615234375;0.000166015625;6.76999998290739;678;100 mA
28.3106129285226;0.200469970703125;0.000192871093749999;6.77999998288215;679;100 mA
28.3206129284973;0.2005615234375;0.000171508789062499;6.7899999828569;680;100 mA
28.3306129284721;0.2005615234375;0.00017669677734375;6.79999998283165;681;100 mA
28.3406129284468;0.2005615234375;0.000170288085937501;6.8099999828064;682;100 mA
28.3506129284216;0.200469970703125;0.000168762207031251;6.81999998278116;683;100 mA
28.3606129283963;0.200531005859375;0.00017425537109375;6.82999998275591;684;100 mA
28.3706129283711;0.200531005859375;0.0001666259765625;6.83999998273066;685;100 mA
28.3806129283458;0.20050048828125;0.00017547607421875;6.84999998270541;686;100 mA
28.3906129283206;0.20037841796875;0.000189208984375;6.85999998268016;687;100 mA
28.4006129282953;0.200531005859375;0.00017364501953125;6.86999998265492;688;100 mA
28.4106129282701;0.200531005859375;0.000170288085937501;6.87999998262967;689;100 mA
28.4206129282449;0.200439453125;0.000168762207031251;6.88999998260442;690;100 mA
28.4306129282196;0.200531005859375;0.00017242431640625;6.89999998257917;691;100 mA
28.4406129281944;0.200469970703125;0.000165405273437499;6.90999998255393;692;100 mA
28.4506129281691;0.200592041015625;0.000171508789062499;6.91999998252868;693;100 mA
28.4606129281439;0.2005615234375;0.00017120361328125;6.92999998250343;694;100 mA
28.4706129281186;0.200469970703125;0.000180664062499999;6.93999998247818;695;100 mA
28.4806129280934;0.20050048828125;0.00017852783203125;6.94999998245294;696;100 mA
28.4906129280681;0.200531005859375;0.000166015625;6.95999998242769;697;100 mA
28.5006129280429;0.20050048828125;0.0001678466796875;6.96999998240244;698;100 mA
28.5106129280176;0.200531005859375;0.000168762207031251;6.97999998237719;699;100 mA
28.5206129279924;0.200531005859375;0.00016357421875;6.98999998235195;700;100 mA
28.5306129279671;0.200439453125;0.0001727294921875;6.9999999823267;701;100 mA
28.5406129279419;0.200531005859375;0.000166931152343749;7.00999998230145;702;100 mA
28.5506129279166;0.20037841796875;0.00018157958984375;7.0199999822762;703;100 mA
28.5606129278914;0.20050048828125;0.000174560546874999;7.02999998225096;704;100 mA
28.5706129278661;0.2005615234375;0.000163879394531249;7.03999998222571;705;100 mA
28.5806129278409;0.20050048828125;0.00017578125;7.04999998220046;706;100 mA
28.5906129278156;0.2005615234375;0.00016632080078125;7.05999998217521;707;100 mA
28.6006129277904;0.20050048828125;0.000164794921875;7.06999998214997;708;100 mA
28.6106129277651;0.200469970703125;0.000169982910156249;7.07999998212472;709;100 mA
28.6206129277399;0.200592041015625;0.000164794921875;7.08999998209947;710;100 mA
28.6306129277147;0.200469970703125;0.0001873779296875;7.09999998207422;711;100 mA
28.6406129276894;0.200469970703125;0.00016754150390625;7.10999998204898;712;100 mA
28.6506129276642;0.200408935546875;0.00016754150390625;7.11999998202373;713;100 mA
28.6606129276389;0.2005615234375;0.00017242431640625;7.12999998199848;714;100 mA
28.6706129276137;0.20050048828125;0.00016510009765625;7.13999998197323;715;100 mA
28.6806129275884;0.2005615234375;0.0001678466796875;7.14999998194799;716;100 mA
28.6906129275632;0.20050048828125;0.000167236328125001;7.15999998192274;717;100 mA
28.7006129275379;0.200531005859375;0.0001678466796875;7.16999998189749;718;100 mA
28.7106129275127;0.200408935546875;0.000184326171875;7.17999998187224;719;100 mA
28.7206129274874;0.20050048828125;0.000163879394531249;7.189999981847;720;100 mA
28.7306129274622;0.200531005859375;0.00017425537109375;7.19999998182175;721;100 mA
28.7406129274369;0.200531005859375;0.000167236328125001;7.2099999817965;722;100 mA
28.7506129274117;0.20050048828125;0.00016326904296875;7.21999998177125;723;100 mA
28.7606129273864;0.200469970703125;0.00016632080078125;7.229999981746;724;100 mA
28.7706129273612;0.200531005859375;0.0001629638671875;7.23999998172076;725;100 mA
28.7806129273359;0.2005615234375;0.00017242431640625;7.24999998169551;726;100 mA
28.7906129273107;0.200439453125;0.00018310546875;7.25999998167026;727;100 mA
28.8006129272854;0.2005615234375;0.000165710449218751;7.26999998164501;728;100 mA
28.8106129272602;0.20037841796875;0.00016937255859375;7.27999998161977;729;100 mA
28.8206129272349;0.20050048828125;0.000166015625;7.28999998159452;730;100 mA
28.8306129272097;0.2005615234375;0.000172119140625;7.29999998156927;731;100 mA
28.8406129271845;0.20050048828125;0.000162658691406251;7.30999998154402;732;100 mA
28.8506129271592;0.2005615234375;0.00016510009765625;7.31999998151878;733;100 mA
28.860612927134;0.20050048828125;0.00016815185546875;7.32999998149353;734;100 mA
28.8706129271087;0.200408935546875;0.000184020996093751;7.33999998146828;735;100 mA
28.8806129270835;0.200531005859375;0.00017120361328125;7.34999998144303;736;100 mA
28.8906129270582;0.200592041015625;0.000162353515624999;7.35999998141779;737;100 mA
28.900612927033;0.20050048828125;0.0001690673828125;7.36999998139254;738;100 mA
28.9106129270077;0.20050048828125;0.0001690673828125;7.37999998136729;739;100 mA
28.9206129269825;0.20050048828125;0.000162658691406251;7.38999998134204;740;100 mA
28.9306129269572;0.2005615234375;0.000168457031249999;7.3999999813168;741;100 mA
28.940612926932;0.200531005859375;0.00016021728515625;7.40999998129155;742;100 mA
28.9506129269067;0.200347900390625;0.000177001953125;7.4199999812663;743;100 mA
28.9606129268815;0.200469970703125;0.00017120361328125;7.42999998124105;744;100 mA
28.9706129268562;0.200469970703125;0.000164794921875;7.43999998121581;745;100 mA
28.980612926831;0.200469970703125;0.000174560546874999;7.44999998119056;746;100 mA
28.9906129268057;0.2005615234375;0.00016204833984375;7.45999998116531;747;100 mA
29.0006129267805;0.20050048828125;0.00016357421875;7.46999998114006;748;100 mA
29.0106129267552;0.200531005859375;0.00016937255859375;7.47999998111482;749;100 mA
29.02061292673;0.20050048828125;0.000164184570312501;7.48999998108957;750;100 mA
29.0306129267047;0.200439453125;0.00018463134765625;7.49999998106432;751;100 mA
29.0406129266795;0.200469970703125;0.00016204833984375;7.50999998103907;752;100 mA
29.0506129266543;0.200531005859375;0.000160827636718749;7.51999998101383;753;100 mA
29.060612926629;0.200469970703125;0.00017059326171875;7.52999998098858;754;100 mA
29.0706129266038;0.200531005859375;0.00016204833984375;7.53999998096333;755;100 mA
29.0806129265785;0.20050048828125;0.00017059326171875;7.54999998093808;756;100 mA
29.0906129265533;0.200439453125;0.0001708984375;7.55999998091283;757;100 mA
29.100612926528;0.200531005859375;0.000164184570312501;7.56999998088759;758;100 mA
29.1106129265028;0.200408935546875;0.000185241699218749;7.57999998086234;759;100 mA
29.1206129264775;0.200531005859375;0.000165405273437499;7.58999998083709;760;100 mA
29.1306129264523;0.2005615234375;0.00016937255859375;7.59999998081184;761;100 mA
29.140612926427;0.200469970703125;0.000162353515624999;7.6099999807866;762;100 mA
29.1506129264018;0.20050048828125;0.000162353515624999;7.61999998076135;763;100 mA
29.1606129263765;0.200439453125;0.000170288085937501;7.6299999807361;764;100 mA
29.1706129263513;0.2005615234375;0.000162658691406251;7.63999998071085;765;100 mA
29.180612926326;0.200469970703125;0.000171508789062499;7.64999998068561;766;100 mA
29.1906129263008;0.20037841796875;0.000184326171875;7.65999998066036;767;100 mA
29.2006129262755;0.20050048828125;0.00016815185546875;7.66999998063511;768;100 mA
29.2106129262503;0.200469970703125;0.000167236328125001;7.67999998060986;769;100 mA
29.220612926225;0.2005615234375;0.000164184570312501;7.68999998058462;770;100 mA
29.2306129261998;0.200469970703125;0.000164794921875;7.69999998055937;771;100 mA
29.2406129261745;0.20050048828125;0.00016510009765625;7.70999998053412;772;100 mA
29.2506129261493;0.200439453125;0.000168762207031251;7.71999998050887;773;100 mA
29.2606129261241;0.200531005859375;0.000166931152343749;7.72999998048363;774;100 mA
29.2706129260988;0.200439453125;0.000177917480468751;7.73999998045838;775;100 mA
29.2806129260736;0.200469970703125;0.00017547607421875;7.74999998043313;776;100 mA
29.2906129260483;0.200469970703125;0.00016326904296875;7.75999998040788;777;100 mA
29.3006129260231;0.200469970703125;0.000162353515624999;7.76999998038264;778;100 mA
29.3106129259978;0.20050048828125;0.000166931152343749;7.77999998035739;779;100 mA
29.3206129259726;0.200469970703125;0.00016143798828125;7.78999998033214;780;100 mA
29.3306129259473;0.200531005859375;0.000176086425781249;7.79999998030689;781;100 mA
29.3406129259221;0.2005615234375;0.00016357421875;7.80999998028165;782;100 mA
29.3506129258968;0.200439453125;0.000177917480468751;7.8199999802564;783;100 mA
29.3606129258716;0.200469970703125;0.000174560546874999;7.82999998023115;784;100 mA
29.3706129258463;0.200439453125;0.00015869140625;7.8399999802059;785;100 mA
29.3806129258211;0.20050048828125;0.000171813964843751;7.84999998018066;786;100 mA
29.3906129257958;0.20050048828125;0.00016326904296875;7.85999998015541;787;100 mA
29.4006129257706;0.20050048828125;0.00016357421875;7.86999998013016;788;100 mA
29.4106129257453;0.200439453125;0.000166015625;7.87999998010491;789;100 mA
29.4206129257201;0.200469970703125;0.00016448974609375;7.88999998007966;790;100 mA
29.4306129256948;0.200408935546875;0.000186767578124999;7.89999998005442;791;100 mA
29.4406129256696;0.20050048828125;0.00016937255859375;7.90999998002917;792;100 mA
29.4506129256444;0.200531005859375;0.000166931152343749;7.91999998000392;793;100 mA
29.4606129256191;0.20050048828125;0.00016754150390625;7.92999997997867;794;100 mA
29.4706129255939;0.200469970703125;0.00016204833984375;7.93999997995343;795;100 mA
29.4806129255686;0.200531005859375;0.0001708984375;7.94999997992818;796;100 mA
29.4906129255434;0.200469970703125;0.00017547607421875;7.95999997990293;797;100 mA
29.5006129255181;0.2005615234375;0.000165405273437499;7.96999997987768;798;100 mA
29.5106129254929;0.20037841796875;0.00018768310546875;7.97999997985244;799;100 mA
29.5206129254676;0.2005615234375;0.00016815185546875;7.98999997982719;800;100 mA
29.5306129254424;0.200469970703125;0.00016815185546875;7.99999997980194;801;100 mA
29.5406129254171;0.20050048828125;0.0001666259765625;8.00999997977669;802;100 mA
29.5506129253919;0.200531005859375;0.000162353515624999;8.01999997975145;803;100 mA
29.5606129253666;0.200531005859375;0.000167236328125001;8.0299999797262;804;100 mA
29.5706129253414;0.200531005859375;0.000165710449218751;8.03999997970095;805;100 mA
29.5806129253161;0.200469970703125;0.00017059326171875;8.0499999796757;806;100 mA
29.5906129252909;0.200408935546875;0.000184020996093751;8.05999997965046;807;100 mA
29.6006129252656;0.2005615234375;0.0001678466796875;8.06999997962521;808;100 mA
29.6106129252404;0.200531005859375;0.000169982910156249;8.07999997959996;809;100 mA
29.6206129252151;0.200469970703125;0.000164794921875;8.08999997957471;810;100 mA
29.6306129251899;0.200469970703125;0.000168457031249999;8.09999997954947;811;100 mA
29.6406129251646;0.20050048828125;0.00016357421875;8.10999997952422;812;100 mA
29.6506129251394;0.20050048828125;0.0001678466796875;8.11999997949897;813;100 mA
29.6606129251142;0.2005615234375;0.0001708984375;8.12999997947372;814;100 mA
29.6706129250889;0.20037841796875;0.000182189941406249;8.13999997944848;815;100 mA
29.6806129250637;0.20050048828125;0.00017852783203125;8.14999997942323;816;100 mA
29.6906129250384;0.200439453125;0.000168457031249999;8.15999997939798;817;100 mA
29.7006129250132;0.2005615234375;0.00016754150390625;8.16999997937273;818;100 mA
29.7106129249879;0.2005615234375;0.000168762207031251;8.17999997934749;819;100 mA
29.7206129249627;0.200531005859375;0.000163879394531249;8.18999997932224;820;100 mA
29.7306129249374;0.200531005859375;0.00017578125;8.19999997929699;821;100 mA
29.7406129249122;0.200469970703125;0.00016510009765625;8.20999997927174;822;100 mA
29.7506129248869;0.200439453125;0.00018768310546875;8.2199999792465;823;100 mA
29.7606129248617;0.200469970703125;0.000176086425781249;8.22999997922125;824;100 mA
29.7706129248364;0.2005615234375;0.000164794921875;8.239999979196;825;100 mA
29.7806129248112;0.20050048828125;0.000169982910156249;8.24999997917075;826;100 mA
29.7906129247859;0.200439453125;0.000166015625;8.2599999791455;827;100 mA
29.8006129247607;0.200469970703125;0.00017120361328125;8.26999997912026;828;100 mA
29.8106129247354;0.200469970703125;0.000174865722656251;8.27999997909501;829;100 mA
29.8206129247102;0.20062255859375;0.00016326904296875;8.28999997906976;830;100 mA
29.8306129246849;0.200408935546875;0.0001873779296875;8.29999997904451;831;100 mA
29.8406129246597;0.20050048828125;0.00016510009765625;8.30999997901927;832;100 mA
29.8506129246344;0.20050048828125;0.000164184570312501;8.31999997899402;833;100 mA
29.8606129246092;0.200469970703125;0.000169982910156249;8.32999997896877;834;100 mA
29.870612924584;0.20050048828125;0.00016357421875;8.33999997894352;835;100 mA
29.8806129245587;0.20050048828125;0.0001751708984375;8.34999997891828;836;100 mA
29.8906129245335;0.2005615234375;0.000170288085937501;8.35999997889303;837;100 mA
29.9006129245082;0.20050048828125;0.0001690673828125;8.36999997886778;838;100 mA
29.910612924483;0.200408935546875;0.00018157958984375;8.37999997884253;839;100 mA
29.9206129244577;0.200439453125;0.000169677734375;8.38999997881729;840;100 mA
29.9306129244325;0.200531005859375;0.0001690673828125;8.39999997879204;841;100 mA
29.9406129244072;0.200469970703125;0.00016326904296875;8.40999997876679;842;100 mA
29.950612924382;0.200225830078125;0.00015869140625;8.41999997874154;843;100 mA
29.9606129243567;0.2005615234375;0.000164794921875;8.4299999787163;844;100 mA
29.9706129243315;0.200408935546875;0.00016448974609375;8.43999997869105;845;100 mA
29.9806129243062;0.200592041015625;0.000172119140625;8.4499999786658;846;100 mA
29.990612924281;0.20037841796875;0.00018463134765625;8.45999997864055;847;100 mA
30.0006129242557;0.20050048828125;0.000172119140625;8.46999997861531;848;100 mA
30.0106129242305;0.20050048828125;0.0001708984375;8.47999997859006;849;100 mA
30.0206129242052;0.2005615234375;0.0001617431640625;8.48999997856481;850;100 mA
30.03061292418;0.2001953125;0.000162353515624999;8.49999997853956;851;100 mA
30.0406129241547;0.200408935546875;0.000162353515624999;8.50999997851432;852;100 mA
30.0506129241295;0.2005615234375;0.000169677734375;8.51999997848907;853;100 mA
30.0606129241042;0.20050048828125;0.000171508789062499;8.52999997846382;854;100 mA
30.070612924079;0.200408935546875;0.000183715820312499;8.53999997843857;855;100 mA
30.0806129240538;0.200531005859375;0.00017547607421875;8.54999997841333;856;100 mA
30.0906129240285;0.200439453125;0.00017059326171875;8.55999997838808;857;100 mA
30.1006129240033;0.2005615234375;0.000164184570312501;8.56999997836283;858;100 mA
30.110612923978;0.200225830078125;0.000164794921875;8.57999997833758;859;100 mA
30.1206129239528;0.200469970703125;0.000166931152343749;8.58999997831233;860;100 mA
30.1306129239275;0.200408935546875;0.00017242431640625;8.59999997828709;861;100 mA
30.1406129239023;0.20050048828125;0.000168457031249999;8.60999997826184;862;100 mA
30.150612923877;0.200408935546875;0.000182495117187501;8.61999997823659;863;100 mA
30.1606129238518;0.20050048828125;0.0001751708984375;8.62999997821134;864;100 mA
30.1706129238265;0.2005615234375;0.00016815185546875;8.6399999781861;865;100 mA
30.1806129238013;0.20050048828125;0.00017059326171875;8.64999997816085;866;100 mA
30.190612923776;0.20037841796875;0.00016021728515625;8.6599999781356;867;100 mA
30.2006129237508;0.20050048828125;0.000166015625;8.66999997811035;868;100 mA
30.2106129237255;0.200592041015625;0.000173034667968749;8.67999997808511;869;100 mA
30.2206129237003;0.200592041015625;0.00016510009765625;8.68999997805986;870;100 mA
30.230612923675;0.200408935546875;0.000189208984375;8.69999997803461;871;100 mA
30.2406129236498;0.200469970703125;0.000169677734375;8.70999997800936;872;100 mA
30.2506129236245;0.200439453125;0.000165710449218751;8.71999997798412;873;100 mA
30.2606129235993;0.2005615234375;0.0001708984375;8.72999997795887;874;100 mA
30.270612923574;0.200225830078125;0.00015838623046875;8.73999997793362;875;100 mA
30.2806129235488;0.20050048828125;0.0001751708984375;8.74999997790837;876;100 mA
30.2906129235236;0.200439453125;0.0001727294921875;8.75999997788313;877;100 mA
30.3006129234983;0.200469970703125;0.00017242431640625;8.76999997785788;878;100 mA
30.3106129234731;0.200439453125;0.000184326171875;8.77999997783263;879;100 mA
30.3206129234478;0.200531005859375;0.000169982910156249;8.78999997780738;880;100 mA
30.3306129234226;0.200592041015625;0.00017425537109375;8.79999997778214;881;100 mA
30.3406129233973;0.200469970703125;0.000168762207031251;8.80999997775689;882;100 mA
30.3506129233721;0.20037841796875;0.000162658691406251;8.81999997773164;883;100 mA
30.3606129233468;0.200469970703125;0.000174865722656251;8.82999997770639;884;100 mA
30.3706129233216;0.20050048828125;0.000169677734375;8.83999997768115;885;100 mA
30.3806129232963;0.2005615234375;0.000177001953125;8.8499999776559;886;100 mA
30.3906129232711;0.200347900390625;0.000186767578124999;8.85999997763065;887;100 mA
30.4006129232458;0.200531005859375;0.00017578125;8.8699999776054;888;100 mA
30.4106129232206;0.200469970703125;0.000171508789062499;8.87999997758016;889;100 mA
30.4206129231953;0.200592041015625;0.00016632080078125;8.88999997755491;890;100 mA
30.4306129231701;0.200286865234375;0.00016357421875;8.89999997752966;891;100 mA
30.4406129231448;0.200531005859375;0.00016754150390625;8.90999997750441;892;100 mA
30.4506129231196;0.200531005859375;0.000168762207031251;8.91999997747916;893;100 mA
30.4606129230943;0.20050048828125;0.00017578125;8.92999997745392;894;100 mA
30.4706129230691;0.200408935546875;0.000180664062499999;8.93999997742867;895;100 mA
30.4806129230439;0.20050048828125;0.000180664062499999;8.94999997740342;896;100 mA
30.4906129230186;0.200531005859375;0.000172119140625;8.95999997737817;897;100 mA
30.5006129229934;0.200469970703125;0.00017059326171875;8.96999997735293;898;100 mA
30.5106129229681;0.20050048828125;0.00016357421875;8.97999997732768;899;100 mA
30.5206129229429;0.200469970703125;0.000169677734375;8.98999997730243;900;100 mA
30.5306129229176;0.200531005859375;0.000176391601562501;8.99999997727718;901;100 mA
30.5406129228924;0.2005615234375;0.000173034667968749;9.00999997725194;902;100 mA
30.5506129228671;0.200439453125;0.0001788330078125;9.01999997722669;903;100 mA
30.5606129228419;0.20050048828125;0.000182189941406249;9.02999997720144;904;100 mA
30.5706129228166;0.200439453125;0.00017364501953125;9.03999997717619;905;100 mA
30.5806129227914;0.200531005859375;0.00017730712890625;9.04999997715095;906;100 mA
30.5906129227661;0.200469970703125;0.0001617431640625;9.0599999771257;907;100 mA
30.6006129227409;0.20050048828125;0.00017364501953125;9.06999997710045;908;100 mA
30.6106129227156;0.200531005859375;0.00017730712890625;9.0799999770752;909;100 mA
30.6206129226904;0.20050048828125;0.000171813964843751;9.08999997704996;910;100 mA
30.6306129226651;0.200439453125;0.000189819335937499;9.09999997702471;911;100 mA
30.6406129226399;0.20050048828125;0.000176086425781249;9.10999997699946;912;100 mA
30.6506129226146;0.2005615234375;0.000173339843750001;9.11999997697421;913;100 mA
30.6606129225894;0.2005615234375;0.000176391601562501;9.12999997694897;914;100 mA
30.6706129225641;0.200469970703125;0.000163879394531249;9.13999997692372;915;100 mA
30.6806129225389;0.20050048828125;0.000177917480468751;9.14999997689847;916;100 mA
30.6906129225137;0.200531005859375;0.00017425537109375;9.15999997687322;917;100 mA
30.7006129224884;0.200592041015625;0.00017425537109375;9.16999997684798;918;100 mA
30.7106129224632;0.20037841796875;0.000183715820312499;9.17999997682273;919;100 mA
30.7206129224379;0.200531005859375;0.00017547607421875;9.18999997679748;920;100 mA
30.7306129224127;0.200531005859375;0.000179138183593749;9.19999997677223;921;100 mA
30.7406129223874;0.20050048828125;0.000166931152343749;9.20999997674699;922;100 mA
30.7506129223622;0.20050048828125;0.00015869140625;9.21999997672174;923;100 mA
30.7606129223369;0.20050048828125;0.0001739501953125;9.22999997669649;924;100 mA
30.7706129223117;0.20062255859375;0.000165405273437499;9.23999997667124;925;100 mA
30.7806129222864;0.200469970703125;0.00017822265625;9.249999976646;926;100 mA
30.7906129222612;0.200347900390625;0.00018157958984375;9.25999997662075;927;100 mA
30.8006129222359;0.200439453125;0.00017852783203125;9.2699999765955;928;100 mA
30.8106129222107;0.2005615234375;0.0001751708984375;9.27999997657025;929;100 mA
30.8206129221854;0.2005615234375;0.000166015625;9.289999976545;930;100 mA
30.8306129221602;0.200653076171875;0.0001617431640625;9.29999997651976;931;100 mA
30.8406129221349;0.200469970703125;0.0001678466796875;9.30999997649451;932;100 mA
30.8506129221097;0.20050048828125;0.00017120361328125;9.31999997646926;933;100 mA
30.8606129220844;0.2005615234375;0.00017852783203125;9.32999997644401;934;100 mA
30.8706129220592;0.200408935546875;0.000182495117187501;9.33999997641877;935;100 mA
30.8806129220339;0.200531005859375;0.00018035888671875;9.34999997639352;936;100 mA
30.8906129220087;0.200531005859375;0.000173339843750001;9.35999997636827;937;100 mA
30.9006129219835;0.200531005859375;0.0001666259765625;9.36999997634302;938;100 mA
30.9106129219582;0.200531005859375;0.000162658691406251;9.37999997631778;939;100 mA
30.920612921933;0.200469970703125;0.000168762207031251;9.38999997629253;940;100 mA
30.9306129219077;0.200592041015625;0.0001739501953125;9.39999997626728;941;100 mA
30.9406129218825;0.200439453125;0.000171813964843751;9.40999997624203;942;100 mA
30.9506129218572;0.200439453125;0.000174560546874999;9.41999997621679;943;100 mA
30.960612921832;0.200531005859375;0.0001751708984375;9.42999997619154;944;100 mA
30.9706129218067;0.200469970703125;0.000174865722656251;9.43999997616629;945;100 mA
30.9806129217815;0.200592041015625;0.000171813964843751;9.44999997614104;946;100 mA
30.9906129217562;0.20062255859375;0.00015716552734375;9.4599999761158;947;100 mA
31.000612921731;0.200592041015625;0.00016326904296875;9.46999997609055;948;100 mA
31.0106129217057;0.200408935546875;0.00017547607421875;9.4799999760653;949;100 mA
31.0206129216805;0.20050048828125;0.000166931152343749;9.48999997604005;950;100 mA
31.0306129216552;0.200408935546875;0.0001849365234375;9.49999997601481;951;100 mA
31.04061292163;0.200531005859375;0.000171813964843751;9.50999997598956;952;100 mA
31.0506129216047;0.20050048828125;0.000166931152343749;9.51999997596431;953;100 mA
31.0606129215795;0.200592041015625;0.0001666259765625;9.52999997593906;954;100 mA
31.0706129215542;0.200469970703125;0.0001544189453125;9.53999997591382;955;100 mA
31.080612921529;0.200531005859375;0.0001690673828125;9.54999997588857;956;100 mA
31.0906129215037;0.20050048828125;0.000173339843750001;9.55999997586332;957;100 mA
31.1006129214785;0.200469970703125;0.000173339843750001;9.56999997583807;958;100 mA
31.1106129214533;0.200469970703125;0.000177612304687499;9.57999997581283;959;100 mA
31.120612921428;0.20050048828125;0.00017059326171875;9.58999997578758;960;100 mA
31.1306129214028;0.20050048828125;0.000176086425781249;9.59999997576233;961;100 mA
31.1406129213775;0.2005615234375;0.00016632080078125;9.60999997573708;962;100 mA
31.1506129213523;0.2005615234375;0.000153503417968751;9.61999997571183;963;100 mA
31.160612921327;0.2005615234375;0.000165405273437499;9.62999997568659;964;100 mA
31.1706129213018;0.200408935546875;0.0001690673828125;9.63999997566134;965;100 mA
31.1806129212765;0.2005615234375;0.000172119140625;9.64999997563609;966;100 mA
31.1906129212513;0.200439453125;0.000176391601562501;9.65999997561084;967;100 mA
31.200612921226;0.2005615234375;0.000167236328125001;9.6699999755856;968;100 mA
31.2106129212008;0.200531005859375;0.000173034667968749;9.67999997556035;969;100 mA
31.2206129211755;0.20050048828125;0.0001605224609375;9.6899999755351;970;100 mA
31.2306129211503;0.200592041015625;0.00015838623046875;9.69999997550985;971;100 mA
31.240612921125;0.200469970703125;0.000167236328125001;9.70999997548461;972;100 mA
31.2506129210998;0.20050048828125;0.000166931152343749;9.71999997545936;973;100 mA
31.2606129210745;0.200531005859375;0.00017059326171875;9.72999997543411;974;100 mA
31.2706129210493;0.200439453125;0.000169677734375;9.73999997540886;975;100 mA
31.280612921024;0.200469970703125;0.000176391601562501;9.74999997538362;976;100 mA
31.2906129209988;0.200439453125;0.000171813964843751;9.75999997535837;977;100 mA
31.3006129209735;0.2005615234375;0.0001678466796875;9.76999997533312;978;100 mA
31.3106129209483;0.20062255859375;0.000156555175781251;9.77999997530787;979;100 mA
31.3206129209231;0.200531005859375;0.000165710449218751;9.78999997528263;980;100 mA
31.3306129208978;0.20050048828125;0.00017059326171875;9.79999997525738;981;100 mA
31.3406129208726;0.200439453125;0.000173034667968749;9.80999997523213;982;100 mA
31.3506129208473;0.200469970703125;0.00017425537109375;9.81999997520688;983;100 mA
31.3606129208221;0.2005615234375;0.0001727294921875;9.82999997518164;984;100 mA
31.3706129207968;0.200531005859375;0.000166931152343749;9.83999997515639;985;100 mA
31.3806129207716;0.20050048828125;0.0001690673828125;9.84999997513114;986;100 mA
31.3906129207463;0.20062255859375;0.0001556396484375;9.85999997510589;987;100 mA
31.4006129207211;0.20050048828125;0.000164794921875;9.86999997508065;988;100 mA
31.4106129206958;0.20050048828125;0.000172119140625;9.8799999750554;989;100 mA
31.4206129206706;0.2005615234375;0.0001690673828125;9.88999997503015;990;100 mA
31.4306129206453;0.200439453125;0.0001800537109375;9.8999999750049;991;100 mA
31.4406129206201;0.20050048828125;0.00017578125;9.90999997497966;992;100 mA
31.4506129205948;0.200469970703125;0.000171508789062499;9.91999997495441;993;100 mA
31.4606129205696;0.2005615234375;0.00016815185546875;9.92999997492916;994;100 mA
31.4706129205443;0.2005615234375;0.000152587890625;9.93999997490391;995;100 mA
31.4806129205191;0.200592041015625;0.000169982910156249;9.94999997487866;996;100 mA
31.4906129204938;0.200469970703125;0.0001666259765625;9.95999997485342;997;100 mA
31.5006129204686;0.20037841796875;0.0001739501953125;9.96999997482817;998;100 mA
31.5106129204434;0.200408935546875;0.00017578125;9.97999997480292;999;100 mA
31.5206129204181;0.200469970703125;0.0001708984375;9.98999997477767;1000;100 mA
