Time (s);WE(1).Potential (V);WE(1).Current (A);Corrected time (s);Index;Current range
32.0408709191046;-0.79986572265625;-0.314697265625;0;1;100 mA
32.0508709190793;-0.79925537109375;-0.23419189453125;0.00999999997475243;2;100 mA
32.0608709190541;-0.7989501953125;-0.194580078125;0.0199999999495049;3;100 mA
32.0708709190288;-0.79925537109375;-0.169952392578125;0.0299999999242573;4;100 mA
32.0808709190036;-0.80047607421875;-0.15283203125;0.0399999998990097;5;100 mA
32.0908709189783;-0.799560546875;-0.139801025390625;0.0499999998737621;6;100 mA
32.1008709189531;-0.799560546875;-0.129791259765625;0.0599999998485146;7;100 mA
32.1108709189278;-0.79986572265625;-0.121612548828125;0.069999999823267;8;100 mA
32.1208709189026;-0.79925537109375;-0.114715576171875;0.0799999997980194;9;100 mA
32.1308709188773;-0.799560546875;-0.1090087890625;0.0899999997727718;10;100 mA
32.1408709188521;-0.79925537109375;-0.10400390625;0.0999999997475243;11;100 mA
32.1508709188269;-0.79925537109375;-0.09967041015625;0.109999999722277;12;100 mA
32.1608709188016;-0.7989501953125;-0.095794677734375;0.119999999697029;13;100 mA
32.1708709187764;-0.7989501953125;-0.09234619140625;0.129999999671782;14;100 mA
32.1808709187511;-0.79925537109375;-0.08929443359375;0.139999999646534;15;100 mA
32.1908709187259;-0.799560546875;-0.08648681640625;0.149999999621286;16;100 mA
32.2008709187006;-0.79925537109375;-0.083984375;0.159999999596039;17;100 mA
32.2108709186754;-0.7989501953125;-0.081695556640625;0.169999999570791;18;100 mA
32.2208709186501;-0.7989501953125;-0.07958984375;0.179999999545544;19;100 mA
32.2308709186249;-0.79864501953125;-0.077606201171875;0.189999999520296;20;100 mA
32.2408709185996;-0.799560546875;-0.075775146484375;0.199999999495049;21;100 mA
32.2508709185744;-0.79925537109375;-0.07403564453125;0.209999999469801;22;100 mA
32.2608709185491;-0.799560546875;-0.072479248046875;0.219999999444553;23;100 mA
32.2708709185239;-0.79925537109375;-0.070953369140625;0.229999999419306;24;100 mA
32.2808709184986;-0.7989501953125;-0.069549560546875;0.239999999394058;25;100 mA
32.2908709184734;-0.799560546875;-0.06829833984375;0.249999999368811;26;100 mA
32.3008709184481;-0.79925537109375;-0.067108154296875;0.259999999343563;27;100 mA
32.3108709184229;-0.79986572265625;-0.065948486328125;0.269999999318316;28;100 mA
32.3208709183976;-0.7989501953125;-0.064849853515625;0.279999999293068;29;100 mA
32.3308709183724;-0.79864501953125;-0.06378173828125;0.28999999926782;30;100 mA
32.3408709183472;-0.79925537109375;-0.062835693359375;0.299999999242573;31;100 mA
32.3508709183219;-0.7989501953125;-0.0618896484375;0.309999999217325;32;100 mA
32.3608709182967;-0.79925537109375;-0.06097412109375;0.319999999192078;33;100 mA
32.3708709182714;-0.7989501953125;-0.0601806640625;0.32999999916683;34;100 mA
32.3808709182462;-0.79925537109375;-0.05938720703125;0.339999999141583;35;100 mA
32.3908709182209;-0.7989501953125;-0.058624267578125;0.349999999116335;36;100 mA
32.4008709181957;-0.799560546875;-0.057861328125;0.359999999091087;37;100 mA
32.4108709181704;-0.7989501953125;-0.05712890625;0.36999999906584;38;100 mA
32.4208709181452;-0.799560546875;-0.056488037109375;0.379999999040592;39;100 mA
32.4308709181199;-0.799560546875;-0.055877685546875;0.389999999015345;40;100 mA
32.4408709180947;-0.7989501953125;-0.05517578125;0.399999998990097;41;100 mA
32.4508709180694;-0.7989501953125;-0.054595947265625;0.40999999896485;42;100 mA
32.4608709180442;-0.79925537109375;-0.05401611328125;0.419999998939602;43;100 mA
32.4708709180189;-0.79986572265625;-0.053466796875;0.429999998914354;44;100 mA
32.4808709179937;-0.7989501953125;-0.052978515625;0.439999998889107;45;100 mA
32.4908709179684;-0.799560546875;-0.05242919921875;0.449999998863859;46;100 mA
32.5008709179432;-0.7989501953125;-0.05194091796875;0.459999998838612;47;100 mA
32.5108709179179;-0.79925537109375;-0.05145263671875;0.469999998813364;48;100 mA
32.5208709178927;-0.799560546875;-0.05096435546875;0.479999998788116;49;100 mA
32.5308709178674;-0.79986572265625;-0.050537109375;0.489999998762869;50;100 mA
32.5408709178422;-0.799560546875;-0.05010986328125;0.499999998737621;51;100 mA
32.550870917817;-0.799560546875;-0.049652099609375;0.509999998712374;52;100 mA
32.5608709177917;-0.79925537109375;-0.0492584228515625;0.519999998687126;53;100 mA
32.5708709177665;-0.79986572265625;-0.048828125;0.529999998661879;54;100 mA
32.5808709177412;-0.79925537109375;-0.0484893798828125;0.539999998636631;55;100 mA
32.590870917716;-0.79864501953125;-0.0480804443359375;0.549999998611383;56;100 mA
32.6008709176907;-0.7989501953125;-0.04771728515625;0.559999998586136;57;100 mA
32.6108709176655;-0.799560546875;-0.0473846435546875;0.569999998560888;58;100 mA
32.6208709176402;-0.799560546875;-0.0470489501953125;0.579999998535641;59;100 mA
32.630870917615;-0.7989501953125;-0.0467193603515625;0.589999998510393;60;100 mA
32.6408709175897;-0.79925537109375;-0.0464141845703125;0.599999998485146;61;100 mA
32.6508709175645;-0.79925537109375;-0.04609375;0.609999998459898;62;100 mA
32.6608709175392;-0.79925537109375;-0.045831298828125;0.61999999843465;63;100 mA
32.670870917514;-0.79864501953125;-0.04549560546875;0.629999998409403;64;100 mA
32.6808709174887;-0.79925537109375;-0.0452178955078125;0.639999998384155;65;100 mA
32.6908709174635;-0.79925537109375;-0.044976806640625;0.649999998358908;66;100 mA
32.7008709174382;-0.79925537109375;-0.0447235107421875;0.65999999833366;67;100 mA
32.710870917413;-0.79925537109375;-0.0444854736328125;0.669999998308413;68;100 mA
32.7208709173877;-0.79925537109375;-0.04422607421875;0.679999998283165;69;100 mA
32.7308709173625;-0.79925537109375;-0.0439849853515625;0.689999998257917;70;100 mA
32.7408709173372;-0.7989501953125;-0.0437835693359375;0.69999999823267;71;100 mA
32.750870917312;-0.79925537109375;-0.0435302734375;0.709999998207422;72;100 mA
32.7608709172868;-0.7989501953125;-0.0433013916015625;0.719999998182175;73;100 mA
32.7708709172615;-0.7989501953125;-0.0430908203125;0.729999998156927;74;100 mA
32.7808709172363;-0.7989501953125;-0.0428802490234375;0.73999999813168;75;100 mA
32.790870917211;-0.79925537109375;-0.0426849365234375;0.749999998106432;76;100 mA
32.8008709171858;-0.7989501953125;-0.0424652099609375;0.759999998081184;77;100 mA
32.8108709171605;-0.79925537109375;-0.0422607421875;0.769999998055937;78;100 mA
32.8208709171353;-0.799560546875;-0.0420654296875;0.779999998030689;79;100 mA
32.83087091711;-0.79864501953125;-0.041827392578125;0.789999998005442;80;100 mA
32.8408709170848;-0.79925537109375;-0.0416046142578125;0.799999997980194;81;100 mA
32.8508709170595;-0.79925537109375;-0.04141845703125;0.809999997954947;82;100 mA
32.8608709170343;-0.79925537109375;-0.0412109375;0.819999997929699;83;100 mA
32.870870917009;-0.799560546875;-0.0410125732421875;0.829999997904451;84;100 mA
32.8808709169838;-0.79925537109375;-0.0408905029296875;0.839999997879204;85;100 mA
32.8908709169585;-0.7989501953125;-0.040716552734375;0.849999997853956;86;100 mA
32.9008709169333;-0.79925537109375;-0.040582275390625;0.859999997828709;87;100 mA
32.910870916908;-0.799560546875;-0.0403900146484375;0.869999997803461;88;100 mA
32.9208709168828;-0.7989501953125;-0.04024658203125;0.879999997778214;89;100 mA
32.9308709168575;-0.7989501953125;-0.040130615234375;0.889999997752966;90;100 mA
32.9408709168323;-0.79925537109375;-0.0399932861328125;0.899999997727718;91;100 mA
32.950870916807;-0.79925537109375;-0.0398223876953125;0.909999997702471;92;100 mA
32.9608709167818;-0.799560546875;-0.0397064208984375;0.919999997677223;93;100 mA
32.9708709167566;-0.7989501953125;-0.0395263671875;0.929999997651976;94;100 mA
32.9808709167313;-0.799560546875;-0.0394256591796875;0.939999997626728;95;100 mA
32.9908709167061;-0.79925537109375;-0.0392364501953125;0.949999997601481;96;100 mA
33.0008709166808;-0.7989501953125;-0.0390960693359375;0.959999997576233;97;100 mA
33.0108709166556;-0.7989501953125;-0.0389678955078125;0.969999997550985;98;100 mA
33.0208709166303;-0.79925537109375;-0.0388275146484375;0.979999997525738;99;100 mA
33.0308709166051;-0.79925537109375;-0.0386993408203125;0.98999999750049;100;100 mA
33.0408709165798;-0.7989501953125;-0.0385955810546875;0.999999997475243;101;100 mA
33.0508709165546;-0.799560546875;-0.0384674072265625;1.00999999745;102;100 mA
33.0608709165293;-0.7989501953125;-0.0384033203125;1.01999999742475;103;100 mA
33.0708709165041;-0.79986572265625;-0.03826904296875;1.0299999973995;104;100 mA
33.0808709164788;-0.79925537109375;-0.038153076171875;1.03999999737425;105;100 mA
33.0908709164536;-0.7989501953125;-0.0380767822265625;1.049999997349;106;100 mA
33.1008709164283;-0.79925537109375;-0.0379638671875;1.05999999732376;107;100 mA
33.1108709164031;-0.79925537109375;-0.037884521484375;1.06999999729851;108;100 mA
33.1208709163778;-0.7989501953125;-0.0377960205078125;1.07999999727326;109;100 mA
33.1308709163526;-0.79925537109375;-0.0377197265625;1.08999999724801;110;100 mA
33.1408709163273;-0.7989501953125;-0.037640380859375;1.09999999722277;111;100 mA
33.1508709163021;-0.79925537109375;-0.0375457763671875;1.10999999719752;112;100 mA
33.1608709162768;-0.799560546875;-0.0374603271484375;1.11999999717227;113;100 mA
33.1708709162516;-0.7989501953125;-0.0373809814453125;1.12999999714702;114;100 mA
33.1808709162264;-0.79925537109375;-0.03729248046875;1.13999999712178;115;100 mA
33.1908709162011;-0.799560546875;-0.0372039794921875;1.14999999709653;116;100 mA
33.2008709161759;-0.799560546875;-0.037115478515625;1.15999999707128;117;100 mA
33.2108709161506;-0.79925537109375;-0.037017822265625;1.16999999704603;118;100 mA
33.2208709161254;-0.799560546875;-0.0369384765625;1.17999999702079;119;100 mA
33.2308709161001;-0.7989501953125;-0.036834716796875;1.18999999699554;120;100 mA
33.2408709160749;-0.7989501953125;-0.036724853515625;1.19999999697029;121;100 mA
33.2508709160496;-0.79925537109375;-0.036676025390625;1.20999999694504;122;100 mA
33.2608709160244;-0.7989501953125;-0.0365814208984375;1.2199999969198;123;100 mA
33.2708709159991;-0.799560546875;-0.036474609375;1.22999999689455;124;100 mA
33.2808709159739;-0.79925537109375;-0.03641357421875;1.2399999968693;125;100 mA
33.2908709159486;-0.79864501953125;-0.0363189697265625;1.24999999684405;126;100 mA
33.3008709159234;-0.79864501953125;-0.0362762451171875;1.25999999681881;127;100 mA
33.3108709158981;-0.7989501953125;-0.0361602783203125;1.26999999679356;128;100 mA
33.3208709158729;-0.79925537109375;-0.0360809326171875;1.27999999676831;129;100 mA
33.3308709158476;-0.7989501953125;-0.035986328125;1.28999999674306;130;100 mA
33.3408709158224;-0.79925537109375;-0.0359100341796875;1.29999999671782;131;100 mA
33.3508709157971;-0.79864501953125;-0.03580322265625;1.30999999669257;132;100 mA
33.3608709157719;-0.79925537109375;-0.0357421875;1.31999999666732;133;100 mA
33.3708709157467;-0.79925537109375;-0.0356353759765625;1.32999999664207;134;100 mA
33.3808709157214;-0.7989501953125;-0.0355926513671875;1.33999999661683;135;100 mA
33.3908709156962;-0.799560546875;-0.0354705810546875;1.34999999659158;136;100 mA
33.4008709156709;-0.79925537109375;-0.0353729248046875;1.35999999656633;137;100 mA
33.4108709156457;-0.7989501953125;-0.0353179931640625;1.36999999654108;138;100 mA
33.4208709156204;-0.79925537109375;-0.0352081298828125;1.37999999651583;139;100 mA
33.4308709155952;-0.799560546875;-0.0351226806640625;1.38999999649059;140;100 mA
33.4408709155699;-0.7989501953125;-0.03505859375;1.39999999646534;141;100 mA
33.4508709155447;-0.799560546875;-0.034979248046875;1.40999999644009;142;100 mA
33.4608709155194;-0.7989501953125;-0.03494873046875;1.41999999641484;143;100 mA
33.4708709154942;-0.7989501953125;-0.0348663330078125;1.4299999963896;144;100 mA
33.4808709154689;-0.7989501953125;-0.0347930908203125;1.43999999636435;145;100 mA
33.4908709154437;-0.799560546875;-0.0347625732421875;1.4499999963391;146;100 mA
33.5008709154184;-0.7989501953125;-0.03472900390625;1.45999999631385;147;100 mA
33.5108709153932;-0.79925537109375;-0.034674072265625;1.46999999628861;148;100 mA
33.5208709153679;-0.7989501953125;-0.0346343994140625;1.47999999626336;149;100 mA
33.5308709153427;-0.7989501953125;-0.0345855712890625;1.48999999623811;150;100 mA
33.5408709153174;-0.7989501953125;-0.0345733642578125;1.49999999621286;151;100 mA
33.5508709152922;-0.79925537109375;-0.034527587890625;1.50999999618762;152;100 mA
33.5608709152669;-0.79925537109375;-0.034466552734375;1.51999999616237;153;100 mA
33.5708709152417;-0.79864501953125;-0.0344329833984375;1.52999999613712;154;100 mA
33.5808709152165;-0.79925537109375;-0.0343780517578125;1.53999999611187;155;100 mA
33.5908709151912;-0.7989501953125;-0.0343292236328125;1.54999999608663;156;100 mA
33.600870915166;-0.79925537109375;-0.03427734375;1.55999999606138;157;100 mA
33.6108709151407;-0.7989501953125;-0.0342071533203125;1.56999999603613;158;100 mA
33.6208709151155;-0.799560546875;-0.034173583984375;1.57999999601088;159;100 mA
33.6308709150902;-0.7989501953125;-0.034075927734375;1.58999999598564;160;100 mA
33.640870915065;-0.7989501953125;-0.0340179443359375;1.59999999596039;161;100 mA
33.6508709150397;-0.799560546875;-0.0339752197265625;1.60999999593514;162;100 mA
33.6608709150145;-0.799560546875;-0.0339141845703125;1.61999999590989;163;100 mA
33.6708709149892;-0.79925537109375;-0.033843994140625;1.62999999588465;164;100 mA
33.680870914964;-0.7989501953125;-0.03382568359375;1.6399999958594;165;100 mA
33.6908709149387;-0.799560546875;-0.0337646484375;1.64999999583415;166;100 mA
33.7008709149135;-0.79925537109375;-0.0337615966796875;1.6599999958089;167;100 mA
33.7108709148882;-0.79925537109375;-0.033685302734375;1.66999999578366;168;100 mA
33.720870914863;-0.79925537109375;-0.033636474609375;1.67999999575841;169;100 mA
33.7308709148377;-0.799560546875;-0.0336181640625;1.68999999573316;170;100 mA
33.7408709148125;-0.79925537109375;-0.033544921875;1.69999999570791;171;100 mA
33.7508709147872;-0.7989501953125;-0.0334625244140625;1.70999999568267;172;100 mA
33.760870914762;-0.79925537109375;-0.0334228515625;1.71999999565742;173;100 mA
33.7708709147367;-0.799560546875;-0.0333465576171875;1.72999999563217;174;100 mA
33.7808709147115;-0.7989501953125;-0.0333251953125;1.73999999560692;175;100 mA
33.7908709146863;-0.79864501953125;-0.033221435546875;1.74999999558167;176;100 mA
33.800870914661;-0.79864501953125;-0.03316650390625;1.75999999555643;177;100 mA
33.8108709146358;-0.799560546875;-0.033111572265625;1.76999999553118;178;100 mA
33.8208709146105;-0.79925537109375;-0.033038330078125;1.77999999550593;179;100 mA
33.8308709145853;-0.799560546875;-0.0329986572265625;1.78999999548068;180;100 mA
33.84087091456;-0.799560546875;-0.0329559326171875;1.79999999545544;181;100 mA
33.8508709145348;-0.7989501953125;-0.0329254150390625;1.80999999543019;182;100 mA
33.8608709145095;-0.7989501953125;-0.03292236328125;1.81999999540494;183;100 mA
33.8708709144843;-0.799560546875;-0.032879638671875;1.82999999537969;184;100 mA
33.880870914459;-0.79864501953125;-0.032843017578125;1.83999999535445;185;100 mA
33.8908709144338;-0.7989501953125;-0.032855224609375;1.8499999953292;186;100 mA
33.9008709144085;-0.799560546875;-0.03282470703125;1.85999999530395;187;100 mA
33.9108709143833;-0.7989501953125;-0.0328155517578125;1.8699999952787;188;100 mA
33.920870914358;-0.79864501953125;-0.032818603515625;1.87999999525346;189;100 mA
33.9308709143328;-0.79925537109375;-0.0328033447265625;1.88999999522821;190;100 mA
33.9408709143075;-0.7989501953125;-0.0328033447265625;1.89999999520296;191;100 mA
33.9508709142823;-0.79925537109375;-0.032781982421875;1.90999999517771;192;100 mA
33.960870914257;-0.79925537109375;-0.0327392578125;1.91999999515247;193;100 mA
33.9708709142318;-0.7989501953125;-0.0327117919921875;1.92999999512722;194;100 mA
33.9808709142065;-0.79925537109375;-0.032666015625;1.93999999510197;195;100 mA
33.9908709141813;-0.799560546875;-0.032635498046875;1.94999999507672;196;100 mA
34.0008709141561;-0.7989501953125;-0.03260498046875;1.95999999505148;197;100 mA
34.0108709141308;-0.79925537109375;-0.03258056640625;1.96999999502623;198;100 mA
34.0208709141056;-0.7989501953125;-0.0325531005859375;1.97999999500098;199;100 mA
34.0308709140803;-0.79925537109375;-0.0324951171875;1.98999999497573;200;100 mA
34.0408709140551;-0.79925537109375;-0.0324554443359375;1.99999999495049;201;100 mA
34.0508709140298;-0.79986572265625;-0.032440185546875;2.00999999492524;202;100 mA
34.0608709140046;-0.799560546875;-0.032427978515625;2.01999999489999;203;100 mA
34.0708709139793;-0.79925537109375;-0.0323974609375;2.02999999487474;204;100 mA
34.0808709139541;-0.7989501953125;-0.03240966796875;2.0399999948495;205;100 mA
34.0908709139288;-0.79925537109375;-0.0323883056640625;2.04999999482425;206;100 mA
34.1008709139036;-0.79986572265625;-0.0324066162109375;2.059999994799;207;100 mA
34.1108709138783;-0.79864501953125;-0.032373046875;2.06999999477375;208;100 mA
34.1208709138531;-0.799560546875;-0.032373046875;2.0799999947485;209;100 mA
34.1308709138278;-0.7989501953125;-0.0323699951171875;2.08999999472326;210;100 mA
34.1408709138026;-0.79986572265625;-0.032354736328125;2.09999999469801;211;100 mA
34.1508709137773;-0.79864501953125;-0.0323455810546875;2.10999999467276;212;100 mA
34.1608709137521;-0.79925537109375;-0.032366943359375;2.11999999464751;213;100 mA
34.1708709137268;-0.799560546875;-0.032354736328125;2.12999999462227;214;100 mA
34.1808709137016;-0.79925537109375;-0.0324127197265625;2.13999999459702;215;100 mA
34.1908709136763;-0.79925537109375;-0.0323944091796875;2.14999999457177;216;100 mA
34.2008709136511;-0.79864501953125;-0.0323822021484375;2.15999999454652;217;100 mA
34.2108709136259;-0.79925537109375;-0.0324188232421875;2.16999999452128;218;100 mA
34.2208709136006;-0.79925537109375;-0.0324005126953125;2.17999999449603;219;100 mA
34.2308709135754;-0.799560546875;-0.032421875;2.18999999447078;220;100 mA
34.2408709135501;-0.799560546875;-0.032415771484375;2.19999999444553;221;100 mA
34.2508709135249;-0.79925537109375;-0.0324127197265625;2.20999999442029;222;100 mA
34.2608709134996;-0.79925537109375;-0.0324371337890625;2.21999999439504;223;100 mA
34.2708709134744;-0.7989501953125;-0.0323974609375;2.22999999436979;224;100 mA
34.2808709134491;-0.7989501953125;-0.032366943359375;2.23999999434454;225;100 mA
34.2908709134239;-0.7989501953125;-0.032379150390625;2.2499999943193;226;100 mA
34.3008709133986;-0.79925537109375;-0.0323394775390625;2.25999999429405;227;100 mA
34.3108709133734;-0.79925537109375;-0.032354736328125;2.2699999942688;228;100 mA
34.3208709133481;-0.79925537109375;-0.032366943359375;2.27999999424355;229;100 mA
34.3308709133229;-0.7989501953125;-0.032373046875;2.28999999421831;230;100 mA
34.3408709132976;-0.79925537109375;-0.032391357421875;2.29999999419306;231;100 mA
34.3508709132724;-0.799560546875;-0.032373046875;2.30999999416781;232;100 mA
34.3608709132471;-0.79925537109375;-0.032342529296875;2.31999999414256;233;100 mA
34.3708709132219;-0.79925537109375;-0.0323394775390625;2.32999999411732;234;100 mA
34.3808709131966;-0.79925537109375;-0.0322906494140625;2.33999999409207;235;100 mA
34.3908709131714;-0.79925537109375;-0.0322723388671875;2.34999999406682;236;100 mA
34.4008709131462;-0.79925537109375;-0.032257080078125;2.35999999404157;237;100 mA
34.4108709131209;-0.79925537109375;-0.032220458984375;2.36999999401633;238;100 mA
34.4208709130957;-0.7989501953125;-0.0322174072265625;2.37999999399108;239;100 mA
34.4308709130704;-0.79925537109375;-0.0321624755859375;2.38999999396583;240;100 mA
34.4408709130452;-0.7989501953125;-0.03212890625;2.39999999394058;241;100 mA
34.4508709130199;-0.79925537109375;-0.0321044921875;2.40999999391533;242;100 mA
34.4608709129947;-0.79925537109375;-0.032049560546875;2.41999999389009;243;100 mA
34.4708709129694;-0.7989501953125;-0.0320220947265625;2.42999999386484;244;100 mA
34.4808709129442;-0.799560546875;-0.032025146484375;2.43999999383959;245;100 mA
34.4908709129189;-0.79925537109375;-0.032000732421875;2.44999999381434;246;100 mA
34.5008709128937;-0.79925537109375;-0.03201904296875;2.4599999937891;247;100 mA
34.5108709128684;-0.79986572265625;-0.031982421875;2.46999999376385;248;100 mA
34.5208709128432;-0.7989501953125;-0.031951904296875;2.4799999937386;249;100 mA
34.5308709128179;-0.799560546875;-0.031951904296875;2.48999999371335;250;100 mA
34.5408709127927;-0.79925537109375;-0.0319122314453125;2.49999999368811;251;100 mA
34.5508709127674;-0.7989501953125;-0.0318878173828125;2.50999999366286;252;100 mA
34.5608709127422;-0.79925537109375;-0.0318817138671875;2.51999999363761;253;100 mA
34.5708709127169;-0.7989501953125;-0.031854248046875;2.52999999361236;254;100 mA
34.5808709126917;-0.799560546875;-0.0318756103515625;2.53999999358712;255;100 mA
34.5908709126664;-0.7989501953125;-0.03182373046875;2.54999999356187;256;100 mA
34.6008709126412;-0.799560546875;-0.031787109375;2.55999999353662;257;100 mA
34.610870912616;-0.7989501953125;-0.03177490234375;2.56999999351137;258;100 mA
34.6208709125907;-0.79925537109375;-0.0317138671875;2.57999999348613;259;100 mA
34.6308709125655;-0.7989501953125;-0.03170166015625;2.58999999346088;260;100 mA
34.6408709125402;-0.799560546875;-0.031658935546875;2.59999999343563;261;100 mA
34.650870912515;-0.79925537109375;-0.0316314697265625;2.60999999341038;262;100 mA
34.6608709124897;-0.79925537109375;-0.0316009521484375;2.61999999338514;263;100 mA
34.6708709124645;-0.7989501953125;-0.03155517578125;2.62999999335989;264;100 mA
34.6808709124392;-0.799560546875;-0.03150634765625;2.63999999333464;265;100 mA
34.690870912414;-0.79925537109375;-0.031500244140625;2.64999999330939;266;100 mA
34.7008709123887;-0.799560546875;-0.031488037109375;2.65999999328415;267;100 mA
34.7108709123635;-0.79925537109375;-0.0314727783203125;2.6699999932589;268;100 mA
34.7208709123382;-0.7989501953125;-0.0314422607421875;2.67999999323365;269;100 mA
34.730870912313;-0.79925537109375;-0.0314361572265625;2.6899999932084;270;100 mA
34.7408709122877;-0.79864501953125;-0.031427001953125;2.69999999318316;271;100 mA
34.7508709122625;-0.79925537109375;-0.031402587890625;2.70999999315791;272;100 mA
34.7608709122372;-0.79925537109375;-0.0313873291015625;2.71999999313266;273;100 mA
34.770870912212;-0.79925537109375;-0.0313720703125;2.72999999310741;274;100 mA
34.7808709121867;-0.79803466796875;-0.0313201904296875;2.73999999308217;275;100 mA
34.7908709121615;-0.79925537109375;-0.031292724609375;2.74999999305692;276;100 mA
34.8008709121362;-0.79925537109375;-0.0312744140625;2.75999999303167;277;100 mA
34.810870912111;-0.79864501953125;-0.0312469482421875;2.76999999300642;278;100 mA
34.8208709120858;-0.799560546875;-0.0312347412109375;2.77999999298117;279;100 mA
34.8308709120605;-0.799560546875;-0.0311767578125;2.78999999295593;280;100 mA
34.8408709120353;-0.79864501953125;-0.03115234375;2.79999999293068;281;100 mA
34.85087091201;-0.7989501953125;-0.031121826171875;2.80999999290543;282;100 mA
34.8608709119848;-0.79864501953125;-0.0310699462890625;2.81999999288018;283;100 mA
34.8708709119595;-0.7989501953125;-0.031048583984375;2.82999999285494;284;100 mA
34.8808709119343;-0.79864501953125;-0.0310333251953125;2.83999999282969;285;100 mA
34.890870911909;-0.79925537109375;-0.030999755859375;2.84999999280444;286;100 mA
34.9008709118838;-0.799560546875;-0.03101806640625;2.85999999277919;287;100 mA
34.9108709118585;-0.79925537109375;-0.030987548828125;2.86999999275395;288;100 mA
34.9208709118333;-0.79864501953125;-0.0309539794921875;2.8799999927287;289;100 mA
34.930870911808;-0.799560546875;-0.0309600830078125;2.88999999270345;290;100 mA
34.9408709117828;-0.79925537109375;-0.030938720703125;2.8999999926782;291;100 mA
34.9508709117575;-0.79864501953125;-0.0309173583984375;2.90999999265296;292;100 mA
34.9608709117323;-0.79925537109375;-0.03092041015625;2.91999999262771;293;100 mA
34.970870911707;-0.7989501953125;-0.0309051513671875;2.92999999260246;294;100 mA
34.9808709116818;-0.7989501953125;-0.0309478759765625;2.93999999257721;295;100 mA
34.9908709116565;-0.799560546875;-0.030938720703125;2.94999999255197;296;100 mA
35.0008709116313;-0.79925537109375;-0.030908203125;2.95999999252672;297;100 mA
35.010870911606;-0.799560546875;-0.0309295654296875;2.96999999250147;298;100 mA
35.0208709115808;-0.79803466796875;-0.03087158203125;2.97999999247622;299;100 mA
35.0308709115556;-0.799560546875;-0.030889892578125;2.98999999245098;300;100 mA
35.0408709115303;-0.799560546875;-0.0308685302734375;2.99999999242573;301;100 mA
35.0508709115051;-0.799560546875;-0.0308624267578125;3.00999999240048;302;100 mA
35.0608709114798;-0.79864501953125;-0.03084716796875;3.01999999237523;303;100 mA
35.0708709114546;-0.799560546875;-0.030792236328125;3.02999999234999;304;100 mA
35.0808709114293;-0.799560546875;-0.03076171875;3.03999999232474;305;100 mA
35.0908709114041;-0.79864501953125;-0.0307586669921875;3.04999999229949;306;100 mA
35.1008709113788;-0.79925537109375;-0.030718994140625;3.05999999227424;307;100 mA
35.1108709113536;-0.7989501953125;-0.030718994140625;3.069999992249;308;100 mA
35.1208709113283;-0.79925537109375;-0.030731201171875;3.07999999222375;309;100 mA
35.1308709113031;-0.7989501953125;-0.030731201171875;3.0899999921985;310;100 mA
35.1408709112778;-0.79864501953125;-0.0307464599609375;3.09999999217325;311;100 mA
35.1508709112526;-0.7989501953125;-0.030743408203125;3.109999992148;312;100 mA
35.1608709112273;-0.7989501953125;-0.0307403564453125;3.11999999212276;313;100 mA
35.1708709112021;-0.799560546875;-0.0307342529296875;3.12999999209751;314;100 mA
35.1808709111768;-0.7989501953125;-0.0307098388671875;3.13999999207226;315;100 mA
35.1908709111516;-0.79986572265625;-0.030694580078125;3.14999999204701;316;100 mA
35.2008709111263;-0.79925537109375;-0.0306884765625;3.15999999202177;317;100 mA
35.2108709111011;-0.7989501953125;-0.0306671142578125;3.16999999199652;318;100 mA
35.2208709110758;-0.79925537109375;-0.0306793212890625;3.17999999197127;319;100 mA
35.2308709110506;-0.79925537109375;-0.0306427001953125;3.18999999194602;320;100 mA
35.2408709110254;-0.7989501953125;-0.030621337890625;3.19999999192078;321;100 mA
35.2508709110001;-0.79925537109375;-0.03060302734375;3.20999999189553;322;100 mA
35.2608709109749;-0.799560546875;-0.0305755615234375;3.21999999187028;323;100 mA
35.2708709109496;-0.79925537109375;-0.030560302734375;3.22999999184503;324;100 mA
35.2808709109244;-0.7989501953125;-0.0305633544921875;3.23999999181979;325;100 mA
35.2908709108991;-0.799560546875;-0.0305450439453125;3.24999999179454;326;100 mA
35.3008709108739;-0.79925537109375;-0.0305877685546875;3.25999999176929;327;100 mA
35.3108709108486;-0.799560546875;-0.0305908203125;3.26999999174404;328;100 mA
35.3208709108234;-0.799560546875;-0.030584716796875;3.2799999917188;329;100 mA
35.3308709107981;-0.79925537109375;-0.0306121826171875;3.28999999169355;330;100 mA
35.3408709107729;-0.79833984375;-0.0306060791015625;3.2999999916683;331;100 mA
35.3508709107476;-0.799560546875;-0.03062744140625;3.30999999164305;332;100 mA
35.3608709107224;-0.7989501953125;-0.03065185546875;3.31999999161781;333;100 mA
35.3708709106971;-0.79925537109375;-0.0306549072265625;3.32999999159256;334;100 mA
35.3808709106719;-0.79864501953125;-0.030718994140625;3.33999999156731;335;100 mA
35.3908709106466;-0.7989501953125;-0.030718994140625;3.34999999154206;336;100 mA
35.4008709106214;-0.7989501953125;-0.0307220458984375;3.35999999151682;337;100 mA
35.4108709105961;-0.799560546875;-0.030755615234375;3.36999999149157;338;100 mA
35.4208709105709;-0.79925537109375;-0.0307342529296875;3.37999999146632;339;100 mA
35.4308709105457;-0.799560546875;-0.0307281494140625;3.38999999144107;340;100 mA
35.4408709105204;-0.79864501953125;-0.030712890625;3.39999999141583;341;100 mA
35.4508709104952;-0.79925537109375;-0.0307037353515625;3.40999999139058;342;100 mA
35.4608709104699;-0.79925537109375;-0.0306976318359375;3.41999999136533;343;100 mA
35.4708709104447;-0.799560546875;-0.0306427001953125;3.42999999134008;344;100 mA
35.4808709104194;-0.79925537109375;-0.0306243896484375;3.43999999131483;345;100 mA
35.4908709103942;-0.799560546875;-0.030633544921875;3.44999999128959;346;100 mA
35.5008709103689;-0.79925537109375;-0.030596923828125;3.45999999126434;347;100 mA
35.5108709103437;-0.799560546875;-0.03057861328125;3.46999999123909;348;100 mA
35.5208709103184;-0.7989501953125;-0.0305816650390625;3.47999999121384;349;100 mA
35.5308709102932;-0.79925537109375;-0.03060302734375;3.4899999911886;350;100 mA
35.5408709102679;-0.7989501953125;-0.0305999755859375;3.49999999116335;351;100 mA
35.5508709102427;-0.79986572265625;-0.03056640625;3.5099999911381;352;100 mA
35.5608709102174;-0.79925537109375;-0.0305511474609375;3.51999999111285;353;100 mA
35.5708709101922;-0.7989501953125;-0.030517578125;3.52999999108761;354;100 mA
35.5808709101669;-0.79925537109375;-0.0304962158203125;3.53999999106236;355;100 mA
35.5908709101417;-0.799560546875;-0.0304779052734375;3.54999999103711;356;100 mA
35.6008709101164;-0.799560546875;-0.0304779052734375;3.55999999101186;357;100 mA
35.6108709100912;-0.799560546875;-0.0304718017578125;3.56999999098662;358;100 mA
35.6208709100659;-0.7989501953125;-0.030499267578125;3.57999999096137;359;100 mA
35.6308709100407;-0.79925537109375;-0.03046875;3.58999999093612;360;100 mA
35.6408709100155;-0.7989501953125;-0.030462646484375;3.59999999091087;361;100 mA
35.6508709099902;-0.799560546875;-0.0304718017578125;3.60999999088563;362;100 mA
35.660870909965;-0.79864501953125;-0.0304534912109375;3.61999999086038;363;100 mA
35.6708709099397;-0.79925537109375;-0.0304534912109375;3.62999999083513;364;100 mA
35.6808709099145;-0.7989501953125;-0.0304901123046875;3.63999999080988;365;100 mA
35.6908709098892;-0.79925537109375;-0.0304962158203125;3.64999999078464;366;100 mA
35.700870909864;-0.7989501953125;-0.0305450439453125;3.65999999075939;367;100 mA
35.7108709098387;-0.7989501953125;-0.030560302734375;3.66999999073414;368;100 mA
35.7208709098135;-0.799560546875;-0.030560302734375;3.67999999070889;369;100 mA
35.7308709097882;-0.7989501953125;-0.030621337890625;3.68999999068365;370;100 mA
35.740870909763;-0.79925537109375;-0.0306243896484375;3.6999999906584;371;100 mA
35.7508709097377;-0.79925537109375;-0.03067626953125;3.70999999063315;372;100 mA
35.7608709097125;-0.79864501953125;-0.0307891845703125;3.7199999906079;373;100 mA
35.7708709096872;-0.79925537109375;-0.030767822265625;3.72999999058266;374;100 mA
35.780870909662;-0.7989501953125;-0.0308685302734375;3.73999999055741;375;100 mA
35.7908709096367;-0.799560546875;-0.03089599609375;3.74999999053216;376;100 mA
35.8008709096115;-0.79925537109375;-0.030926513671875;3.75999999050691;377;100 mA
35.8108709095862;-0.799560546875;-0.03099365234375;3.76999999048167;378;100 mA
35.820870909561;-0.799560546875;-0.0309967041015625;3.77999999045642;379;100 mA
35.8308709095357;-0.79864501953125;-0.0310455322265625;3.78999999043117;380;100 mA
35.8408709095105;-0.799560546875;-0.031060791015625;3.79999999040592;381;100 mA
35.8508709094853;-0.7989501953125;-0.0310821533203125;3.80999999038067;382;100 mA
35.86087090946;-0.79986572265625;-0.03114013671875;3.81999999035543;383;100 mA
35.8708709094348;-0.7989501953125;-0.0311279296875;3.82999999033018;384;100 mA
35.8808709094095;-0.79925537109375;-0.031146240234375;3.83999999030493;385;100 mA
35.8908709093843;-0.799560546875;-0.0311798095703125;3.84999999027968;386;100 mA
35.900870909359;-0.7989501953125;-0.0311676025390625;3.85999999025444;387;100 mA
35.9108709093338;-0.7989501953125;-0.03121337890625;3.86999999022919;388;100 mA
35.9208709093085;-0.79925537109375;-0.031231689453125;3.87999999020394;389;100 mA
35.9308709092833;-0.799560546875;-0.0312835693359375;3.88999999017869;390;100 mA
35.940870909258;-0.799560546875;-0.0313323974609375;3.89999999015345;391;100 mA
35.9508709092328;-0.7989501953125;-0.0313446044921875;3.9099999901282;392;100 mA
35.9608709092075;-0.799560546875;-0.03135986328125;3.91999999010295;393;100 mA
35.9708709091823;-0.7989501953125;-0.031365966796875;3.9299999900777;394;100 mA
35.980870909157;-0.7989501953125;-0.031365966796875;3.93999999005246;395;100 mA
35.9908709091318;-0.799560546875;-0.0313812255859375;3.94999999002721;396;100 mA
36.0008709091065;-0.79986572265625;-0.031427001953125;3.95999999000196;397;100 mA
36.0108709090813;-0.7989501953125;-0.0314605712890625;3.96999998997671;398;100 mA
36.020870909056;-0.79925537109375;-0.031500244140625;3.97999998995147;399;100 mA
36.0308709090308;-0.79925537109375;-0.03150634765625;3.98999998992622;400;100 mA
36.0408709090055;-0.79925537109375;-0.0315277099609375;3.99999998990097;401;100 mA
36.0508709089803;-0.79925537109375;-0.0315704345703125;4.00999998987572;402;100 mA
36.0608709089551;-0.79925537109375;-0.0315948486328125;4.01999998985048;403;100 mA
36.0708709089298;-0.79925537109375;-0.0316162109375;4.02999998982523;404;100 mA
36.0808709089046;-0.799560546875;-0.0316680908203125;4.03999998979998;405;100 mA
36.0908709088793;-0.79925537109375;-0.0316864013671875;4.04999998977473;406;100 mA
36.1008709088541;-0.7989501953125;-0.0317352294921875;4.05999998974949;407;100 mA
36.1108709088288;-0.7989501953125;-0.0317626953125;4.06999998972424;408;100 mA
36.1208709088036;-0.79925537109375;-0.0317596435546875;4.07999998969899;409;100 mA
36.1308709087783;-0.79925537109375;-0.0318084716796875;4.08999998967374;410;100 mA
36.1408709087531;-0.79925537109375;-0.03179931640625;4.0999999896485;411;100 mA
36.1508709087278;-0.7989501953125;-0.0318511962890625;4.10999998962325;412;100 mA
36.1608709087026;-0.79925537109375;-0.0319000244140625;4.119999989598;413;100 mA
36.1708709086773;-0.79925537109375;-0.03192138671875;4.12999998957275;414;100 mA
36.1808709086521;-0.799560546875;-0.03199462890625;4.1399999895475;415;100 mA
36.1908709086268;-0.79925537109375;-0.0320343017578125;4.14999998952226;416;100 mA
36.2008709086016;-0.7989501953125;-0.0320526123046875;4.15999998949701;417;100 mA
36.2108709085763;-0.79925537109375;-0.0320892333984375;4.16999998947176;418;100 mA
36.2208709085511;-0.7989501953125;-0.032061767578125;4.17999998944651;419;100 mA
36.2308709085258;-0.79925537109375;-0.0321075439453125;4.18999998942127;420;100 mA
36.2408709085006;-0.79864501953125;-0.0321533203125;4.19999998939602;421;100 mA
36.2508709084753;-0.799560546875;-0.0321624755859375;4.20999998937077;422;100 mA
36.2608709084501;-0.7989501953125;-0.032208251953125;4.21999998934552;423;100 mA
36.2708709084249;-0.7989501953125;-0.0321929931640625;4.22999998932028;424;100 mA
36.2808709083996;-0.79925537109375;-0.0322021484375;4.23999998929503;425;100 mA
36.2908709083744;-0.79925537109375;-0.0322265625;4.24999998926978;426;100 mA
36.3008709083491;-0.7989501953125;-0.0321929931640625;4.25999998924453;427;100 mA
36.3108709083239;-0.79925537109375;-0.0322174072265625;4.26999998921929;428;100 mA
36.3208709082986;-0.79925537109375;-0.032244873046875;4.27999998919404;429;100 mA
36.3308709082734;-0.79864501953125;-0.032275390625;4.28999998916879;430;100 mA
36.3408709082481;-0.79925537109375;-0.032305908203125;4.29999998914354;431;100 mA
36.3508709082229;-0.79833984375;-0.0322967529296875;4.3099999891183;432;100 mA
36.3608709081976;-0.79925537109375;-0.0323272705078125;4.31999998909305;433;100 mA
36.3708709081724;-0.7989501953125;-0.03233642578125;4.3299999890678;434;100 mA
36.3808709081471;-0.799560546875;-0.032293701171875;4.33999998904255;435;100 mA
36.3908709081219;-0.79864501953125;-0.0322967529296875;4.34999998901731;436;100 mA
36.4008709080966;-0.7989501953125;-0.03232421875;4.35999998899206;437;100 mA
36.4108709080714;-0.79864501953125;-0.0323272705078125;4.36999998896681;438;100 mA
36.4208709080461;-0.7989501953125;-0.032373046875;4.37999998894156;439;100 mA
36.4308709080209;-0.7989501953125;-0.0323516845703125;4.38999998891632;440;100 mA
36.4408709079956;-0.799560546875;-0.032354736328125;4.39999998889107;441;100 mA
36.4508709079704;-0.79925537109375;-0.032373046875;4.40999998886582;442;100 mA
36.4608709079452;-0.7989501953125;-0.03236083984375;4.41999998884057;443;100 mA
36.4708709079199;-0.79925537109375;-0.032354736328125;4.42999998881533;444;100 mA
36.4808709078947;-0.7989501953125;-0.032391357421875;4.43999998879008;445;100 mA
36.4908709078694;-0.7989501953125;-0.0323974609375;4.44999998876483;446;100 mA
36.5008709078442;-0.79986572265625;-0.0324188232421875;4.45999998873958;447;100 mA
36.5108709078189;-0.79925537109375;-0.03240966796875;4.46999998871433;448;100 mA
36.5208709077937;-0.79925537109375;-0.03238525390625;4.47999998868909;449;100 mA
36.5308709077684;-0.7989501953125;-0.0324462890625;4.48999998866384;450;100 mA
36.5408709077432;-0.79925537109375;-0.032440185546875;4.49999998863859;451;100 mA
36.5508709077179;-0.799560546875;-0.032470703125;4.50999998861334;452;100 mA
36.5608709076927;-0.79925537109375;-0.0325225830078125;4.5199999885881;453;100 mA
36.5708709076674;-0.79925537109375;-0.03253173828125;4.52999998856285;454;100 mA
36.5808709076422;-0.79925537109375;-0.032574462890625;4.5399999885376;455;100 mA
36.5908709076169;-0.79925537109375;-0.03258056640625;4.54999998851235;456;100 mA
36.6008709075917;-0.79925537109375;-0.0325714111328125;4.55999998848711;457;100 mA
36.6108709075664;-0.799560546875;-0.0326019287109375;4.56999998846186;458;100 mA
36.6208709075412;-0.7989501953125;-0.032568359375;4.57999998843661;459;100 mA
36.6308709075159;-0.7989501953125;-0.0325927734375;4.58999998841136;460;100 mA
36.6408709074907;-0.79864501953125;-0.03260498046875;4.59999998838612;461;100 mA
36.6508709074654;-0.7989501953125;-0.0326019287109375;4.60999998836087;462;100 mA
36.6608709074402;-0.7989501953125;-0.03262939453125;4.61999998833562;463;100 mA
36.670870907415;-0.799560546875;-0.0325775146484375;4.62999998831037;464;100 mA
36.6808709073897;-0.7989501953125;-0.032574462890625;4.63999998828513;465;100 mA
36.6908709073645;-0.79925537109375;-0.03258056640625;4.64999998825988;466;100 mA
36.7008709073392;-0.79925537109375;-0.0325286865234375;4.65999998823463;467;100 mA
36.710870907314;-0.79925537109375;-0.0325164794921875;4.66999998820938;468;100 mA
36.7208709072887;-0.79925537109375;-0.0325164794921875;4.67999998818414;469;100 mA
36.7308709072635;-0.7989501953125;-0.03253173828125;4.68999998815889;470;100 mA
36.7408709072382;-0.79925537109375;-0.0325225830078125;4.69999998813364;471;100 mA
36.750870907213;-0.799560546875;-0.0324676513671875;4.70999998810839;472;100 mA
36.7608709071877;-0.799560546875;-0.0324554443359375;4.71999998808315;473;100 mA
36.7708709071625;-0.799560546875;-0.0324127197265625;4.7299999880579;474;100 mA
36.7808709071372;-0.79925537109375;-0.032391357421875;4.73999998803265;475;100 mA
36.790870907112;-0.79925537109375;-0.03236083984375;4.7499999880074;476;100 mA
36.8008709070867;-0.799560546875;-0.0323638916015625;4.75999998798216;477;100 mA
36.8108709070615;-0.79925537109375;-0.0323577880859375;4.76999998795691;478;100 mA
36.8208709070362;-0.79925537109375;-0.0323760986328125;4.77999998793166;479;100 mA
36.830870907011;-0.79925537109375;-0.0323486328125;4.78999998790641;480;100 mA
36.8408709069857;-0.7989501953125;-0.03232421875;4.79999998788116;481;100 mA
36.8508709069605;-0.79925537109375;-0.0323211669921875;4.80999998785592;482;100 mA
36.8608709069352;-0.7989501953125;-0.032275390625;4.81999998783067;483;100 mA
36.87087090691;-0.7989501953125;-0.0322662353515625;4.82999998780542;484;100 mA
36.8808709068848;-0.7989501953125;-0.0322723388671875;4.83999998778017;485;100 mA
36.8908709068595;-0.79925537109375;-0.032244873046875;4.84999998775493;486;100 mA
36.9008709068343;-0.79925537109375;-0.03223876953125;4.85999998772968;487;100 mA
36.910870906809;-0.79925537109375;-0.0322021484375;4.86999998770443;488;100 mA
36.9208709067838;-0.799560546875;-0.032147216796875;4.87999998767918;489;100 mA
36.9308709067585;-0.799560546875;-0.032183837890625;4.88999998765394;490;100 mA
36.9408709067333;-0.799560546875;-0.032122802734375;4.89999998762869;491;100 mA
36.950870906708;-0.79864501953125;-0.0321258544921875;4.90999998760344;492;100 mA
36.9608709066828;-0.7989501953125;-0.0321624755859375;4.91999998757819;493;100 mA
36.9708709066575;-0.799560546875;-0.032147216796875;4.92999998755295;494;100 mA
36.9808709066323;-0.79925537109375;-0.032171630859375;4.9399999875277;495;100 mA
36.990870906607;-0.7989501953125;-0.0321319580078125;4.94999998750245;496;100 mA
37.0008709065818;-0.79833984375;-0.0321075439453125;4.9599999874772;497;100 mA
37.0108709065565;-0.799560546875;-0.0321075439453125;4.96999998745196;498;100 mA
37.0208709065313;-0.79925537109375;-0.0320465087890625;4.97999998742671;499;100 mA
37.030870906506;-0.7989501953125;-0.0320404052734375;4.98999998740146;500;100 mA
37.0408709064808;-0.79864501953125;-0.0320465087890625;4.99999998737621;501;100 mA
37.0508709064555;-0.79925537109375;-0.0320159912109375;5.00999998735097;502;100 mA
37.0608709064303;-0.79925537109375;-0.0320648193359375;5.01999998732572;503;100 mA
37.070870906405;-0.79925537109375;-0.0319915771484375;5.02999998730047;504;100 mA
37.0808709063798;-0.799560546875;-0.0319976806640625;5.03999998727522;505;100 mA
37.0908709063546;-0.79925537109375;-0.0319610595703125;5.04999998724998;506;100 mA
37.1008709063293;-0.799560546875;-0.0319183349609375;5.05999998722473;507;100 mA
37.1108709063041;-0.7989501953125;-0.0318878173828125;5.06999998719948;508;100 mA
37.1208709062788;-0.7989501953125;-0.031866455078125;5.07999998717423;509;100 mA
37.1308709062536;-0.79925537109375;-0.0318603515625;5.08999998714899;510;100 mA
37.1408709062283;-0.7989501953125;-0.0318511962890625;5.09999998712374;511;100 mA
37.1508709062031;-0.7989501953125;-0.0318084716796875;5.10999998709849;512;100 mA
37.1608709061778;-0.799560546875;-0.0318084716796875;5.11999998707324;513;100 mA
37.1708709061526;-0.7989501953125;-0.031793212890625;5.129999987048;514;100 mA
37.1808709061273;-0.79925537109375;-0.031781005859375;5.13999998702275;515;100 mA
37.1908709061021;-0.79925537109375;-0.0317962646484375;5.1499999869975;516;100 mA
37.2008709060768;-0.79925537109375;-0.03182373046875;5.15999998697225;517;100 mA
37.2108709060516;-0.79986572265625;-0.03184814453125;5.169999986947;518;100 mA
37.2208709060263;-0.79925537109375;-0.0318939208984375;5.17999998692176;519;100 mA
37.2308709060011;-0.7989501953125;-0.0318756103515625;5.18999998689651;520;100 mA
37.2408709059758;-0.79925537109375;-0.0318572998046875;5.19999998687126;521;100 mA
37.2508709059506;-0.79864501953125;-0.0318817138671875;5.20999998684601;522;100 mA
37.2608709059253;-0.7989501953125;-0.0318389892578125;5.21999998682077;523;100 mA
37.2708709059001;-0.79925537109375;-0.0318572998046875;5.22999998679552;524;100 mA
37.2808709058748;-0.79925537109375;-0.03184814453125;5.23999998677027;525;100 mA
37.2908709058496;-0.79925537109375;-0.0318450927734375;5.24999998674502;526;100 mA
37.3008709058244;-0.7989501953125;-0.0318511962890625;5.25999998671978;527;100 mA
37.3108709057991;-0.7989501953125;-0.03182373046875;5.26999998669453;528;100 mA
37.3208709057739;-0.799560546875;-0.03177490234375;5.27999998666928;529;100 mA
37.3308709057486;-0.79925537109375;-0.03182373046875;5.28999998664403;530;100 mA
37.3408709057234;-0.799560546875;-0.031732177734375;5.29999998661879;531;100 mA
37.3508709056981;-0.7989501953125;-0.031719970703125;5.30999998659354;532;100 mA
37.3608709056729;-0.799560546875;-0.031744384765625;5.31999998656829;533;100 mA
37.3708709056476;-0.7989501953125;-0.031707763671875;5.32999998654304;534;100 mA
37.3808709056224;-0.79925537109375;-0.031732177734375;5.3399999865178;535;100 mA
37.3908709055971;-0.7989501953125;-0.031689453125;5.34999998649255;536;100 mA
37.4008709055719;-0.7989501953125;-0.0316558837890625;5.3599999864673;537;100 mA
37.4108709055466;-0.7989501953125;-0.031634521484375;5.36999998644205;538;100 mA
37.4208709055214;-0.79925537109375;-0.0315826416015625;5.37999998641681;539;100 mA
37.4308709054961;-0.79925537109375;-0.031597900390625;5.38999998639156;540;100 mA
37.4408709054709;-0.79925537109375;-0.0315826416015625;5.39999998636631;541;100 mA
37.4508709054456;-0.799560546875;-0.0315673828125;5.40999998634106;542;100 mA
37.4608709054204;-0.79925537109375;-0.0315887451171875;5.41999998631582;543;100 mA
37.4708709053951;-0.7989501953125;-0.0315216064453125;5.42999998629057;544;100 mA
37.4808709053699;-0.7989501953125;-0.03150634765625;5.43999998626532;545;100 mA
37.4908709053447;-0.79925537109375;-0.031488037109375;5.44999998624007;546;100 mA
37.5008709053194;-0.7989501953125;-0.03145751953125;5.45999998621483;547;100 mA
37.5108709052942;-0.7989501953125;-0.0314361572265625;5.46999998618958;548;100 mA
37.5208709052689;-0.79925537109375;-0.031414794921875;5.47999998616433;549;100 mA
37.5308709052437;-0.7989501953125;-0.031414794921875;5.48999998613908;550;100 mA
37.5408709052184;-0.79925537109375;-0.0314117431640625;5.49999998611383;551;100 mA
37.5508709051932;-0.7989501953125;-0.031378173828125;5.50999998608859;552;100 mA
37.5608709051679;-0.7989501953125;-0.0313446044921875;5.51999998606334;553;100 mA
37.5708709051427;-0.7989501953125;-0.0313262939453125;5.52999998603809;554;100 mA
37.5808709051174;-0.7989501953125;-0.031304931640625;5.53999998601284;555;100 mA
37.5908709050922;-0.79864501953125;-0.031292724609375;5.5499999859876;556;100 mA
37.6008709050669;-0.79925537109375;-0.031292724609375;5.55999998596235;557;100 mA
37.6108709050417;-0.79925537109375;-0.03128662109375;5.5699999859371;558;100 mA
37.6208709050164;-0.79925537109375;-0.03131103515625;5.57999998591185;559;100 mA
37.6308709049912;-0.799560546875;-0.0312713623046875;5.58999998588661;560;100 mA
37.6408709049659;-0.7989501953125;-0.0312835693359375;5.59999998586136;561;100 mA
37.6508709049407;-0.7989501953125;-0.0312652587890625;5.60999998583611;562;100 mA
37.6608709049154;-0.79925537109375;-0.031195068359375;5.61999998581086;563;100 mA
37.6708709048902;-0.79925537109375;-0.03118896484375;5.62999998578562;564;100 mA
37.6808709048649;-0.799560546875;-0.0311676025390625;5.63999998576037;565;100 mA
37.6908709048397;-0.7989501953125;-0.0311553955078125;5.64999998573512;566;100 mA
37.7008709048145;-0.7989501953125;-0.03114013671875;5.65999998570987;567;100 mA
37.7108709047892;-0.79864501953125;-0.031097412109375;5.66999998568463;568;100 mA
37.720870904764;-0.79925537109375;-0.0310546875;5.67999998565938;569;100 mA
37.7308709047387;-0.79925537109375;-0.0310791015625;5.68999998563413;570;100 mA
37.7408709047135;-0.79986572265625;-0.031011962890625;5.69999998560888;571;100 mA
37.7508709046882;-0.79833984375;-0.0310272216796875;5.70999998558364;572;100 mA
37.760870904663;-0.79925537109375;-0.0310394287109375;5.71999998555839;573;100 mA
37.7708709046377;-0.79925537109375;-0.031036376953125;5.72999998553314;574;100 mA
37.7808709046125;-0.79925537109375;-0.0310516357421875;5.73999998550789;575;100 mA
37.7908709045872;-0.799560546875;-0.0310333251953125;5.74999998548265;576;100 mA
37.800870904562;-0.79925537109375;-0.0310302734375;5.7599999854574;577;100 mA
37.8108709045367;-0.79864501953125;-0.03104248046875;5.76999998543215;578;100 mA
37.8208709045115;-0.7989501953125;-0.030987548828125;5.7799999854069;579;100 mA
37.8308709044862;-0.799560546875;-0.031005859375;5.78999998538166;580;100 mA
37.840870904461;-0.79925537109375;-0.031011962890625;5.79999998535641;581;100 mA
37.8508709044357;-0.799560546875;-0.0309906005859375;5.80999998533116;582;100 mA
37.8608709044105;-0.799560546875;-0.0310272216796875;5.81999998530591;583;100 mA
37.8708709043852;-0.799560546875;-0.0309722900390625;5.82999998528066;584;100 mA
37.88087090436;-0.79925537109375;-0.0309722900390625;5.83999998525542;585;100 mA
37.8908709043347;-0.79925537109375;-0.0309661865234375;5.84999998523017;586;100 mA
37.9008709043095;-0.799560546875;-0.0309356689453125;5.85999998520492;587;100 mA
37.9108709042843;-0.79925537109375;-0.0309326171875;5.86999998517967;588;100 mA
37.920870904259;-0.79925537109375;-0.030914306640625;5.87999998515443;589;100 mA
37.9308709042338;-0.79925537109375;-0.030908203125;5.88999998512918;590;100 mA
37.9408709042085;-0.79925537109375;-0.0309356689453125;5.89999998510393;591;100 mA
37.9508709041833;-0.799560546875;-0.030908203125;5.90999998507868;592;100 mA
37.960870904158;-0.799560546875;-0.0308990478515625;5.91999998505344;593;100 mA
37.9708709041328;-0.7989501953125;-0.030926513671875;5.92999998502819;594;100 mA
37.9808709041075;-0.7989501953125;-0.0308746337890625;5.93999998500294;595;100 mA
37.9908709040823;-0.79925537109375;-0.0308807373046875;5.94999998497769;596;100 mA
38.000870904057;-0.7989501953125;-0.030889892578125;5.95999998495245;597;100 mA
38.0108709040318;-0.79925537109375;-0.0308807373046875;5.9699999849272;598;100 mA
38.0208709040065;-0.7989501953125;-0.03089599609375;5.97999998490195;599;100 mA
38.0308709039813;-0.7989501953125;-0.0308807373046875;5.9899999848767;600;100 mA
38.040870903956;-0.79925537109375;-0.03084716796875;5.99999998485146;601;100 mA
38.0508709039308;-0.799560546875;-0.0308929443359375;6.00999998482621;602;100 mA
38.0608709039055;-0.799560546875;-0.0308380126953125;6.01999998480096;603;100 mA
38.0708709038803;-0.799560546875;-0.0308349609375;6.02999998477571;604;100 mA
38.080870903855;-0.799560546875;-0.030853271484375;6.03999998475047;605;100 mA
38.0908709038298;-0.79925537109375;-0.0308563232421875;6.04999998472522;606;100 mA
38.1008709038045;-0.79986572265625;-0.0308685302734375;6.05999998469997;607;100 mA
38.1108709037793;-0.79925537109375;-0.030853271484375;6.06999998467472;608;100 mA
38.1208709037541;-0.799560546875;-0.0308197021484375;6.07999998464948;609;100 mA
38.1308709037288;-0.79925537109375;-0.030853271484375;6.08999998462423;610;100 mA
38.1408709037036;-0.79925537109375;-0.030804443359375;6.09999998459898;611;100 mA
38.1508709036783;-0.79925537109375;-0.0308074951171875;6.10999998457373;612;100 mA
38.1608709036531;-0.799560546875;-0.0308563232421875;6.11999998454849;613;100 mA
38.1708709036278;-0.79925537109375;-0.0308624267578125;6.12999998452324;614;100 mA
38.1808709036026;-0.79925537109375;-0.0309173583984375;6.13999998449799;615;100 mA
38.1908709035773;-0.79864501953125;-0.0309051513671875;6.14999998447274;616;100 mA
38.2008709035521;-0.7989501953125;-0.0308929443359375;6.1599999844475;617;100 mA
38.2108709035268;-0.799560546875;-0.030889892578125;6.16999998442225;618;100 mA
38.2208709035016;-0.7989501953125;-0.0308502197265625;6.179999984397;619;100 mA
38.2308709034763;-0.79925537109375;-0.0308441162109375;6.18999998437175;620;100 mA
38.2408709034511;-0.79925537109375;-0.030865478515625;6.1999999843465;621;100 mA
38.2508709034258;-0.799560546875;-0.0308441162109375;6.20999998432126;622;100 mA
38.2608709034006;-0.79986572265625;-0.0308929443359375;6.21999998429601;623;100 mA
38.2708709033753;-0.799560546875;-0.030828857421875;6.22999998427076;624;100 mA
38.2808709033501;-0.7989501953125;-0.0308349609375;6.23999998424551;625;100 mA
38.2908709033248;-0.79925537109375;-0.0308258056640625;6.24999998422027;626;100 mA
38.3008709032996;-0.79925537109375;-0.030810546875;6.25999998419502;627;100 mA
38.3108709032743;-0.7989501953125;-0.03077392578125;6.26999998416977;628;100 mA
38.3208709032491;-0.7989501953125;-0.0307647705078125;6.27999998414452;629;100 mA
38.3308709032239;-0.79925537109375;-0.03076171875;6.28999998411928;630;100 mA
38.3408709031986;-0.79986572265625;-0.03077392578125;6.29999998409403;631;100 mA
38.3508709031734;-0.799560546875;-0.0307342529296875;6.30999998406878;632;100 mA
38.3608709031481;-0.79833984375;-0.0306915283203125;6.31999998404353;633;100 mA
38.3708709031229;-0.799560546875;-0.0306884765625;6.32999998401829;634;100 mA
38.3808709030976;-0.799560546875;-0.030657958984375;6.33999998399304;635;100 mA
38.3908709030724;-0.7989501953125;-0.0306610107421875;6.34999998396779;636;100 mA
38.4008709030471;-0.79925537109375;-0.03067626953125;6.35999998394254;637;100 mA
38.4108709030219;-0.799560546875;-0.0306884765625;6.3699999839173;638;100 mA
38.4208709029966;-0.7989501953125;-0.030718994140625;6.37999998389205;639;100 mA
38.4308709029714;-0.799560546875;-0.0307281494140625;6.3899999838668;640;100 mA
38.4408709029461;-0.79925537109375;-0.0307220458984375;6.39999998384155;641;100 mA
38.4508709029209;-0.7989501953125;-0.0307586669921875;6.40999998381631;642;100 mA
38.4608709028956;-0.7989501953125;-0.0307342529296875;6.41999998379106;643;100 mA
38.4708709028704;-0.8001708984375;-0.0307464599609375;6.42999998376581;644;100 mA
38.4808709028451;-0.799560546875;-0.0307647705078125;6.43999998374056;645;100 mA
38.4908709028199;-0.7989501953125;-0.0307586669921875;6.44999998371532;646;100 mA
38.5008709027946;-0.799560546875;-0.0307952880859375;6.45999998369007;647;100 mA
38.5108709027694;-0.799560546875;-0.030767822265625;6.46999998366482;648;100 mA
38.5208709027442;-0.79925537109375;-0.030731201171875;6.47999998363957;649;100 mA
38.5308709027189;-0.79864501953125;-0.0307464599609375;6.48999998361433;650;100 mA
38.5408709026937;-0.799560546875;-0.030718994140625;6.49999998358908;651;100 mA
38.5508709026684;-0.7989501953125;-0.0307037353515625;6.50999998356383;652;100 mA
38.5608709026432;-0.79925537109375;-0.030731201171875;6.51999998353858;653;100 mA
38.5708709026179;-0.7989501953125;-0.0307342529296875;6.52999998351333;654;100 mA
38.5808709025927;-0.79986572265625;-0.0307647705078125;6.53999998348809;655;100 mA
38.5908709025674;-0.79925537109375;-0.030743408203125;6.54999998346284;656;100 mA
38.6008709025422;-0.79864501953125;-0.0307281494140625;6.55999998343759;657;100 mA
38.6108709025169;-0.7989501953125;-0.030731201171875;6.56999998341234;658;100 mA
38.6208709024917;-0.799560546875;-0.0306976318359375;6.5799999833871;659;100 mA
38.6308709024664;-0.7989501953125;-0.030682373046875;6.58999998336185;660;100 mA
38.6408709024412;-0.79925537109375;-0.0306976318359375;6.5999999833366;661;100 mA
38.6508709024159;-0.7989501953125;-0.0306793212890625;6.60999998331135;662;100 mA
38.6608709023907;-0.79925537109375;-0.0306976318359375;6.61999998328611;663;100 mA
38.6708709023654;-0.7989501953125;-0.0306243896484375;6.62999998326086;664;100 mA
38.6808709023402;-0.799560546875;-0.0306060791015625;6.63999998323561;665;100 mA
38.6908709023149;-0.7989501953125;-0.030596923828125;6.64999998321036;666;100 mA
38.7008709022897;-0.7989501953125;-0.030548095703125;6.65999998318512;667;100 mA
38.7108709022644;-0.799560546875;-0.030535888671875;6.66999998315987;668;100 mA
38.7208709022392;-0.79925537109375;-0.030535888671875;6.67999998313462;669;100 mA
38.730870902214;-0.799560546875;-0.0305450439453125;6.68999998310937;670;100 mA
38.7408709021887;-0.79925537109375;-0.0305633544921875;6.69999998308413;671;100 mA
38.7508709021635;-0.79986572265625;-0.0305206298828125;6.70999998305888;672;100 mA
38.7608709021382;-0.7989501953125;-0.03052978515625;6.71999998303363;673;100 mA
38.770870902113;-0.7989501953125;-0.03057861328125;6.72999998300838;674;100 mA
38.7808709020877;-0.799560546875;-0.030535888671875;6.73999998298314;675;100 mA
38.7908709020625;-0.799560546875;-0.0305450439453125;6.74999998295789;676;100 mA
38.8008709020372;-0.7989501953125;-0.030560302734375;6.75999998293264;677;100 mA
38.810870902012;-0.7989501953125;-0.0305572509765625;6.76999998290739;678;100 mA
38.8208709019867;-0.79864501953125;-0.0306121826171875;6.77999998288215;679;100 mA
38.8308709019615;-0.7989501953125;-0.03060302734375;6.7899999828569;680;100 mA
38.8408709019362;-0.79925537109375;-0.0305816650390625;6.79999998283165;681;100 mA
38.850870901911;-0.79925537109375;-0.03060302734375;6.8099999828064;682;100 mA
38.8608709018857;-0.7989501953125;-0.0305694580078125;6.81999998278116;683;100 mA
38.8708709018605;-0.7989501953125;-0.03055419921875;6.82999998275591;684;100 mA
38.8808709018352;-0.7989501953125;-0.03056640625;6.83999998273066;685;100 mA
38.89087090181;-0.7989501953125;-0.0305633544921875;6.84999998270541;686;100 mA
38.9008709017847;-0.7989501953125;-0.030584716796875;6.85999998268016;687;100 mA
38.9108709017595;-0.799560546875;-0.0305450439453125;6.86999998265492;688;100 mA
38.9208709017342;-0.79925537109375;-0.03052978515625;6.87999998262967;689;100 mA
38.930870901709;-0.7989501953125;-0.0305389404296875;6.88999998260442;690;100 mA
38.9408709016838;-0.799560546875;-0.0305084228515625;6.89999998257917;691;100 mA
38.9508709016585;-0.799560546875;-0.03050537109375;6.90999998255393;692;100 mA
38.9608709016333;-0.79925537109375;-0.0305145263671875;6.91999998252868;693;100 mA
38.970870901608;-0.79864501953125;-0.0305084228515625;6.92999998250343;694;100 mA
38.9808709015828;-0.79986572265625;-0.0305450439453125;6.93999998247818;695;100 mA
38.9908709015575;-0.79925537109375;-0.0305084228515625;6.94999998245294;696;100 mA
39.0008709015323;-0.799560546875;-0.0305023193359375;6.95999998242769;697;100 mA
39.010870901507;-0.79925537109375;-0.0304840087890625;6.96999998240244;698;100 mA
39.0208709014818;-0.79925537109375;-0.030450439453125;6.97999998237719;699;100 mA
39.0308709014565;-0.79925537109375;-0.0304412841796875;6.98999998235195;700;100 mA
39.0408709014313;-0.7989501953125;-0.030438232421875;6.9999999823267;701;100 mA
39.050870901406;-0.7989501953125;-0.030401611328125;7.00999998230145;702;100 mA
39.0608709013808;-0.79925537109375;-0.0304290771484375;7.0199999822762;703;100 mA
39.0708709013555;-0.79925537109375;-0.0303497314453125;7.02999998225096;704;100 mA
39.0808709013303;-0.79925537109375;-0.03033447265625;7.03999998222571;705;100 mA
39.090870901305;-0.799560546875;-0.0303314208984375;7.04999998220046;706;100 mA
39.1008709012798;-0.799560546875;-0.0302825927734375;7.05999998217521;707;100 mA
39.1108709012545;-0.7989501953125;-0.0302703857421875;7.06999998214997;708;100 mA
39.1208709012293;-0.7989501953125;-0.030242919921875;7.07999998212472;709;100 mA
39.130870901204;-0.79925537109375;-0.030230712890625;7.08999998209947;710;100 mA
39.1408709011788;-0.79925537109375;-0.0302398681640625;7.09999998207422;711;100 mA
39.1508709011536;-0.799560546875;-0.030181884765625;7.10999998204898;712;100 mA
39.1608709011283;-0.79864501953125;-0.030145263671875;7.11999998202373;713;100 mA
39.1708709011031;-0.799560546875;-0.030133056640625;7.12999998199848;714;100 mA
39.1808709010778;-0.79925537109375;-0.0301025390625;7.13999998197323;715;100 mA
39.1908709010526;-0.7989501953125;-0.0301116943359375;7.14999998194799;716;100 mA
39.2008709010273;-0.7989501953125;-0.030108642578125;7.15999998192274;717;100 mA
39.2108709010021;-0.79925537109375;-0.030108642578125;7.16999998189749;718;100 mA
39.2208709009768;-0.79864501953125;-0.0301177978515625;7.17999998187224;719;100 mA
39.2308709009516;-0.7989501953125;-0.0301177978515625;7.189999981847;720;100 mA
39.2408709009263;-0.79925537109375;-0.030096435546875;7.19999998182175;721;100 mA
39.2508709009011;-0.7989501953125;-0.0300994873046875;7.2099999817965;722;100 mA
39.2608709008758;-0.79925537109375;-0.0300567626953125;7.21999998177125;723;100 mA
39.2708709008506;-0.79925537109375;-0.030029296875;7.229999981746;724;100 mA
39.2808709008253;-0.7989501953125;-0.03004150390625;7.23999998172076;725;100 mA
39.2908709008001;-0.7989501953125;-0.030035400390625;7.24999998169551;726;100 mA
39.3008709007748;-0.799560546875;-0.030047607421875;7.25999998167026;727;100 mA
39.3108709007496;-0.79864501953125;-0.02999267578125;7.26999998164501;728;100 mA
39.3208709007243;-0.79925537109375;-0.029962158203125;7.27999998161977;729;100 mA
39.3308709006991;-0.79925537109375;-0.029949951171875;7.28999998159452;730;100 mA
39.3408709006738;-0.79925537109375;-0.0299041748046875;7.29999998156927;731;100 mA
39.3508709006486;-0.79833984375;-0.0298828125;7.30999998154402;732;100 mA
39.3608709006234;-0.7989501953125;-0.0298858642578125;7.31999998151878;733;100 mA
39.3708709005981;-0.79925537109375;-0.029864501953125;7.32999998149353;734;100 mA
39.3808709005729;-0.7989501953125;-0.0298980712890625;7.33999998146828;735;100 mA
39.3908709005476;-0.79925537109375;-0.0298553466796875;7.34999998144303;736;100 mA
39.4008709005224;-0.799560546875;-0.029833984375;7.35999998141779;737;100 mA
39.4108709004971;-0.7989501953125;-0.02982177734375;7.36999998139254;738;100 mA
39.4208709004719;-0.7989501953125;-0.029803466796875;7.37999998136729;739;100 mA
39.4308709004466;-0.79925537109375;-0.0297882080078125;7.38999998134204;740;100 mA
39.4408709004214;-0.799560546875;-0.02979736328125;7.3999999813168;741;100 mA
39.4508709003961;-0.799560546875;-0.0297943115234375;7.40999998129155;742;100 mA
39.4608709003709;-0.799560546875;-0.02984619140625;7.4199999812663;743;100 mA
39.4708709003456;-0.79986572265625;-0.0297821044921875;7.42999998124105;744;100 mA
39.4808709003204;-0.7989501953125;-0.02978515625;7.43999998121581;745;100 mA
39.4908709002951;-0.79925537109375;-0.02979736328125;7.44999998119056;746;100 mA
39.5008709002699;-0.79925537109375;-0.029779052734375;7.45999998116531;747;100 mA
39.5108709002446;-0.79925537109375;-0.02978515625;7.46999998114006;748;100 mA
39.5208709002194;-0.79925537109375;-0.029791259765625;7.47999998111482;749;100 mA
39.5308709001941;-0.79864501953125;-0.029827880859375;7.48999998108957;750;100 mA
39.5408709001689;-0.7989501953125;-0.0298675537109375;7.49999998106432;751;100 mA
39.5508709001437;-0.79925537109375;-0.0298431396484375;7.50999998103907;752;100 mA
39.5608709001184;-0.79925537109375;-0.0298492431640625;7.51999998101383;753;100 mA
39.5708709000932;-0.7989501953125;-0.02989501953125;7.52999998098858;754;100 mA
39.5808709000679;-0.79925537109375;-0.0298919677734375;7.53999998096333;755;100 mA
39.5908709000427;-0.799560546875;-0.02991943359375;7.54999998093808;756;100 mA
39.6008709000174;-0.79925537109375;-0.02996826171875;7.55999998091283;757;100 mA
39.6108708999922;-0.79925537109375;-0.0300018310546875;7.56999998088759;758;100 mA
39.6208708999669;-0.79925537109375;-0.0300567626953125;7.57999998086234;759;100 mA
39.6308708999417;-0.7989501953125;-0.0300445556640625;7.58999998083709;760;100 mA
39.6408708999164;-0.79925537109375;-0.0300445556640625;7.59999998081184;761;100 mA
39.6508708998912;-0.7989501953125;-0.030059814453125;7.6099999807866;762;100 mA
39.6608708998659;-0.7989501953125;-0.030035400390625;7.61999998076135;763;100 mA
39.6708708998407;-0.7989501953125;-0.0300445556640625;7.6299999807361;764;100 mA
39.6808708998154;-0.79925537109375;-0.0300628662109375;7.63999998071085;765;100 mA
39.6908708997902;-0.7989501953125;-0.0300445556640625;7.64999998068561;766;100 mA
39.7008708997649;-0.7989501953125;-0.0300872802734375;7.65999998066036;767;100 mA
39.7108708997397;-0.79925537109375;-0.03004150390625;7.66999998063511;768;100 mA
39.7208708997144;-0.7989501953125;-0.0300384521484375;7.67999998060986;769;100 mA
39.7308708996892;-0.7989501953125;-0.030059814453125;7.68999998058462;770;100 mA
39.7408708996639;-0.79925537109375;-0.0300384521484375;7.69999998055937;771;100 mA
39.7508708996387;-0.79925537109375;-0.030035400390625;7.70999998053412;772;100 mA
39.7608708996135;-0.799560546875;-0.0300628662109375;7.71999998050887;773;100 mA
39.7708708995882;-0.79925537109375;-0.0301025390625;7.72999998048363;774;100 mA
39.780870899563;-0.79925537109375;-0.0301605224609375;7.73999998045838;775;100 mA
39.7908708995377;-0.799560546875;-0.03013916015625;7.74999998043313;776;100 mA
39.8008708995125;-0.7989501953125;-0.030145263671875;7.75999998040788;777;100 mA
39.8108708994872;-0.799560546875;-0.030157470703125;7.76999998038264;778;100 mA
39.820870899462;-0.79925537109375;-0.0301483154296875;7.77999998035739;779;100 mA
39.8308708994367;-0.799560546875;-0.0301300048828125;7.78999998033214;780;100 mA
39.8408708994115;-0.799560546875;-0.0301544189453125;7.79999998030689;781;100 mA
39.8508708993862;-0.79986572265625;-0.0301666259765625;7.80999998028165;782;100 mA
39.860870899361;-0.799560546875;-0.030206298828125;7.8199999802564;783;100 mA
39.8708708993357;-0.799560546875;-0.030145263671875;7.82999998023115;784;100 mA
39.8808708993105;-0.79925537109375;-0.0301422119140625;7.8399999802059;785;100 mA
39.8908708992852;-0.79925537109375;-0.03016357421875;7.84999998018066;786;100 mA
39.90087089926;-0.799560546875;-0.03013916015625;7.85999998015541;787;100 mA
39.9108708992347;-0.79925537109375;-0.0301422119140625;7.86999998013016;788;100 mA
39.9208708992095;-0.7989501953125;-0.030133056640625;7.87999998010491;789;100 mA
39.9308708991842;-0.7989501953125;-0.030169677734375;7.88999998007966;790;100 mA
39.940870899159;-0.79986572265625;-0.0301788330078125;7.89999998005442;791;100 mA
39.9508708991337;-0.7989501953125;-0.030145263671875;7.90999998002917;792;100 mA
39.9608708991085;-0.7989501953125;-0.0301116943359375;7.91999998000392;793;100 mA
39.9708708990833;-0.799560546875;-0.0301513671875;7.92999997997867;794;100 mA
39.980870899058;-0.799560546875;-0.0301361083984375;7.93999997995343;795;100 mA
39.9908708990328;-0.7989501953125;-0.0301239013671875;7.94999997992818;796;100 mA
40.0008708990075;-0.799560546875;-0.03016357421875;7.95999997990293;797;100 mA
40.0108708989823;-0.7989501953125;-0.030194091796875;7.96999997987768;798;100 mA
40.020870898957;-0.79925537109375;-0.0302154541015625;7.97999997985244;799;100 mA
40.0308708989318;-0.7989501953125;-0.03021240234375;7.98999997982719;800;100 mA
40.0408708989065;-0.7989501953125;-0.0302032470703125;7.99999997980194;801;100 mA
40.0508708988813;-0.799560546875;-0.0302093505859375;8.00999997977669;802;100 mA
40.060870898856;-0.799560546875;-0.03021240234375;8.01999997975145;803;100 mA
40.0708708988308;-0.79925537109375;-0.030194091796875;8.0299999797262;804;100 mA
40.0808708988055;-0.7989501953125;-0.030218505859375;8.03999997970095;805;100 mA
40.0908708987803;-0.79864501953125;-0.03021240234375;8.0499999796757;806;100 mA
40.100870898755;-0.79925537109375;-0.0302520751953125;8.05999997965046;807;100 mA
40.1108708987298;-0.8001708984375;-0.0301971435546875;8.06999997962521;808;100 mA
40.1208708987045;-0.79925537109375;-0.0302215576171875;8.07999997959996;809;100 mA
40.1308708986793;-0.7989501953125;-0.030224609375;8.08999997957471;810;100 mA
40.140870898654;-0.79925537109375;-0.030218505859375;8.09999997954947;811;100 mA
40.1508708986288;-0.79925537109375;-0.030181884765625;8.10999997952422;812;100 mA
40.1608708986035;-0.799560546875;-0.0302093505859375;8.11999997949897;813;100 mA
40.1708708985783;-0.7989501953125;-0.030218505859375;8.12999997947372;814;100 mA
40.1808708985531;-0.799560546875;-0.0302764892578125;8.13999997944848;815;100 mA
40.1908708985278;-0.79864501953125;-0.03026123046875;8.14999997942323;816;100 mA
40.2008708985026;-0.799560546875;-0.03026123046875;8.15999997939798;817;100 mA
40.2108708984773;-0.7989501953125;-0.0302734375;8.16999997937273;818;100 mA
40.2208708984521;-0.7989501953125;-0.0303131103515625;8.17999997934749;819;100 mA
40.2308708984268;-0.79925537109375;-0.0303314208984375;8.18999997932224;820;100 mA
40.2408708984016;-0.7989501953125;-0.0303619384765625;8.19999997929699;821;100 mA
40.2508708983763;-0.79833984375;-0.03040771484375;8.20999997927174;822;100 mA
40.2608708983511;-0.7989501953125;-0.030487060546875;8.2199999792465;823;100 mA
40.2708708983258;-0.799560546875;-0.0304931640625;8.22999997922125;824;100 mA
40.2808708983006;-0.7989501953125;-0.0305572509765625;8.239999979196;825;100 mA
40.2908708982753;-0.7989501953125;-0.030621337890625;8.24999997917075;826;100 mA
40.3008708982501;-0.79986572265625;-0.0306488037109375;8.2599999791455;827;100 mA
40.3108708982248;-0.79925537109375;-0.0306915283203125;8.26999997912026;828;100 mA
40.3208708981996;-0.79925537109375;-0.03072509765625;8.27999997909501;829;100 mA
40.3308708981743;-0.79925537109375;-0.030804443359375;8.28999997906976;830;100 mA
40.3408708981491;-0.7989501953125;-0.0308563232421875;8.29999997904451;831;100 mA
40.3508708981238;-0.79925537109375;-0.0308502197265625;8.30999997901927;832;100 mA
40.3608708980986;-0.7989501953125;-0.0308807373046875;8.31999997899402;833;100 mA
40.3708708980733;-0.7989501953125;-0.0309356689453125;8.32999997896877;834;100 mA
40.3808708980481;-0.79925537109375;-0.0309539794921875;8.33999997894352;835;100 mA
40.3908708980229;-0.79864501953125;-0.0309844970703125;8.34999997891828;836;100 mA
40.4008708979976;-0.79925537109375;-0.0310699462890625;8.35999997889303;837;100 mA
40.4108708979724;-0.799560546875;-0.0311492919921875;8.36999997886778;838;100 mA
40.4208708979471;-0.79925537109375;-0.031219482421875;8.37999997884253;839;100 mA
40.4308708979219;-0.79925537109375;-0.0312408447265625;8.38999997881729;840;100 mA
40.4408708978966;-0.799560546875;-0.031280517578125;8.39999997879204;841;100 mA
40.4508708978714;-0.79925537109375;-0.03133544921875;8.40999997876679;842;100 mA
40.4608708978461;-0.79925537109375;-0.0313690185546875;8.41999997874154;843;100 mA
40.4708708978209;-0.7989501953125;-0.0313323974609375;8.4299999787163;844;100 mA
40.4808708977956;-0.799560546875;-0.0313720703125;8.43999997869105;845;100 mA
40.4908708977704;-0.79925537109375;-0.03138427734375;8.4499999786658;846;100 mA
40.5008708977451;-0.79925537109375;-0.03140869140625;8.45999997864055;847;100 mA
40.5108708977199;-0.7989501953125;-0.0313568115234375;8.46999997861531;848;100 mA
40.5208708976946;-0.79925537109375;-0.0313629150390625;8.47999997859006;849;100 mA
40.5308708976694;-0.7989501953125;-0.031378173828125;8.48999997856481;850;100 mA
40.5408708976441;-0.79925537109375;-0.0313690185546875;8.49999997853956;851;100 mA
40.5508708976189;-0.799560546875;-0.0313629150390625;8.50999997851432;852;100 mA
40.5608708975936;-0.7989501953125;-0.0314178466796875;8.51999997848907;853;100 mA
40.5708708975684;-0.79925537109375;-0.03145751953125;8.52999997846382;854;100 mA
40.5808708975432;-0.799560546875;-0.031524658203125;8.53999997843857;855;100 mA
40.5908708975179;-0.7989501953125;-0.03153076171875;8.54999997841333;856;100 mA
40.6008708974927;-0.7989501953125;-0.031524658203125;8.55999997838808;857;100 mA
40.6108708974674;-0.79986572265625;-0.0315582275390625;8.56999997836283;858;100 mA
40.6208708974422;-0.799560546875;-0.0315643310546875;8.57999997833758;859;100 mA
40.6308708974169;-0.7989501953125;-0.031591796875;8.58999997831233;860;100 mA
40.6408708973917;-0.79925537109375;-0.0316162109375;8.59999997828709;861;100 mA
40.6508708973664;-0.79864501953125;-0.03165283203125;8.60999997826184;862;100 mA
40.6608708973412;-0.79833984375;-0.0317230224609375;8.61999997823659;863;100 mA
40.6708708973159;-0.799560546875;-0.0317169189453125;8.62999997821134;864;100 mA
40.6808708972907;-0.7989501953125;-0.0317291259765625;8.6399999781861;865;100 mA
40.6908708972654;-0.79925537109375;-0.03177490234375;8.64999997816085;866;100 mA
40.7008708972402;-0.7989501953125;-0.0317718505859375;8.6599999781356;867;100 mA
40.7108708972149;-0.79864501953125;-0.031787109375;8.66999997811035;868;100 mA
40.7208708971897;-0.799560546875;-0.0318145751953125;8.67999997808511;869;100 mA
40.7308708971644;-0.7989501953125;-0.03184814453125;8.68999997805986;870;100 mA
40.7408708971392;-0.7989501953125;-0.031884765625;8.69999997803461;871;100 mA
40.7508708971139;-0.79864501953125;-0.0318695068359375;8.70999997800936;872;100 mA
40.7608708970887;-0.79925537109375;-0.031890869140625;8.71999997798412;873;100 mA
40.7708708970634;-0.79925537109375;-0.0319366455078125;8.72999997795887;874;100 mA
40.7808708970382;-0.79925537109375;-0.0319488525390625;8.73999997793362;875;100 mA
40.790870897013;-0.79864501953125;-0.031976318359375;8.74999997790837;876;100 mA
40.8008708969877;-0.799560546875;-0.0320343017578125;8.75999997788313;877;100 mA
40.8108708969625;-0.79925537109375;-0.032110595703125;8.76999997785788;878;100 mA
40.8208708969372;-0.7989501953125;-0.0321929931640625;8.77999997783263;879;100 mA
40.830870896912;-0.7989501953125;-0.0322235107421875;8.78999997780738;880;100 mA
40.8408708968867;-0.79925537109375;-0.0322509765625;8.79999997778214;881;100 mA
40.8508708968615;-0.7989501953125;-0.0322845458984375;8.80999997775689;882;100 mA
40.8608708968362;-0.799560546875;-0.0323150634765625;8.81999997773164;883;100 mA
40.870870896811;-0.799560546875;-0.0323211669921875;8.82999997770639;884;100 mA
40.8808708967857;-0.79925537109375;-0.032379150390625;8.83999997768115;885;100 mA
40.8908708967605;-0.7989501953125;-0.0323974609375;8.8499999776559;886;100 mA
40.9008708967352;-0.79925537109375;-0.03245849609375;8.85999997763065;887;100 mA
40.91087089671;-0.7989501953125;-0.0324310302734375;8.8699999776054;888;100 mA
40.9208708966847;-0.7989501953125;-0.0324615478515625;8.87999997758016;889;100 mA
40.9308708966595;-0.799560546875;-0.0325042724609375;8.88999997755491;890;100 mA
40.9408708966342;-0.7989501953125;-0.0325103759765625;8.89999997752966;891;100 mA
40.950870896609;-0.7989501953125;-0.032525634765625;8.90999997750441;892;100 mA
40.9608708965837;-0.799560546875;-0.0325836181640625;8.91999997747916;893;100 mA
40.9708708965585;-0.79925537109375;-0.032635498046875;8.92999997745392;894;100 mA
40.9808708965332;-0.79925537109375;-0.03271484375;8.93999997742867;895;100 mA
40.990870896508;-0.7989501953125;-0.03272705078125;8.94999997740342;896;100 mA
41.0008708964828;-0.79925537109375;-0.0327423095703125;8.95999997737817;897;100 mA
41.0108708964575;-0.79925537109375;-0.032794189453125;8.96999997735293;898;100 mA
41.0208708964323;-0.7989501953125;-0.0328155517578125;8.97999997732768;899;100 mA
41.030870896407;-0.79925537109375;-0.0328460693359375;8.98999997730243;900;100 mA
41.0408708963818;-0.7989501953125;-0.0329010009765625;8.99999997727718;901;100 mA
41.0508708963565;-0.79925537109375;-0.0329498291015625;9.00999997725194;902;100 mA
41.0608708963313;-0.7989501953125;-0.0330322265625;9.01999997722669;903;100 mA
41.070870896306;-0.799560546875;-0.033026123046875;9.02999997720144;904;100 mA
41.0808708962808;-0.79925537109375;-0.0330841064453125;9.03999997717619;905;100 mA
41.0908708962555;-0.799560546875;-0.03311767578125;9.04999997715095;906;100 mA
41.1008708962303;-0.79925537109375;-0.0331298828125;9.0599999771257;907;100 mA
41.110870896205;-0.79925537109375;-0.03316650390625;9.06999997710045;908;100 mA
41.1208708961798;-0.79925537109375;-0.0331787109375;9.0799999770752;909;100 mA
41.1308708961545;-0.79925537109375;-0.033233642578125;9.08999997704996;910;100 mA
41.1408708961293;-0.7989501953125;-0.03326416015625;9.09999997702471;911;100 mA
41.150870896104;-0.7989501953125;-0.0332489013671875;9.10999997699946;912;100 mA
41.1608708960788;-0.799560546875;-0.0332763671875;9.11999997697421;913;100 mA
41.1708708960535;-0.7989501953125;-0.0332977294921875;9.12999997694897;914;100 mA
41.1808708960283;-0.7989501953125;-0.0333221435546875;9.13999997692372;915;100 mA
41.190870896003;-0.7989501953125;-0.03333740234375;9.14999997689847;916;100 mA
41.2008708959778;-0.799560546875;-0.0333953857421875;9.15999997687322;917;100 mA
41.2108708959526;-0.79925537109375;-0.033453369140625;9.16999997684798;918;100 mA
41.2208708959273;-0.799560546875;-0.033514404296875;9.17999997682273;919;100 mA
41.2308708959021;-0.79925537109375;-0.033514404296875;9.18999997679748;920;100 mA
41.2408708958768;-0.799560546875;-0.033526611328125;9.19999997677223;921;100 mA
41.2508708958516;-0.79925537109375;-0.033544921875;9.20999997674699;922;100 mA
41.2608708958263;-0.79986572265625;-0.0335845947265625;9.21999997672174;923;100 mA
41.2708708958011;-0.7989501953125;-0.0335723876953125;9.22999997669649;924;100 mA
41.2808708957758;-0.79925537109375;-0.0336181640625;9.23999997667124;925;100 mA
41.2908708957506;-0.79833984375;-0.03363037109375;9.249999976646;926;100 mA
41.3008708957253;-0.79864501953125;-0.0336944580078125;9.25999997662075;927;100 mA
41.3108708957001;-0.79925537109375;-0.03365478515625;9.2699999765955;928;100 mA
41.3208708956748;-0.7989501953125;-0.0336669921875;9.27999997657025;929;100 mA
41.3308708956496;-0.79925537109375;-0.033685302734375;9.289999976545;930;100 mA
41.3408708956243;-0.7989501953125;-0.033685302734375;9.29999997651976;931;100 mA
41.3508708955991;-0.7989501953125;-0.0336669921875;9.30999997649451;932;100 mA
41.3608708955738;-0.7989501953125;-0.0337158203125;9.31999997646926;933;100 mA
41.3708708955486;-0.7989501953125;-0.0337249755859375;9.32999997644401;934;100 mA
41.3808708955233;-0.79864501953125;-0.033770751953125;9.33999997641877;935;100 mA
41.3908708954981;-0.7989501953125;-0.033746337890625;9.34999997639352;936;100 mA
41.4008708954728;-0.7989501953125;-0.033740234375;9.35999997636827;937;100 mA
41.4108708954476;-0.799560546875;-0.033782958984375;9.36999997634302;938;100 mA
41.4208708954224;-0.7989501953125;-0.0337738037109375;9.37999997631778;939;100 mA
41.4308708953971;-0.799560546875;-0.0338043212890625;9.38999997629253;940;100 mA
41.4408708953719;-0.7989501953125;-0.033837890625;9.39999997626728;941;100 mA
41.4508708953466;-0.7989501953125;-0.033880615234375;9.40999997624203;942;100 mA
41.4608708953214;-0.799560546875;-0.0339263916015625;9.41999997621679;943;100 mA
41.4708708952961;-0.79925537109375;-0.033905029296875;9.42999997619154;944;100 mA
41.4808708952709;-0.79925537109375;-0.033905029296875;9.43999997616629;945;100 mA
41.4908708952456;-0.7989501953125;-0.0339141845703125;9.44999997614104;946;100 mA
41.5008708952204;-0.7989501953125;-0.033892822265625;9.4599999761158;947;100 mA
41.5108708951951;-0.79925537109375;-0.033880615234375;9.46999997609055;948;100 mA
41.5208708951699;-0.79925537109375;-0.03387451171875;9.4799999760653;949;100 mA
41.5308708951446;-0.7989501953125;-0.03387451171875;9.48999997604005;950;100 mA
41.5408708951194;-0.7989501953125;-0.03387451171875;9.49999997601481;951;100 mA
41.5508708950941;-0.7989501953125;-0.0338226318359375;9.50999997598956;952;100 mA
41.5608708950689;-0.79864501953125;-0.0337890625;9.51999997596431;953;100 mA
41.5708708950436;-0.79925537109375;-0.033782958984375;9.52999997593906;954;100 mA
41.5808708950184;-0.79925537109375;-0.0337646484375;9.53999997591382;955;100 mA
41.5908708949931;-0.7989501953125;-0.0337249755859375;9.54999997588857;956;100 mA
41.6008708949679;-0.79864501953125;-0.0337371826171875;9.55999997586332;957;100 mA
41.6108708949427;-0.799560546875;-0.033746337890625;9.56999997583807;958;100 mA
41.6208708949174;-0.7989501953125;-0.0337799072265625;9.57999997581283;959;100 mA
41.6308708948922;-0.79925537109375;-0.033740234375;9.58999997578758;960;100 mA
41.6408708948669;-0.79925537109375;-0.0337371826171875;9.59999997576233;961;100 mA
41.6508708948417;-0.79925537109375;-0.0337249755859375;9.60999997573708;962;100 mA
41.6608708948164;-0.79925537109375;-0.0337371826171875;9.61999997571183;963;100 mA
41.6708708947912;-0.79833984375;-0.0337066650390625;9.62999997568659;964;100 mA
41.6808708947659;-0.79925537109375;-0.0337493896484375;9.63999997566134;965;100 mA
41.6908708947407;-0.7989501953125;-0.0337432861328125;9.64999997563609;966;100 mA
41.7008708947154;-0.79925537109375;-0.0337890625;9.65999997561084;967;100 mA
41.7108708946902;-0.7989501953125;-0.033740234375;9.6699999755856;968;100 mA
41.7208708946649;-0.7989501953125;-0.0337310791015625;9.67999997556035;969;100 mA
41.7308708946397;-0.7989501953125;-0.0337371826171875;9.6899999755351;970;100 mA
41.7408708946144;-0.79925537109375;-0.033746337890625;9.69999997550985;971;100 mA
41.7508708945892;-0.7989501953125;-0.033721923828125;9.70999997548461;972;100 mA
41.7608708945639;-0.7989501953125;-0.033740234375;9.71999997545936;973;100 mA
41.7708708945387;-0.79925537109375;-0.0337615966796875;9.72999997543411;974;100 mA
41.7808708945134;-0.79864501953125;-0.0337921142578125;9.73999997540886;975;100 mA
41.7908708944882;-0.7989501953125;-0.0337738037109375;9.74999997538362;976;100 mA
41.8008708944629;-0.799560546875;-0.0337554931640625;9.75999997535837;977;100 mA
41.8108708944377;-0.79925537109375;-0.0338043212890625;9.76999997533312;978;100 mA
41.8208708944125;-0.79925537109375;-0.033795166015625;9.77999997530787;979;100 mA
41.8308708943872;-0.7989501953125;-0.0338226318359375;9.78999997528263;980;100 mA
41.840870894362;-0.7989501953125;-0.033880615234375;9.79999997525738;981;100 mA
41.8508708943367;-0.79925537109375;-0.0339202880859375;9.80999997523213;982;100 mA
41.8608708943115;-0.7989501953125;-0.033990478515625;9.81999997520688;983;100 mA
41.8708708942862;-0.79864501953125;-0.0339813232421875;9.82999997518164;984;100 mA
41.880870894261;-0.7989501953125;-0.0340301513671875;9.83999997515639;985;100 mA
41.8908708942357;-0.7989501953125;-0.034027099609375;9.84999997513114;986;100 mA
41.9008708942105;-0.79925537109375;-0.0340240478515625;9.85999997510589;987;100 mA
41.9108708941852;-0.79925537109375;-0.0340179443359375;9.86999997508065;988;100 mA
41.92087089416;-0.79925537109375;-0.0340240478515625;9.8799999750554;989;100 mA
41.9308708941347;-0.79925537109375;-0.0340362548828125;9.88999997503015;990;100 mA
41.9408708941095;-0.7989501953125;-0.034027099609375;9.8999999750049;991;100 mA
41.9508708940842;-0.7989501953125;-0.033953857421875;9.90999997497966;992;100 mA
41.960870894059;-0.79925537109375;-0.0339324951171875;9.91999997495441;993;100 mA
41.9708708940337;-0.7989501953125;-0.0338958740234375;9.92999997492916;994;100 mA
41.9808708940085;-0.7989501953125;-0.0338714599609375;9.93999997490391;995;100 mA
41.9908708939832;-0.79864501953125;-0.0338287353515625;9.94999997487866;996;100 mA
42.000870893958;-0.7989501953125;-0.033831787109375;9.95999997485342;997;100 mA
42.0108708939327;-0.799560546875;-0.033843994140625;9.96999997482817;998;100 mA
42.0208708939075;-0.79925537109375;-0.033880615234375;9.97999997480292;999;100 mA
42.0308708938823;-0.79925537109375;-0.0338531494140625;9.98999997477767;1000;100 mA
