Time (s);WE(1).Potential (V);WE(1).Current (A);Corrected time (s);Index;Current range
72.715112816412;-0.9002685546875;-0.316925048828125;0;1;100 mA
72.7251128163867;-0.89935302734375;-0.23565673828125;0.00999999997475243;2;100 mA
72.7351128163615;-0.89935302734375;-0.1961669921875;0.0199999999495049;3;100 mA
72.7451128163362;-0.9002685546875;-0.17132568359375;0.0299999999242573;4;100 mA
72.755112816311;-0.899658203125;-0.154083251953125;0.0399999998990097;5;100 mA
72.7651128162858;-0.899658203125;-0.14117431640625;0.0499999998737621;6;100 mA
72.7751128162605;-0.89935302734375;-0.130950927734375;0.0599999998485146;7;100 mA
72.7851128162353;-0.89874267578125;-0.122650146484375;0.069999999823267;8;100 mA
72.79511281621;-0.89935302734375;-0.11578369140625;0.0799999997980194;9;100 mA
72.8051128161848;-0.899658203125;-0.10980224609375;0.0899999997727718;10;100 mA
72.8151128161595;-0.89935302734375;-0.104827880859375;0.0999999997475243;11;100 mA
72.8251128161343;-0.899658203125;-0.100494384765625;0.109999999722277;12;100 mA
72.835112816109;-0.899658203125;-0.09661865234375;0.119999999697029;13;100 mA
72.8451128160838;-0.899658203125;-0.0931396484375;0.129999999671782;14;100 mA
72.8551128160585;-0.899658203125;-0.09002685546875;0.139999999646534;15;100 mA
72.8651128160333;-0.89935302734375;-0.087158203125;0.149999999621286;16;100 mA
72.875112816008;-0.89935302734375;-0.084625244140625;0.159999999596039;17;100 mA
72.8851128159828;-0.8990478515625;-0.08221435546875;0.169999999570791;18;100 mA
72.8951128159575;-0.89935302734375;-0.080108642578125;0.179999999545544;19;100 mA
72.9051128159323;-0.89935302734375;-0.078155517578125;0.189999999520296;20;100 mA
72.915112815907;-0.89935302734375;-0.0762939453125;0.199999999495049;21;100 mA
72.9251128158818;-0.8990478515625;-0.074554443359375;0.209999999469801;22;100 mA
72.9351128158565;-0.89935302734375;-0.072998046875;0.219999999444553;23;100 mA
72.9451128158313;-0.89935302734375;-0.07147216796875;0.229999999419306;24;100 mA
72.955112815806;-0.899658203125;-0.070068359375;0.239999999394058;25;100 mA
72.9651128157808;-0.8990478515625;-0.06866455078125;0.249999999368811;26;100 mA
72.9751128157556;-0.899658203125;-0.067474365234375;0.259999999343563;27;100 mA
72.9851128157303;-0.899658203125;-0.066314697265625;0.269999999318316;28;100 mA
72.9951128157051;-0.899658203125;-0.065216064453125;0.279999999293068;29;100 mA
73.0051128156798;-0.89935302734375;-0.06414794921875;0.28999999926782;30;100 mA
73.0151128156546;-0.8990478515625;-0.06317138671875;0.299999999242573;31;100 mA
73.0251128156293;-0.89935302734375;-0.062225341796875;0.309999999217325;32;100 mA
73.0351128156041;-0.899658203125;-0.061370849609375;0.319999999192078;33;100 mA
73.0451128155788;-0.8990478515625;-0.060394287109375;0.32999999916683;34;100 mA
73.0551128155536;-0.8990478515625;-0.059600830078125;0.339999999141583;35;100 mA
73.0651128155283;-0.89935302734375;-0.058837890625;0.349999999116335;36;100 mA
73.0751128155031;-0.89935302734375;-0.058074951171875;0.359999999091087;37;100 mA
73.0851128154778;-0.89935302734375;-0.057403564453125;0.36999999906584;38;100 mA
73.0951128154526;-0.899658203125;-0.056732177734375;0.379999999040592;39;100 mA
73.1051128154273;-0.89935302734375;-0.055999755859375;0.389999999015345;40;100 mA
73.1151128154021;-0.89996337890625;-0.055511474609375;0.399999998990097;41;100 mA
73.1251128153768;-0.89935302734375;-0.0548095703125;0.40999999896485;42;100 mA
73.1351128153516;-0.89935302734375;-0.054290771484375;0.419999998939602;43;100 mA
73.1451128153263;-0.899658203125;-0.053741455078125;0.429999998914354;44;100 mA
73.1551128153011;-0.89874267578125;-0.053253173828125;0.439999998889107;45;100 mA
73.1651128152758;-0.89935302734375;-0.052703857421875;0.449999998863859;46;100 mA
73.1751128152506;-0.89935302734375;-0.05218505859375;0.459999998838612;47;100 mA
73.1851128152254;-0.899658203125;-0.051666259765625;0.469999998813364;48;100 mA
73.1951128152001;-0.8990478515625;-0.051239013671875;0.479999998788116;49;100 mA
73.2051128151749;-0.89935302734375;-0.050689697265625;0.489999998762869;50;100 mA
73.2151128151496;-0.89874267578125;-0.050262451171875;0.499999998737621;51;100 mA
73.2251128151244;-0.899658203125;-0.04986572265625;0.509999998712374;52;100 mA
73.2351128150991;-0.89996337890625;-0.049468994140625;0.519999998687126;53;100 mA
73.2451128150739;-0.899658203125;-0.0490264892578125;0.529999998661879;54;100 mA
73.2551128150486;-0.899658203125;-0.04864501953125;0.539999998636631;55;100 mA
73.2651128150234;-0.89935302734375;-0.0482635498046875;0.549999998611383;56;100 mA
73.2751128149981;-0.899658203125;-0.04793701171875;0.559999998586136;57;100 mA
73.2851128149729;-0.8990478515625;-0.0475616455078125;0.569999998560888;58;100 mA
73.2951128149476;-0.89935302734375;-0.047222900390625;0.579999998535641;59;100 mA
73.3051128149224;-0.8990478515625;-0.0468841552734375;0.589999998510393;60;100 mA
73.3151128148971;-0.8990478515625;-0.0465606689453125;0.599999998485146;61;100 mA
73.3251128148719;-0.89935302734375;-0.0462310791015625;0.609999998459898;62;100 mA
73.3351128148466;-0.8990478515625;-0.0459564208984375;0.61999999843465;63;100 mA
73.3451128148214;-0.899658203125;-0.04564208984375;0.629999998409403;64;100 mA
73.3551128147961;-0.899658203125;-0.0453887939453125;0.639999998384155;65;100 mA
73.3651128147709;-0.899658203125;-0.0450469970703125;0.649999998358908;66;100 mA
73.3751128147456;-0.89935302734375;-0.04478759765625;0.65999999833366;67;100 mA
73.3851128147204;-0.8990478515625;-0.044525146484375;0.669999998308413;68;100 mA
73.3951128146952;-0.8990478515625;-0.0442779541015625;0.679999998283165;69;100 mA
73.4051128146699;-0.89935302734375;-0.0439971923828125;0.689999998257917;70;100 mA
73.4151128146447;-0.8990478515625;-0.043780517578125;0.69999999823267;71;100 mA
73.4251128146194;-0.8990478515625;-0.0435028076171875;0.709999998207422;72;100 mA
73.4351128145942;-0.89935302734375;-0.04334716796875;0.719999998182175;73;100 mA
73.4451128145689;-0.899658203125;-0.0430419921875;0.729999998156927;74;100 mA
73.4551128145437;-0.89935302734375;-0.0428558349609375;0.73999999813168;75;100 mA
73.4651128145184;-0.89935302734375;-0.0426513671875;0.749999998106432;76;100 mA
73.4751128144932;-0.89935302734375;-0.0424591064453125;0.759999998081184;77;100 mA
73.4851128144679;-0.89935302734375;-0.0422515869140625;0.769999998055937;78;100 mA
73.4951128144427;-0.899658203125;-0.042071533203125;0.779999998030689;79;100 mA
73.5051128144174;-0.8990478515625;-0.0418365478515625;0.789999998005442;80;100 mA
73.5151128143922;-0.8990478515625;-0.0417388916015625;0.799999997980194;81;100 mA
73.5251128143669;-0.89935302734375;-0.0414642333984375;0.809999997954947;82;100 mA
73.5351128143417;-0.899658203125;-0.0413421630859375;0.819999997929699;83;100 mA
73.5451128143164;-0.8990478515625;-0.0411712646484375;0.829999997904451;84;100 mA
73.5551128142912;-0.8990478515625;-0.040997314453125;0.839999997879204;85;100 mA
73.5651128142659;-0.899658203125;-0.0408233642578125;0.849999997853956;86;100 mA
73.5751128142407;-0.89935302734375;-0.04063720703125;0.859999997828709;87;100 mA
73.5851128142154;-0.8990478515625;-0.0404541015625;0.869999997803461;88;100 mA
73.5951128141902;-0.89935302734375;-0.04031982421875;0.879999997778214;89;100 mA
73.605112814165;-0.89996337890625;-0.0400665283203125;0.889999997752966;90;100 mA
73.6151128141397;-0.8990478515625;-0.0399261474609375;0.899999997727718;91;100 mA
73.6251128141145;-0.8990478515625;-0.0397796630859375;0.909999997702471;92;100 mA
73.6351128140892;-0.899658203125;-0.039617919921875;0.919999997677223;93;100 mA
73.645112814064;-0.8990478515625;-0.03946533203125;0.929999997651976;94;100 mA
73.6551128140387;-0.899658203125;-0.03931884765625;0.939999997626728;95;100 mA
73.6651128140135;-0.8990478515625;-0.039178466796875;0.949999997601481;96;100 mA
73.6751128139882;-0.899658203125;-0.0390838623046875;0.959999997576233;97;100 mA
73.685112813963;-0.8990478515625;-0.038897705078125;0.969999997550985;98;100 mA
73.6951128139377;-0.8990478515625;-0.0387786865234375;0.979999997525738;99;100 mA
73.7051128139125;-0.899658203125;-0.0386444091796875;0.98999999750049;100;100 mA
73.7151128138872;-0.89935302734375;-0.038525390625;0.999999997475243;101;100 mA
73.725112813862;-0.89935302734375;-0.03837890625;1.00999999745;102;100 mA
73.7351128138367;-0.8990478515625;-0.038299560546875;1.01999999742475;103;100 mA
73.7451128138115;-0.8990478515625;-0.03817138671875;1.0299999973995;104;100 mA
73.7551128137862;-0.89935302734375;-0.038104248046875;1.03999999737425;105;100 mA
73.765112813761;-0.8990478515625;-0.0379058837890625;1.049999997349;106;100 mA
73.7751128137357;-0.89935302734375;-0.037823486328125;1.05999999732376;107;100 mA
73.7851128137105;-0.89935302734375;-0.037744140625;1.06999999729851;108;100 mA
73.7951128136853;-0.8990478515625;-0.0376556396484375;1.07999999727326;109;100 mA
73.80511281366;-0.8990478515625;-0.037518310546875;1.08999999724801;110;100 mA
73.8151128136348;-0.8990478515625;-0.0374267578125;1.09999999722277;111;100 mA
73.8251128136095;-0.899658203125;-0.0372894287109375;1.10999999719752;112;100 mA
73.8351128135843;-0.8990478515625;-0.037249755859375;1.11999999717227;113;100 mA
73.845112813559;-0.89935302734375;-0.0370635986328125;1.12999999714702;114;100 mA
73.8551128135338;-0.89874267578125;-0.0369903564453125;1.13999999712178;115;100 mA
73.8651128135085;-0.89874267578125;-0.0368804931640625;1.14999999709653;116;100 mA
73.8751128134833;-0.89935302734375;-0.03681640625;1.15999999707128;117;100 mA
73.885112813458;-0.899658203125;-0.036724853515625;1.16999999704603;118;100 mA
73.8951128134328;-0.89935302734375;-0.036663818359375;1.17999999702079;119;100 mA
73.9051128134075;-0.899658203125;-0.03653564453125;1.18999999699554;120;100 mA
73.9151128133823;-0.8990478515625;-0.0365447998046875;1.19999999697029;121;100 mA
73.925112813357;-0.89935302734375;-0.0364044189453125;1.20999999694504;122;100 mA
73.9351128133318;-0.89935302734375;-0.0363861083984375;1.2199999969198;123;100 mA
73.9451128133065;-0.9002685546875;-0.0363189697265625;1.22999999689455;124;100 mA
73.9551128132813;-0.899658203125;-0.036248779296875;1.2399999968693;125;100 mA
73.965112813256;-0.89935302734375;-0.036163330078125;1.24999999684405;126;100 mA
73.9751128132308;-0.89935302734375;-0.036090087890625;1.25999999681881;127;100 mA
73.9851128132055;-0.89935302734375;-0.035980224609375;1.26999999679356;128;100 mA
73.9951128131803;-0.89996337890625;-0.0359405517578125;1.27999999676831;129;100 mA
74.0051128131551;-0.899658203125;-0.03577880859375;1.28999999674306;130;100 mA
74.0151128131298;-0.89935302734375;-0.0357147216796875;1.29999999671782;131;100 mA
74.0251128131046;-0.89996337890625;-0.03564453125;1.30999999669257;132;100 mA
74.0351128130793;-0.8990478515625;-0.0355499267578125;1.31999999666732;133;100 mA
74.0451128130541;-0.89935302734375;-0.03544921875;1.32999999664207;134;100 mA
74.0551128130288;-0.89935302734375;-0.0353668212890625;1.33999999661683;135;100 mA
74.0651128130036;-0.899658203125;-0.0352935791015625;1.34999999659158;136;100 mA
74.0751128129783;-0.8990478515625;-0.03526611328125;1.35999999656633;137;100 mA
74.0851128129531;-0.89935302734375;-0.035125732421875;1.36999999654108;138;100 mA
74.0951128129278;-0.89935302734375;-0.0350799560546875;1.37999999651583;139;100 mA
74.1051128129026;-0.89935302734375;-0.035009765625;1.38999999649059;140;100 mA
74.1151128128773;-0.899658203125;-0.0349334716796875;1.39999999646534;141;100 mA
74.1251128128521;-0.89935302734375;-0.0348419189453125;1.40999999644009;142;100 mA
74.1351128128268;-0.89935302734375;-0.034808349609375;1.41999999641484;143;100 mA
74.1451128128016;-0.899658203125;-0.0347015380859375;1.4299999963896;144;100 mA
74.1551128127763;-0.899658203125;-0.0346923828125;1.43999999636435;145;100 mA
74.1651128127511;-0.8990478515625;-0.034552001953125;1.4499999963391;146;100 mA
74.1751128127258;-0.899658203125;-0.034527587890625;1.45999999631385;147;100 mA
74.1851128127006;-0.89874267578125;-0.0344970703125;1.46999999628861;148;100 mA
74.1951128126753;-0.899658203125;-0.0344329833984375;1.47999999626336;149;100 mA
74.2051128126501;-0.899658203125;-0.034344482421875;1.48999999623811;150;100 mA
74.2151128126249;-0.89874267578125;-0.034307861328125;1.49999999621286;151;100 mA
74.2251128125996;-0.899658203125;-0.0342071533203125;1.50999999618762;152;100 mA
74.2351128125744;-0.8990478515625;-0.0342315673828125;1.51999999616237;153;100 mA
74.2451128125491;-0.89935302734375;-0.0341064453125;1.52999999613712;154;100 mA
74.2551128125239;-0.89935302734375;-0.0340789794921875;1.53999999611187;155;100 mA
74.2651128124986;-0.89935302734375;-0.034039306640625;1.54999999608663;156;100 mA
74.2751128124734;-0.89935302734375;-0.0340087890625;1.55999999606138;157;100 mA
74.2851128124481;-0.8990478515625;-0.0339691162109375;1.56999999603613;158;100 mA
74.2951128124229;-0.89996337890625;-0.033953857421875;1.57999999601088;159;100 mA
74.3051128123976;-0.89935302734375;-0.0338775634765625;1.58999999598564;160;100 mA
74.3151128123724;-0.8990478515625;-0.033935546875;1.59999999596039;161;100 mA
74.3251128123471;-0.89935302734375;-0.0338287353515625;1.60999999593514;162;100 mA
74.3351128123219;-0.8990478515625;-0.033837890625;1.61999999590989;163;100 mA
74.3451128122966;-0.89935302734375;-0.0338165283203125;1.62999999588465;164;100 mA
74.3551128122714;-0.8990478515625;-0.03377685546875;1.6399999958594;165;100 mA
74.3651128122461;-0.89935302734375;-0.0337249755859375;1.64999999583415;166;100 mA
74.3751128122209;-0.899658203125;-0.0337005615234375;1.6599999958089;167;100 mA
74.3851128121956;-0.8990478515625;-0.03365478515625;1.66999999578366;168;100 mA
74.3951128121704;-0.89935302734375;-0.0336761474609375;1.67999999575841;169;100 mA
74.4051128121451;-0.899658203125;-0.0335784912109375;1.68999999573316;170;100 mA
74.4151128121199;-0.89935302734375;-0.0335693359375;1.69999999570791;171;100 mA
74.4251128120947;-0.89996337890625;-0.0335357666015625;1.70999999568267;172;100 mA
74.4351128120694;-0.8990478515625;-0.033502197265625;1.71999999565742;173;100 mA
74.4451128120442;-0.89935302734375;-0.0334716796875;1.72999999563217;174;100 mA
74.4551128120189;-0.89935302734375;-0.033447265625;1.73999999560692;175;100 mA
74.4651128119937;-0.89935302734375;-0.0334228515625;1.74999999558167;176;100 mA
74.4751128119684;-0.899658203125;-0.03345947265625;1.75999999555643;177;100 mA
74.4851128119432;-0.899658203125;-0.033404541015625;1.76999999553118;178;100 mA
74.4951128119179;-0.89935302734375;-0.0334228515625;1.77999999550593;179;100 mA
74.5051128118927;-0.89874267578125;-0.0334228515625;1.78999999548068;180;100 mA
74.5151128118674;-0.89935302734375;-0.0334014892578125;1.79999999545544;181;100 mA
74.5251128118422;-0.899658203125;-0.0333953857421875;1.80999999543019;182;100 mA
74.5351128118169;-0.89874267578125;-0.0334320068359375;1.81999999540494;183;100 mA
74.5451128117917;-0.899658203125;-0.0333953857421875;1.82999999537969;184;100 mA
74.5551128117664;-0.89935302734375;-0.033465576171875;1.83999999535445;185;100 mA
74.5651128117412;-0.899658203125;-0.0333892822265625;1.8499999953292;186;100 mA
74.5751128117159;-0.899658203125;-0.0334197998046875;1.85999999530395;187;100 mA
74.5851128116907;-0.899658203125;-0.0334381103515625;1.8699999952787;188;100 mA
74.5951128116654;-0.899658203125;-0.0334259033203125;1.87999999525346;189;100 mA
74.6051128116402;-0.89935302734375;-0.033404541015625;1.88999999522821;190;100 mA
74.6151128116149;-0.89935302734375;-0.0334014892578125;1.89999999520296;191;100 mA
74.6251128115897;-0.899658203125;-0.03333740234375;1.90999999517771;192;100 mA
74.6351128115645;-0.89935302734375;-0.0333892822265625;1.91999999515247;193;100 mA
74.6451128115392;-0.89935302734375;-0.03328857421875;1.92999999512722;194;100 mA
74.655112811514;-0.899658203125;-0.03326416015625;1.93999999510197;195;100 mA
74.6651128114887;-0.8990478515625;-0.033251953125;1.94999999507672;196;100 mA
74.6751128114635;-0.89935302734375;-0.0332000732421875;1.95999999505148;197;100 mA
74.6851128114382;-0.89935302734375;-0.03316650390625;1.96999999502623;198;100 mA
74.695112811413;-0.89935302734375;-0.033135986328125;1.97999999500098;199;100 mA
74.7051128113877;-0.8990478515625;-0.0330657958984375;1.98999999497573;200;100 mA
74.7151128113625;-0.89996337890625;-0.0331024169921875;1.99999999495049;201;100 mA
74.7251128113372;-0.89935302734375;-0.032989501953125;2.00999999492524;202;100 mA
74.735112811312;-0.8990478515625;-0.0329986572265625;2.01999999489999;203;100 mA
74.7451128112867;-0.8990478515625;-0.0329559326171875;2.02999999487474;204;100 mA
74.7551128112615;-0.89935302734375;-0.032904052734375;2.0399999948495;205;100 mA
74.7651128112362;-0.899658203125;-0.0328582763671875;2.04999999482425;206;100 mA
74.775112811211;-0.899658203125;-0.0328094482421875;2.059999994799;207;100 mA
74.7851128111857;-0.8990478515625;-0.032769775390625;2.06999999477375;208;100 mA
74.7951128111605;-0.899658203125;-0.032769775390625;2.0799999947485;209;100 mA
74.8051128111352;-0.89935302734375;-0.0326568603515625;2.08999999472326;210;100 mA
74.81511281111;-0.8990478515625;-0.032623291015625;2.09999999469801;211;100 mA
74.8251128110848;-0.8990478515625;-0.03260498046875;2.10999999467276;212;100 mA
74.8351128110595;-0.9002685546875;-0.0325714111328125;2.11999999464751;213;100 mA
74.8451128110343;-0.89935302734375;-0.0325103759765625;2.12999999462227;214;100 mA
74.855112811009;-0.89935302734375;-0.0324859619140625;2.13999999459702;215;100 mA
74.8651128109838;-0.899658203125;-0.03245849609375;2.14999999457177;216;100 mA
74.8751128109585;-0.899658203125;-0.0324859619140625;2.15999999454652;217;100 mA
74.8851128109333;-0.89874267578125;-0.032403564453125;2.16999999452128;218;100 mA
74.895112810908;-0.89874267578125;-0.0324005126953125;2.17999999449603;219;100 mA
74.9051128108828;-0.89935302734375;-0.0323974609375;2.18999999447078;220;100 mA
74.9151128108575;-0.89935302734375;-0.032366943359375;2.19999999444553;221;100 mA
74.9251128108323;-0.89996337890625;-0.0323272705078125;2.20999999442029;222;100 mA
74.935112810807;-0.89935302734375;-0.0323333740234375;2.21999999439504;223;100 mA
74.9451128107818;-0.899658203125;-0.032275390625;2.22999999436979;224;100 mA
74.9551128107565;-0.89935302734375;-0.03233642578125;2.23999999434454;225;100 mA
74.9651128107313;-0.89935302734375;-0.0322357177734375;2.2499999943193;226;100 mA
74.975112810706;-0.899658203125;-0.032257080078125;2.25999999429405;227;100 mA
74.9851128106808;-0.89935302734375;-0.0322662353515625;2.2699999942688;228;100 mA
74.9951128106555;-0.899658203125;-0.0322601318359375;2.27999999424355;229;100 mA
75.0051128106303;-0.8990478515625;-0.0322052001953125;2.28999999421831;230;100 mA
75.015112810605;-0.89874267578125;-0.032208251953125;2.29999999419306;231;100 mA
75.0251128105798;-0.8990478515625;-0.0321624755859375;2.30999999416781;232;100 mA
75.0351128105546;-0.89935302734375;-0.032208251953125;2.31999999414256;233;100 mA
75.0451128105293;-0.899658203125;-0.0321075439453125;2.32999999411732;234;100 mA
75.0551128105041;-0.89996337890625;-0.0321014404296875;2.33999999409207;235;100 mA
75.0651128104788;-0.8990478515625;-0.0321014404296875;2.34999999406682;236;100 mA
75.0751128104536;-0.8990478515625;-0.032061767578125;2.35999999404157;237;100 mA
75.0851128104283;-0.8990478515625;-0.032037353515625;2.36999999401633;238;100 mA
75.0951128104031;-0.89935302734375;-0.03204345703125;2.37999999399108;239;100 mA
75.1051128103778;-0.89935302734375;-0.03201904296875;2.38999999396583;240;100 mA
75.1151128103526;-0.89935302734375;-0.0320587158203125;2.39999999394058;241;100 mA
75.1251128103273;-0.899658203125;-0.031982421875;2.40999999391533;242;100 mA
75.1351128103021;-0.89935302734375;-0.0320098876953125;2.41999999389009;243;100 mA
75.1451128102768;-0.8990478515625;-0.0320037841796875;2.42999999386484;244;100 mA
75.1551128102516;-0.8990478515625;-0.03197021484375;2.43999999383959;245;100 mA
75.1651128102263;-0.89935302734375;-0.0319488525390625;2.44999999381434;246;100 mA
75.1751128102011;-0.899658203125;-0.0319244384765625;2.4599999937891;247;100 mA
75.1851128101758;-0.8990478515625;-0.0318939208984375;2.46999999376385;248;100 mA
75.1951128101506;-0.899658203125;-0.0319183349609375;2.4799999937386;249;100 mA
75.2051128101253;-0.89996337890625;-0.031842041015625;2.48999999371335;250;100 mA
75.2151128101001;-0.89996337890625;-0.031842041015625;2.49999999368811;251;100 mA
75.2251128100748;-0.8990478515625;-0.0318206787109375;2.50999999366286;252;100 mA
75.2351128100496;-0.899658203125;-0.0318115234375;2.51999999363761;253;100 mA
75.2451128100244;-0.8990478515625;-0.0317718505859375;2.52999999361236;254;100 mA
75.2551128099991;-0.899658203125;-0.031756591796875;2.53999999358712;255;100 mA
75.2651128099739;-0.8990478515625;-0.0317230224609375;2.54999999356187;256;100 mA
75.2751128099486;-0.8990478515625;-0.031768798828125;2.55999999353662;257;100 mA
75.2851128099234;-0.8990478515625;-0.03170166015625;2.56999999351137;258;100 mA
75.2951128098981;-0.899658203125;-0.0317108154296875;2.57999999348613;259;100 mA
75.3051128098729;-0.89935302734375;-0.0316925048828125;2.58999999346088;260;100 mA
75.3151128098476;-0.8990478515625;-0.031689453125;2.59999999343563;261;100 mA
75.3251128098224;-0.89935302734375;-0.031658935546875;2.60999999341038;262;100 mA
75.3351128097971;-0.89935302734375;-0.0316741943359375;2.61999999338514;263;100 mA
75.3451128097719;-0.899658203125;-0.031634521484375;2.62999999335989;264;100 mA
75.3551128097466;-0.8990478515625;-0.031707763671875;2.63999999333464;265;100 mA
75.3651128097214;-0.8990478515625;-0.031622314453125;2.64999999330939;266;100 mA
75.3751128096961;-0.8990478515625;-0.03167724609375;2.65999999328415;267;100 mA
75.3851128096709;-0.899658203125;-0.031683349609375;2.6699999932589;268;100 mA
75.3951128096456;-0.899658203125;-0.0316619873046875;2.67999999323365;269;100 mA
75.4051128096204;-0.8990478515625;-0.0316131591796875;2.6899999932084;270;100 mA
75.4151128095951;-0.89935302734375;-0.0316162109375;2.69999999318316;271;100 mA
75.4251128095699;-0.8990478515625;-0.0315765380859375;2.70999999315791;272;100 mA
75.4351128095446;-0.899658203125;-0.0316162109375;2.71999999313266;273;100 mA
75.4451128095194;-0.8990478515625;-0.0315277099609375;2.72999999310741;274;100 mA
75.4551128094942;-0.89935302734375;-0.03153076171875;2.73999999308217;275;100 mA
75.4651128094689;-0.89996337890625;-0.031536865234375;2.74999999305692;276;100 mA
75.4751128094437;-0.899658203125;-0.031524658203125;2.75999999303167;277;100 mA
75.4851128094184;-0.89935302734375;-0.03150634765625;2.76999999300642;278;100 mA
75.4951128093932;-0.8990478515625;-0.0315216064453125;2.77999999298117;279;100 mA
75.5051128093679;-0.8984375;-0.03150634765625;2.78999999295593;280;100 mA
75.5151128093427;-0.89935302734375;-0.0315704345703125;2.79999999293068;281;100 mA
75.5251128093174;-0.8990478515625;-0.03150634765625;2.80999999290543;282;100 mA
75.5351128092922;-0.8990478515625;-0.0315277099609375;2.81999999288018;283;100 mA
75.5451128092669;-0.89935302734375;-0.0315155029296875;2.82999999285494;284;100 mA
75.5551128092417;-0.8990478515625;-0.031494140625;2.83999999282969;285;100 mA
75.5651128092164;-0.89935302734375;-0.0314971923828125;2.84999999280444;286;100 mA
75.5751128091912;-0.8990478515625;-0.0315032958984375;2.85999999277919;287;100 mA
75.5851128091659;-0.899658203125;-0.0314971923828125;2.86999999275395;288;100 mA
75.5951128091407;-0.89935302734375;-0.03154296875;2.8799999927287;289;100 mA
75.6051128091154;-0.8990478515625;-0.0314666748046875;2.88999999270345;290;100 mA
75.6151128090902;-0.899658203125;-0.031463623046875;2.8999999926782;291;100 mA
75.6251128090649;-0.899658203125;-0.0314605712890625;2.90999999265296;292;100 mA
75.6351128090397;-0.899658203125;-0.0314422607421875;2.91999999262771;293;100 mA
75.6451128090144;-0.8990478515625;-0.0313995361328125;2.92999999260246;294;100 mA
75.6551128089892;-0.89935302734375;-0.0313995361328125;2.93999999257721;295;100 mA
75.665112808964;-0.899658203125;-0.031378173828125;2.94999999255197;296;100 mA
75.6751128089387;-0.89874267578125;-0.0314239501953125;2.95999999252672;297;100 mA
75.6851128089135;-0.89996337890625;-0.0313568115234375;2.96999999250147;298;100 mA
75.6951128088882;-0.89935302734375;-0.0313751220703125;2.97999999247622;299;100 mA
75.705112808863;-0.899658203125;-0.031378173828125;2.98999999245098;300;100 mA
75.7151128088377;-0.89935302734375;-0.0313873291015625;2.99999999242573;301;100 mA
75.7251128088125;-0.89996337890625;-0.0313568115234375;3.00999999240048;302;100 mA
75.7351128087872;-0.8990478515625;-0.0313873291015625;3.01999999237523;303;100 mA
75.745112808762;-0.89935302734375;-0.0313446044921875;3.02999999234999;304;100 mA
75.7551128087367;-0.89935302734375;-0.0314239501953125;3.03999999232474;305;100 mA
75.7651128087115;-0.89874267578125;-0.0313568115234375;3.04999999229949;306;100 mA
75.7751128086862;-0.89996337890625;-0.0313934326171875;3.05999999227424;307;100 mA
75.785112808661;-0.89935302734375;-0.03140869140625;3.069999992249;308;100 mA
75.7951128086357;-0.8990478515625;-0.03140869140625;3.07999999222375;309;100 mA
75.8051128086105;-0.89935302734375;-0.0313812255859375;3.0899999921985;310;100 mA
75.8151128085852;-0.89935302734375;-0.031414794921875;3.09999999217325;311;100 mA
75.82511280856;-0.8990478515625;-0.0313873291015625;3.109999992148;312;100 mA
75.8351128085347;-0.899658203125;-0.0314544677734375;3.11999999212276;313;100 mA
75.8451128085095;-0.89935302734375;-0.031365966796875;3.12999999209751;314;100 mA
75.8551128084843;-0.89935302734375;-0.0313751220703125;3.13999999207226;315;100 mA
75.865112808459;-0.8990478515625;-0.0313934326171875;3.14999999204701;316;100 mA
75.8751128084338;-0.89935302734375;-0.031378173828125;3.15999999202177;317;100 mA
75.8851128084085;-0.89935302734375;-0.031402587890625;3.16999999199652;318;100 mA
75.8951128083833;-0.899658203125;-0.0314178466796875;3.17999999197127;319;100 mA
75.905112808358;-0.899658203125;-0.03143310546875;3.18999999194602;320;100 mA
75.9151128083328;-0.899658203125;-0.0315155029296875;3.19999999192078;321;100 mA
75.9251128083075;-0.899658203125;-0.0314788818359375;3.20999999189553;322;100 mA
75.9351128082823;-0.8990478515625;-0.031536865234375;3.21999999187028;323;100 mA
75.945112808257;-0.89935302734375;-0.03157958984375;3.22999999184503;324;100 mA
75.9551128082318;-0.89935302734375;-0.031591796875;3.23999999181979;325;100 mA
75.9651128082065;-0.899658203125;-0.03162841796875;3.24999999179454;326;100 mA
75.9751128081813;-0.89935302734375;-0.0316650390625;3.25999999176929;327;100 mA
75.985112808156;-0.899658203125;-0.03167724609375;3.26999999174404;328;100 mA
75.9951128081308;-0.89935302734375;-0.0317352294921875;3.2799999917188;329;100 mA
76.0051128081055;-0.899658203125;-0.0316925048828125;3.28999999169355;330;100 mA
76.0151128080803;-0.8990478515625;-0.0317169189453125;3.2999999916683;331;100 mA
76.025112808055;-0.89935302734375;-0.031756591796875;3.30999999164305;332;100 mA
76.0351128080298;-0.899658203125;-0.03177490234375;3.31999999161781;333;100 mA
76.0451128080045;-0.89996337890625;-0.0317718505859375;3.32999999159256;334;100 mA
76.0551128079793;-0.8990478515625;-0.0317962646484375;3.33999999156731;335;100 mA
76.0651128079541;-0.8990478515625;-0.031805419921875;3.34999999154206;336;100 mA
76.0751128079288;-0.899658203125;-0.031890869140625;3.35999999151682;337;100 mA
76.0851128079036;-0.89874267578125;-0.03184814453125;3.36999999149157;338;100 mA
76.0951128078783;-0.89935302734375;-0.03189697265625;3.37999999146632;339;100 mA
76.1051128078531;-0.89935302734375;-0.031939697265625;3.38999999144107;340;100 mA
76.1151128078278;-0.89935302734375;-0.032000732421875;3.39999999141583;341;100 mA
76.1251128078026;-0.899658203125;-0.031988525390625;3.40999999139058;342;100 mA
76.1351128077773;-0.899658203125;-0.0320709228515625;3.41999999136533;343;100 mA
76.1451128077521;-0.89935302734375;-0.03204345703125;3.42999999134008;344;100 mA
76.1551128077268;-0.89935302734375;-0.0321868896484375;3.43999999131483;345;100 mA
76.1651128077016;-0.89935302734375;-0.03214111328125;3.44999999128959;346;100 mA
76.1751128076763;-0.8990478515625;-0.0322052001953125;3.45999999126434;347;100 mA
76.1851128076511;-0.89874267578125;-0.0322418212890625;3.46999999123909;348;100 mA
76.1951128076258;-0.899658203125;-0.032275390625;3.47999999121384;349;100 mA
76.2051128076006;-0.8990478515625;-0.032275390625;3.4899999911886;350;100 mA
76.2151128075753;-0.8990478515625;-0.03232421875;3.49999999116335;351;100 mA
76.2251128075501;-0.89935302734375;-0.0323150634765625;3.5099999911381;352;100 mA
76.2351128075248;-0.8990478515625;-0.0324005126953125;3.51999999111285;353;100 mA
76.2451128074996;-0.89935302734375;-0.0323272705078125;3.52999999108761;354;100 mA
76.2551128074743;-0.8990478515625;-0.032366943359375;3.53999999106236;355;100 mA
76.2651128074491;-0.899658203125;-0.0324066162109375;3.54999999103711;356;100 mA
76.2751128074239;-0.8990478515625;-0.0324127197265625;3.55999999101186;357;100 mA
76.2851128073986;-0.89935302734375;-0.032427978515625;3.56999999098662;358;100 mA
76.2951128073734;-0.8990478515625;-0.032464599609375;3.57999999096137;359;100 mA
76.3051128073481;-0.899658203125;-0.0325042724609375;3.58999999093612;360;100 mA
76.3151128073229;-0.89935302734375;-0.03258056640625;3.59999999091087;361;100 mA
76.3251128072976;-0.89996337890625;-0.0325714111328125;3.60999999088563;362;100 mA
76.3351128072724;-0.899658203125;-0.0326171875;3.61999999086038;363;100 mA
76.3451128072471;-0.89935302734375;-0.0326568603515625;3.62999999083513;364;100 mA
76.3551128072219;-0.899658203125;-0.032666015625;3.63999999080988;365;100 mA
76.3651128071966;-0.8990478515625;-0.03270263671875;3.64999999078464;366;100 mA
76.3751128071714;-0.89935302734375;-0.0327545166015625;3.65999999075939;367;100 mA
76.3851128071461;-0.89935302734375;-0.03280029296875;3.66999999073414;368;100 mA
76.3951128071209;-0.9002685546875;-0.0328887939453125;3.67999999070889;369;100 mA
76.4051128070956;-0.899658203125;-0.032855224609375;3.68999999068365;370;100 mA
76.4151128070704;-0.8990478515625;-0.0329010009765625;3.6999999906584;371;100 mA
76.4251128070451;-0.89935302734375;-0.0329620361328125;3.70999999063315;372;100 mA
76.4351128070199;-0.8990478515625;-0.03299560546875;3.7199999906079;373;100 mA
76.4451128069946;-0.89935302734375;-0.0330047607421875;3.72999999058266;374;100 mA
76.4551128069694;-0.89935302734375;-0.033062744140625;3.73999999055741;375;100 mA
76.4651128069441;-0.89996337890625;-0.033087158203125;3.74999999053216;376;100 mA
76.4751128069189;-0.89935302734375;-0.0331787109375;3.75999999050691;377;100 mA
76.4851128068937;-0.89935302734375;-0.0331695556640625;3.76999999048167;378;100 mA
76.4951128068684;-0.899658203125;-0.0332275390625;3.77999999045642;379;100 mA
76.5051128068432;-0.8990478515625;-0.033258056640625;3.78999999043117;380;100 mA
76.5151128068179;-0.89874267578125;-0.0333465576171875;3.79999999040592;381;100 mA
76.5251128067927;-0.8990478515625;-0.033349609375;3.80999999038067;382;100 mA
76.5351128067674;-0.899658203125;-0.0334442138671875;3.81999999035543;383;100 mA
76.5451128067422;-0.8990478515625;-0.0334503173828125;3.82999999033018;384;100 mA
76.5551128067169;-0.89935302734375;-0.033599853515625;3.83999999030493;385;100 mA
76.5651128066917;-0.89935302734375;-0.0335723876953125;3.84999999027968;386;100 mA
76.5751128066664;-0.89935302734375;-0.0336181640625;3.85999999025444;387;100 mA
76.5851128066412;-0.89935302734375;-0.033648681640625;3.86999999022919;388;100 mA
76.5951128066159;-0.89935302734375;-0.0336700439453125;3.87999999020394;389;100 mA
76.6051128065907;-0.89935302734375;-0.033673095703125;3.88999999017869;390;100 mA
76.6151128065654;-0.89935302734375;-0.03372802734375;3.89999999015345;391;100 mA
76.6251128065402;-0.899658203125;-0.0337310791015625;3.9099999901282;392;100 mA
76.6351128065149;-0.899658203125;-0.0338165283203125;3.91999999010295;393;100 mA
76.6451128064897;-0.8990478515625;-0.033758544921875;3.9299999900777;394;100 mA
76.6551128064644;-0.8990478515625;-0.0337860107421875;3.93999999005246;395;100 mA
76.6651128064392;-0.89935302734375;-0.03382568359375;3.94999999002721;396;100 mA
76.6751128064139;-0.89935302734375;-0.033819580078125;3.95999999000196;397;100 mA
76.6851128063887;-0.8990478515625;-0.0338287353515625;3.96999998997671;398;100 mA
76.6951128063635;-0.8990478515625;-0.0338653564453125;3.97999998995147;399;100 mA
76.7051128063382;-0.89935302734375;-0.033905029296875;3.98999998992622;400;100 mA
76.715112806313;-0.89935302734375;-0.034002685546875;3.99999998990097;401;100 mA
76.7251128062877;-0.89935302734375;-0.0339691162109375;4.00999998987572;402;100 mA
76.7351128062625;-0.89935302734375;-0.034027099609375;4.01999998985048;403;100 mA
76.7451128062372;-0.899658203125;-0.0340423583984375;4.02999998982523;404;100 mA
76.755112806212;-0.8990478515625;-0.0340789794921875;4.03999998979998;405;100 mA
76.7651128061867;-0.89935302734375;-0.034100341796875;4.04999998977473;406;100 mA
76.7751128061615;-0.89874267578125;-0.0341644287109375;4.05999998974949;407;100 mA
76.7851128061362;-0.8990478515625;-0.0341888427734375;4.06999998972424;408;100 mA
76.795112806111;-0.89935302734375;-0.0342529296875;4.07999998969899;409;100 mA
76.8051128060857;-0.8990478515625;-0.0341949462890625;4.08999998967374;410;100 mA
76.8151128060605;-0.8990478515625;-0.0342376708984375;4.0999999896485;411;100 mA
76.8251128060352;-0.899658203125;-0.0342559814453125;4.10999998962325;412;100 mA
76.83511280601;-0.8990478515625;-0.034259033203125;4.119999989598;413;100 mA
76.8451128059847;-0.899658203125;-0.0342437744140625;4.12999998957275;414;100 mA
76.8551128059595;-0.899658203125;-0.034283447265625;4.1399999895475;415;100 mA
76.8651128059342;-0.89935302734375;-0.034271240234375;4.14999998952226;416;100 mA
76.875112805909;-0.8990478515625;-0.034332275390625;4.15999998949701;417;100 mA
76.8851128058838;-0.89935302734375;-0.0342864990234375;4.16999998947176;418;100 mA
76.8951128058585;-0.89935302734375;-0.0343170166015625;4.17999998944651;419;100 mA
76.9051128058333;-0.89935302734375;-0.0343414306640625;4.18999998942127;420;100 mA
76.915112805808;-0.899658203125;-0.0343475341796875;4.19999998939602;421;100 mA
76.9251128057828;-0.8990478515625;-0.034326171875;4.20999998937077;422;100 mA
76.9351128057575;-0.899658203125;-0.0343658447265625;4.21999998934552;423;100 mA
76.9451128057323;-0.89935302734375;-0.03436279296875;4.22999998932028;424;100 mA
76.955112805707;-0.89935302734375;-0.0344268798828125;4.23999998929503;425;100 mA
76.9651128056818;-0.89935302734375;-0.0343780517578125;4.24999998926978;426;100 mA
76.9751128056565;-0.89935302734375;-0.03436279296875;4.25999998924453;427;100 mA
76.9851128056313;-0.89935302734375;-0.0343536376953125;4.26999998921929;428;100 mA
76.995112805606;-0.8990478515625;-0.0343170166015625;4.27999998919404;429;100 mA
77.0051128055808;-0.89935302734375;-0.034259033203125;4.28999998916879;430;100 mA
77.0151128055555;-0.899658203125;-0.0342559814453125;4.29999998914354;431;100 mA
77.0251128055303;-0.899658203125;-0.0342041015625;4.3099999891183;432;100 mA
77.035112805505;-0.899658203125;-0.034228515625;4.31999998909305;433;100 mA
77.0451128054798;-0.899658203125;-0.034112548828125;4.3299999890678;434;100 mA
77.0551128054545;-0.89935302734375;-0.034075927734375;4.33999998904255;435;100 mA
77.0651128054293;-0.8990478515625;-0.0340423583984375;4.34999998901731;436;100 mA
77.075112805404;-0.899658203125;-0.033978271484375;4.35999998899206;437;100 mA
77.0851128053788;-0.89935302734375;-0.0339263916015625;4.36999998896681;438;100 mA
77.0951128053536;-0.8990478515625;-0.033905029296875;4.37999998894156;439;100 mA
77.1051128053283;-0.89935302734375;-0.0338714599609375;4.38999998891632;440;100 mA
77.1151128053031;-0.89935302734375;-0.033892822265625;4.39999998889107;441;100 mA
77.1251128052778;-0.8990478515625;-0.0338134765625;4.40999998886582;442;100 mA
77.1351128052526;-0.89935302734375;-0.0337921142578125;4.41999998884057;443;100 mA
77.1451128052273;-0.899658203125;-0.03375244140625;4.42999998881533;444;100 mA
77.1551128052021;-0.89935302734375;-0.0337188720703125;4.43999998879008;445;100 mA
77.1651128051768;-0.89874267578125;-0.0336700439453125;4.44999998876483;446;100 mA
77.1751128051516;-0.89935302734375;-0.0336517333984375;4.45999998873958;447;100 mA
77.1851128051263;-0.89935302734375;-0.033624267578125;4.46999998871433;448;100 mA
77.1951128051011;-0.8990478515625;-0.0336456298828125;4.47999998868909;449;100 mA
77.2051128050758;-0.899658203125;-0.0335357666015625;4.48999998866384;450;100 mA
77.2151128050506;-0.89935302734375;-0.033514404296875;4.49999998863859;451;100 mA
77.2251128050253;-0.89935302734375;-0.033489990234375;4.50999998861334;452;100 mA
77.2351128050001;-0.89935302734375;-0.0334625244140625;4.5199999885881;453;100 mA
77.2451128049748;-0.8990478515625;-0.0333831787109375;4.52999998856285;454;100 mA
77.2551128049496;-0.899658203125;-0.0333740234375;4.5399999885376;455;100 mA
77.2651128049243;-0.89935302734375;-0.033331298828125;4.54999998851235;456;100 mA
77.2751128048991;-0.8990478515625;-0.0333648681640625;4.55999998848711;457;100 mA
77.2851128048738;-0.89935302734375;-0.033294677734375;4.56999998846186;458;100 mA
77.2951128048486;-0.899658203125;-0.033270263671875;4.57999998843661;459;100 mA
77.3051128048234;-0.89935302734375;-0.0332672119140625;4.58999998841136;460;100 mA
77.3151128047981;-0.89935302734375;-0.033282470703125;4.59999998838612;461;100 mA
77.3251128047729;-0.89935302734375;-0.0332244873046875;4.60999998836087;462;100 mA
77.3351128047476;-0.89935302734375;-0.033270263671875;4.61999998833562;463;100 mA
77.3451128047224;-0.89935302734375;-0.0332305908203125;4.62999998831037;464;100 mA
77.3551128046971;-0.8990478515625;-0.033306884765625;4.63999998828513;465;100 mA
77.3651128046719;-0.89935302734375;-0.0332366943359375;4.64999998825988;466;100 mA
77.3751128046466;-0.89935302734375;-0.033221435546875;4.65999998823463;467;100 mA
77.3851128046214;-0.89935302734375;-0.0332000732421875;4.66999998820938;468;100 mA
77.3951128045961;-0.89935302734375;-0.0331573486328125;4.67999998818414;469;100 mA
77.4051128045709;-0.89935302734375;-0.0330902099609375;4.68999998815889;470;100 mA
77.4151128045456;-0.89935302734375;-0.03306884765625;4.69999998813364;471;100 mA
77.4251128045204;-0.8990478515625;-0.033001708984375;4.70999998810839;472;100 mA
77.4351128044951;-0.899658203125;-0.0330078125;4.71999998808315;473;100 mA
77.4451128044699;-0.899658203125;-0.032891845703125;4.7299999880579;474;100 mA
77.4551128044446;-0.8990478515625;-0.03284912109375;4.73999998803265;475;100 mA
77.4651128044194;-0.89996337890625;-0.0328521728515625;4.7499999880074;476;100 mA
77.4751128043941;-0.89935302734375;-0.0327667236328125;4.75999998798216;477;100 mA
77.4851128043689;-0.899658203125;-0.032708740234375;4.76999998795691;478;100 mA
77.4951128043436;-0.89935302734375;-0.032659912109375;4.77999998793166;479;100 mA
77.5051128043184;-0.8990478515625;-0.0326263427734375;4.78999998790641;480;100 mA
77.5151128042932;-0.899658203125;-0.0326416015625;4.79999998788116;481;100 mA
77.5251128042679;-0.9002685546875;-0.032537841796875;4.80999998785592;482;100 mA
77.5351128042427;-0.899658203125;-0.032513427734375;4.81999998783067;483;100 mA
77.5451128042174;-0.89935302734375;-0.032489013671875;4.82999998780542;484;100 mA
77.5551128041922;-0.89935302734375;-0.03243408203125;4.83999998778017;485;100 mA
77.5651128041669;-0.9002685546875;-0.032403564453125;4.84999998775493;486;100 mA
77.5751128041417;-0.899658203125;-0.032379150390625;4.85999998772968;487;100 mA
77.5851128041164;-0.899658203125;-0.0323486328125;4.86999998770443;488;100 mA
77.5951128040912;-0.89935302734375;-0.0323944091796875;4.87999998767918;489;100 mA
77.6051128040659;-0.89874267578125;-0.0323089599609375;4.88999998765394;490;100 mA
77.6151128040407;-0.89874267578125;-0.03231201171875;4.89999998762869;491;100 mA
77.6251128040154;-0.89935302734375;-0.032305908203125;4.90999998760344;492;100 mA
77.6351128039902;-0.89935302734375;-0.0323272705078125;4.91999998757819;493;100 mA
77.6451128039649;-0.899658203125;-0.032257080078125;4.92999998755295;494;100 mA
77.6551128039397;-0.899658203125;-0.032269287109375;4.9399999875277;495;100 mA
77.6651128039144;-0.8990478515625;-0.032244873046875;4.94999998750245;496;100 mA
77.6751128038892;-0.8990478515625;-0.0322967529296875;4.9599999874772;497;100 mA
77.6851128038639;-0.89935302734375;-0.0322418212890625;4.96999998745196;498;100 mA
77.6951128038387;-0.8990478515625;-0.0322174072265625;4.97999998742671;499;100 mA
77.7051128038134;-0.89935302734375;-0.0322265625;4.98999998740146;500;100 mA
77.7151128037882;-0.899658203125;-0.0322296142578125;4.99999998737621;501;100 mA
77.725112803763;-0.899658203125;-0.0321868896484375;5.00999998735097;502;100 mA
77.7351128037377;-0.89935302734375;-0.0322174072265625;5.01999998732572;503;100 mA
77.7451128037125;-0.89935302734375;-0.032183837890625;5.02999998730047;504;100 mA
77.7551128036872;-0.8990478515625;-0.032232666015625;5.03999998727522;505;100 mA
77.765112803662;-0.89935302734375;-0.0321563720703125;5.04999998724998;506;100 mA
77.7751128036367;-0.899658203125;-0.0321502685546875;5.05999998722473;507;100 mA
77.7851128036115;-0.89935302734375;-0.0321197509765625;5.06999998719948;508;100 mA
77.7951128035862;-0.89935302734375;-0.032073974609375;5.07999998717423;509;100 mA
77.805112803561;-0.89935302734375;-0.03203125;5.08999998714899;510;100 mA
77.8151128035357;-0.899658203125;-0.032049560546875;5.09999998712374;511;100 mA
77.8251128035105;-0.899658203125;-0.032025146484375;5.10999998709849;512;100 mA
77.8351128034852;-0.89935302734375;-0.0320709228515625;5.11999998707324;513;100 mA
77.84511280346;-0.89935302734375;-0.0319915771484375;5.129999987048;514;100 mA
77.8551128034347;-0.89935302734375;-0.0319976806640625;5.13999998702275;515;100 mA
77.8651128034095;-0.89935302734375;-0.0320098876953125;5.1499999869975;516;100 mA
77.8751128033842;-0.89935302734375;-0.032025146484375;5.15999998697225;517;100 mA
77.885112803359;-0.89935302734375;-0.031976318359375;5.169999986947;518;100 mA
77.8951128033337;-0.899658203125;-0.031982421875;5.17999998692176;519;100 mA
77.9051128033085;-0.89935302734375;-0.031976318359375;5.18999998689651;520;100 mA
77.9151128032833;-0.9002685546875;-0.032025146484375;5.19999998687126;521;100 mA
77.925112803258;-0.899658203125;-0.031927490234375;5.20999998684601;522;100 mA
77.9351128032328;-0.89996337890625;-0.0319122314453125;5.21999998682077;523;100 mA
77.9451128032075;-0.899658203125;-0.03187255859375;5.22999998679552;524;100 mA
77.9551128031823;-0.89935302734375;-0.031842041015625;5.23999998677027;525;100 mA
77.965112803157;-0.89874267578125;-0.0317840576171875;5.24999998674502;526;100 mA
77.9751128031318;-0.8990478515625;-0.0317779541015625;5.25999998671978;527;100 mA
77.9851128031065;-0.8990478515625;-0.031732177734375;5.26999998669453;528;100 mA
77.9951128030813;-0.8990478515625;-0.031805419921875;5.27999998666928;529;100 mA
78.005112803056;-0.89874267578125;-0.031719970703125;5.28999998664403;530;100 mA
78.0151128030308;-0.89996337890625;-0.0317474365234375;5.29999998661879;531;100 mA
78.0251128030055;-0.89874267578125;-0.03173828125;5.30999998659354;532;100 mA
78.0351128029803;-0.8990478515625;-0.0317596435546875;5.31999998656829;533;100 mA
78.045112802955;-0.89874267578125;-0.0317230224609375;5.32999998654304;534;100 mA
78.0551128029298;-0.89935302734375;-0.0317626953125;5.3399999865178;535;100 mA
78.0651128029045;-0.899658203125;-0.0317779541015625;5.34999998649255;536;100 mA
78.0751128028793;-0.8990478515625;-0.031829833984375;5.3599999864673;537;100 mA
78.085112802854;-0.89935302734375;-0.0317779541015625;5.36999998644205;538;100 mA
78.0951128028288;-0.89935302734375;-0.031781005859375;5.37999998641681;539;100 mA
78.1051128028035;-0.899658203125;-0.0318115234375;5.38999998639156;540;100 mA
78.1151128027783;-0.899658203125;-0.031793212890625;5.39999998636631;541;100 mA
78.1251128027531;-0.899658203125;-0.031744384765625;5.40999998634106;542;100 mA
78.1351128027278;-0.89935302734375;-0.0317596435546875;5.41999998631582;543;100 mA
78.1451128027026;-0.89874267578125;-0.0317474365234375;5.42999998629057;544;100 mA
78.1551128026773;-0.8984375;-0.0317840576171875;5.43999998626532;545;100 mA
78.1651128026521;-0.899658203125;-0.03172607421875;5.44999998624007;546;100 mA
78.1751128026268;-0.9002685546875;-0.03173828125;5.45999998621483;547;100 mA
78.1851128026016;-0.8990478515625;-0.0317352294921875;5.46999998618958;548;100 mA
78.1951128025763;-0.89996337890625;-0.0317230224609375;5.47999998616433;549;100 mA
78.2051128025511;-0.89935302734375;-0.0316925048828125;5.48999998613908;550;100 mA
78.2151128025258;-0.89935302734375;-0.0317138671875;5.49999998611383;551;100 mA
78.2251128025006;-0.89935302734375;-0.031707763671875;5.50999998608859;552;100 mA
78.2351128024753;-0.8990478515625;-0.0317596435546875;5.51999998606334;553;100 mA
78.2451128024501;-0.89935302734375;-0.0316741943359375;5.52999998603809;554;100 mA
78.2551128024248;-0.899658203125;-0.031671142578125;5.53999998601284;555;100 mA
78.2651128023996;-0.8990478515625;-0.031658935546875;5.5499999859876;556;100 mA
78.2751128023743;-0.899658203125;-0.0316375732421875;5.55999998596235;557;100 mA
78.2851128023491;-0.89935302734375;-0.0315826416015625;5.5699999859371;558;100 mA
78.2951128023238;-0.899658203125;-0.0315582275390625;5.57999998591185;559;100 mA
78.3051128022986;-0.89935302734375;-0.0315338134765625;5.58999998588661;560;100 mA
78.3151128022733;-0.899658203125;-0.0315887451171875;5.59999998586136;561;100 mA
78.3251128022481;-0.89935302734375;-0.031494140625;5.60999998583611;562;100 mA
78.3351128022229;-0.89935302734375;-0.0315185546875;5.61999998581086;563;100 mA
78.3451128021976;-0.899658203125;-0.031488037109375;5.62999998578562;564;100 mA
78.3551128021724;-0.89935302734375;-0.031475830078125;5.63999998576037;565;100 mA
78.3651128021471;-0.8990478515625;-0.031402587890625;5.64999998573512;566;100 mA
78.3751128021219;-0.899658203125;-0.0313812255859375;5.65999998570987;567;100 mA
78.3851128020966;-0.89874267578125;-0.031353759765625;5.66999998568463;568;100 mA
78.3951128020714;-0.899658203125;-0.0314056396484375;5.67999998565938;569;100 mA
78.4051128020461;-0.8990478515625;-0.031317138671875;5.68999998563413;570;100 mA
78.4151128020209;-0.89935302734375;-0.0313262939453125;5.69999998560888;571;100 mA
78.4251128019956;-0.899658203125;-0.0312957763671875;5.70999998558364;572;100 mA
78.4351128019704;-0.8990478515625;-0.0312896728515625;5.71999998555839;573;100 mA
78.4451128019451;-0.89935302734375;-0.03123779296875;5.72999998553314;574;100 mA
78.4551128019199;-0.899658203125;-0.0312469482421875;5.73999998550789;575;100 mA
78.4651128018946;-0.89935302734375;-0.0312347412109375;5.74999998548265;576;100 mA
78.4751128018694;-0.899658203125;-0.0312530517578125;5.7599999854574;577;100 mA
78.4851128018441;-0.8990478515625;-0.0311859130859375;5.76999998543215;578;100 mA
78.4951128018189;-0.8990478515625;-0.03116455078125;5.7799999854069;579;100 mA
78.5051128017936;-0.899658203125;-0.0311767578125;5.78999998538166;580;100 mA
78.5151128017684;-0.8990478515625;-0.0311614990234375;5.79999998535641;581;100 mA
78.5251128017431;-0.89935302734375;-0.031103515625;5.80999998533116;582;100 mA
78.5351128017179;-0.8990478515625;-0.031121826171875;5.81999998530591;583;100 mA
78.5451128016927;-0.89935302734375;-0.0311004638671875;5.82999998528066;584;100 mA
78.5551128016674;-0.89935302734375;-0.03114013671875;5.83999998525542;585;100 mA
78.5651128016422;-0.89874267578125;-0.0310760498046875;5.84999998523017;586;100 mA
78.5751128016169;-0.89935302734375;-0.0310546875;5.85999998520492;587;100 mA
78.5851128015917;-0.89935302734375;-0.03104248046875;5.86999998517967;588;100 mA
78.5951128015664;-0.8990478515625;-0.0310028076171875;5.87999998515443;589;100 mA
78.6051128015412;-0.8990478515625;-0.0309600830078125;5.88999998512918;590;100 mA
78.6151128015159;-0.8990478515625;-0.030963134765625;5.89999998510393;591;100 mA
78.6251128014907;-0.89935302734375;-0.03094482421875;5.90999998507868;592;100 mA
78.6351128014654;-0.89935302734375;-0.0309783935546875;5.91999998505344;593;100 mA
78.6451128014402;-0.89996337890625;-0.0308929443359375;5.92999998502819;594;100 mA
78.6551128014149;-0.89935302734375;-0.03089599609375;5.93999998500294;595;100 mA
78.6651128013897;-0.899658203125;-0.0308837890625;5.94999998497769;596;100 mA
78.6751128013644;-0.89935302734375;-0.0308502197265625;5.95999998495245;597;100 mA
78.6851128013392;-0.89935302734375;-0.030816650390625;5.9699999849272;598;100 mA
78.6951128013139;-0.89935302734375;-0.03079833984375;5.97999998490195;599;100 mA
78.7051128012887;-0.89874267578125;-0.0307769775390625;5.9899999848767;600;100 mA
78.7151128012634;-0.899658203125;-0.030816650390625;5.99999998485146;601;100 mA
78.7251128012382;-0.8990478515625;-0.030743408203125;6.00999998482621;602;100 mA
78.7351128012129;-0.899658203125;-0.0307464599609375;6.01999998480096;603;100 mA
78.7451128011877;-0.89935302734375;-0.030712890625;6.02999998477571;604;100 mA
78.7551128011625;-0.89874267578125;-0.0307281494140625;6.03999998475047;605;100 mA
78.7651128011372;-0.8990478515625;-0.0306854248046875;6.04999998472522;606;100 mA
78.775112801112;-0.899658203125;-0.0307037353515625;6.05999998469997;607;100 mA
78.7851128010867;-0.89935302734375;-0.0306976318359375;6.06999998467472;608;100 mA
78.7951128010615;-0.899658203125;-0.0307708740234375;6.07999998464948;609;100 mA
78.8051128010362;-0.89935302734375;-0.0307159423828125;6.08999998462423;610;100 mA
78.815112801011;-0.899658203125;-0.0307373046875;6.09999998459898;611;100 mA
78.8251128009857;-0.89935302734375;-0.0307342529296875;6.10999998457373;612;100 mA
78.8351128009605;-0.8990478515625;-0.0307464599609375;6.11999998454849;613;100 mA
78.8451128009352;-0.89935302734375;-0.0307037353515625;6.12999998452324;614;100 mA
78.85511280091;-0.89935302734375;-0.0307342529296875;6.13999998449799;615;100 mA
78.8651128008847;-0.8990478515625;-0.0307373046875;6.14999998447274;616;100 mA
78.8751128008595;-0.89996337890625;-0.0307891845703125;6.1599999844475;617;100 mA
78.8851128008342;-0.899658203125;-0.0307464599609375;6.16999998442225;618;100 mA
78.895112800809;-0.89935302734375;-0.0307342529296875;6.179999984397;619;100 mA
78.9051128007837;-0.89935302734375;-0.030755615234375;6.18999998437175;620;100 mA
78.9151128007585;-0.8990478515625;-0.0307464599609375;6.1999999843465;621;100 mA
78.9251128007332;-0.89996337890625;-0.0307159423828125;6.20999998432126;622;100 mA
78.935112800708;-0.8990478515625;-0.030743408203125;6.21999998429601;623;100 mA
78.9451128006828;-0.8990478515625;-0.03076171875;6.22999998427076;624;100 mA
78.9551128006575;-0.8990478515625;-0.0308197021484375;6.23999998424551;625;100 mA
78.9651128006323;-0.89935302734375;-0.0307861328125;6.24999998422027;626;100 mA
78.975112800607;-0.899658203125;-0.0307891845703125;6.25999998419502;627;100 mA
78.9851128005818;-0.89935302734375;-0.0307952880859375;6.26999998416977;628;100 mA
78.9951128005565;-0.89935302734375;-0.0307861328125;6.27999998414452;629;100 mA
79.0051128005313;-0.89935302734375;-0.0307525634765625;6.28999998411928;630;100 mA
79.015112800506;-0.8990478515625;-0.03077392578125;6.29999998409403;631;100 mA
79.0251128004808;-0.8990478515625;-0.0307861328125;6.30999998406878;632;100 mA
79.0351128004555;-0.899658203125;-0.0308258056640625;6.31999998404353;633;100 mA
79.0451128004303;-0.899658203125;-0.030755615234375;6.32999998401829;634;100 mA
79.055112800405;-0.8990478515625;-0.030767822265625;6.33999998399304;635;100 mA
79.0651128003798;-0.89935302734375;-0.030780029296875;6.34999998396779;636;100 mA
79.0751128003545;-0.8990478515625;-0.0307586669921875;6.35999998394254;637;100 mA
79.0851128003293;-0.89935302734375;-0.03072509765625;6.3699999839173;638;100 mA
79.095112800304;-0.899658203125;-0.0307464599609375;6.37999998389205;639;100 mA
79.1051128002788;-0.89935302734375;-0.0307159423828125;6.3899999838668;640;100 mA
79.1151128002535;-0.8990478515625;-0.0307861328125;6.39999998384155;641;100 mA
79.1251128002283;-0.89935302734375;-0.0307220458984375;6.40999998381631;642;100 mA
79.135112800203;-0.8990478515625;-0.030731201171875;6.41999998379106;643;100 mA
79.1451128001778;-0.89935302734375;-0.03072509765625;6.42999998376581;644;100 mA
79.1551128001526;-0.89935302734375;-0.030755615234375;6.43999998374056;645;100 mA
79.1651128001273;-0.899658203125;-0.030706787109375;6.44999998371532;646;100 mA
79.1751128001021;-0.89935302734375;-0.0307708740234375;6.45999998369007;647;100 mA
79.1851128000768;-0.89874267578125;-0.0307464599609375;6.46999998366482;648;100 mA
79.1951128000516;-0.89935302734375;-0.030853271484375;6.47999998363957;649;100 mA
79.2051128000263;-0.89996337890625;-0.0307830810546875;6.48999998361433;650;100 mA
79.2151128000011;-0.89935302734375;-0.030816650390625;6.49999998358908;651;100 mA
79.2251127999758;-0.89935302734375;-0.0308013916015625;6.50999998356383;652;100 mA
79.2351127999506;-0.899658203125;-0.030841064453125;6.51999998353858;653;100 mA
79.2451127999253;-0.8990478515625;-0.0308013916015625;6.52999998351333;654;100 mA
79.2551127999001;-0.899658203125;-0.03084716796875;6.53999998348809;655;100 mA
79.2651127998748;-0.89935302734375;-0.03084716796875;6.54999998346284;656;100 mA
79.2751127998496;-0.89935302734375;-0.0309173583984375;6.55999998343759;657;100 mA
79.2851127998243;-0.8990478515625;-0.03087158203125;6.56999998341234;658;100 mA
79.2951127997991;-0.89874267578125;-0.03087158203125;6.5799999833871;659;100 mA
79.3051127997738;-0.899658203125;-0.03095703125;6.58999998336185;660;100 mA
79.3151127997486;-0.89935302734375;-0.0309173583984375;6.5999999833366;661;100 mA
79.3251127997233;-0.8990478515625;-0.0308837890625;6.60999998331135;662;100 mA
79.3351127996981;-0.8990478515625;-0.03089599609375;6.61999998328611;663;100 mA
79.3451127996728;-0.8990478515625;-0.03089599609375;6.62999998326086;664;100 mA
79.3551127996476;-0.899658203125;-0.0309295654296875;6.63999998323561;665;100 mA
79.3651127996224;-0.89935302734375;-0.0308837890625;6.64999998321036;666;100 mA
79.3751127995971;-0.899658203125;-0.030865478515625;6.65999998318512;667;100 mA
79.3851127995719;-0.89935302734375;-0.0308746337890625;6.66999998315987;668;100 mA
79.3951127995466;-0.89935302734375;-0.030853271484375;6.67999998313462;669;100 mA
79.4051127995214;-0.899658203125;-0.030841064453125;6.68999998310937;670;100 mA
79.4151127994961;-0.89935302734375;-0.0308685302734375;6.69999998308413;671;100 mA
79.4251127994709;-0.89935302734375;-0.03087158203125;6.70999998305888;672;100 mA
79.4351127994456;-0.89935302734375;-0.03094482421875;6.71999998303363;673;100 mA
79.4451127994204;-0.89935302734375;-0.0308868408203125;6.72999998300838;674;100 mA
79.4551127993951;-0.89935302734375;-0.0308929443359375;6.73999998298314;675;100 mA
79.4651127993699;-0.8990478515625;-0.0309112548828125;6.74999998295789;676;100 mA
79.4751127993446;-0.899658203125;-0.0308990478515625;6.75999998293264;677;100 mA
79.4851127993194;-0.89935302734375;-0.0308563232421875;6.76999998290739;678;100 mA
79.4951127992941;-0.89935302734375;-0.030853271484375;6.77999998288215;679;100 mA
79.5051127992689;-0.8990478515625;-0.0308319091796875;6.7899999828569;680;100 mA
79.5151127992436;-0.8990478515625;-0.0308929443359375;6.79999998283165;681;100 mA
79.5251127992184;-0.89935302734375;-0.030816650390625;6.8099999828064;682;100 mA
79.5351127991931;-0.89935302734375;-0.03082275390625;6.81999998278116;683;100 mA
79.5451127991679;-0.899658203125;-0.0307891845703125;6.82999998275591;684;100 mA
79.5551127991426;-0.89935302734375;-0.0307952880859375;6.83999998273066;685;100 mA
79.5651127991174;-0.89935302734375;-0.03076171875;6.84999998270541;686;100 mA
79.5751127990922;-0.89874267578125;-0.030828857421875;6.85999998268016;687;100 mA
79.5851127990669;-0.89935302734375;-0.030767822265625;6.86999998265492;688;100 mA
79.5951127990417;-0.89935302734375;-0.0308197021484375;6.87999998262967;689;100 mA
79.6051127990164;-0.899658203125;-0.03074951171875;6.88999998260442;690;100 mA
79.6151127989912;-0.89935302734375;-0.03076171875;6.89999998257917;691;100 mA
79.6251127989659;-0.89935302734375;-0.03072509765625;6.90999998255393;692;100 mA
79.6351127989407;-0.899658203125;-0.0307098388671875;6.91999998252868;693;100 mA
79.6451127989154;-0.89935302734375;-0.0306549072265625;6.92999998250343;694;100 mA
79.6551127988902;-0.89935302734375;-0.0306671142578125;6.93999998247818;695;100 mA
79.6651127988649;-0.89874267578125;-0.03065185546875;6.94999998245294;696;100 mA
79.6751127988397;-0.89935302734375;-0.030694580078125;6.95999998242769;697;100 mA
79.6851127988144;-0.89935302734375;-0.0306427001953125;6.96999998240244;698;100 mA
79.6951127987892;-0.899658203125;-0.03062744140625;6.97999998237719;699;100 mA
79.7051127987639;-0.8990478515625;-0.030615234375;6.98999998235195;700;100 mA
79.7151127987387;-0.8990478515625;-0.0305908203125;6.9999999823267;701;100 mA
79.7251127987134;-0.899658203125;-0.0305419921875;7.00999998230145;702;100 mA
79.7351127986882;-0.899658203125;-0.0305328369140625;7.0199999822762;703;100 mA
79.7451127986629;-0.8990478515625;-0.0305145263671875;7.02999998225096;704;100 mA
79.7551127986377;-0.899658203125;-0.0305450439453125;7.03999998222571;705;100 mA
79.7651127986124;-0.899658203125;-0.03048095703125;7.04999998220046;706;100 mA
79.7751127985872;-0.899658203125;-0.0304779052734375;7.05999998217521;707;100 mA
79.785112798562;-0.89935302734375;-0.030474853515625;7.06999998214997;708;100 mA
79.7951127985367;-0.89996337890625;-0.0304534912109375;7.07999998212472;709;100 mA
79.8051127985115;-0.89935302734375;-0.0303985595703125;7.08999998209947;710;100 mA
79.8151127984862;-0.8990478515625;-0.0303802490234375;7.09999998207422;711;100 mA
79.825112798461;-0.89935302734375;-0.0303466796875;7.10999998204898;712;100 mA
79.8351127984357;-0.899658203125;-0.0303924560546875;7.11999998202373;713;100 mA
79.8451127984105;-0.89996337890625;-0.0302947998046875;7.12999998199848;714;100 mA
79.8551127983852;-0.89935302734375;-0.0302764892578125;7.13999998197323;715;100 mA
79.86511279836;-0.8990478515625;-0.030279541015625;7.14999998194799;716;100 mA
79.8751127983347;-0.89935302734375;-0.03026123046875;7.15999998192274;717;100 mA
79.8851127983095;-0.899658203125;-0.0302093505859375;7.16999998189749;718;100 mA
79.8951127982842;-0.8990478515625;-0.0302093505859375;7.17999998187224;719;100 mA
79.905112798259;-0.8990478515625;-0.0301910400390625;7.189999981847;720;100 mA
79.9151127982337;-0.89935302734375;-0.03023681640625;7.19999998182175;721;100 mA
79.9251127982085;-0.89935302734375;-0.0301788330078125;7.2099999817965;722;100 mA
79.9351127981832;-0.8990478515625;-0.030181884765625;7.21999998177125;723;100 mA
79.945112798158;-0.8990478515625;-0.0302001953125;7.229999981746;724;100 mA
79.9551127981327;-0.8990478515625;-0.03021240234375;7.23999998172076;725;100 mA
79.9651127981075;-0.89935302734375;-0.03018798828125;7.24999998169551;726;100 mA
79.9751127980823;-0.89935302734375;-0.03023681640625;7.25999998167026;727;100 mA
79.985112798057;-0.89935302734375;-0.0302337646484375;7.26999998164501;728;100 mA
79.9951127980318;-0.89935302734375;-0.030303955078125;7.27999998161977;729;100 mA
80.0051127980065;-0.89935302734375;-0.030255126953125;7.28999998159452;730;100 mA
80.0151127979813;-0.89935302734375;-0.0302825927734375;7.29999998156927;731;100 mA
80.025112797956;-0.8990478515625;-0.0302764892578125;7.30999998154402;732;100 mA
80.0351127979308;-0.89935302734375;-0.0302947998046875;7.31999998151878;733;100 mA
80.0451127979055;-0.89935302734375;-0.03026123046875;7.32999998149353;734;100 mA
80.0551127978803;-0.89935302734375;-0.030291748046875;7.33999998146828;735;100 mA
80.065112797855;-0.89935302734375;-0.0302886962890625;7.34999998144303;736;100 mA
80.0751127978298;-0.89935302734375;-0.0303375244140625;7.35999998141779;737;100 mA
80.0851127978045;-0.8990478515625;-0.0302886962890625;7.36999998139254;738;100 mA
80.0951127977793;-0.8990478515625;-0.0302703857421875;7.37999998136729;739;100 mA
80.105112797754;-0.89935302734375;-0.0302734375;7.38999998134204;740;100 mA
80.1151127977288;-0.899658203125;-0.0302520751953125;7.3999999813168;741;100 mA
80.1251127977035;-0.89935302734375;-0.0302001953125;7.40999998129155;742;100 mA
80.1351127976783;-0.89935302734375;-0.0302032470703125;7.4199999812663;743;100 mA
80.145112797653;-0.8990478515625;-0.030206298828125;7.42999998124105;744;100 mA
80.1551127976278;-0.899658203125;-0.0302825927734375;7.43999998121581;745;100 mA
80.1651127976025;-0.8990478515625;-0.030224609375;7.44999998119056;746;100 mA
80.1751127975773;-0.899658203125;-0.030242919921875;7.45999998116531;747;100 mA
80.1851127975521;-0.89935302734375;-0.0302764892578125;7.46999998114006;748;100 mA
80.1951127975268;-0.8990478515625;-0.03026123046875;7.47999998111482;749;100 mA
80.2051127975016;-0.89935302734375;-0.0302276611328125;7.48999998108957;750;100 mA
80.2151127974763;-0.89935302734375;-0.0302459716796875;7.49999998106432;751;100 mA
80.2251127974511;-0.89935302734375;-0.0302215576171875;7.50999998103907;752;100 mA
80.2351127974258;-0.899658203125;-0.030303955078125;7.51999998101383;753;100 mA
80.2451127974006;-0.89874267578125;-0.03021240234375;7.52999998098858;754;100 mA
80.2551127973753;-0.899658203125;-0.030218505859375;7.53999998096333;755;100 mA
80.2651127973501;-0.8990478515625;-0.030224609375;7.54999998093808;756;100 mA
80.2751127973248;-0.899658203125;-0.030206298828125;7.55999998091283;757;100 mA
80.2851127972996;-0.8990478515625;-0.0301788330078125;7.56999998088759;758;100 mA
80.2951127972743;-0.8990478515625;-0.030169677734375;7.57999998086234;759;100 mA
80.3051127972491;-0.89935302734375;-0.0301422119140625;7.58999998083709;760;100 mA
80.3151127972238;-0.89996337890625;-0.0301849365234375;7.59999998081184;761;100 mA
80.3251127971986;-0.89996337890625;-0.0301025390625;7.6099999807866;762;100 mA
80.3351127971733;-0.89874267578125;-0.0300933837890625;7.61999998076135;763;100 mA
80.3451127971481;-0.89935302734375;-0.030108642578125;7.6299999807361;764;100 mA
80.3551127971228;-0.899658203125;-0.0301025390625;7.63999998071085;765;100 mA
80.3651127970976;-0.8990478515625;-0.0300811767578125;7.64999998068561;766;100 mA
80.3751127970723;-0.89935302734375;-0.03009033203125;7.65999998066036;767;100 mA
80.3851127970471;-0.89935302734375;-0.030084228515625;7.66999998063511;768;100 mA
80.3951127970219;-0.89935302734375;-0.0301422119140625;7.67999998060986;769;100 mA
80.4051127969966;-0.89935302734375;-0.0301025390625;7.68999998058462;770;100 mA
80.4151127969714;-0.899658203125;-0.0301055908203125;7.69999998055937;771;100 mA
80.4251127969461;-0.899658203125;-0.0301055908203125;7.70999998053412;772;100 mA
80.4351127969209;-0.89935302734375;-0.03011474609375;7.71999998050887;773;100 mA
80.4451127968956;-0.89935302734375;-0.0300994873046875;7.72999998048363;774;100 mA
80.4551127968704;-0.8990478515625;-0.0301300048828125;7.73999998045838;775;100 mA
80.4651127968451;-0.899658203125;-0.0301300048828125;7.74999998043313;776;100 mA
80.4751127968199;-0.899658203125;-0.0301788330078125;7.75999998040788;777;100 mA
80.4851127967946;-0.89935302734375;-0.0301422119140625;7.76999998038264;778;100 mA
80.4951127967694;-0.89935302734375;-0.030120849609375;7.77999998035739;779;100 mA
80.5051127967441;-0.8990478515625;-0.030133056640625;7.78999998033214;780;100 mA
80.5151127967189;-0.899658203125;-0.030108642578125;7.79999998030689;781;100 mA
80.5251127966936;-0.8990478515625;-0.0300689697265625;7.80999998028165;782;100 mA
80.5351127966684;-0.89996337890625;-0.0300567626953125;7.8199999802564;783;100 mA
80.5451127966431;-0.89935302734375;-0.0300567626953125;7.82999998023115;784;100 mA
80.5551127966179;-0.89935302734375;-0.03011474609375;7.8399999802059;785;100 mA
80.5651127965926;-0.89935302734375;-0.03006591796875;7.84999998018066;786;100 mA
80.5751127965674;-0.89996337890625;-0.030078125;7.85999998015541;787;100 mA
80.5851127965421;-0.8990478515625;-0.0300872802734375;7.86999998013016;788;100 mA
80.5951127965169;-0.89874267578125;-0.030084228515625;7.87999998010491;789;100 mA
80.6051127964917;-0.89935302734375;-0.0300750732421875;7.88999998007966;790;100 mA
80.6151127964664;-0.899658203125;-0.0301055908203125;7.89999998005442;791;100 mA
80.6251127964412;-0.89935302734375;-0.0301055908203125;7.90999998002917;792;100 mA
80.6351127964159;-0.89935302734375;-0.0302001953125;7.91999998000392;793;100 mA
80.6451127963907;-0.89996337890625;-0.0301361083984375;7.92999997997867;794;100 mA
80.6551127963654;-0.89996337890625;-0.030169677734375;7.93999997995343;795;100 mA
80.6651127963402;-0.8990478515625;-0.03018798828125;7.94999997992818;796;100 mA
80.6751127963149;-0.89935302734375;-0.0302093505859375;7.95999997990293;797;100 mA
80.6851127962897;-0.89935302734375;-0.0301849365234375;7.96999997987768;798;100 mA
80.6951127962644;-0.89935302734375;-0.0302215576171875;7.97999997985244;799;100 mA
80.7051127962392;-0.8990478515625;-0.03023681640625;7.98999997982719;800;100 mA
80.7151127962139;-0.899658203125;-0.03033447265625;7.99999997980194;801;100 mA
80.7251127961887;-0.89935302734375;-0.0302764892578125;8.00999997977669;802;100 mA
80.7351127961634;-0.89935302734375;-0.0302978515625;8.01999997975145;803;100 mA
80.7451127961382;-0.899658203125;-0.0303131103515625;8.0299999797262;804;100 mA
80.7551127961129;-0.899658203125;-0.0303253173828125;8.03999997970095;805;100 mA
80.7651127960877;-0.899658203125;-0.030303955078125;8.0499999796757;806;100 mA
80.7751127960624;-0.89935302734375;-0.0303192138671875;8.05999997965046;807;100 mA
80.7851127960372;-0.89935302734375;-0.0303253173828125;8.06999997962521;808;100 mA
80.7951127960119;-0.899658203125;-0.0303741455078125;8.07999997959996;809;100 mA
80.8051127959867;-0.899658203125;-0.0303436279296875;8.08999997957471;810;100 mA
80.8151127959615;-0.899658203125;-0.030352783203125;8.09999997954947;811;100 mA
80.8251127959362;-0.899658203125;-0.0303619384765625;8.10999997952422;812;100 mA
80.835112795911;-0.8990478515625;-0.0303436279296875;8.11999997949897;813;100 mA
80.8451127958857;-0.8990478515625;-0.0303192138671875;8.12999997947372;814;100 mA
80.8551127958605;-0.899658203125;-0.030340576171875;8.13999997944848;815;100 mA
80.8651127958352;-0.89935302734375;-0.0303466796875;8.14999997942323;816;100 mA
80.87511279581;-0.899658203125;-0.030377197265625;8.15999997939798;817;100 mA
80.8851127957847;-0.89874267578125;-0.0303070068359375;8.16999997937273;818;100 mA
80.8951127957595;-0.89935302734375;-0.0302886962890625;8.17999997934749;819;100 mA
80.9051127957342;-0.89935302734375;-0.0303009033203125;8.18999997932224;820;100 mA
80.915112795709;-0.89996337890625;-0.0303009033203125;8.19999997929699;821;100 mA
80.9251127956837;-0.89935302734375;-0.0302276611328125;8.20999997927174;822;100 mA
80.9351127956585;-0.899658203125;-0.0302215576171875;8.2199999792465;823;100 mA
80.9451127956332;-0.899658203125;-0.0301971435546875;8.22999997922125;824;100 mA
80.955112795608;-0.8990478515625;-0.0302581787109375;8.239999979196;825;100 mA
80.9651127955827;-0.89935302734375;-0.0302001953125;8.24999997917075;826;100 mA
80.9751127955575;-0.89996337890625;-0.0302093505859375;8.2599999791455;827;100 mA
80.9851127955322;-0.89874267578125;-0.030206298828125;8.26999997912026;828;100 mA
80.995112795507;-0.89935302734375;-0.0302215576171875;8.27999997909501;829;100 mA
81.0051127954818;-0.89935302734375;-0.030206298828125;8.28999997906976;830;100 mA
81.0151127954565;-0.89935302734375;-0.030242919921875;8.29999997904451;831;100 mA
81.0251127954313;-0.89935302734375;-0.0302337646484375;8.30999997901927;832;100 mA
81.035112795406;-0.89935302734375;-0.030340576171875;8.31999997899402;833;100 mA
81.0451127953808;-0.89935302734375;-0.0302703857421875;8.32999997896877;834;100 mA
81.0551127953555;-0.89874267578125;-0.030316162109375;8.33999997894352;835;100 mA
81.0651127953303;-0.899658203125;-0.0303192138671875;8.34999997891828;836;100 mA
81.075112795305;-0.89874267578125;-0.0303375244140625;8.35999997889303;837;100 mA
81.0851127952798;-0.8990478515625;-0.0303131103515625;8.36999997886778;838;100 mA
81.0951127952545;-0.89935302734375;-0.0303314208984375;8.37999997884253;839;100 mA
81.1051127952293;-0.89935302734375;-0.0303314208984375;8.38999997881729;840;100 mA
81.115112795204;-0.89935302734375;-0.0303863525390625;8.39999997879204;841;100 mA
81.1251127951788;-0.8990478515625;-0.0303192138671875;8.40999997876679;842;100 mA
81.1351127951535;-0.89935302734375;-0.0303375244140625;8.41999997874154;843;100 mA
81.1451127951283;-0.89996337890625;-0.0303497314453125;8.4299999787163;844;100 mA
81.155112795103;-0.899658203125;-0.030340576171875;8.43999997869105;845;100 mA
81.1651127950778;-0.899658203125;-0.0303253173828125;8.4499999786658;846;100 mA
81.1751127950525;-0.89935302734375;-0.030352783203125;8.45999997864055;847;100 mA
81.1851127950273;-0.89996337890625;-0.030389404296875;8.46999997861531;848;100 mA
81.195112795002;-0.8990478515625;-0.030438232421875;8.47999997859006;849;100 mA
81.2051127949768;-0.8990478515625;-0.030438232421875;8.48999997856481;850;100 mA
81.2151127949516;-0.899658203125;-0.03045654296875;8.49999997853956;851;100 mA
81.2251127949263;-0.89935302734375;-0.0304901123046875;8.50999997851432;852;100 mA
81.2351127949011;-0.899658203125;-0.030499267578125;8.51999997848907;853;100 mA
81.2451127948758;-0.8990478515625;-0.030499267578125;8.52999997846382;854;100 mA
81.2551127948506;-0.8990478515625;-0.0305389404296875;8.53999997843857;855;100 mA
81.2651127948253;-0.89935302734375;-0.0305755615234375;8.54999997841333;856;100 mA
81.2751127948001;-0.8990478515625;-0.0306427001953125;8.55999997838808;857;100 mA
81.2851127947748;-0.8990478515625;-0.0306121826171875;8.56999997836283;858;100 mA
81.2951127947496;-0.8990478515625;-0.0306182861328125;8.57999997833758;859;100 mA
81.3051127947243;-0.89935302734375;-0.03065185546875;8.58999997831233;860;100 mA
81.3151127946991;-0.89874267578125;-0.03067626953125;8.59999997828709;861;100 mA
81.3251127946738;-0.89935302734375;-0.0306671142578125;8.60999997826184;862;100 mA
81.3351127946486;-0.899658203125;-0.0306976318359375;8.61999997823659;863;100 mA
81.3451127946233;-0.899658203125;-0.0306976318359375;8.62999997821134;864;100 mA
81.3551127945981;-0.89935302734375;-0.03077392578125;8.6399999781861;865;100 mA
81.3651127945728;-0.8990478515625;-0.03074951171875;8.64999997816085;866;100 mA
81.3751127945476;-0.89935302734375;-0.030767822265625;8.6599999781356;867;100 mA
81.3851127945223;-0.899658203125;-0.0307769775390625;8.66999997811035;868;100 mA
81.3951127944971;-0.89874267578125;-0.0307861328125;8.67999997808511;869;100 mA
81.4051127944718;-0.8990478515625;-0.0307647705078125;8.68999997805986;870;100 mA
81.4151127944466;-0.89935302734375;-0.0308013916015625;8.69999997803461;871;100 mA
81.4251127944214;-0.8990478515625;-0.03077392578125;8.70999997800936;872;100 mA
81.4351127943961;-0.89935302734375;-0.0308837890625;8.71999997798412;873;100 mA
81.4451127943709;-0.8990478515625;-0.030810546875;8.72999997795887;874;100 mA
81.4551127943456;-0.89935302734375;-0.0308441162109375;8.73999997793362;875;100 mA
81.4651127943204;-0.899658203125;-0.0308349609375;8.74999997790837;876;100 mA
81.4751127942951;-0.8990478515625;-0.0308319091796875;8.75999997788313;877;100 mA
81.4851127942699;-0.89935302734375;-0.0307861328125;8.76999997785788;878;100 mA
81.4951127942446;-0.89935302734375;-0.030792236328125;8.77999997783263;879;100 mA
81.5051127942194;-0.8990478515625;-0.0307952880859375;8.78999997780738;880;100 mA
81.5151127941941;-0.8990478515625;-0.0308197021484375;8.79999997778214;881;100 mA
81.5251127941689;-0.8990478515625;-0.03074951171875;8.80999997775689;882;100 mA
81.5351127941436;-0.89874267578125;-0.030731201171875;8.81999997773164;883;100 mA
81.5451127941184;-0.89935302734375;-0.03072509765625;8.82999997770639;884;100 mA
81.5551127940931;-0.89935302734375;-0.0307220458984375;8.83999997768115;885;100 mA
81.5651127940679;-0.89935302734375;-0.030682373046875;8.8499999776559;886;100 mA
81.5751127940426;-0.8990478515625;-0.030682373046875;8.85999997763065;887;100 mA
81.5851127940174;-0.899658203125;-0.030694580078125;8.8699999776054;888;100 mA
81.5951127939921;-0.899658203125;-0.030731201171875;8.87999997758016;889;100 mA
81.6051127939669;-0.89935302734375;-0.0306854248046875;8.88999997755491;890;100 mA
81.6151127939416;-0.89996337890625;-0.030682373046875;8.89999997752966;891;100 mA
81.6251127939164;-0.89935302734375;-0.0306884765625;8.90999997750441;892;100 mA
81.6351127938912;-0.89874267578125;-0.0306976318359375;8.91999997747916;893;100 mA
81.6451127938659;-0.89874267578125;-0.0306671142578125;8.92999997745392;894;100 mA
81.6551127938407;-0.899658203125;-0.030694580078125;8.93999997742867;895;100 mA
81.6651127938154;-0.899658203125;-0.0306854248046875;8.94999997740342;896;100 mA
81.6751127937902;-0.8990478515625;-0.030743408203125;8.95999997737817;897;100 mA
81.6851127937649;-0.89935302734375;-0.0306976318359375;8.96999997735293;898;100 mA
81.6951127937397;-0.8990478515625;-0.0307037353515625;8.97999997732768;899;100 mA
81.7051127937144;-0.89996337890625;-0.030718994140625;8.98999997730243;900;100 mA
81.7151127936892;-0.899658203125;-0.0307220458984375;8.99999997727718;901;100 mA
81.7251127936639;-0.899658203125;-0.0306854248046875;9.00999997725194;902;100 mA
81.7351127936387;-0.89935302734375;-0.03070068359375;9.01999997722669;903;100 mA
81.7451127936134;-0.89935302734375;-0.0306732177734375;9.02999997720144;904;100 mA
81.7551127935882;-0.89996337890625;-0.0307373046875;9.03999997717619;905;100 mA
81.7651127935629;-0.899658203125;-0.0306793212890625;9.04999997715095;906;100 mA
81.7751127935377;-0.899658203125;-0.0306732177734375;9.0599999771257;907;100 mA
81.7851127935124;-0.899658203125;-0.030670166015625;9.06999997710045;908;100 mA
81.7951127934872;-0.89935302734375;-0.0306671142578125;9.0799999770752;909;100 mA
81.8051127934619;-0.8990478515625;-0.030645751953125;9.08999997704996;910;100 mA
81.8151127934367;-0.89935302734375;-0.0306793212890625;9.09999997702471;911;100 mA
81.8251127934114;-0.89935302734375;-0.03067626953125;9.10999997699946;912;100 mA
81.8351127933862;-0.89874267578125;-0.03076171875;9.11999997697421;913;100 mA
81.845112793361;-0.89935302734375;-0.0307098388671875;9.12999997694897;914;100 mA
81.8551127933357;-0.89935302734375;-0.030731201171875;9.13999997692372;915;100 mA
81.8651127933105;-0.89874267578125;-0.030731201171875;9.14999997689847;916;100 mA
81.8751127932852;-0.89935302734375;-0.0307220458984375;9.15999997687322;917;100 mA
81.88511279326;-0.89935302734375;-0.03070068359375;9.16999997684798;918;100 mA
81.8951127932347;-0.8990478515625;-0.0307159423828125;9.17999997682273;919;100 mA
81.9051127932095;-0.9002685546875;-0.030712890625;9.18999997679748;920;100 mA
81.9151127931842;-0.8990478515625;-0.0307281494140625;9.19999997677223;921;100 mA
81.925112793159;-0.89935302734375;-0.0306610107421875;9.20999997674699;922;100 mA
81.9351127931337;-0.89935302734375;-0.0306365966796875;9.21999997672174;923;100 mA
81.9451127931085;-0.899658203125;-0.0306182861328125;9.22999997669649;924;100 mA
81.9551127930832;-0.89935302734375;-0.0305908203125;9.23999997667124;925;100 mA
81.965112793058;-0.899658203125;-0.0305389404296875;9.249999976646;926;100 mA
81.9751127930327;-0.899658203125;-0.0305389404296875;9.25999997662075;927;100 mA
81.9851127930075;-0.89935302734375;-0.0305511474609375;9.2699999765955;928;100 mA
81.9951127929822;-0.89996337890625;-0.030609130859375;9.27999997657025;929;100 mA
82.005112792957;-0.89935302734375;-0.0305633544921875;9.289999976545;930;100 mA
82.0151127929317;-0.8990478515625;-0.0305755615234375;9.29999997651976;931;100 mA
82.0251127929065;-0.899658203125;-0.0305694580078125;9.30999997649451;932;100 mA
82.0351127928813;-0.899658203125;-0.03057861328125;9.31999997646926;933;100 mA
82.045112792856;-0.89935302734375;-0.030548095703125;9.32999997644401;934;100 mA
82.0551127928308;-0.89935302734375;-0.0305633544921875;9.33999997641877;935;100 mA
82.0651127928055;-0.899658203125;-0.0305511474609375;9.34999997639352;936;100 mA
82.0751127927803;-0.899658203125;-0.030609130859375;9.35999997636827;937;100 mA
82.085112792755;-0.899658203125;-0.030548095703125;9.36999997634302;938;100 mA
82.0951127927298;-0.89935302734375;-0.030548095703125;9.37999997631778;939;100 mA
82.1051127927045;-0.899658203125;-0.0305694580078125;9.38999997629253;940;100 mA
82.1151127926793;-0.899658203125;-0.0305633544921875;9.39999997626728;941;100 mA
82.125112792654;-0.8990478515625;-0.0305206298828125;9.40999997624203;942;100 mA
82.1351127926288;-0.89935302734375;-0.030535888671875;9.41999997621679;943;100 mA
82.1451127926035;-0.89935302734375;-0.03050537109375;9.42999997619154;944;100 mA
82.1551127925783;-0.8990478515625;-0.0305633544921875;9.43999997616629;945;100 mA
82.165112792553;-0.899658203125;-0.03050537109375;9.44999997614104;946;100 mA
82.1751127925278;-0.89935302734375;-0.0304962158203125;9.4599999761158;947;100 mA
82.1851127925025;-0.899658203125;-0.0304962158203125;9.46999997609055;948;100 mA
82.1951127924773;-0.89935302734375;-0.0305023193359375;9.4799999760653;949;100 mA
82.205112792452;-0.8990478515625;-0.030474853515625;9.48999997604005;950;100 mA
82.2151127924268;-0.89935302734375;-0.030511474609375;9.49999997601481;951;100 mA
82.2251127924015;-0.8990478515625;-0.0305023193359375;9.50999997598956;952;100 mA
82.2351127923763;-0.89935302734375;-0.0305755615234375;9.51999997596431;953;100 mA
82.2451127923511;-0.89935302734375;-0.030511474609375;9.52999997593906;954;100 mA
82.2551127923258;-0.89935302734375;-0.0305328369140625;9.53999997591382;955;100 mA
82.2651127923006;-0.89935302734375;-0.0305206298828125;9.54999997588857;956;100 mA
82.2751127922753;-0.899658203125;-0.0305023193359375;9.55999997586332;957;100 mA
82.2851127922501;-0.899658203125;-0.03046875;9.56999997583807;958;100 mA
82.2951127922248;-0.89935302734375;-0.0304656982421875;9.57999997581283;959;100 mA
82.3051127921996;-0.8990478515625;-0.030450439453125;9.58999997578758;960;100 mA
82.3151127921743;-0.89935302734375;-0.030487060546875;9.59999997576233;961;100 mA
82.3251127921491;-0.899658203125;-0.030401611328125;9.60999997573708;962;100 mA
82.3351127921238;-0.89935302734375;-0.0303802490234375;9.61999997571183;963;100 mA
82.3451127920986;-0.89935302734375;-0.03035888671875;9.62999997568659;964;100 mA
82.3551127920733;-0.8990478515625;-0.0303253173828125;9.63999997566134;965;100 mA
82.3651127920481;-0.89935302734375;-0.030279541015625;9.64999997563609;966;100 mA
82.3751127920228;-0.8990478515625;-0.03026123046875;9.65999997561084;967;100 mA
82.3851127919976;-0.89935302734375;-0.0302703857421875;9.6699999755856;968;100 mA
82.3951127919723;-0.8990478515625;-0.030303955078125;9.67999997556035;969;100 mA
82.4051127919471;-0.89935302734375;-0.0302642822265625;9.6899999755351;970;100 mA
82.4151127919218;-0.8990478515625;-0.0302764892578125;9.69999997550985;971;100 mA
82.4251127918966;-0.899658203125;-0.0302825927734375;9.70999997548461;972;100 mA
82.4351127918713;-0.8990478515625;-0.0303009033203125;9.71999997545936;973;100 mA
82.4451127918461;-0.89874267578125;-0.030279541015625;9.72999997543411;974;100 mA
82.4551127918209;-0.899658203125;-0.0303131103515625;9.73999997540886;975;100 mA
82.4651127917956;-0.89996337890625;-0.03031005859375;9.74999997538362;976;100 mA
82.4751127917704;-0.89935302734375;-0.0303985595703125;9.75999997535837;977;100 mA
82.4851127917451;-0.899658203125;-0.030364990234375;9.76999997533312;978;100 mA
82.4951127917199;-0.89935302734375;-0.03037109375;9.77999997530787;979;100 mA
82.5051127916946;-0.899658203125;-0.0303955078125;9.78999997528263;980;100 mA
82.5151127916694;-0.8990478515625;-0.0303863525390625;9.79999997525738;981;100 mA
82.5251127916441;-0.899658203125;-0.030352783203125;9.80999997523213;982;100 mA
82.5351127916189;-0.899658203125;-0.03037109375;9.81999997520688;983;100 mA
82.5451127915936;-0.89935302734375;-0.030352783203125;9.82999997518164;984;100 mA
82.5551127915684;-0.899658203125;-0.0304107666015625;9.83999997515639;985;100 mA
82.5651127915431;-0.899658203125;-0.030352783203125;9.84999997513114;986;100 mA
82.5751127915179;-0.89996337890625;-0.030340576171875;9.85999997510589;987;100 mA
82.5851127914926;-0.8990478515625;-0.0303558349609375;9.86999997508065;988;100 mA
82.5951127914674;-0.8990478515625;-0.030364990234375;9.8799999750554;989;100 mA
82.6051127914421;-0.89996337890625;-0.0303497314453125;9.88999997503015;990;100 mA
82.6151127914169;-0.89874267578125;-0.0303619384765625;9.8999999750049;991;100 mA
82.6251127913916;-0.89935302734375;-0.0303497314453125;9.90999997497966;992;100 mA
82.6351127913664;-0.89874267578125;-0.030426025390625;9.91999997495441;993;100 mA
82.6451127913411;-0.89935302734375;-0.0303680419921875;9.92999997492916;994;100 mA
82.6551127913159;-0.89935302734375;-0.030389404296875;9.93999997490391;995;100 mA
82.6651127912907;-0.8990478515625;-0.03038330078125;9.94999997487866;996;100 mA
82.6751127912654;-0.899658203125;-0.0303680419921875;9.95999997485342;997;100 mA
82.6851127912402;-0.89935302734375;-0.0303466796875;9.96999997482817;998;100 mA
82.6951127912149;-0.89935302734375;-0.0303558349609375;9.97999997480292;999;100 mA
82.7051127911897;-0.89935302734375;-0.0303680419921875;9.98999997477767;1000;100 mA
