Time (s);WE(1).Potential (V);WE(1).Current (A);Corrected time (s);Index;Current range
113.925480712366;-1.0003662109375;-0.32574462890625;0;1;100 mA
113.935480712341;-0.999755859375;-0.24017333984375;0.00999999997475243;2;100 mA
113.945480712315;-0.99945068359375;-0.198944091796875;0.0199999999495049;3;100 mA
113.95548071229;-0.99945068359375;-0.1734619140625;0.0299999999242573;4;100 mA
113.965480712265;-0.99945068359375;-0.155548095703125;0.0399999998990097;5;100 mA
113.97548071224;-0.99884033203125;-0.14251708984375;0.0499999998737621;6;100 mA
113.985480712214;-0.99945068359375;-0.13189697265625;0.0599999998485146;7;100 mA
113.995480712189;-0.99945068359375;-0.123504638671875;0.069999999823267;8;100 mA
114.005480712164;-0.9991455078125;-0.116546630859375;0.0799999997980194;9;100 mA
114.015480712139;-0.9991455078125;-0.110687255859375;0.0899999997727718;10;100 mA
114.025480712113;-0.99945068359375;-0.105560302734375;0.0999999997475243;11;100 mA
114.035480712088;-0.99945068359375;-0.101104736328125;0.109999999722277;12;100 mA
114.045480712063;-0.99945068359375;-0.09710693359375;0.119999999697029;13;100 mA
114.055480712038;-0.99945068359375;-0.09375;0.129999999671782;14;100 mA
114.065480712012;-0.9991455078125;-0.0904541015625;0.139999999646534;15;100 mA
114.075480711987;-0.9991455078125;-0.087615966796875;0.149999999621286;16;100 mA
114.085480711962;-0.99945068359375;-0.08514404296875;0.159999999596039;17;100 mA
114.095480711937;-0.99945068359375;-0.082763671875;0.169999999570791;18;100 mA
114.105480711911;-0.99945068359375;-0.080596923828125;0.179999999545544;19;100 mA
114.115480711886;-0.99945068359375;-0.078582763671875;0.189999999520296;20;100 mA
114.125480711861;-0.99945068359375;-0.076629638671875;0.199999999495049;21;100 mA
114.135480711836;-0.9991455078125;-0.0750732421875;0.209999999469801;22;100 mA
114.14548071181;-0.99945068359375;-0.073333740234375;0.219999999444553;23;100 mA
114.155480711785;-0.99945068359375;-0.071868896484375;0.229999999419306;24;100 mA
114.16548071176;-0.9991455078125;-0.07049560546875;0.239999999394058;25;100 mA
114.175480711735;-0.99945068359375;-0.069183349609375;0.249999999368811;26;100 mA
114.185480711709;-0.9991455078125;-0.06793212890625;0.259999999343563;27;100 mA
114.195480711684;-0.99945068359375;-0.066741943359375;0.269999999318316;28;100 mA
114.205480711659;-0.9991455078125;-0.0655517578125;0.279999999293068;29;100 mA
114.215480711634;-0.9991455078125;-0.064605712890625;0.28999999926782;30;100 mA
114.225480711608;-0.999755859375;-0.06353759765625;0.299999999242573;31;100 mA
114.235480711583;-0.9991455078125;-0.0626220703125;0.309999999217325;32;100 mA
114.245480711558;-0.999755859375;-0.061767578125;0.319999999192078;33;100 mA
114.255480711533;-0.99945068359375;-0.06097412109375;0.32999999916683;34;100 mA
114.265480711507;-0.99945068359375;-0.06011962890625;0.339999999141583;35;100 mA
114.275480711482;-0.99945068359375;-0.059356689453125;0.349999999116335;36;100 mA
114.285480711457;-0.99945068359375;-0.05853271484375;0.359999999091087;37;100 mA
114.295480711432;-0.999755859375;-0.057891845703125;0.36999999906584;38;100 mA
114.305480711406;-0.9991455078125;-0.057159423828125;0.379999999040592;39;100 mA
114.315480711381;-0.999755859375;-0.0565185546875;0.389999999015345;40;100 mA
114.325480711356;-0.9991455078125;-0.055938720703125;0.399999998990097;41;100 mA
114.335480711331;-0.9991455078125;-0.05535888671875;0.40999999896485;42;100 mA
114.345480711305;-0.99945068359375;-0.05474853515625;0.419999998939602;43;100 mA
114.35548071128;-0.99945068359375;-0.054229736328125;0.429999998914354;44;100 mA
114.365480711255;-0.9991455078125;-0.05364990234375;0.439999998889107;45;100 mA
114.37548071123;-0.9991455078125;-0.05316162109375;0.449999998863859;46;100 mA
114.385480711204;-0.99945068359375;-0.052581787109375;0.459999998838612;47;100 mA
114.395480711179;-0.99945068359375;-0.052154541015625;0.469999998813364;48;100 mA
114.405480711154;-0.99884033203125;-0.051727294921875;0.479999998788116;49;100 mA
114.415480711129;-0.9991455078125;-0.051239013671875;0.489999998762869;50;100 mA
114.425480711103;-0.99945068359375;-0.050811767578125;0.499999998737621;51;100 mA
114.435480711078;-1.00006103515625;-0.050384521484375;0.509999998712374;52;100 mA
114.445480711053;-0.9991455078125;-0.0499267578125;0.519999998687126;53;100 mA
114.455480711028;-0.99945068359375;-0.04962158203125;0.529999998661879;54;100 mA
114.465480711002;-0.999755859375;-0.0491546630859375;0.539999998636631;55;100 mA
114.475480710977;-0.99945068359375;-0.048828125;0.549999998611383;56;100 mA
114.485480710952;-0.99945068359375;-0.048504638671875;0.559999998586136;57;100 mA
114.495480710927;-0.999755859375;-0.0481719970703125;0.569999998560888;58;100 mA
114.505480710901;-0.99945068359375;-0.0478607177734375;0.579999998535641;59;100 mA
114.515480710876;-0.99945068359375;-0.0475616455078125;0.589999998510393;60;100 mA
114.525480710851;-1.00006103515625;-0.047198486328125;0.599999998485146;61;100 mA
114.535480710826;-0.9991455078125;-0.047021484375;0.609999998459898;62;100 mA
114.5454807108;-0.9991455078125;-0.0466461181640625;0.61999999843465;63;100 mA
114.555480710775;-0.99884033203125;-0.04639892578125;0.629999998409403;64;100 mA
114.56548071075;-0.999755859375;-0.0461517333984375;0.639999998384155;65;100 mA
114.575480710725;-0.9991455078125;-0.0459503173828125;0.649999998358908;66;100 mA
114.585480710699;-0.9991455078125;-0.0456756591796875;0.65999999833366;67;100 mA
114.595480710674;-0.999755859375;-0.0454559326171875;0.669999998308413;68;100 mA
114.605480710649;-0.9991455078125;-0.0452117919921875;0.679999998283165;69;100 mA
114.615480710624;-0.99853515625;-0.0450225830078125;0.689999998257917;70;100 mA
114.625480710598;-0.99945068359375;-0.0447509765625;0.69999999823267;71;100 mA
114.635480710573;-0.9991455078125;-0.0445526123046875;0.709999998207422;72;100 mA
114.645480710548;-0.999755859375;-0.0443756103515625;0.719999998182175;73;100 mA
114.655480710523;-0.999755859375;-0.0441680908203125;0.729999998156927;74;100 mA
114.665480710497;-0.9991455078125;-0.043975830078125;0.73999999813168;75;100 mA
114.675480710472;-0.9991455078125;-0.043817138671875;0.749999998106432;76;100 mA
114.685480710447;-0.99945068359375;-0.043597412109375;0.759999998081184;77;100 mA
114.695480710422;-0.9991455078125;-0.0434661865234375;0.769999998055937;78;100 mA
114.705480710397;-0.999755859375;-0.04326171875;0.779999998030689;79;100 mA
114.715480710371;-0.99945068359375;-0.043072509765625;0.789999998005442;80;100 mA
114.725480710346;-0.9991455078125;-0.0429290771484375;0.799999997980194;81;100 mA
114.735480710321;-0.9991455078125;-0.0427490234375;0.809999997954947;82;100 mA
114.745480710296;-0.9991455078125;-0.042608642578125;0.819999997929699;83;100 mA
114.75548071027;-0.99945068359375;-0.0424224853515625;0.829999997904451;84;100 mA
114.765480710245;-0.99945068359375;-0.0422027587890625;0.839999997879204;85;100 mA
114.77548071022;-0.99945068359375;-0.0421142578125;0.849999997853956;86;100 mA
114.785480710195;-0.99945068359375;-0.0418426513671875;0.859999997828709;87;100 mA
114.795480710169;-0.9991455078125;-0.04168701171875;0.869999997803461;88;100 mA
114.805480710144;-1.00006103515625;-0.041558837890625;0.879999997778214;89;100 mA
114.815480710119;-0.99945068359375;-0.041400146484375;0.889999997752966;90;100 mA
114.825480710094;-0.99884033203125;-0.041217041015625;0.899999997727718;91;100 mA
114.835480710068;-0.9991455078125;-0.0410400390625;0.909999997702471;92;100 mA
114.845480710043;-0.99884033203125;-0.0408447265625;0.919999997677223;93;100 mA
114.855480710018;-0.99853515625;-0.0407623291015625;0.929999997651976;94;100 mA
114.865480709993;-0.99945068359375;-0.0405181884765625;0.939999997626728;95;100 mA
114.875480709967;-0.9991455078125;-0.040386962890625;0.949999997601481;96;100 mA
114.885480709942;-0.999755859375;-0.0402374267578125;0.959999997576233;97;100 mA
114.895480709917;-0.999755859375;-0.0400787353515625;0.969999997550985;98;100 mA
114.905480709892;-0.99945068359375;-0.039935302734375;0.979999997525738;99;100 mA
114.915480709866;-0.99945068359375;-0.0398162841796875;0.98999999750049;100;100 mA
114.925480709841;-0.999755859375;-0.0396514892578125;0.999999997475243;101;100 mA
114.935480709816;-0.99945068359375;-0.0396026611328125;1.00999999745;102;100 mA
114.945480709791;-0.999755859375;-0.0393890380859375;1.01999999742475;103;100 mA
114.955480709765;-0.9991455078125;-0.039276123046875;1.0299999973995;104;100 mA
114.96548070974;-1.00006103515625;-0.0391845703125;1.03999999737425;105;100 mA
114.975480709715;-0.99945068359375;-0.0390625;1.049999997349;106;100 mA
114.98548070969;-0.99884033203125;-0.0389312744140625;1.05999999732376;107;100 mA
114.995480709664;-0.99945068359375;-0.0388153076171875;1.06999999729851;108;100 mA
115.005480709639;-0.9991455078125;-0.0386993408203125;1.07999999727326;109;100 mA
115.015480709614;-1.00006103515625;-0.0386138916015625;1.08999999724801;110;100 mA
115.025480709589;-0.999755859375;-0.0384307861328125;1.09999999722277;111;100 mA
115.035480709563;-0.9991455078125;-0.038348388671875;1.10999999719752;112;100 mA
115.045480709538;-1.0003662109375;-0.038275146484375;1.11999999717227;113;100 mA
115.055480709513;-0.99945068359375;-0.0381622314453125;1.12999999714702;114;100 mA
115.065480709488;-0.9991455078125;-0.0380615234375;1.13999999712178;115;100 mA
115.075480709462;-0.9991455078125;-0.038018798828125;1.14999999709653;116;100 mA
115.085480709437;-0.999755859375;-0.0379150390625;1.15999999707128;117;100 mA
115.095480709412;-0.9991455078125;-0.037890625;1.16999999704603;118;100 mA
115.105480709387;-0.99945068359375;-0.0377838134765625;1.17999999702079;119;100 mA
115.115480709361;-0.9991455078125;-0.0377044677734375;1.18999999699554;120;100 mA
115.125480709336;-0.99945068359375;-0.037646484375;1.19999999697029;121;100 mA
115.135480709311;-0.999755859375;-0.037542724609375;1.20999999694504;122;100 mA
115.145480709286;-0.9991455078125;-0.0374481201171875;1.2199999969198;123;100 mA
115.15548070926;-0.999755859375;-0.037396240234375;1.22999999689455;124;100 mA
115.165480709235;-0.9991455078125;-0.0372894287109375;1.2399999968693;125;100 mA
115.17548070921;-0.99945068359375;-0.0372772216796875;1.24999999684405;126;100 mA
115.185480709185;-0.999755859375;-0.0371246337890625;1.25999999681881;127;100 mA
115.195480709159;-0.999755859375;-0.0370758056640625;1.26999999679356;128;100 mA
115.205480709134;-0.9991455078125;-0.03702392578125;1.27999999676831;129;100 mA
115.215480709109;-0.999755859375;-0.0369354248046875;1.28999999674306;130;100 mA
115.225480709084;-0.99945068359375;-0.0368438720703125;1.29999999671782;131;100 mA
115.235480709058;-0.999755859375;-0.036773681640625;1.30999999669257;132;100 mA
115.245480709033;-0.99945068359375;-0.0366943359375;1.31999999666732;133;100 mA
115.255480709008;-0.99945068359375;-0.03670654296875;1.32999999664207;134;100 mA
115.265480708983;-0.999755859375;-0.0365997314453125;1.33999999661683;135;100 mA
115.275480708957;-0.99945068359375;-0.036529541015625;1.34999999659158;136;100 mA
115.285480708932;-0.99945068359375;-0.0364593505859375;1.35999999656633;137;100 mA
115.295480708907;-0.99945068359375;-0.0363922119140625;1.36999999654108;138;100 mA
115.305480708882;-0.99945068359375;-0.0363433837890625;1.37999999651583;139;100 mA
115.315480708856;-0.999755859375;-0.036279296875;1.38999999649059;140;100 mA
115.325480708831;-0.99945068359375;-0.036199951171875;1.39999999646534;141;100 mA
115.335480708806;-0.99945068359375;-0.036224365234375;1.40999999644009;142;100 mA
115.345480708781;-0.99945068359375;-0.036126708984375;1.41999999641484;143;100 mA
115.355480708755;-0.99945068359375;-0.036102294921875;1.4299999963896;144;100 mA
115.36548070873;-0.999755859375;-0.036053466796875;1.43999999636435;145;100 mA
115.375480708705;-0.9991455078125;-0.0359832763671875;1.4499999963391;146;100 mA
115.38548070868;-1.00006103515625;-0.0359344482421875;1.45999999631385;147;100 mA
115.395480708654;-0.99945068359375;-0.0359161376953125;1.46999999628861;148;100 mA
115.405480708629;-0.9991455078125;-0.0358642578125;1.47999999626336;149;100 mA
115.415480708604;-0.99945068359375;-0.0358917236328125;1.48999999623811;150;100 mA
115.425480708579;-0.999755859375;-0.0357940673828125;1.49999999621286;151;100 mA
115.435480708553;-0.99884033203125;-0.035791015625;1.50999999618762;152;100 mA
115.445480708528;-0.9991455078125;-0.0357635498046875;1.51999999616237;153;100 mA
115.455480708503;-0.99945068359375;-0.035693359375;1.52999999613712;154;100 mA
115.465480708478;-0.99945068359375;-0.035638427734375;1.53999999611187;155;100 mA
115.475480708452;-0.9991455078125;-0.0356414794921875;1.54999999608663;156;100 mA
115.485480708427;-0.999755859375;-0.0355804443359375;1.55999999606138;157;100 mA
115.495480708402;-0.9991455078125;-0.0355987548828125;1.56999999603613;158;100 mA
115.505480708377;-0.9991455078125;-0.0355224609375;1.57999999601088;159;100 mA
115.515480708351;-0.99945068359375;-0.035491943359375;1.58999999598564;160;100 mA
115.525480708326;-0.99945068359375;-0.035467529296875;1.59999999596039;161;100 mA
115.535480708301;-0.999755859375;-0.0354278564453125;1.60999999593514;162;100 mA
115.545480708276;-0.9991455078125;-0.0354156494140625;1.61999999590989;163;100 mA
115.55548070825;-0.9991455078125;-0.0353912353515625;1.62999999588465;164;100 mA
115.565480708225;-0.999755859375;-0.0353179931640625;1.6399999958594;165;100 mA
115.5754807082;-0.99945068359375;-0.0353546142578125;1.64999999583415;166;100 mA
115.585480708175;-0.99945068359375;-0.035272216796875;1.6599999958089;167;100 mA
115.595480708149;-0.999755859375;-0.035260009765625;1.66999999578366;168;100 mA
115.605480708124;-0.9991455078125;-0.03525390625;1.67999999575841;169;100 mA
115.615480708099;-0.999755859375;-0.0352142333984375;1.68999999573316;170;100 mA
115.625480708074;-0.99945068359375;-0.0351776123046875;1.69999999570791;171;100 mA
115.635480708048;-0.99945068359375;-0.0351409912109375;1.70999999568267;172;100 mA
115.645480708023;-1.00006103515625;-0.0350982666015625;1.71999999565742;173;100 mA
115.655480707998;-0.99884033203125;-0.035137939453125;1.72999999563217;174;100 mA
115.665480707973;-0.99945068359375;-0.035040283203125;1.73999999560692;175;100 mA
115.675480707947;-0.99945068359375;-0.035015869140625;1.74999999558167;176;100 mA
115.685480707922;-0.99945068359375;-0.034991455078125;1.75999999555643;177;100 mA
115.695480707897;-0.999755859375;-0.0349395751953125;1.76999999553118;178;100 mA
115.705480707872;-1.00006103515625;-0.034906005859375;1.77999999550593;179;100 mA
115.715480707846;-0.99884033203125;-0.03487548828125;1.78999999548068;180;100 mA
115.725480707821;-0.99945068359375;-0.03480224609375;1.79999999545544;181;100 mA
115.735480707796;-0.9991455078125;-0.034832763671875;1.80999999543019;182;100 mA
115.745480707771;-0.9991455078125;-0.0347198486328125;1.81999999540494;183;100 mA
115.755480707746;-0.99945068359375;-0.034698486328125;1.82999999537969;184;100 mA
115.76548070772;-0.9991455078125;-0.0346435546875;1.83999999535445;185;100 mA
115.775480707695;-0.99945068359375;-0.03458251953125;1.8499999953292;186;100 mA
115.78548070767;-1.00006103515625;-0.03450927734375;1.85999999530395;187;100 mA
115.795480707645;-0.99945068359375;-0.0344757080078125;1.8699999952787;188;100 mA
115.805480707619;-0.9991455078125;-0.0343963623046875;1.87999999525346;189;100 mA
115.815480707594;-0.9991455078125;-0.0344085693359375;1.88999999522821;190;100 mA
115.825480707569;-0.999755859375;-0.034259033203125;1.89999999520296;191;100 mA
115.835480707544;-0.99945068359375;-0.034210205078125;1.90999999517771;192;100 mA
115.845480707518;-0.99945068359375;-0.034161376953125;1.91999999515247;193;100 mA
115.855480707493;-0.99945068359375;-0.034063720703125;1.92999999512722;194;100 mA
115.865480707468;-0.99945068359375;-0.0339599609375;1.93999999510197;195;100 mA
115.875480707443;-0.99884033203125;-0.0339019775390625;1.94999999507672;196;100 mA
115.885480707417;-0.9991455078125;-0.0338470458984375;1.95999999505148;197;100 mA
115.895480707392;-0.999755859375;-0.033795166015625;1.96999999502623;198;100 mA
115.905480707367;-0.99945068359375;-0.033697509765625;1.97999999500098;199;100 mA
115.915480707342;-0.99945068359375;-0.03363037109375;1.98999999497573;200;100 mA
115.925480707316;-0.9991455078125;-0.0335662841796875;1.99999999495049;201;100 mA
115.935480707291;-0.999755859375;-0.03350830078125;2.00999999492524;202;100 mA
115.945480707266;-0.999755859375;-0.033416748046875;2.01999999489999;203;100 mA
115.955480707241;-0.9991455078125;-0.0333831787109375;2.02999999487474;204;100 mA
115.965480707215;-1.00006103515625;-0.03330078125;2.0399999948495;205;100 mA
115.97548070719;-0.999755859375;-0.03331298828125;2.04999999482425;206;100 mA
115.985480707165;-0.999755859375;-0.0331878662109375;2.059999994799;207;100 mA
115.99548070714;-0.99945068359375;-0.0331390380859375;2.06999999477375;208;100 mA
116.005480707114;-0.999755859375;-0.03310546875;2.0799999947485;209;100 mA
116.015480707089;-0.9991455078125;-0.0330230712890625;2.08999999472326;210;100 mA
116.025480707064;-0.99945068359375;-0.0329742431640625;2.09999999469801;211;100 mA
116.035480707039;-0.9991455078125;-0.0329437255859375;2.10999999467276;212;100 mA
116.045480707013;-0.999755859375;-0.03289794921875;2.11999999464751;213;100 mA
116.055480706988;-0.99945068359375;-0.0329437255859375;2.12999999462227;214;100 mA
116.065480706963;-1.00006103515625;-0.0328369140625;2.13999999459702;215;100 mA
116.075480706938;-0.999755859375;-0.032806396484375;2.14999999457177;216;100 mA
116.085480706912;-0.99884033203125;-0.0328094482421875;2.15999999454652;217;100 mA
116.095480706887;-0.9991455078125;-0.032781982421875;2.16999999452128;218;100 mA
116.105480706862;-0.99945068359375;-0.0327239990234375;2.17999999449603;219;100 mA
116.115480706837;-0.99884033203125;-0.0326934814453125;2.18999999447078;220;100 mA
116.125480706811;-0.99945068359375;-0.032611083984375;2.19999999444553;221;100 mA
116.135480706786;-0.999755859375;-0.0326263427734375;2.20999999442029;222;100 mA
116.145480706761;-0.99945068359375;-0.0325164794921875;2.21999999439504;223;100 mA
116.155480706736;-0.99945068359375;-0.032476806640625;2.22999999436979;224;100 mA
116.16548070671;-0.99945068359375;-0.0324066162109375;2.23999999434454;225;100 mA
116.175480706685;-0.99945068359375;-0.032318115234375;2.2499999943193;226;100 mA
116.18548070666;-0.9991455078125;-0.0322540283203125;2.25999999429405;227;100 mA
116.195480706635;-0.99945068359375;-0.03221435546875;2.2699999942688;228;100 mA
116.205480706609;-0.99945068359375;-0.032196044921875;2.27999999424355;229;100 mA
116.215480706584;-0.9991455078125;-0.03218994140625;2.28999999421831;230;100 mA
116.225480706559;-0.99945068359375;-0.0320892333984375;2.29999999419306;231;100 mA
116.235480706534;-0.99945068359375;-0.0320648193359375;2.30999999416781;232;100 mA
116.245480706508;-0.99945068359375;-0.03206787109375;2.31999999414256;233;100 mA
116.255480706483;-0.9991455078125;-0.0320159912109375;2.32999999411732;234;100 mA
116.265480706458;-0.99945068359375;-0.0319671630859375;2.33999999409207;235;100 mA
116.275480706433;-0.99945068359375;-0.03197021484375;2.34999999406682;236;100 mA
116.285480706407;-0.99884033203125;-0.031951904296875;2.35999999404157;237;100 mA
116.295480706382;-0.9991455078125;-0.0319915771484375;2.36999999401633;238;100 mA
116.305480706357;-0.99945068359375;-0.031927490234375;2.37999999399108;239;100 mA
116.315480706332;-0.9991455078125;-0.0319091796875;2.38999999396583;240;100 mA
116.325480706306;-0.999755859375;-0.0318878173828125;2.39999999394058;241;100 mA
116.335480706281;-0.99945068359375;-0.0318603515625;2.40999999391533;242;100 mA
116.345480706256;-0.99945068359375;-0.0318115234375;2.41999999389009;243;100 mA
116.355480706231;-0.9991455078125;-0.0318145751953125;2.42999999386484;244;100 mA
116.365480706205;-0.999755859375;-0.0317718505859375;2.43999999383959;245;100 mA
116.37548070618;-0.99945068359375;-0.03182373046875;2.44999999381434;246;100 mA
116.385480706155;-0.99945068359375;-0.031744384765625;2.4599999937891;247;100 mA
116.39548070613;-0.99884033203125;-0.031732177734375;2.46999999376385;248;100 mA
116.405480706104;-0.99945068359375;-0.03173828125;2.4799999937386;249;100 mA
116.415480706079;-0.9991455078125;-0.0316925048828125;2.48999999371335;250;100 mA
116.425480706054;-0.99945068359375;-0.0316650390625;2.49999999368811;251;100 mA
116.435480706029;-0.9991455078125;-0.0316802978515625;2.50999999366286;252;100 mA
116.445480706003;-0.99945068359375;-0.0316680908203125;2.51999999363761;253;100 mA
116.455480705978;-0.9991455078125;-0.0317169189453125;2.52999999361236;254;100 mA
116.465480705953;-0.999755859375;-0.0316680908203125;2.53999999358712;255;100 mA
116.475480705928;-1.00006103515625;-0.031646728515625;2.54999999356187;256;100 mA
116.485480705902;-0.9991455078125;-0.0316436767578125;2.55999999353662;257;100 mA
116.495480705877;-0.9991455078125;-0.0315887451171875;2.56999999351137;258;100 mA
116.505480705852;-0.9991455078125;-0.0315765380859375;2.57999999348613;259;100 mA
116.515480705827;-0.99945068359375;-0.03157958984375;2.58999999346088;260;100 mA
116.525480705801;-0.9991455078125;-0.03153076171875;2.59999999343563;261;100 mA
116.535480705776;-0.99945068359375;-0.031591796875;2.60999999341038;262;100 mA
116.545480705751;-0.999755859375;-0.0315338134765625;2.61999999338514;263;100 mA
116.555480705726;-0.99945068359375;-0.031536865234375;2.62999999335989;264;100 mA
116.5654807057;-0.9991455078125;-0.031512451171875;2.63999999333464;265;100 mA
116.575480705675;-0.99945068359375;-0.0314788818359375;2.64999999330939;266;100 mA
116.58548070565;-0.99884033203125;-0.0314178466796875;2.65999999328415;267;100 mA
116.595480705625;-0.999755859375;-0.03140869140625;2.6699999932589;268;100 mA
116.605480705599;-0.999755859375;-0.0313690185546875;2.67999999323365;269;100 mA
116.615480705574;-0.99945068359375;-0.0314208984375;2.6899999932084;270;100 mA
116.625480705549;-0.99945068359375;-0.031317138671875;2.69999999318316;271;100 mA
116.635480705524;-0.99945068359375;-0.0313323974609375;2.70999999315791;272;100 mA
116.645480705498;-0.9991455078125;-0.0313323974609375;2.71999999313266;273;100 mA
116.655480705473;-0.9991455078125;-0.0312713623046875;2.72999999310741;274;100 mA
116.665480705448;-0.99945068359375;-0.0312164306640625;2.73999999308217;275;100 mA
116.675480705423;-0.99884033203125;-0.031195068359375;2.74999999305692;276;100 mA
116.685480705397;-0.9991455078125;-0.031182861328125;2.75999999303167;277;100 mA
116.695480705372;-0.999755859375;-0.0312255859375;2.76999999300642;278;100 mA
116.705480705347;-0.9991455078125;-0.03118896484375;2.77999999298117;279;100 mA
116.715480705322;-0.99945068359375;-0.0311920166015625;2.78999999295593;280;100 mA
116.725480705296;-0.99945068359375;-0.0311981201171875;2.79999999293068;281;100 mA
116.735480705271;-0.9991455078125;-0.0312042236328125;2.80999999290543;282;100 mA
116.745480705246;-1.00006103515625;-0.0311859130859375;2.81999999288018;283;100 mA
116.755480705221;-1.00006103515625;-0.0312347412109375;2.82999999285494;284;100 mA
116.765480705196;-0.99945068359375;-0.0311981201171875;2.83999999282969;285;100 mA
116.77548070517;-0.99945068359375;-0.031268310546875;2.84999999280444;286;100 mA
116.785480705145;-0.9991455078125;-0.0312042236328125;2.85999999277919;287;100 mA
116.79548070512;-0.99945068359375;-0.0311981201171875;2.86999999275395;288;100 mA
116.805480705095;-0.9991455078125;-0.031207275390625;2.8799999927287;289;100 mA
116.815480705069;-1.00006103515625;-0.0311492919921875;2.88999999270345;290;100 mA
116.825480705044;-0.9991455078125;-0.0311279296875;2.8999999926782;291;100 mA
116.835480705019;-0.99945068359375;-0.0311279296875;2.90999999265296;292;100 mA
116.845480704994;-0.99945068359375;-0.0310943603515625;2.91999999262771;293;100 mA
116.855480704968;-0.9991455078125;-0.0311309814453125;2.92999999260246;294;100 mA
116.865480704943;-1.00006103515625;-0.0310699462890625;2.93999999257721;295;100 mA
116.875480704918;-0.99945068359375;-0.031036376953125;2.94999999255197;296;100 mA
116.885480704893;-0.99884033203125;-0.03106689453125;2.95999999252672;297;100 mA
116.895480704867;-0.99945068359375;-0.031005859375;2.96999999250147;298;100 mA
116.905480704842;-0.99945068359375;-0.03099365234375;2.97999999247622;299;100 mA
116.915480704817;-0.9991455078125;-0.0309967041015625;2.98999999245098;300;100 mA
116.925480704792;-0.99945068359375;-0.030950927734375;2.99999999242573;301;100 mA
116.935480704766;-0.999755859375;-0.0309844970703125;3.00999999240048;302;100 mA
116.945480704741;-0.99945068359375;-0.030926513671875;3.01999999237523;303;100 mA
116.955480704716;-0.999755859375;-0.030914306640625;3.02999999234999;304;100 mA
116.965480704691;-0.99945068359375;-0.0308868408203125;3.03999999232474;305;100 mA
116.975480704665;-0.99945068359375;-0.0308380126953125;3.04999999229949;306;100 mA
116.98548070464;-0.99884033203125;-0.0308074951171875;3.05999999227424;307;100 mA
116.995480704615;-0.99884033203125;-0.0307952880859375;3.069999992249;308;100 mA
117.00548070459;-0.9991455078125;-0.0307464599609375;3.07999999222375;309;100 mA
117.015480704564;-0.99945068359375;-0.0308013916015625;3.0899999921985;310;100 mA
117.025480704539;-0.999755859375;-0.030694580078125;3.09999999217325;311;100 mA
117.035480704514;-0.999755859375;-0.030694580078125;3.109999992148;312;100 mA
117.045480704489;-0.99945068359375;-0.0306732177734375;3.11999999212276;313;100 mA
117.055480704463;-0.9991455078125;-0.030657958984375;3.12999999209751;314;100 mA
117.065480704438;-0.99945068359375;-0.0305938720703125;3.13999999207226;315;100 mA
117.075480704413;-1.00006103515625;-0.030584716796875;3.14999999204701;316;100 mA
117.085480704388;-0.999755859375;-0.030560302734375;3.15999999202177;317;100 mA
117.095480704362;-0.9991455078125;-0.0305816650390625;3.16999999199652;318;100 mA
117.105480704337;-0.999755859375;-0.030548095703125;3.17999999197127;319;100 mA
117.115480704312;-0.99945068359375;-0.0305389404296875;3.18999999194602;320;100 mA
117.125480704287;-0.99945068359375;-0.0305328369140625;3.19999999192078;321;100 mA
117.135480704261;-0.9991455078125;-0.0304931640625;3.20999999189553;322;100 mA
117.145480704236;-0.999755859375;-0.0304595947265625;3.21999999187028;323;100 mA
117.155480704211;-0.99945068359375;-0.030474853515625;3.22999999184503;324;100 mA
117.165480704186;-0.9991455078125;-0.03043212890625;3.23999999181979;325;100 mA
117.17548070416;-0.9991455078125;-0.0305084228515625;3.24999999179454;326;100 mA
117.185480704135;-0.9991455078125;-0.0304443359375;3.25999999176929;327;100 mA
117.19548070411;-0.99945068359375;-0.0304473876953125;3.26999999174404;328;100 mA
117.205480704085;-0.9991455078125;-0.03046875;3.2799999917188;329;100 mA
117.215480704059;-0.9991455078125;-0.030438232421875;3.28999999169355;330;100 mA
117.225480704034;-0.9991455078125;-0.030413818359375;3.2999999916683;331;100 mA
117.235480704009;-0.999755859375;-0.0304351806640625;3.30999999164305;332;100 mA
117.245480703984;-0.9991455078125;-0.0304046630859375;3.31999999161781;333;100 mA
117.255480703958;-0.99945068359375;-0.0304473876953125;3.32999999159256;334;100 mA
117.265480703933;-0.9991455078125;-0.030364990234375;3.33999999156731;335;100 mA
117.275480703908;-0.99945068359375;-0.03033447265625;3.34999999154206;336;100 mA
117.285480703883;-0.99945068359375;-0.03035888671875;3.35999999151682;337;100 mA
117.295480703857;-0.999755859375;-0.03028564453125;3.36999999149157;338;100 mA
117.305480703832;-0.99884033203125;-0.030255126953125;3.37999999146632;339;100 mA
117.315480703807;-0.99945068359375;-0.0302459716796875;3.38999999144107;340;100 mA
117.325480703782;-0.9991455078125;-0.0302093505859375;3.39999999141583;341;100 mA
117.335480703756;-0.99945068359375;-0.0302459716796875;3.40999999139058;342;100 mA
117.345480703731;-0.999755859375;-0.0301849365234375;3.41999999136533;343;100 mA
117.355480703706;-0.99945068359375;-0.0301727294921875;3.42999999134008;344;100 mA
117.365480703681;-0.99945068359375;-0.0301666259765625;3.43999999131483;345;100 mA
117.375480703655;-0.999755859375;-0.030126953125;3.44999999128959;346;100 mA
117.38548070363;-0.99945068359375;-0.030108642578125;3.45999999126434;347;100 mA
117.395480703605;-0.99945068359375;-0.03011474609375;3.46999999123909;348;100 mA
117.40548070358;-0.99945068359375;-0.0301239013671875;3.47999999121384;349;100 mA
117.415480703554;-0.999755859375;-0.0301788330078125;3.4899999911886;350;100 mA
117.425480703529;-0.9991455078125;-0.0301422119140625;3.49999999116335;351;100 mA
117.435480703504;-0.99945068359375;-0.0301513671875;3.5099999911381;352;100 mA
117.445480703479;-0.99945068359375;-0.0301727294921875;3.51999999111285;353;100 mA
117.455480703453;-0.999755859375;-0.03017578125;3.52999999108761;354;100 mA
117.465480703428;-0.99884033203125;-0.0301544189453125;3.53999999106236;355;100 mA
117.475480703403;-0.999755859375;-0.03017578125;3.54999999103711;356;100 mA
117.485480703378;-0.999755859375;-0.0301727294921875;3.55999999101186;357;100 mA
117.495480703352;-0.99945068359375;-0.030242919921875;3.56999999098662;358;100 mA
117.505480703327;-0.999755859375;-0.030218505859375;3.57999999096137;359;100 mA
117.515480703302;-0.99945068359375;-0.0302459716796875;3.58999999093612;360;100 mA
117.525480703277;-0.9991455078125;-0.03026123046875;3.59999999091087;361;100 mA
117.535480703251;-0.9991455078125;-0.0302703857421875;3.60999999088563;362;100 mA
117.545480703226;-0.99945068359375;-0.0302734375;3.61999999086038;363;100 mA
117.555480703201;-0.99945068359375;-0.0303314208984375;3.62999999083513;364;100 mA
117.565480703176;-0.99945068359375;-0.03031005859375;3.63999999080988;365;100 mA
117.57548070315;-0.99945068359375;-0.0304443359375;3.64999999078464;366;100 mA
117.585480703125;-0.9991455078125;-0.0304107666015625;3.65999999075939;367;100 mA
117.5954807031;-0.99945068359375;-0.0304473876953125;3.66999999073414;368;100 mA
117.605480703075;-0.99945068359375;-0.030499267578125;3.67999999070889;369;100 mA
117.615480703049;-0.9991455078125;-0.0304962158203125;3.68999999068365;370;100 mA
117.625480703024;-0.99884033203125;-0.03050537109375;3.6999999906584;371;100 mA
117.635480702999;-0.9991455078125;-0.0305450439453125;3.70999999063315;372;100 mA
117.645480702974;-0.99945068359375;-0.0305328369140625;3.7199999906079;373;100 mA
117.655480702948;-0.999755859375;-0.0306060791015625;3.72999999058266;374;100 mA
117.665480702923;-0.999755859375;-0.0305450439453125;3.73999999055741;375;100 mA
117.675480702898;-0.9991455078125;-0.0305511474609375;3.74999999053216;376;100 mA
117.685480702873;-0.999755859375;-0.0306243896484375;3.75999999050691;377;100 mA
117.695480702847;-0.999755859375;-0.0305572509765625;3.76999999048167;378;100 mA
117.705480702822;-0.99945068359375;-0.0305450439453125;3.77999999045642;379;100 mA
117.715480702797;-0.999755859375;-0.030560302734375;3.78999999043117;380;100 mA
117.725480702772;-0.999755859375;-0.0305450439453125;3.79999999040592;381;100 mA
117.735480702746;-0.99945068359375;-0.03060302734375;3.80999999038067;382;100 mA
117.745480702721;-0.99945068359375;-0.0305511474609375;3.81999999035543;383;100 mA
117.755480702696;-0.99945068359375;-0.0305450439453125;3.82999999033018;384;100 mA
117.765480702671;-0.99884033203125;-0.030560302734375;3.83999999030493;385;100 mA
117.775480702645;-0.9991455078125;-0.0305084228515625;3.84999999027968;386;100 mA
117.78548070262;-0.9991455078125;-0.0304840087890625;3.85999999025444;387;100 mA
117.795480702595;-0.9991455078125;-0.0304840087890625;3.86999999022919;388;100 mA
117.80548070257;-0.9991455078125;-0.0304779052734375;3.87999999020394;389;100 mA
117.815480702545;-0.99945068359375;-0.030511474609375;3.88999999017869;390;100 mA
117.825480702519;-0.99945068359375;-0.03043212890625;3.89999999015345;391;100 mA
117.835480702494;-0.9991455078125;-0.03043212890625;3.9099999901282;392;100 mA
117.845480702469;-0.9991455078125;-0.030426025390625;3.91999999010295;393;100 mA
117.855480702444;-0.99945068359375;-0.0304107666015625;3.9299999900777;394;100 mA
117.865480702418;-0.99945068359375;-0.03037109375;3.93999999005246;395;100 mA
117.875480702393;-0.99945068359375;-0.030377197265625;3.94999999002721;396;100 mA
117.885480702368;-0.99884033203125;-0.0303619384765625;3.95999999000196;397;100 mA
117.895480702343;-0.99945068359375;-0.0304168701171875;3.96999998997671;398;100 mA
117.905480702317;-0.9991455078125;-0.0303955078125;3.97999998995147;399;100 mA
117.915480702292;-0.999755859375;-0.0303985595703125;3.98999998992622;400;100 mA
117.925480702267;-0.99945068359375;-0.0304168701171875;3.99999998990097;401;100 mA
117.935480702242;-0.99884033203125;-0.030426025390625;4.00999998987572;402;100 mA
117.945480702216;-0.99945068359375;-0.03046875;4.01999998985048;403;100 mA
117.955480702191;-0.9991455078125;-0.030487060546875;4.02999998982523;404;100 mA
117.965480702166;-0.99884033203125;-0.03046875;4.03999998979998;405;100 mA
117.975480702141;-0.99945068359375;-0.0305694580078125;4.04999998977473;406;100 mA
117.985480702115;-0.99945068359375;-0.030548095703125;4.05999998974949;407;100 mA
117.99548070209;-0.99945068359375;-0.0305694580078125;4.06999998972424;408;100 mA
118.005480702065;-0.9991455078125;-0.030633544921875;4.07999998969899;409;100 mA
118.01548070204;-0.999755859375;-0.03065185546875;4.08999998967374;410;100 mA
118.025480702014;-0.99945068359375;-0.0306640625;4.0999999896485;411;100 mA
118.035480701989;-0.99945068359375;-0.0307159423828125;4.10999998962325;412;100 mA
118.045480701964;-0.999755859375;-0.0306976318359375;4.119999989598;413;100 mA
118.055480701939;-0.99853515625;-0.03079833984375;4.12999998957275;414;100 mA
118.065480701913;-0.9991455078125;-0.030731201171875;4.1399999895475;415;100 mA
118.075480701888;-1.00006103515625;-0.030743408203125;4.14999998952226;416;100 mA
118.085480701863;-0.999755859375;-0.0307708740234375;4.15999998949701;417;100 mA
118.095480701838;-0.99945068359375;-0.030780029296875;4.16999998947176;418;100 mA
118.105480701812;-1.00006103515625;-0.0307281494140625;4.17999998944651;419;100 mA
118.115480701787;-0.99945068359375;-0.0307373046875;4.18999998942127;420;100 mA
118.125480701762;-0.9991455078125;-0.0307403564453125;4.19999998939602;421;100 mA
118.135480701737;-0.9991455078125;-0.0307830810546875;4.20999998937077;422;100 mA
118.145480701711;-0.99945068359375;-0.03072509765625;4.21999998934552;423;100 mA
118.155480701686;-0.999755859375;-0.0307373046875;4.22999998932028;424;100 mA
118.165480701661;-0.999755859375;-0.0307342529296875;4.23999998929503;425;100 mA
118.175480701636;-0.999755859375;-0.03070068359375;4.24999998926978;426;100 mA
118.18548070161;-0.999755859375;-0.0306732177734375;4.25999998924453;427;100 mA
118.195480701585;-0.9991455078125;-0.0306884765625;4.26999998921929;428;100 mA
118.20548070156;-0.999755859375;-0.0306732177734375;4.27999998919404;429;100 mA
118.215480701535;-0.999755859375;-0.0307403564453125;4.28999998916879;430;100 mA
118.225480701509;-0.9991455078125;-0.030645751953125;4.29999998914354;431;100 mA
118.235480701484;-0.9991455078125;-0.030657958984375;4.3099999891183;432;100 mA
118.245480701459;-0.99945068359375;-0.03065185546875;4.31999998909305;433;100 mA
118.255480701434;-0.9991455078125;-0.030657958984375;4.3299999890678;434;100 mA
118.265480701408;-0.99945068359375;-0.03062744140625;4.33999998904255;435;100 mA
118.275480701383;-0.9991455078125;-0.0305938720703125;4.34999998901731;436;100 mA
118.285480701358;-0.999755859375;-0.0305755615234375;4.35999998899206;437;100 mA
118.295480701333;-0.999755859375;-0.0305999755859375;4.36999998896681;438;100 mA
118.305480701307;-0.99945068359375;-0.03056640625;4.37999998894156;439;100 mA
118.315480701282;-0.9991455078125;-0.030535888671875;4.38999998891632;440;100 mA
118.325480701257;-0.99945068359375;-0.0305511474609375;4.39999998889107;441;100 mA
118.335480701232;-0.99945068359375;-0.030523681640625;4.40999998886582;442;100 mA
118.345480701206;-0.99945068359375;-0.030517578125;4.41999998884057;443;100 mA
118.355480701181;-0.999755859375;-0.0305694580078125;4.42999998881533;444;100 mA
118.365480701156;-0.999755859375;-0.03052978515625;4.43999998879008;445;100 mA
118.375480701131;-0.99945068359375;-0.030615234375;4.44999998876483;446;100 mA
118.385480701105;-0.99945068359375;-0.030584716796875;4.45999998873958;447;100 mA
118.39548070108;-0.99945068359375;-0.0305816650390625;4.46999998871433;448;100 mA
118.405480701055;-0.99945068359375;-0.0306243896484375;4.47999998868909;449;100 mA
118.41548070103;-0.9991455078125;-0.0305938720703125;4.48999998866384;450;100 mA
118.425480701004;-0.99945068359375;-0.0305755615234375;4.49999998863859;451;100 mA
118.435480700979;-0.99884033203125;-0.0306365966796875;4.50999998861334;452;100 mA
118.445480700954;-0.99945068359375;-0.0306060791015625;4.5199999885881;453;100 mA
118.455480700929;-0.99945068359375;-0.0307220458984375;4.52999998856285;454;100 mA
118.465480700903;-0.999755859375;-0.0306396484375;4.5399999885376;455;100 mA
118.475480700878;-0.99945068359375;-0.0306640625;4.54999998851235;456;100 mA
118.485480700853;-0.99945068359375;-0.0307098388671875;4.55999998848711;457;100 mA
118.495480700828;-0.99945068359375;-0.030670166015625;4.56999998846186;458;100 mA
118.505480700802;-0.999755859375;-0.0306610107421875;4.57999998843661;459;100 mA
118.515480700777;-0.999755859375;-0.0306793212890625;4.58999998841136;460;100 mA
118.525480700752;-0.999755859375;-0.0306732177734375;4.59999998838612;461;100 mA
118.535480700727;-0.9991455078125;-0.03076171875;4.60999998836087;462;100 mA
118.545480700701;-0.9991455078125;-0.0307098388671875;4.61999998833562;463;100 mA
118.555480700676;-0.9991455078125;-0.0307373046875;4.62999998831037;464;100 mA
118.565480700651;-0.999755859375;-0.0307586669921875;4.63999998828513;465;100 mA
118.575480700626;-0.99945068359375;-0.0307525634765625;4.64999998825988;466;100 mA
118.5854807006;-0.9991455078125;-0.0307586669921875;4.65999998823463;467;100 mA
118.595480700575;-0.99945068359375;-0.030810546875;4.66999998820938;468;100 mA
118.60548070055;-0.9991455078125;-0.0308258056640625;4.67999998818414;469;100 mA
118.615480700525;-0.999755859375;-0.030914306640625;4.68999998815889;470;100 mA
118.625480700499;-0.99945068359375;-0.0308746337890625;4.69999998813364;471;100 mA
118.635480700474;-0.99945068359375;-0.030914306640625;4.70999998810839;472;100 mA
118.645480700449;-0.9991455078125;-0.0309478759765625;4.71999998808315;473;100 mA
118.655480700424;-0.99945068359375;-0.0309539794921875;4.7299999880579;474;100 mA
118.665480700398;-0.999755859375;-0.030950927734375;4.73999998803265;475;100 mA
118.675480700373;-0.99884033203125;-0.03099365234375;4.7499999880074;476;100 mA
118.685480700348;-0.99945068359375;-0.031005859375;4.75999998798216;477;100 mA
118.695480700323;-0.99945068359375;-0.0310821533203125;4.76999998795691;478;100 mA
118.705480700297;-0.99853515625;-0.031085205078125;4.77999998793166;479;100 mA
118.715480700272;-0.99884033203125;-0.0310791015625;4.78999998790641;480;100 mA
118.725480700247;-0.999755859375;-0.03114013671875;4.79999998788116;481;100 mA
118.735480700222;-0.99945068359375;-0.0311767578125;4.80999998785592;482;100 mA
118.745480700196;-0.99945068359375;-0.0311370849609375;4.81999998783067;483;100 mA
118.755480700171;-0.999755859375;-0.03121337890625;4.82999998780542;484;100 mA
118.765480700146;-0.99945068359375;-0.03118896484375;4.83999998778017;485;100 mA
118.775480700121;-1.00006103515625;-0.031280517578125;4.84999998775493;486;100 mA
118.785480700095;-0.999755859375;-0.0312591552734375;4.85999998772968;487;100 mA
118.79548070007;-0.9991455078125;-0.0312713623046875;4.86999998770443;488;100 mA
118.805480700045;-0.99945068359375;-0.0313201904296875;4.87999998767918;489;100 mA
118.81548070002;-0.99945068359375;-0.0313018798828125;4.88999998765394;490;100 mA
118.825480699995;-0.999755859375;-0.0313079833984375;4.89999998762869;491;100 mA
118.835480699969;-0.999755859375;-0.0313690185546875;4.90999998760344;492;100 mA
118.845480699944;-0.99945068359375;-0.0313629150390625;4.91999998757819;493;100 mA
118.855480699919;-0.99945068359375;-0.0314544677734375;4.92999998755295;494;100 mA
118.865480699894;-0.99945068359375;-0.0313995361328125;4.9399999875277;495;100 mA
118.875480699868;-0.99884033203125;-0.031414794921875;4.94999998750245;496;100 mA
118.885480699843;-0.99945068359375;-0.0314788818359375;4.9599999874772;497;100 mA
118.895480699818;-0.9991455078125;-0.0314361572265625;4.96999998745196;498;100 mA
118.905480699793;-0.9991455078125;-0.031451416015625;4.97999998742671;499;100 mA
118.915480699767;-0.99945068359375;-0.0314971923828125;4.98999998740146;500;100 mA
118.925480699742;-0.99945068359375;-0.0315185546875;4.99999998737621;501;100 mA
118.935480699717;-0.99945068359375;-0.0316009521484375;5.00999998735097;502;100 mA
118.945480699692;-0.99945068359375;-0.0315887451171875;5.01999998732572;503;100 mA
118.955480699666;-0.999755859375;-0.0316162109375;5.02999998730047;504;100 mA
118.965480699641;-0.99945068359375;-0.031646728515625;5.03999998727522;505;100 mA
118.975480699616;-0.99884033203125;-0.031646728515625;5.04999998724998;506;100 mA
118.985480699591;-0.99945068359375;-0.031671142578125;5.05999998722473;507;100 mA
118.995480699565;-0.99945068359375;-0.0317413330078125;5.06999998719948;508;100 mA
119.00548069954;-0.999755859375;-0.031756591796875;5.07999998717423;509;100 mA
119.015480699515;-0.999755859375;-0.0318695068359375;5.08999998714899;510;100 mA
119.02548069949;-0.999755859375;-0.0318328857421875;5.09999998712374;511;100 mA
119.035480699464;-0.99945068359375;-0.0318878173828125;5.10999998709849;512;100 mA
119.045480699439;-0.99945068359375;-0.031939697265625;5.11999998707324;513;100 mA
119.055480699414;-0.999755859375;-0.0319854736328125;5.129999987048;514;100 mA
119.065480699389;-0.999755859375;-0.032000732421875;5.13999998702275;515;100 mA
119.075480699363;-0.999755859375;-0.0320831298828125;5.1499999869975;516;100 mA
119.085480699338;-0.99945068359375;-0.032098388671875;5.15999998697225;517;100 mA
119.095480699313;-0.99884033203125;-0.0321807861328125;5.169999986947;518;100 mA
119.105480699288;-0.9991455078125;-0.0321929931640625;5.17999998692176;519;100 mA
119.115480699262;-0.99945068359375;-0.0322052001953125;5.18999998689651;520;100 mA
119.125480699237;-0.9991455078125;-0.0322967529296875;5.19999998687126;521;100 mA
119.135480699212;-0.99945068359375;-0.0323089599609375;5.20999998684601;522;100 mA
119.145480699187;-0.99884033203125;-0.032342529296875;5.21999998682077;523;100 mA
119.155480699161;-0.99945068359375;-0.032440185546875;5.22999998679552;524;100 mA
119.165480699136;-0.99945068359375;-0.032452392578125;5.23999998677027;525;100 mA
119.175480699111;-0.99945068359375;-0.032562255859375;5.24999998674502;526;100 mA
119.185480699086;-0.9991455078125;-0.0325958251953125;5.25999998671978;527;100 mA
119.19548069906;-0.99945068359375;-0.0326202392578125;5.26999998669453;528;100 mA
119.205480699035;-0.99945068359375;-0.032720947265625;5.27999998666928;529;100 mA
119.21548069901;-0.9991455078125;-0.0327178955078125;5.28999998664403;530;100 mA
119.225480698985;-0.9991455078125;-0.0327606201171875;5.29999998661879;531;100 mA
119.235480698959;-0.9991455078125;-0.0328582763671875;5.30999998659354;532;100 mA
119.245480698934;-0.9991455078125;-0.0328704833984375;5.31999998656829;533;100 mA
119.255480698909;-0.99884033203125;-0.033001708984375;5.32999998654304;534;100 mA
119.265480698884;-0.9991455078125;-0.0329620361328125;5.3399999865178;535;100 mA
119.275480698858;-0.99945068359375;-0.0329925537109375;5.34999998649255;536;100 mA
119.285480698833;-0.99945068359375;-0.0330413818359375;5.3599999864673;537;100 mA
119.295480698808;-0.9991455078125;-0.033026123046875;5.36999998644205;538;100 mA
119.305480698783;-0.9991455078125;-0.033038330078125;5.37999998641681;539;100 mA
119.315480698757;-1.00006103515625;-0.0330780029296875;5.38999998639156;540;100 mA
119.325480698732;-0.99945068359375;-0.033087158203125;5.39999998636631;541;100 mA
119.335480698707;-0.99945068359375;-0.0331878662109375;5.40999998634106;542;100 mA
119.345480698682;-0.999755859375;-0.033160400390625;5.41999998631582;543;100 mA
119.355480698656;-0.99945068359375;-0.033197021484375;5.42999998629057;544;100 mA
119.365480698631;-0.99945068359375;-0.033203125;5.43999998626532;545;100 mA
119.375480698606;-0.9991455078125;-0.0332122802734375;5.44999998624007;546;100 mA
119.385480698581;-0.99945068359375;-0.033209228515625;5.45999998621483;547;100 mA
119.395480698555;-0.9991455078125;-0.0332611083984375;5.46999998618958;548;100 mA
119.40548069853;-0.9991455078125;-0.033319091796875;5.47999998616433;549;100 mA
119.415480698505;-0.99945068359375;-0.033380126953125;5.48999998613908;550;100 mA
119.42548069848;-0.99945068359375;-0.03333740234375;5.49999998611383;551;100 mA
119.435480698454;-0.9991455078125;-0.0333709716796875;5.50999998608859;552;100 mA
119.445480698429;-0.9991455078125;-0.0334228515625;5.51999998606334;553;100 mA
119.455480698404;-0.9991455078125;-0.0334381103515625;5.52999998603809;554;100 mA
119.465480698379;-0.9991455078125;-0.0334320068359375;5.53999998601284;555;100 mA
119.475480698353;-0.99945068359375;-0.0334808349609375;5.5499999859876;556;100 mA
119.485480698328;-0.999755859375;-0.0334991455078125;5.55999998596235;557;100 mA
119.495480698303;-0.99945068359375;-0.03355712890625;5.5699999859371;558;100 mA
119.505480698278;-0.9991455078125;-0.0335418701171875;5.57999998591185;559;100 mA
119.515480698252;-0.99945068359375;-0.0335205078125;5.58999998588661;560;100 mA
119.525480698227;-0.99945068359375;-0.0335784912109375;5.59999998586136;561;100 mA
119.535480698202;-0.99945068359375;-0.0335601806640625;5.60999998583611;562;100 mA
119.545480698177;-0.999755859375;-0.0335906982421875;5.61999998581086;563;100 mA
119.555480698151;-0.9991455078125;-0.0336669921875;5.62999998578562;564;100 mA
119.565480698126;-0.99945068359375;-0.0336395263671875;5.63999998576037;565;100 mA
119.575480698101;-0.9991455078125;-0.0337249755859375;5.64999998573512;566;100 mA
119.585480698076;-0.99945068359375;-0.033709716796875;5.65999998570987;567;100 mA
119.59548069805;-0.99945068359375;-0.033697509765625;5.66999998568463;568;100 mA
119.605480698025;-0.9991455078125;-0.033740234375;5.67999998565938;569;100 mA
119.615480698;-0.999755859375;-0.0336944580078125;5.68999998563413;570;100 mA
119.625480697975;-0.99945068359375;-0.0336822509765625;5.69999998560888;571;100 mA
119.635480697949;-0.999755859375;-0.0337249755859375;5.70999998558364;572;100 mA
119.645480697924;-0.999755859375;-0.0336761474609375;5.71999998555839;573;100 mA
119.655480697899;-0.99945068359375;-0.033770751953125;5.72999998553314;574;100 mA
119.665480697874;-0.999755859375;-0.0336578369140625;5.73999998550789;575;100 mA
119.675480697848;-0.99884033203125;-0.0336700439453125;5.74999998548265;576;100 mA
119.685480697823;-0.99945068359375;-0.03367919921875;5.7599999854574;577;100 mA
119.695480697798;-0.999755859375;-0.0336456298828125;5.76999998543215;578;100 mA
119.705480697773;-0.999755859375;-0.03360595703125;5.7799999854069;579;100 mA
119.715480697747;-0.99945068359375;-0.0336212158203125;5.78999998538166;580;100 mA
119.725480697722;-0.99945068359375;-0.033599853515625;5.79999998535641;581;100 mA
119.735480697697;-0.999755859375;-0.0336700439453125;5.80999998533116;582;100 mA
119.745480697672;-0.9991455078125;-0.0336090087890625;5.81999998530591;583;100 mA
119.755480697646;-0.9991455078125;-0.03363037109375;5.82999998528066;584;100 mA
119.765480697621;-0.9991455078125;-0.0336395263671875;5.83999998525542;585;100 mA
119.775480697596;-0.99884033203125;-0.0336273193359375;5.84999998523017;586;100 mA
119.785480697571;-0.99945068359375;-0.0336273193359375;5.85999998520492;587;100 mA
119.795480697545;-0.9991455078125;-0.0336578369140625;5.86999998517967;588;100 mA
119.80548069752;-0.99945068359375;-0.0336639404296875;5.87999998515443;589;100 mA
119.815480697495;-0.99945068359375;-0.03372802734375;5.88999998512918;590;100 mA
119.82548069747;-0.9991455078125;-0.03370361328125;5.89999998510393;591;100 mA
119.835480697444;-0.99945068359375;-0.033709716796875;5.90999998507868;592;100 mA
119.845480697419;-0.9991455078125;-0.0337677001953125;5.91999998505344;593;100 mA
119.855480697394;-0.99945068359375;-0.0337432861328125;5.92999998502819;594;100 mA
119.865480697369;-0.9991455078125;-0.0337371826171875;5.93999998500294;595;100 mA
119.875480697344;-0.999755859375;-0.033807373046875;5.94999998497769;596;100 mA
119.885480697318;-0.99945068359375;-0.03380126953125;5.95999998495245;597;100 mA
119.895480697293;-0.9991455078125;-0.0338623046875;5.9699999849272;598;100 mA
119.905480697268;-0.9991455078125;-0.0338165283203125;5.97999998490195;599;100 mA
119.915480697243;-0.9991455078125;-0.0337799072265625;5.9899999848767;600;100 mA
119.925480697217;-0.99945068359375;-0.03382568359375;5.99999998485146;601;100 mA
119.935480697192;-0.99945068359375;-0.0337615966796875;6.00999998482621;602;100 mA
119.945480697167;-0.999755859375;-0.0337371826171875;6.01999998480096;603;100 mA
119.955480697142;-0.99945068359375;-0.0338043212890625;6.02999998477571;604;100 mA
119.965480697116;-0.9991455078125;-0.0337493896484375;6.03999998475047;605;100 mA
119.975480697091;-0.9991455078125;-0.0338348388671875;6.04999998472522;606;100 mA
119.985480697066;-0.999755859375;-0.0337860107421875;6.05999998469997;607;100 mA
119.995480697041;-0.9991455078125;-0.0337860107421875;6.06999998467472;608;100 mA
120.005480697015;-0.9991455078125;-0.0338104248046875;6.07999998464948;609;100 mA
120.01548069699;-0.999755859375;-0.0337554931640625;6.08999998462423;610;100 mA
120.025480696965;-0.99945068359375;-0.0337432861328125;6.09999998459898;611;100 mA
120.03548069694;-1.00006103515625;-0.0337860107421875;6.10999998457373;612;100 mA
120.045480696914;-0.999755859375;-0.0337310791015625;6.11999998454849;613;100 mA
120.055480696889;-0.999755859375;-0.03382568359375;6.12999998452324;614;100 mA
120.065480696864;-0.99945068359375;-0.0337127685546875;6.13999998449799;615;100 mA
120.075480696839;-0.9991455078125;-0.0337158203125;6.14999998447274;616;100 mA
120.085480696813;-0.99945068359375;-0.0337249755859375;6.1599999844475;617;100 mA
120.095480696788;-0.9991455078125;-0.0336883544921875;6.16999998442225;618;100 mA
120.105480696763;-0.99945068359375;-0.0336578369140625;6.179999984397;619;100 mA
120.115480696738;-0.999755859375;-0.033660888671875;6.18999998437175;620;100 mA
120.125480696712;-0.999755859375;-0.033660888671875;6.1999999843465;621;100 mA
120.135480696687;-0.99945068359375;-0.03369140625;6.20999998432126;622;100 mA
120.145480696662;-0.99945068359375;-0.033642578125;6.21999998429601;623;100 mA
120.155480696637;-0.999755859375;-0.033660888671875;6.22999998427076;624;100 mA
120.165480696611;-0.9991455078125;-0.0336578369140625;6.23999998424551;625;100 mA
120.175480696586;-0.999755859375;-0.0336395263671875;6.24999998422027;626;100 mA
120.185480696561;-0.9991455078125;-0.033624267578125;6.25999998419502;627;100 mA
120.195480696536;-0.9991455078125;-0.0336517333984375;6.26999998416977;628;100 mA
120.20548069651;-0.99945068359375;-0.0336212158203125;6.27999998414452;629;100 mA
120.215480696485;-0.999755859375;-0.03369140625;6.28999998411928;630;100 mA
120.22548069646;-0.99945068359375;-0.033624267578125;6.29999998409403;631;100 mA
120.235480696435;-0.99945068359375;-0.0336212158203125;6.30999998406878;632;100 mA
120.245480696409;-0.99945068359375;-0.0336456298828125;6.31999998404353;633;100 mA
120.255480696384;-0.99945068359375;-0.033624267578125;6.32999998401829;634;100 mA
120.265480696359;-0.99945068359375;-0.0335784912109375;6.33999998399304;635;100 mA
120.275480696334;-0.999755859375;-0.0336273193359375;6.34999998396779;636;100 mA
120.285480696308;-0.999755859375;-0.033587646484375;6.35999998394254;637;100 mA
120.295480696283;-0.9991455078125;-0.0336456298828125;6.3699999839173;638;100 mA
120.305480696258;-0.999755859375;-0.0335784912109375;6.37999998389205;639;100 mA
120.315480696233;-0.999755859375;-0.033538818359375;6.3899999838668;640;100 mA
120.325480696207;-0.99945068359375;-0.033563232421875;6.39999998384155;641;100 mA
120.335480696182;-0.99945068359375;-0.0335052490234375;6.40999998381631;642;100 mA
120.345480696157;-0.9991455078125;-0.033447265625;6.41999998379106;643;100 mA
120.355480696132;-0.99853515625;-0.033477783203125;6.42999998376581;644;100 mA
120.365480696106;-0.999755859375;-0.03343505859375;6.43999998374056;645;100 mA
120.375480696081;-0.9991455078125;-0.033477783203125;6.44999998371532;646;100 mA
120.385480696056;-0.99884033203125;-0.0334136962890625;6.45999998369007;647;100 mA
120.395480696031;-0.99884033203125;-0.033380126953125;6.46999998366482;648;100 mA
120.405480696005;-0.99884033203125;-0.03338623046875;6.47999998363957;649;100 mA
120.41548069598;-0.99945068359375;-0.0333282470703125;6.48999998361433;650;100 mA
120.425480695955;-0.9991455078125;-0.03330078125;6.49999998358908;651;100 mA
120.43548069593;-0.99945068359375;-0.0333221435546875;6.50999998356383;652;100 mA
120.445480695904;-0.9991455078125;-0.03328857421875;6.51999998353858;653;100 mA
120.455480695879;-0.99945068359375;-0.03336181640625;6.52999998351333;654;100 mA
120.465480695854;-0.99945068359375;-0.03326416015625;6.53999998348809;655;100 mA
120.475480695829;-0.9991455078125;-0.0332611083984375;6.54999998346284;656;100 mA
120.485480695803;-0.99945068359375;-0.0332763671875;6.55999998343759;657;100 mA
120.495480695778;-0.999755859375;-0.0332244873046875;6.56999998341234;658;100 mA
120.505480695753;-0.99945068359375;-0.0332061767578125;6.5799999833871;659;100 mA
120.515480695728;-0.99945068359375;-0.033209228515625;6.58999998336185;660;100 mA
120.525480695702;-0.999755859375;-0.0332000732421875;6.5999999833366;661;100 mA
120.535480695677;-0.99945068359375;-0.033245849609375;6.60999998331135;662;100 mA
120.545480695652;-0.99945068359375;-0.033197021484375;6.61999998328611;663;100 mA
120.555480695627;-0.9991455078125;-0.033203125;6.62999998326086;664;100 mA
120.565480695601;-0.99945068359375;-0.033197021484375;6.63999998323561;665;100 mA
120.575480695576;-0.999755859375;-0.03316650390625;6.64999998321036;666;100 mA
120.585480695551;-0.999755859375;-0.033154296875;6.65999998318512;667;100 mA
120.595480695526;-0.999755859375;-0.033197021484375;6.66999998315987;668;100 mA
120.6054806955;-0.99945068359375;-0.0331695556640625;6.67999998313462;669;100 mA
120.615480695475;-0.99945068359375;-0.033251953125;6.68999998310937;670;100 mA
120.62548069545;-0.999755859375;-0.033197021484375;6.69999998308413;671;100 mA
120.635480695425;-0.99945068359375;-0.033203125;6.70999998305888;672;100 mA
120.645480695399;-0.9991455078125;-0.0332244873046875;6.71999998303363;673;100 mA
120.655480695374;-0.99884033203125;-0.0332122802734375;6.72999998300838;674;100 mA
120.665480695349;-0.99945068359375;-0.033184814453125;6.73999998298314;675;100 mA
120.675480695324;-0.9991455078125;-0.0332366943359375;6.74999998295789;676;100 mA
120.685480695298;-0.9991455078125;-0.0332122802734375;6.75999998293264;677;100 mA
120.695480695273;-0.99884033203125;-0.033282470703125;6.76999998290739;678;100 mA
120.705480695248;-0.9991455078125;-0.03321533203125;6.77999998288215;679;100 mA
120.715480695223;-0.99945068359375;-0.03321533203125;6.7899999828569;680;100 mA
120.725480695197;-0.9991455078125;-0.0332611083984375;6.79999998283165;681;100 mA
120.735480695172;-0.9991455078125;-0.0332122802734375;6.8099999828064;682;100 mA
120.745480695147;-0.9991455078125;-0.0331878662109375;6.81999998278116;683;100 mA
120.755480695122;-0.9991455078125;-0.03323974609375;6.82999998275591;684;100 mA
120.765480695096;-0.999755859375;-0.0332275390625;6.83999998273066;685;100 mA
120.775480695071;-0.999755859375;-0.0332763671875;6.84999998270541;686;100 mA
120.785480695046;-0.9991455078125;-0.033245849609375;6.85999998268016;687;100 mA
120.795480695021;-0.9991455078125;-0.033233642578125;6.86999998265492;688;100 mA
120.805480694995;-0.9991455078125;-0.033245849609375;6.87999998262967;689;100 mA
120.81548069497;-0.9991455078125;-0.033203125;6.88999998260442;690;100 mA
120.825480694945;-0.9991455078125;-0.03319091796875;6.89999998257917;691;100 mA
120.83548069492;-0.9991455078125;-0.033233642578125;6.90999998255393;692;100 mA
120.845480694894;-0.99884033203125;-0.0332183837890625;6.91999998252868;693;100 mA
120.855480694869;-0.99945068359375;-0.03330078125;6.92999998250343;694;100 mA
120.865480694844;-0.999755859375;-0.03323974609375;6.93999998247818;695;100 mA
120.875480694819;-0.999755859375;-0.033251953125;6.94999998245294;696;100 mA
120.885480694794;-0.99945068359375;-0.0333160400390625;6.95999998242769;697;100 mA
120.895480694768;-0.999755859375;-0.0332733154296875;6.96999998240244;698;100 mA
120.905480694743;-0.999755859375;-0.0332611083984375;6.97999998237719;699;100 mA
120.915480694718;-0.99945068359375;-0.033294677734375;6.98999998235195;700;100 mA
120.925480694693;-0.9991455078125;-0.0332916259765625;6.9999999823267;701;100 mA
120.935480694667;-0.99945068359375;-0.033380126953125;7.00999998230145;702;100 mA
120.945480694642;-0.9991455078125;-0.0333251953125;7.0199999822762;703;100 mA
120.955480694617;-0.99945068359375;-0.0333343505859375;7.02999998225096;704;100 mA
120.965480694592;-0.9991455078125;-0.0333587646484375;7.03999998222571;705;100 mA
120.975480694566;-0.99945068359375;-0.033343505859375;7.04999998220046;706;100 mA
120.985480694541;-0.999755859375;-0.0333404541015625;7.05999998217521;707;100 mA
120.995480694516;-0.99945068359375;-0.033367919921875;7.06999998214997;708;100 mA
121.005480694491;-0.99945068359375;-0.03336181640625;7.07999998212472;709;100 mA
121.015480694465;-0.99945068359375;-0.0334197998046875;7.08999998209947;710;100 mA
121.02548069444;-0.99945068359375;-0.033416748046875;7.09999998207422;711;100 mA
121.035480694415;-0.9991455078125;-0.0333984375;7.10999998204898;712;100 mA
121.04548069439;-0.99884033203125;-0.0334320068359375;7.11999998202373;713;100 mA
121.055480694364;-0.99945068359375;-0.0334228515625;7.12999998199848;714;100 mA
121.065480694339;-0.99945068359375;-0.033380126953125;7.13999998197323;715;100 mA
121.075480694314;-0.99884033203125;-0.03343505859375;7.14999998194799;716;100 mA
121.085480694289;-0.9991455078125;-0.03341064453125;7.15999998192274;717;100 mA
121.095480694263;-0.99945068359375;-0.03345947265625;7.16999998189749;718;100 mA
121.105480694238;-0.99945068359375;-0.0334075927734375;7.17999998187224;719;100 mA
121.115480694213;-0.99945068359375;-0.0333740234375;7.189999981847;720;100 mA
121.125480694188;-0.99945068359375;-0.033416748046875;7.19999998182175;721;100 mA
121.135480694162;-0.99945068359375;-0.0333770751953125;7.2099999817965;722;100 mA
121.145480694137;-0.99945068359375;-0.0333160400390625;7.21999998177125;723;100 mA
121.155480694112;-0.99945068359375;-0.0333709716796875;7.229999981746;724;100 mA
121.165480694087;-0.99945068359375;-0.0333465576171875;7.23999998172076;725;100 mA
121.175480694061;-0.99884033203125;-0.033404541015625;7.24999998169551;726;100 mA
121.185480694036;-0.999755859375;-0.033355712890625;7.25999998167026;727;100 mA
121.195480694011;-0.99945068359375;-0.033331298828125;7.26999998164501;728;100 mA
121.205480693986;-0.99945068359375;-0.033331298828125;7.27999998161977;729;100 mA
121.21548069396;-0.99945068359375;-0.0332855224609375;7.28999998159452;730;100 mA
121.225480693935;-0.9991455078125;-0.03326416015625;7.29999998156927;731;100 mA
121.23548069391;-0.99945068359375;-0.0332916259765625;7.30999998154402;732;100 mA
121.245480693885;-0.99945068359375;-0.033251953125;7.31999998151878;733;100 mA
121.255480693859;-0.99945068359375;-0.0333343505859375;7.32999998149353;734;100 mA
121.265480693834;-0.99945068359375;-0.0332550048828125;7.33999998146828;735;100 mA
121.275480693809;-0.999755859375;-0.0332489013671875;7.34999998144303;736;100 mA
121.285480693784;-0.999755859375;-0.033282470703125;7.35999998141779;737;100 mA
121.295480693758;-0.99945068359375;-0.033245849609375;7.36999998139254;738;100 mA
121.305480693733;-0.9991455078125;-0.0332305908203125;7.37999998136729;739;100 mA
121.315480693708;-0.99945068359375;-0.0332672119140625;7.38999998134204;740;100 mA
121.325480693683;-0.9991455078125;-0.0332672119140625;7.3999999813168;741;100 mA
121.335480693657;-0.999755859375;-0.033319091796875;7.40999998129155;742;100 mA
121.345480693632;-0.9991455078125;-0.03328857421875;7.4199999812663;743;100 mA
121.355480693607;-0.99945068359375;-0.03328857421875;7.42999998124105;744;100 mA
121.365480693582;-0.99945068359375;-0.0333587646484375;7.43999998121581;745;100 mA
121.375480693556;-0.9991455078125;-0.0333099365234375;7.44999998119056;746;100 mA
121.385480693531;-0.99945068359375;-0.0333221435546875;7.45999998116531;747;100 mA
121.395480693506;-0.9991455078125;-0.0333709716796875;7.46999998114006;748;100 mA
121.405480693481;-0.99945068359375;-0.0333648681640625;7.47999998111482;749;100 mA
121.415480693455;-0.9991455078125;-0.0334259033203125;7.48999998108957;750;100 mA
121.42548069343;-1.00006103515625;-0.0334136962890625;7.49999998106432;751;100 mA
121.435480693405;-0.999755859375;-0.0334075927734375;7.50999998103907;752;100 mA
121.44548069338;-1.00006103515625;-0.0334381103515625;7.51999998101383;753;100 mA
121.455480693354;-0.999755859375;-0.033416748046875;7.52999998098858;754;100 mA
121.465480693329;-0.99945068359375;-0.0333892822265625;7.53999998096333;755;100 mA
121.475480693304;-0.99945068359375;-0.033453369140625;7.54999998093808;756;100 mA
121.485480693279;-0.9991455078125;-0.033416748046875;7.55999998091283;757;100 mA
121.495480693253;-0.99945068359375;-0.03350830078125;7.56999998088759;758;100 mA
121.505480693228;-0.999755859375;-0.033441162109375;7.57999998086234;759;100 mA
121.515480693203;-0.99945068359375;-0.0334564208984375;7.58999998083709;760;100 mA
121.525480693178;-0.99945068359375;-0.0334625244140625;7.59999998081184;761;100 mA
121.535480693152;-0.9991455078125;-0.0334259033203125;7.6099999807866;762;100 mA
121.545480693127;-0.99884033203125;-0.0333892822265625;7.61999998076135;763;100 mA
121.555480693102;-0.99945068359375;-0.0334259033203125;7.6299999807361;764;100 mA
121.565480693077;-0.999755859375;-0.0333984375;7.63999998071085;765;100 mA
121.575480693051;-0.9991455078125;-0.0334625244140625;7.64999998068561;766;100 mA
121.585480693026;-0.9991455078125;-0.033392333984375;7.65999998066036;767;100 mA
121.595480693001;-0.99945068359375;-0.033392333984375;7.66999998063511;768;100 mA
121.605480692976;-0.9991455078125;-0.0333984375;7.67999998060986;769;100 mA
121.61548069295;-0.99945068359375;-0.0333709716796875;7.68999998058462;770;100 mA
121.625480692925;-0.99945068359375;-0.0333282470703125;7.69999998055937;771;100 mA
121.6354806929;-0.99945068359375;-0.0333526611328125;7.70999998053412;772;100 mA
121.645480692875;-0.999755859375;-0.0333160400390625;7.71999998050887;773;100 mA
121.655480692849;-0.99945068359375;-0.0333892822265625;7.72999998048363;774;100 mA
121.665480692824;-0.99945068359375;-0.0332977294921875;7.73999998045838;775;100 mA
121.675480692799;-0.99945068359375;-0.0332794189453125;7.74999998043313;776;100 mA
121.685480692774;-0.99884033203125;-0.033282470703125;7.75999998040788;777;100 mA
121.695480692748;-0.999755859375;-0.033221435546875;7.76999998038264;778;100 mA
121.705480692723;-0.999755859375;-0.0331787109375;7.77999998035739;779;100 mA
121.715480692698;-0.9991455078125;-0.03316650390625;7.78999998033214;780;100 mA
121.725480692673;-0.999755859375;-0.0331268310546875;7.79999998030689;781;100 mA
121.735480692647;-0.99945068359375;-0.0331207275390625;7.80999998028165;782;100 mA
121.745480692622;-0.99945068359375;-0.03304443359375;7.8199999802564;783;100 mA
121.755480692597;-0.99945068359375;-0.0329864501953125;7.82999998023115;784;100 mA
121.765480692572;-0.99945068359375;-0.0329864501953125;7.8399999802059;785;100 mA
121.775480692546;-0.99945068359375;-0.0329010009765625;7.84999998018066;786;100 mA
121.785480692521;-0.99945068359375;-0.032855224609375;7.85999998015541;787;100 mA
121.795480692496;-0.999755859375;-0.0328704833984375;7.86999998013016;788;100 mA
121.805480692471;-0.9991455078125;-0.03280029296875;7.87999998010491;789;100 mA
121.815480692445;-0.99945068359375;-0.0328216552734375;7.88999998007966;790;100 mA
121.82548069242;-0.999755859375;-0.032733154296875;7.89999998005442;791;100 mA
121.835480692395;-0.9991455078125;-0.032666015625;7.90999998002917;792;100 mA
121.84548069237;-0.9991455078125;-0.0326171875;7.91999998000392;793;100 mA
121.855480692344;-0.99945068359375;-0.032550048828125;7.92999997997867;794;100 mA
121.865480692319;-0.999755859375;-0.032452392578125;7.93999997995343;795;100 mA
121.875480692294;-0.9991455078125;-0.03243408203125;7.94999997992818;796;100 mA
121.885480692269;-0.999755859375;-0.0323516845703125;7.95999997990293;797;100 mA
121.895480692243;-0.99945068359375;-0.032373046875;7.96999997987768;798;100 mA
121.905480692218;-0.99884033203125;-0.0322418212890625;7.97999997985244;799;100 mA
121.915480692193;-0.99945068359375;-0.032196044921875;7.98999997982719;800;100 mA
121.925480692168;-0.999755859375;-0.032171630859375;7.99999997980194;801;100 mA
121.935480692143;-0.999755859375;-0.0321075439453125;8.00999997977669;802;100 mA
121.945480692117;-0.999755859375;-0.0320404052734375;8.01999997975145;803;100 mA
121.955480692092;-0.999755859375;-0.0320465087890625;8.0299999797262;804;100 mA
121.965480692067;-0.99884033203125;-0.031976318359375;8.03999997970095;805;100 mA
121.975480692042;-0.9991455078125;-0.0320037841796875;8.0499999796757;806;100 mA
121.985480692016;-0.9991455078125;-0.0319061279296875;8.05999997965046;807;100 mA
121.995480691991;-0.99945068359375;-0.0318634033203125;8.06999997962521;808;100 mA
122.005480691966;-0.99945068359375;-0.03184814453125;8.07999997959996;809;100 mA
122.015480691941;-0.9991455078125;-0.03177490234375;8.08999997957471;810;100 mA
122.025480691915;-0.999755859375;-0.0317352294921875;8.09999997954947;811;100 mA
122.03548069189;-0.9991455078125;-0.0317413330078125;8.10999997952422;812;100 mA
122.045480691865;-0.9991455078125;-0.0316925048828125;8.11999997949897;813;100 mA
122.05548069184;-0.99945068359375;-0.0317474365234375;8.12999997947372;814;100 mA
122.065480691814;-0.999755859375;-0.0316680908203125;8.13999997944848;815;100 mA
122.075480691789;-0.9991455078125;-0.031646728515625;8.14999997942323;816;100 mA
122.085480691764;-0.9991455078125;-0.03167724609375;8.15999997939798;817;100 mA
122.095480691739;-0.9991455078125;-0.0316314697265625;8.16999997937273;818;100 mA
122.105480691713;-0.9991455078125;-0.031610107421875;8.17999997934749;819;100 mA
122.115480691688;-0.99884033203125;-0.031622314453125;8.18999997932224;820;100 mA
122.125480691663;-0.99945068359375;-0.03160400390625;8.19999997929699;821;100 mA
122.135480691638;-0.9991455078125;-0.031646728515625;8.20999997927174;822;100 mA
122.145480691612;-0.99945068359375;-0.0315643310546875;8.2199999792465;823;100 mA
122.155480691587;-0.999755859375;-0.031536865234375;8.22999997922125;824;100 mA
122.165480691562;-0.99945068359375;-0.03154296875;8.239999979196;825;100 mA
122.175480691537;-0.99945068359375;-0.0314849853515625;8.24999997917075;826;100 mA
122.185480691511;-0.99945068359375;-0.0314453125;8.2599999791455;827;100 mA
122.195480691486;-0.999755859375;-0.031451416015625;8.26999997912026;828;100 mA
122.205480691461;-0.9991455078125;-0.0314056396484375;8.27999997909501;829;100 mA
122.215480691436;-0.99945068359375;-0.031427001953125;8.28999997906976;830;100 mA
122.22548069141;-0.99945068359375;-0.0313751220703125;8.29999997904451;831;100 mA
122.235480691385;-0.999755859375;-0.031341552734375;8.30999997901927;832;100 mA
122.24548069136;-0.99945068359375;-0.0313323974609375;8.31999997899402;833;100 mA
122.255480691335;-0.99945068359375;-0.031292724609375;8.32999997896877;834;100 mA
122.265480691309;-0.9991455078125;-0.0312744140625;8.33999997894352;835;100 mA
122.275480691284;-0.99945068359375;-0.0312957763671875;8.34999997891828;836;100 mA
122.285480691259;-0.9991455078125;-0.0312957763671875;8.35999997889303;837;100 mA
122.295480691234;-0.999755859375;-0.031353759765625;8.36999997886778;838;100 mA
122.305480691208;-0.999755859375;-0.031304931640625;8.37999997884253;839;100 mA
122.315480691183;-0.99945068359375;-0.0313079833984375;8.38999997881729;840;100 mA
122.325480691158;-0.99945068359375;-0.03133544921875;8.39999997879204;841;100 mA
122.335480691133;-0.9991455078125;-0.0312957763671875;8.40999997876679;842;100 mA
122.345480691107;-0.9991455078125;-0.0312713623046875;8.41999997874154;843;100 mA
122.355480691082;-0.9991455078125;-0.0312957763671875;8.4299999787163;844;100 mA
122.365480691057;-0.99945068359375;-0.0312744140625;8.43999997869105;845;100 mA
122.375480691032;-0.9991455078125;-0.0313140869140625;8.4499999786658;846;100 mA
122.385480691006;-0.9991455078125;-0.031256103515625;8.45999997864055;847;100 mA
122.395480690981;-0.99945068359375;-0.0312347412109375;8.46999997861531;848;100 mA
122.405480690956;-0.99945068359375;-0.0312286376953125;8.47999997859006;849;100 mA
122.415480690931;-0.99945068359375;-0.0311859130859375;8.48999997856481;850;100 mA
122.425480690905;-0.99945068359375;-0.03115234375;8.49999997853956;851;100 mA
122.43548069088;-0.9991455078125;-0.031182861328125;8.50999997851432;852;100 mA
122.445480690855;-0.9991455078125;-0.0311370849609375;8.51999997848907;853;100 mA
122.45548069083;-0.9991455078125;-0.031219482421875;8.52999997846382;854;100 mA
122.465480690804;-0.99853515625;-0.0311492919921875;8.53999997843857;855;100 mA
122.475480690779;-0.9991455078125;-0.0311553955078125;8.54999997841333;856;100 mA
122.485480690754;-0.99884033203125;-0.0311920166015625;8.55999997838808;857;100 mA
122.495480690729;-0.99945068359375;-0.03118896484375;8.56999997836283;858;100 mA
122.505480690703;-0.99945068359375;-0.0311676025390625;8.57999997833758;859;100 mA
122.515480690678;-0.99884033203125;-0.03118896484375;8.58999997831233;860;100 mA
122.525480690653;-0.99945068359375;-0.0312103271484375;8.59999997828709;861;100 mA
122.535480690628;-0.99945068359375;-0.03126220703125;8.60999997826184;862;100 mA
122.545480690602;-0.99945068359375;-0.031207275390625;8.61999997823659;863;100 mA
122.555480690577;-0.999755859375;-0.031219482421875;8.62999997821134;864;100 mA
122.565480690552;-0.99945068359375;-0.0312652587890625;8.6399999781861;865;100 mA
122.575480690527;-0.99945068359375;-0.031231689453125;8.64999997816085;866;100 mA
122.585480690501;-0.999755859375;-0.0312286376953125;8.6599999781356;867;100 mA
122.595480690476;-0.99945068359375;-0.0312652587890625;8.66999997811035;868;100 mA
122.605480690451;-0.99945068359375;-0.03126220703125;8.67999997808511;869;100 mA
122.615480690426;-0.9991455078125;-0.0313140869140625;8.68999997805986;870;100 mA
122.6254806904;-0.999755859375;-0.0312774658203125;8.69999997803461;871;100 mA
122.635480690375;-0.999755859375;-0.0312530517578125;8.70999997800936;872;100 mA
122.64548069035;-0.9991455078125;-0.0312408447265625;8.71999997798412;873;100 mA
122.655480690325;-0.99945068359375;-0.0311920166015625;8.72999997795887;874;100 mA
122.665480690299;-0.9991455078125;-0.031158447265625;8.73999997793362;875;100 mA
122.675480690274;-0.99945068359375;-0.03118896484375;8.74999997790837;876;100 mA
122.685480690249;-0.9991455078125;-0.0311676025390625;8.75999997788313;877;100 mA
122.695480690224;-0.99945068359375;-0.0312255859375;8.76999997785788;878;100 mA
122.705480690198;-0.99945068359375;-0.0311492919921875;8.77999997783263;879;100 mA
122.715480690173;-0.99945068359375;-0.0311248779296875;8.78999997780738;880;100 mA
122.725480690148;-0.99945068359375;-0.0311370849609375;8.79999997778214;881;100 mA
122.735480690123;-0.9991455078125;-0.031097412109375;8.80999997775689;882;100 mA
122.745480690097;-0.999755859375;-0.031024169921875;8.81999997773164;883;100 mA
122.755480690072;-0.999755859375;-0.03101806640625;8.82999997770639;884;100 mA
122.765480690047;-0.99945068359375;-0.030975341796875;8.83999997768115;885;100 mA
122.775480690022;-0.9991455078125;-0.03099365234375;8.8499999776559;886;100 mA
122.785480689996;-0.9991455078125;-0.0309356689453125;8.85999997763065;887;100 mA
122.795480689971;-0.999755859375;-0.0308746337890625;8.8699999776054;888;100 mA
122.805480689946;-0.99945068359375;-0.030859375;8.87999997758016;889;100 mA
122.815480689921;-0.99945068359375;-0.030792236328125;8.88999997755491;890;100 mA
122.825480689895;-0.99945068359375;-0.0307525634765625;8.89999997752966;891;100 mA
122.83548068987;-0.99945068359375;-0.0307586669921875;8.90999997750441;892;100 mA
122.845480689845;-0.999755859375;-0.0307342529296875;8.91999997747916;893;100 mA
122.85548068982;-1.00006103515625;-0.030792236328125;8.92999997745392;894;100 mA
122.865480689794;-0.99945068359375;-0.0307159423828125;8.93999997742867;895;100 mA
122.875480689769;-0.99945068359375;-0.03067626953125;8.94999997740342;896;100 mA
122.885480689744;-0.999755859375;-0.030694580078125;8.95999997737817;897;100 mA
122.895480689719;-0.999755859375;-0.03065185546875;8.96999997735293;898;100 mA
122.905480689693;-0.99945068359375;-0.0306427001953125;8.97999997732768;899;100 mA
122.915480689668;-0.9991455078125;-0.0306640625;8.98999997730243;900;100 mA
122.925480689643;-0.999755859375;-0.030670166015625;8.99999997727718;901;100 mA
122.935480689618;-0.99853515625;-0.030718994140625;9.00999997725194;902;100 mA
122.945480689593;-0.99945068359375;-0.030645751953125;9.01999997722669;903;100 mA
122.955480689567;-0.99945068359375;-0.0306488037109375;9.02999997720144;904;100 mA
122.965480689542;-0.9991455078125;-0.030670166015625;9.03999997717619;905;100 mA
122.975480689517;-0.99884033203125;-0.030633544921875;9.04999997715095;906;100 mA
122.985480689492;-0.999755859375;-0.030615234375;9.0599999771257;907;100 mA
122.995480689466;-0.99945068359375;-0.030633544921875;9.06999997710045;908;100 mA
123.005480689441;-0.99945068359375;-0.0306427001953125;9.0799999770752;909;100 mA
123.015480689416;-0.99884033203125;-0.030694580078125;9.08999997704996;910;100 mA
123.025480689391;-0.99945068359375;-0.03065185546875;9.09999997702471;911;100 mA
123.035480689365;-0.9991455078125;-0.030615234375;9.10999997699946;912;100 mA
123.04548068934;-0.99884033203125;-0.030596923828125;9.11999997697421;913;100 mA
123.055480689315;-0.99945068359375;-0.0305755615234375;9.12999997694897;914;100 mA
123.06548068929;-0.999755859375;-0.03052978515625;9.13999997692372;915;100 mA
123.075480689264;-0.999755859375;-0.030560302734375;9.14999997689847;916;100 mA
123.085480689239;-0.99945068359375;-0.0305572509765625;9.15999997687322;917;100 mA
123.095480689214;-0.99945068359375;-0.0306060791015625;9.16999997684798;918;100 mA
123.105480689189;-0.999755859375;-0.03055419921875;9.17999997682273;919;100 mA
123.115480689163;-0.99945068359375;-0.030535888671875;9.18999997679748;920;100 mA
123.125480689138;-0.99884033203125;-0.0305511474609375;9.19999997677223;921;100 mA
123.135480689113;-0.999755859375;-0.030523681640625;9.20999997674699;922;100 mA
123.145480689088;-0.99945068359375;-0.03046875;9.21999997672174;923;100 mA
123.155480689062;-0.99884033203125;-0.0304779052734375;9.22999997669649;924;100 mA
123.165480689037;-0.9991455078125;-0.0304412841796875;9.23999997667124;925;100 mA
123.175480689012;-0.99945068359375;-0.03046875;9.249999976646;926;100 mA
123.185480688987;-0.99884033203125;-0.030413818359375;9.25999997662075;927;100 mA
123.195480688961;-0.999755859375;-0.030377197265625;9.2699999765955;928;100 mA
123.205480688936;-0.99945068359375;-0.030377197265625;9.27999997657025;929;100 mA
123.215480688911;-0.9991455078125;-0.0303253173828125;9.289999976545;930;100 mA
123.225480688886;-0.9991455078125;-0.0303070068359375;9.29999997651976;931;100 mA
123.23548068886;-0.99945068359375;-0.030316162109375;9.30999997649451;932;100 mA
123.245480688835;-0.99945068359375;-0.030279541015625;9.31999997646926;933;100 mA
123.25548068881;-0.99945068359375;-0.0303253173828125;9.32999997644401;934;100 mA
123.265480688785;-0.99945068359375;-0.0302642822265625;9.33999997641877;935;100 mA
123.275480688759;-0.99945068359375;-0.0302337646484375;9.34999997639352;936;100 mA
123.285480688734;-0.99945068359375;-0.0302398681640625;9.35999997636827;937;100 mA
123.295480688709;-0.999755859375;-0.0301849365234375;9.36999997634302;938;100 mA
123.305480688684;-0.999755859375;-0.0301544189453125;9.37999997631778;939;100 mA
123.315480688658;-0.99945068359375;-0.0301544189453125;9.38999997629253;940;100 mA
123.325480688633;-0.9991455078125;-0.03013916015625;9.39999997626728;941;100 mA
123.335480688608;-0.99945068359375;-0.030206298828125;9.40999997624203;942;100 mA
123.345480688583;-0.99945068359375;-0.0301177978515625;9.41999997621679;943;100 mA
123.355480688557;-0.9991455078125;-0.03011474609375;9.42999997619154;944;100 mA
123.365480688532;-0.99945068359375;-0.0301116943359375;9.43999997616629;945;100 mA
123.375480688507;-1.00006103515625;-0.03006591796875;9.44999997614104;946;100 mA
123.385480688482;-0.9991455078125;-0.030029296875;9.4599999761158;947;100 mA
123.395480688456;-0.9991455078125;-0.030029296875;9.46999997609055;948;100 mA
123.405480688431;-0.99945068359375;-0.0300323486328125;9.4799999760653;949;100 mA
123.415480688406;-0.9991455078125;-0.030059814453125;9.48999997604005;950;100 mA
123.425480688381;-0.99945068359375;-0.030023193359375;9.49999997601481;951;100 mA
123.435480688355;-0.99945068359375;-0.030010986328125;9.50999997598956;952;100 mA
123.44548068833;-0.9991455078125;-0.0300018310546875;9.51999997596431;953;100 mA
123.455480688305;-0.99945068359375;-0.029974365234375;9.52999997593906;954;100 mA
123.46548068828;-0.99945068359375;-0.02991943359375;9.53999997591382;955;100 mA
123.475480688254;-0.99945068359375;-0.0299407958984375;9.54999997588857;956;100 mA
123.485480688229;-0.999755859375;-0.0299285888671875;9.55999997586332;957;100 mA
123.495480688204;-0.99945068359375;-0.029962158203125;9.56999997583807;958;100 mA
123.505480688179;-0.9991455078125;-0.0299041748046875;9.57999997581283;959;100 mA
123.515480688153;-0.9991455078125;-0.0298828125;9.58999997578758;960;100 mA
123.525480688128;-0.999755859375;-0.0298980712890625;9.59999997576233;961;100 mA
123.535480688103;-1.0003662109375;-0.0298553466796875;9.60999997573708;962;100 mA
123.545480688078;-0.999755859375;-0.02982177734375;9.61999997571183;963;100 mA
123.555480688052;-0.9991455078125;-0.0298492431640625;9.62999997568659;964;100 mA
123.565480688027;-0.9991455078125;-0.029827880859375;9.63999997566134;965;100 mA
123.575480688002;-0.9991455078125;-0.02987060546875;9.64999997563609;966;100 mA
123.585480687977;-0.999755859375;-0.0298431396484375;9.65999997561084;967;100 mA
123.595480687951;-0.9991455078125;-0.02982177734375;9.6699999755856;968;100 mA
123.605480687926;-0.99945068359375;-0.029852294921875;9.67999997556035;969;100 mA
123.615480687901;-0.999755859375;-0.0298370361328125;9.6899999755351;970;100 mA
123.625480687876;-0.9991455078125;-0.029815673828125;9.69999997550985;971;100 mA
123.63548068785;-0.99945068359375;-0.0298675537109375;9.70999997548461;972;100 mA
123.645480687825;-0.99884033203125;-0.029833984375;9.71999997545936;973;100 mA
123.6554806878;-0.99945068359375;-0.0299163818359375;9.72999997543411;974;100 mA
123.665480687775;-0.99945068359375;-0.0298614501953125;9.73999997540886;975;100 mA
123.675480687749;-0.99945068359375;-0.029864501953125;9.74999997538362;976;100 mA
123.685480687724;-0.9991455078125;-0.0298797607421875;9.75999997535837;977;100 mA
123.695480687699;-0.9991455078125;-0.029864501953125;9.76999997533312;978;100 mA
123.705480687674;-0.9991455078125;-0.02982177734375;9.77999997530787;979;100 mA
123.715480687648;-0.99945068359375;-0.0298370361328125;9.78999997528263;980;100 mA
123.725480687623;-0.9991455078125;-0.02982177734375;9.79999997525738;981;100 mA
123.735480687598;-0.9991455078125;-0.029888916015625;9.80999997523213;982;100 mA
123.745480687573;-0.9991455078125;-0.029803466796875;9.81999997520688;983;100 mA
123.755480687547;-0.99945068359375;-0.029833984375;9.82999997518164;984;100 mA
123.765480687522;-1.00006103515625;-0.0298370361328125;9.83999997515639;985;100 mA
123.775480687497;-0.9991455078125;-0.02979736328125;9.84999997513114;986;100 mA
123.785480687472;-0.99945068359375;-0.0297698974609375;9.85999997510589;987;100 mA
123.795480687446;-0.9991455078125;-0.029779052734375;9.86999997508065;988;100 mA
123.805480687421;-1.00006103515625;-0.02977294921875;9.8799999750554;989;100 mA
123.815480687396;-0.99945068359375;-0.0297821044921875;9.88999997503015;990;100 mA
123.825480687371;-0.99945068359375;-0.029742431640625;9.8999999750049;991;100 mA
123.835480687345;-0.99884033203125;-0.0297149658203125;9.90999997497966;992;100 mA
123.84548068732;-0.99884033203125;-0.0296905517578125;9.91999997495441;993;100 mA
123.855480687295;-0.99945068359375;-0.029644775390625;9.92999997492916;994;100 mA
123.86548068727;-0.99884033203125;-0.0295745849609375;9.93999997490391;995;100 mA
123.875480687244;-0.999755859375;-0.0295684814453125;9.94999997487866;996;100 mA
123.885480687219;-0.99945068359375;-0.02952880859375;9.95999997485342;997;100 mA
123.895480687194;-0.99945068359375;-0.0295806884765625;9.96999997482817;998;100 mA
123.905480687169;-0.999755859375;-0.0294921875;9.97999997480292;999;100 mA
123.915480687143;-0.99884033203125;-0.0294830322265625;9.98999997477767;1000;100 mA
