Time (s);WE(1).Potential (V);WE(1).Current (A);Corrected time (s);Index;Current range
58.9763108510991;0.39923095703125;0.018994140625;0;1;100 mA
58.9863108510739;0.399658203125;0.014471435546875;0.00999999997475243;2;100 mA
58.9963108510486;0.399627685546875;0.0122100830078125;0.0199999999495049;3;100 mA
59.0063108510234;0.399658203125;0.0109222412109375;0.0299999999242573;4;100 mA
59.0163108509981;0.399658203125;0.0098846435546875;0.0399999998990097;5;100 mA
59.0263108509729;0.39971923828125;0.0091094970703125;0.0499999998737621;6;100 mA
59.0363108509476;0.399688720703125;0.00853271484375;0.0599999998485146;7;100 mA
59.0463108509224;0.399658203125;0.0080810546875;0.069999999823267;8;100 mA
59.0563108508971;0.399688720703125;0.0077178955078125;0.0799999997980194;9;100 mA
59.0663108508719;0.399658203125;0.0073760986328125;0.0899999997727718;10;100 mA
59.0763108508467;0.399688720703125;0.007025146484375;0.0999999997475243;11;100 mA
59.0863108508214;0.39971923828125;0.006787109375;0.109999999722277;12;100 mA
59.0963108507962;0.39971923828125;0.0066070556640625;0.119999999697029;13;100 mA
59.1063108507709;0.399749755859375;0.0064178466796875;0.129999999671782;14;100 mA
59.1163108507457;0.39971923828125;0.0062591552734375;0.139999999646534;15;100 mA
59.1263108507204;0.3997802734375;0.0060577392578125;0.149999999621286;16;100 mA
59.1363108506952;0.399658203125;0.0059051513671875;0.159999999596039;17;100 mA
59.1463108506699;0.39971923828125;0.0057861328125;0.169999999570791;18;100 mA
59.1563108506447;0.399688720703125;0.005657958984375;0.179999999545544;19;100 mA
59.1663108506194;0.399688720703125;0.00555419921875;0.189999999520296;20;100 mA
59.1763108505942;0.399688720703125;0.0054046630859375;0.199999999495049;21;100 mA
59.1863108505689;0.39971923828125;0.005303955078125;0.209999999469801;22;100 mA
59.1963108505437;0.399749755859375;0.005218505859375;0.219999999444553;23;100 mA
59.2063108505184;0.39971923828125;0.005120849609375;0.229999999419306;24;100 mA
59.2163108504932;0.39971923828125;0.0050384521484375;0.239999999394058;25;100 mA
59.2263108504679;0.39971923828125;0.0049224853515625;0.249999999368811;26;100 mA
59.2363108504427;0.399688720703125;0.00486724853515625;0.259999999343563;27;100 mA
59.2463108504174;0.399810791015625;0.0048028564453125;0.269999999318316;28;100 mA
59.2563108503922;0.3997802734375;0.00473663330078125;0.279999999293068;29;100 mA
59.2663108503669;0.399749755859375;0.00465087890625;0.28999999926782;30;100 mA
59.2763108503417;0.3997802734375;0.00458251953125;0.299999999242573;31;100 mA
59.2863108503165;0.399749755859375;0.00453826904296875;0.309999999217325;32;100 mA
59.2963108502912;0.3997802734375;0.00446044921875;0.319999999192078;33;100 mA
59.306310850266;0.3997802734375;0.00438873291015625;0.32999999916683;34;100 mA
59.3163108502407;0.399749755859375;0.00430389404296875;0.339999999141583;35;100 mA
59.3263108502155;0.3997802734375;0.00424591064453125;0.349999999116335;36;100 mA
59.3363108501902;0.3997802734375;0.00422271728515625;0.359999999091087;37;100 mA
59.346310850165;0.3997802734375;0.00416412353515625;0.36999999906584;38;100 mA
59.3563108501397;0.399749755859375;0.0041168212890625;0.379999999040592;39;100 mA
59.3663108501145;0.3997802734375;0.0040545654296875;0.389999999015345;40;100 mA
59.3763108500892;0.3997802734375;0.004019775390625;0.399999998990097;41;100 mA
59.386310850064;0.3997802734375;0.00401611328125;0.40999999896485;42;100 mA
59.3963108500387;0.3997802734375;0.00400054931640625;0.419999998939602;43;100 mA
59.4063108500135;0.399749755859375;0.003941650390625;0.429999998914354;44;100 mA
59.4163108499882;0.39971923828125;0.00389129638671875;0.439999998889107;45;100 mA
59.426310849963;0.399810791015625;0.0038653564453125;0.449999998863859;46;100 mA
59.4363108499377;0.399810791015625;0.003836669921875;0.459999998838612;47;100 mA
59.4463108499125;0.399810791015625;0.00380859375;0.469999998813364;48;100 mA
59.4563108498872;0.39984130859375;0.00375946044921875;0.479999998788116;49;100 mA
59.466310849862;0.3997802734375;0.0037109375;0.489999998762869;50;100 mA
59.4763108498368;0.399749755859375;0.00369537353515625;0.499999998737621;51;100 mA
59.4863108498115;0.39984130859375;0.00369354248046875;0.509999998712374;52;100 mA
59.4963108497863;0.399749755859375;0.00366363525390625;0.519999998687126;53;100 mA
59.506310849761;0.399749755859375;0.00362335205078125;0.529999998661879;54;100 mA
59.5163108497358;0.39971923828125;0.0036004638671875;0.539999998636631;55;100 mA
59.5263108497105;0.3997802734375;0.003597412109375;0.549999998611383;56;100 mA
59.5363108496853;0.399810791015625;0.00358673095703125;0.559999998586136;57;100 mA
59.54631084966;0.3997802734375;0.00355010986328125;0.569999998560888;58;100 mA
59.5563108496348;0.3997802734375;0.00348876953125;0.579999998535641;59;100 mA
59.5663108496095;0.399749755859375;0.00347015380859375;0.589999998510393;60;100 mA
59.5763108495843;0.3997802734375;0.00345245361328125;0.599999998485146;61;100 mA
59.586310849559;0.399749755859375;0.00344696044921875;0.609999998459898;62;100 mA
59.5963108495338;0.3997802734375;0.00341888427734375;0.61999999843465;63;100 mA
59.6063108495085;0.399810791015625;0.0033795166015625;0.629999998409403;64;100 mA
59.6163108494833;0.399749755859375;0.00336212158203125;0.639999998384155;65;100 mA
59.626310849458;0.399810791015625;0.00335540771484375;0.649999998358908;66;100 mA
59.6363108494328;0.39971923828125;0.0033502197265625;0.65999999833366;67;100 mA
59.6463108494075;0.3997802734375;0.003297119140625;0.669999998308413;68;100 mA
59.6563108493823;0.399749755859375;0.0032623291015625;0.679999998283165;69;100 mA
59.666310849357;0.39984130859375;0.0032568359375;0.689999998257917;70;100 mA
59.6763108493318;0.399749755859375;0.00324554443359375;0.69999999823267;71;100 mA
59.6863108493066;0.3997802734375;0.00324188232421875;0.709999998207422;72;100 mA
59.6963108492813;0.399749755859375;0.0032000732421875;0.719999998182175;73;100 mA
59.7063108492561;0.3997802734375;0.00316162109375;0.729999998156927;74;100 mA
59.7163108492308;0.39971923828125;0.00316558837890625;0.73999999813168;75;100 mA
59.7263108492056;0.399688720703125;0.00318450927734375;0.749999998106432;76;100 mA
59.7363108491803;0.3997802734375;0.0031585693359375;0.759999998081184;77;100 mA
59.7463108491551;0.39971923828125;0.003134765625;0.769999998055937;78;100 mA
59.7563108491298;0.399688720703125;0.0031146240234375;0.779999998030689;79;100 mA
59.7663108491046;0.399749755859375;0.00310546875;0.789999998005442;80;100 mA
59.7763108490793;0.399749755859375;0.00311859130859375;0.799999997980194;81;100 mA
59.7863108490541;0.3997802734375;0.003094482421875;0.809999997954947;82;100 mA
59.7963108490288;0.399810791015625;0.00305450439453125;0.819999997929699;83;100 mA
59.8063108490036;0.399810791015625;0.003057861328125;0.829999997904451;84;100 mA
59.8163108489783;0.3997802734375;0.0030511474609375;0.839999997879204;85;100 mA
59.8263108489531;0.39971923828125;0.00305755615234375;0.849999997853956;86;100 mA
59.8363108489278;0.399749755859375;0.00303985595703125;0.859999997828709;87;100 mA
59.8463108489026;0.3997802734375;0.00300994873046875;0.869999997803461;88;100 mA
59.8563108488773;0.399658203125;0.0029949951171875;0.879999997778214;89;100 mA
59.8663108488521;0.3997802734375;0.00300140380859375;0.889999997752966;90;100 mA
59.8763108488268;0.39971923828125;0.0030047607421875;0.899999997727718;91;100 mA
59.8863108488016;0.399688720703125;0.00296295166015625;0.909999997702471;92;100 mA
59.8963108487764;0.399749755859375;0.0029473876953125;0.919999997677223;93;100 mA
59.9063108487511;0.39984130859375;0.002939453125;0.929999997651976;94;100 mA
59.9163108487259;0.39971923828125;0.0029345703125;0.939999997626728;95;100 mA
59.9263108487006;0.399749755859375;0.002938232421875;0.949999997601481;96;100 mA
59.9363108486754;0.3997802734375;0.00290496826171875;0.959999997576233;97;100 mA
59.9463108486501;0.3997802734375;0.00286895751953125;0.969999997550985;98;100 mA
59.9563108486249;0.39971923828125;0.00285797119140625;0.979999997525738;99;100 mA
59.9663108485996;0.39971923828125;0.00286590576171875;0.98999999750049;100;100 mA
59.9763108485744;0.399810791015625;0.0028466796875;0.999999997475243;101;100 mA
59.9863108485491;0.39971923828125;0.00282745361328125;1.00999999745;102;100 mA
59.9963108485239;0.3997802734375;0.002822265625;1.01999999742475;103;100 mA
60.0063108484986;0.39971923828125;0.00280792236328125;1.0299999973995;104;100 mA
60.0163108484734;0.39971923828125;0.0028350830078125;1.03999999737425;105;100 mA
60.0263108484481;0.399810791015625;0.00280517578125;1.049999997349;106;100 mA
60.0363108484229;0.399749755859375;0.00277130126953125;1.05999999732376;107;100 mA
60.0463108483976;0.3997802734375;0.0027581787109375;1.06999999729851;108;100 mA
60.0563108483724;0.39984130859375;0.00275115966796875;1.07999999727326;109;100 mA
60.0663108483471;0.399749755859375;0.002767333984375;1.08999999724801;110;100 mA
60.0763108483219;0.3997802734375;0.00276611328125;1.09999999722277;111;100 mA
60.0863108482966;0.399810791015625;0.002745361328125;1.10999999719752;112;100 mA
60.0963108482714;0.3997802734375;0.0027362060546875;1.11999999717227;113;100 mA
60.1063108482462;0.3997802734375;0.0027484130859375;1.12999999714702;114;100 mA
60.1163108482209;0.3997802734375;0.00276702880859375;1.13999999712178;115;100 mA
60.1263108481957;0.39971923828125;0.0027459716796875;1.14999999709653;116;100 mA
60.1363108481704;0.3997802734375;0.00273651123046875;1.15999999707128;117;100 mA
60.1463108481452;0.3997802734375;0.00273651123046875;1.16999999704603;118;100 mA
60.1563108481199;0.399749755859375;0.00272674560546875;1.17999999702079;119;100 mA
60.1663108480947;0.399810791015625;0.00274810791015625;1.18999999699554;120;100 mA
60.1763108480694;0.39971923828125;0.00272705078125;1.19999999697029;121;100 mA
60.1863108480442;0.399810791015625;0.00269927978515625;1.20999999694504;122;100 mA
60.1963108480189;0.39971923828125;0.0026922607421875;1.2199999969198;123;100 mA
60.2063108479937;0.399810791015625;0.002706298828125;1.22999999689455;124;100 mA
60.2163108479684;0.3997802734375;0.00270263671875;1.2399999968693;125;100 mA
60.2263108479432;0.3997802734375;0.0026806640625;1.24999999684405;126;100 mA
60.2363108479179;0.39971923828125;0.002672119140625;1.25999999681881;127;100 mA
60.2463108478927;0.39971923828125;0.00265350341796875;1.26999999679356;128;100 mA
60.2563108478674;0.3997802734375;0.0026788330078125;1.27999999676831;129;100 mA
60.2663108478422;0.399749755859375;0.00265655517578125;1.28999999674306;130;100 mA
60.2763108478169;0.39971923828125;0.00263885498046875;1.29999999671782;131;100 mA
60.2863108477917;0.399749755859375;0.0026416015625;1.30999999669257;132;100 mA
60.2963108477664;0.3997802734375;0.0026336669921875;1.31999999666732;133;100 mA
60.3063108477412;0.399810791015625;0.00264251708984375;1.32999999664207;134;100 mA
60.316310847716;0.399749755859375;0.00263031005859375;1.33999999661683;135;100 mA
60.3263108476907;0.399810791015625;0.002607421875;1.34999999659158;136;100 mA
60.3363108476655;0.399810791015625;0.0025909423828125;1.35999999656633;137;100 mA
60.3463108476402;0.3997802734375;0.002607421875;1.36999999654108;138;100 mA
60.356310847615;0.399749755859375;0.0026171875;1.37999999651583;139;100 mA
60.3663108475897;0.399688720703125;0.00259429931640625;1.38999999649059;140;100 mA
60.3763108475645;0.3997802734375;0.002579345703125;1.39999999646534;141;100 mA
60.3863108475392;0.3997802734375;0.0025799560546875;1.40999999644009;142;100 mA
60.396310847514;0.399810791015625;0.002576904296875;1.41999999641484;143;100 mA
60.4063108474887;0.39984130859375;0.00258544921875;1.4299999963896;144;100 mA
60.4163108474635;0.39971923828125;0.00255340576171875;1.43999999636435;145;100 mA
60.4263108474382;0.3997802734375;0.00253448486328125;1.4499999963391;146;100 mA
60.436310847413;0.399749755859375;0.0025335693359375;1.45999999631385;147;100 mA
60.4463108473877;0.399749755859375;0.0025408935546875;1.46999999628861;148;100 mA
60.4563108473625;0.39971923828125;0.00253143310546875;1.47999999626336;149;100 mA
60.4663108473372;0.399688720703125;0.00252410888671875;1.48999999623811;150;100 mA
60.476310847312;0.3997802734375;0.00251922607421875;1.49999999621286;151;100 mA
60.4863108472867;0.3997802734375;0.00252044677734375;1.50999999618762;152;100 mA
60.4963108472615;0.3997802734375;0.00255615234375;1.51999999616237;153;100 mA
60.5063108472363;0.3997802734375;0.00253753662109375;1.52999999613712;154;100 mA
60.516310847211;0.399810791015625;0.0025079345703125;1.53999999611187;155;100 mA
60.5263108471858;0.399749755859375;0.0025091552734375;1.54999999608663;156;100 mA
60.5363108471605;0.39971923828125;0.002509765625;1.55999999606138;157;100 mA
60.5463108471353;0.399749755859375;0.00252655029296875;1.56999999603613;158;100 mA
60.55631084711;0.399749755859375;0.00251800537109375;1.57999999601088;159;100 mA
60.5663108470848;0.3997802734375;0.00249755859375;1.58999999598564;160;100 mA
60.5763108470595;0.3997802734375;0.00249481201171875;1.59999999596039;161;100 mA
60.5863108470343;0.39984130859375;0.00251068115234375;1.60999999593514;162;100 mA
60.596310847009;0.39971923828125;0.00252044677734375;1.61999999590989;163;100 mA
60.6063108469838;0.399810791015625;0.0024920654296875;1.62999999588465;164;100 mA
60.6163108469585;0.39971923828125;0.00248809814453125;1.6399999958594;165;100 mA
60.6263108469333;0.399749755859375;0.00249176025390625;1.64999999583415;166;100 mA
60.636310846908;0.399688720703125;0.0024969482421875;1.6599999958089;167;100 mA
60.6463108468828;0.39971923828125;0.0025152587890625;1.66999999578366;168;100 mA
60.6563108468575;0.399749755859375;0.00248382568359375;1.67999999575841;169;100 mA
60.6663108468323;0.399749755859375;0.00247222900390625;1.68999999573316;170;100 mA
60.676310846807;0.399749755859375;0.00247894287109375;1.69999999570791;171;100 mA
60.6863108467818;0.399749755859375;0.00249053955078125;1.70999999568267;172;100 mA
60.6963108467565;0.399749755859375;0.0024884033203125;1.71999999565742;173;100 mA
60.7063108467313;0.399749755859375;0.00246826171875;1.72999999563217;174;100 mA
60.7163108467061;0.39971923828125;0.002464599609375;1.73999999560692;175;100 mA
60.7263108466808;0.3997802734375;0.00245147705078125;1.74999999558167;176;100 mA
60.7363108466556;0.3997802734375;0.0024822998046875;1.75999999555643;177;100 mA
60.7463108466303;0.3997802734375;0.00245758056640625;1.76999999553118;178;100 mA
60.7563108466051;0.399749755859375;0.00243255615234375;1.77999999550593;179;100 mA
60.7663108465798;0.39971923828125;0.00243499755859375;1.78999999548068;180;100 mA
60.7763108465546;0.39984130859375;0.0024310302734375;1.79999999545544;181;100 mA
60.7863108465293;0.399810791015625;0.00245330810546875;1.80999999543019;182;100 mA
60.7963108465041;0.3997802734375;0.002451171875;1.81999999540494;183;100 mA
60.8063108464788;0.3997802734375;0.0024334716796875;1.82999999537969;184;100 mA
60.8163108464536;0.3997802734375;0.00242889404296875;1.83999999535445;185;100 mA
60.8263108464283;0.3997802734375;0.00243621826171875;1.8499999953292;186;100 mA
60.8363108464031;0.399749755859375;0.00244049072265625;1.85999999530395;187;100 mA
60.8463108463778;0.3997802734375;0.002413330078125;1.8699999952787;188;100 mA
60.8563108463526;0.399749755859375;0.00240631103515625;1.87999999525346;189;100 mA
60.8663108463273;0.399749755859375;0.00241455078125;1.88999999522821;190;100 mA
60.8763108463021;0.399749755859375;0.00242279052734375;1.89999999520296;191;100 mA
60.8863108462768;0.399749755859375;0.00243499755859375;1.90999999517771;192;100 mA
60.8963108462516;0.3997802734375;0.00240447998046875;1.91999999515247;193;100 mA
60.9063108462263;0.399810791015625;0.00238800048828125;1.92999999512722;194;100 mA
60.9163108462011;0.399688720703125;0.0024005126953125;1.93999999510197;195;100 mA
60.9263108461759;0.399810791015625;0.00241302490234375;1.94999999507672;196;100 mA
60.9363108461506;0.3997802734375;0.002406005859375;1.95999999505148;197;100 mA
60.9463108461254;0.39984130859375;0.00239349365234375;1.96999999502623;198;100 mA
60.9563108461001;0.399810791015625;0.00238922119140625;1.97999999500098;199;100 mA
60.9663108460749;0.3997802734375;0.00238983154296875;1.98999999497573;200;100 mA
60.9763108460496;0.39971923828125;0.0024267578125;1.99999999495049;201;100 mA
60.9863108460244;0.3997802734375;0.0023980712890625;2.00999999492524;202;100 mA
60.9963108459991;0.3997802734375;0.00237884521484375;2.01999999489999;203;100 mA
61.0063108459739;0.399749755859375;0.0023834228515625;2.02999999487474;204;100 mA
61.0163108459486;0.3997802734375;0.00238800048828125;2.0399999948495;205;100 mA
61.0263108459234;0.3997802734375;0.002408447265625;2.04999999482425;206;100 mA
61.0363108458981;0.39971923828125;0.00240936279296875;2.059999994799;207;100 mA
61.0463108458729;0.3997802734375;0.002386474609375;2.06999999477375;208;100 mA
61.0563108458476;0.3997802734375;0.0023883056640625;2.0799999947485;209;100 mA
61.0663108458224;0.3997802734375;0.00241058349609375;2.08999999472326;210;100 mA
61.0763108457971;0.399810791015625;0.00241851806640625;2.09999999469801;211;100 mA
61.0863108457719;0.399810791015625;0.0023956298828125;2.10999999467276;212;100 mA
61.0963108457466;0.399688720703125;0.00238525390625;2.11999999464751;213;100 mA
61.1063108457214;0.3997802734375;0.0023828125;2.12999999462227;214;100 mA
61.1163108456961;0.399688720703125;0.00239410400390625;2.13999999459702;215;100 mA
61.1263108456709;0.399749755859375;0.00240692138671875;2.14999999457177;216;100 mA
61.1363108456457;0.3997802734375;0.0023760986328125;2.15999999454652;217;100 mA
61.1463108456204;0.399810791015625;0.00236572265625;2.16999999452128;218;100 mA
61.1563108455952;0.39971923828125;0.00237518310546875;2.17999999449603;219;100 mA
61.1663108455699;0.39971923828125;0.0023883056640625;2.18999999447078;220;100 mA
61.1763108455447;0.399810791015625;0.00239471435546875;2.19999999444553;221;100 mA
61.1863108455194;0.399749755859375;0.002381591796875;2.20999999442029;222;100 mA
61.1963108454942;0.3997802734375;0.00237091064453125;2.21999999439504;223;100 mA
61.2063108454689;0.399749755859375;0.00236541748046875;2.22999999436979;224;100 mA
61.2163108454437;0.39971923828125;0.002406005859375;2.23999999434454;225;100 mA
61.2263108454184;0.3997802734375;0.00238311767578125;2.2499999943193;226;100 mA
61.2363108453932;0.39971923828125;0.00236328125;2.25999999429405;227;100 mA
61.2463108453679;0.399810791015625;0.00237091064453125;2.2699999942688;228;100 mA
61.2563108453427;0.39971923828125;0.0023626708984375;2.27999999424355;229;100 mA
61.2663108453174;0.399810791015625;0.00238494873046875;2.28999999421831;230;100 mA
61.2763108452922;0.39971923828125;0.00237548828125;2.29999999419306;231;100 mA
61.2863108452669;0.399749755859375;0.00234954833984375;2.30999999416781;232;100 mA
61.2963108452417;0.399810791015625;0.00234466552734375;2.31999999414256;233;100 mA
61.3063108452164;0.3997802734375;0.0023553466796875;2.32999999411732;234;100 mA
61.3163108451912;0.399749755859375;0.0023553466796875;2.33999999409207;235;100 mA
61.3263108451659;0.399749755859375;0.002333984375;2.34999999406682;236;100 mA
61.3363108451407;0.3997802734375;0.002320556640625;2.35999999404157;237;100 mA
61.3463108451155;0.399810791015625;0.00232208251953125;2.36999999401633;238;100 mA
61.3563108450902;0.399749755859375;0.002342529296875;2.37999999399108;239;100 mA
61.366310845065;0.399810791015625;0.00237152099609375;2.38999999396583;240;100 mA
61.3763108450397;0.399810791015625;0.0023443603515625;2.39999999394058;241;100 mA
61.3863108450145;0.39971923828125;0.0023358154296875;2.40999999391533;242;100 mA
61.3963108449892;0.3997802734375;0.00234588623046875;2.41999999389009;243;100 mA
61.406310844964;0.3997802734375;0.0023590087890625;2.42999999386484;244;100 mA
61.4163108449387;0.399749755859375;0.002369384765625;2.43999999383959;245;100 mA
61.4263108449135;0.39971923828125;0.0023553466796875;2.44999999381434;246;100 mA
61.4363108448882;0.399749755859375;0.0023480224609375;2.4599999937891;247;100 mA
61.446310844863;0.3997802734375;0.002342529296875;2.46999999376385;248;100 mA
61.4563108448377;0.3997802734375;0.00237274169921875;2.4799999937386;249;100 mA
61.4663108448125;0.399810791015625;0.0023492431640625;2.48999999371335;250;100 mA
61.4763108447872;0.399658203125;0.0023394775390625;2.49999999368811;251;100 mA
61.486310844762;0.3997802734375;0.0023468017578125;2.50999999366286;252;100 mA
61.4963108447367;0.39971923828125;0.00234405517578125;2.51999999363761;253;100 mA
61.5063108447115;0.399749755859375;0.002371826171875;2.52999999361236;254;100 mA
61.5163108446862;0.399749755859375;0.00237457275390625;2.53999999358712;255;100 mA
61.526310844661;0.399810791015625;0.00235015869140625;2.54999999356187;256;100 mA
61.5363108446358;0.3997802734375;0.0023480224609375;2.55999999353662;257;100 mA
61.5463108446105;0.399810791015625;0.00235687255859375;2.56999999351137;258;100 mA
61.5563108445853;0.399810791015625;0.00235809326171875;2.57999999348613;259;100 mA
61.56631084456;0.399749755859375;0.00234130859375;2.58999999346088;260;100 mA
61.5763108445348;0.39971923828125;0.0023272705078125;2.59999999343563;261;100 mA
61.5863108445095;0.399749755859375;0.00232391357421875;2.60999999341038;262;100 mA
61.5963108444843;0.399749755859375;0.00234375;2.61999999338514;263;100 mA
61.606310844459;0.39971923828125;0.0023638916015625;2.62999999335989;264;100 mA
61.6163108444338;0.3997802734375;0.00233489990234375;2.63999999333464;265;100 mA
61.6263108444085;0.399810791015625;0.0023297119140625;2.64999999330939;266;100 mA
61.6363108443833;0.39971923828125;0.00234039306640625;2.65999999328415;267;100 mA
61.646310844358;0.399871826171875;0.0023516845703125;2.6699999932589;268;100 mA
61.6563108443328;0.399749755859375;0.002352294921875;2.67999999323365;269;100 mA
61.6663108443075;0.399749755859375;0.0023345947265625;2.6899999932084;270;100 mA
61.6763108442823;0.39971923828125;0.00232177734375;2.69999999318316;271;100 mA
61.686310844257;0.399749755859375;0.0023187255859375;2.70999999315791;272;100 mA
61.6963108442318;0.3997802734375;0.00235504150390625;2.71999999313266;273;100 mA
61.7063108442065;0.399810791015625;0.00232757568359375;2.72999999310741;274;100 mA
61.7163108441813;0.399749755859375;0.00231231689453125;2.73999999308217;275;100 mA
61.726310844156;0.3997802734375;0.0023089599609375;2.74999999305692;276;100 mA
61.7363108441308;0.39971923828125;0.00230316162109375;2.75999999303167;277;100 mA
61.7463108441056;0.399810791015625;0.00232818603515625;2.76999999300642;278;100 mA
61.7563108440803;0.399749755859375;0.0023248291015625;2.77999999298117;279;100 mA
61.7663108440551;0.399749755859375;0.002305908203125;2.78999999295593;280;100 mA
61.7763108440298;0.3997802734375;0.00230133056640625;2.79999999293068;281;100 mA
61.7863108440046;0.39984130859375;0.00230743408203125;2.80999999290543;282;100 mA
61.7963108439793;0.399749755859375;0.002315673828125;2.81999999288018;283;100 mA
61.8063108439541;0.3997802734375;0.00229888916015625;2.82999999285494;284;100 mA
61.8163108439288;0.399810791015625;0.00229278564453125;2.83999999282969;285;100 mA
61.8263108439036;0.399749755859375;0.0022930908203125;2.84999999280444;286;100 mA
61.8363108438783;0.3997802734375;0.002314453125;2.85999999277919;287;100 mA
61.8463108438531;0.3997802734375;0.00233612060546875;2.86999999275395;288;100 mA
61.8563108438278;0.39971923828125;0.002301025390625;2.8799999927287;289;100 mA
61.8663108438026;0.399749755859375;0.00229827880859375;2.88999999270345;290;100 mA
61.8763108437773;0.3997802734375;0.00229583740234375;2.8999999926782;291;100 mA
61.8863108437521;0.39984130859375;0.00230224609375;2.90999999265296;292;100 mA
61.8963108437268;0.399749755859375;0.0023089599609375;2.91999999262771;293;100 mA
61.9063108437016;0.39971923828125;0.0022869873046875;2.92999999260246;294;100 mA
61.9163108436763;0.399749755859375;0.0022784423828125;2.93999999257721;295;100 mA
61.9263108436511;0.399749755859375;0.0022802734375;2.94999999255197;296;100 mA
61.9363108436258;0.39971923828125;0.002314453125;2.95999999252672;297;100 mA
61.9463108436006;0.399749755859375;0.0022918701171875;2.96999999250147;298;100 mA
61.9563108435754;0.399688720703125;0.00227874755859375;2.97999999247622;299;100 mA
61.9663108435501;0.399749755859375;0.00228302001953125;2.98999999245098;300;100 mA
61.9763108435249;0.3997802734375;0.00227294921875;2.99999999242573;301;100 mA
61.9863108434996;0.39971923828125;0.00230438232421875;3.00999999240048;302;100 mA
61.9963108434744;0.3997802734375;0.00229095458984375;3.01999999237523;303;100 mA
62.0063108434491;0.39984130859375;0.00226226806640625;3.02999999234999;304;100 mA
62.0163108434239;0.39971923828125;0.0022625732421875;3.03999999232474;305;100 mA
62.0263108433986;0.399810791015625;0.002264404296875;3.04999999229949;306;100 mA
62.0363108433734;0.3997802734375;0.00227081298828125;3.05999999227424;307;100 mA
62.0463108433481;0.3997802734375;0.00226318359375;3.069999992249;308;100 mA
62.0563108433229;0.3997802734375;0.0022564697265625;3.07999999222375;309;100 mA
62.0663108432976;0.3997802734375;0.002254638671875;3.0899999921985;310;100 mA
62.0763108432724;0.39971923828125;0.00228515625;3.09999999217325;311;100 mA
62.0863108432471;0.3997802734375;0.00230194091796875;3.109999992148;312;100 mA
62.0963108432219;0.399749755859375;0.00227935791015625;3.11999999212276;313;100 mA
62.1063108431966;0.3997802734375;0.00227996826171875;3.12999999209751;314;100 mA
62.1163108431714;0.3997802734375;0.0022943115234375;3.13999999207226;315;100 mA
62.1263108431461;0.399749755859375;0.00231170654296875;3.14999999204701;316;100 mA
62.1363108431209;0.3997802734375;0.00231781005859375;3.15999999202177;317;100 mA
62.1463108430956;0.399749755859375;0.00228912353515625;3.16999999199652;318;100 mA
62.1563108430704;0.3997802734375;0.0022625732421875;3.17999999197127;319;100 mA
62.1663108430452;0.3997802734375;0.0022607421875;3.18999999194602;320;100 mA
62.1763108430199;0.3997802734375;0.00228424072265625;3.19999999192078;321;100 mA
62.1863108429947;0.399749755859375;0.00226348876953125;3.20999999189553;322;100 mA
62.1963108429694;0.3997802734375;0.00225189208984375;3.21999999187028;323;100 mA
62.2063108429442;0.399810791015625;0.0022491455078125;3.22999999184503;324;100 mA
62.2163108429189;0.3997802734375;0.00224090576171875;3.23999999181979;325;100 mA
62.2263108428937;0.39984130859375;0.00227325439453125;3.24999999179454;326;100 mA
62.2363108428684;0.3997802734375;0.00225555419921875;3.25999999176929;327;100 mA
62.2463108428432;0.3997802734375;0.00223236083984375;3.26999999174404;328;100 mA
62.2563108428179;0.399749755859375;0.0022344970703125;3.2799999917188;329;100 mA
62.2663108427927;0.39984130859375;0.00224273681640625;3.28999999169355;330;100 mA
62.2763108427674;0.39971923828125;0.00226348876953125;3.2999999916683;331;100 mA
62.2863108427422;0.399749755859375;0.002252197265625;3.30999999164305;332;100 mA
62.2963108427169;0.3997802734375;0.00224456787109375;3.31999999161781;333;100 mA
62.3063108426917;0.399749755859375;0.00222930908203125;3.32999999159256;334;100 mA
62.3163108426664;0.399749755859375;0.002254638671875;3.33999999156731;335;100 mA
62.3263108426412;0.3997802734375;0.00225799560546875;3.34999999154206;336;100 mA
62.3363108426159;0.39971923828125;0.0022283935546875;3.35999999151682;337;100 mA
62.3463108425907;0.39971923828125;0.00222900390625;3.36999999149157;338;100 mA
62.3563108425654;0.399749755859375;0.00223175048828125;3.37999999146632;339;100 mA
62.3663108425402;0.3997802734375;0.00225006103515625;3.38999999144107;340;100 mA
62.376310842515;0.399749755859375;0.00226715087890625;3.39999999141583;341;100 mA
62.3863108424897;0.39971923828125;0.00224609375;3.40999999139058;342;100 mA
62.3963108424645;0.399749755859375;0.00222747802734375;3.41999999136533;343;100 mA
62.4063108424392;0.39984130859375;0.00222686767578125;3.42999999134008;344;100 mA
62.416310842414;0.399688720703125;0.00225982666015625;3.43999999131483;345;100 mA
62.4263108423887;0.3997802734375;0.00224700927734375;3.44999999128959;346;100 mA
62.4363108423635;0.39971923828125;0.00223602294921875;3.45999999126434;347;100 mA
62.4463108423382;0.399749755859375;0.0022369384765625;3.46999999123909;348;100 mA
62.456310842313;0.3997802734375;0.002227783203125;3.47999999121384;349;100 mA
62.4663108422877;0.39971923828125;0.0022686767578125;3.4899999911886;350;100 mA
62.4763108422625;0.3997802734375;0.00225616455078125;3.49999999116335;351;100 mA
62.4863108422372;0.399749755859375;0.00223541259765625;3.5099999911381;352;100 mA
62.496310842212;0.39971923828125;0.00223724365234375;3.51999999111285;353;100 mA
62.5063108421867;0.39984130859375;0.00222808837890625;3.52999999108761;354;100 mA
62.5163108421615;0.3997802734375;0.0022509765625;3.53999999106236;355;100 mA
62.5263108421362;0.3997802734375;0.00224609375;3.54999999103711;356;100 mA
62.536310842111;0.3997802734375;0.00223480224609375;3.55999999101186;357;100 mA
62.5463108420857;0.3997802734375;0.00222808837890625;3.56999999098662;358;100 mA
62.5563108420605;0.3997802734375;0.00225982666015625;3.57999999096137;359;100 mA
62.5663108420353;0.399810791015625;0.00227447509765625;3.58999999093612;360;100 mA
62.57631084201;0.3997802734375;0.00225006103515625;3.59999999091087;361;100 mA
62.5863108419848;0.3997802734375;0.00224761962890625;3.60999999088563;362;100 mA
62.5963108419595;0.39971923828125;0.00224761962890625;3.61999999086038;363;100 mA
62.6063108419343;0.3997802734375;0.0022625732421875;3.62999999083513;364;100 mA
62.616310841909;0.3997802734375;0.0022747802734375;3.63999999080988;365;100 mA
62.6263108418838;0.399810791015625;0.0022515869140625;3.64999999078464;366;100 mA
62.6363108418585;0.399810791015625;0.0022369384765625;3.65999999075939;367;100 mA
62.6463108418333;0.39971923828125;0.00223907470703125;3.66999999073414;368;100 mA
62.656310841808;0.399810791015625;0.00226348876953125;3.67999999070889;369;100 mA
62.6663108417828;0.3997802734375;0.002255859375;3.68999999068365;370;100 mA
62.6763108417575;0.399749755859375;0.00225006103515625;3.6999999906584;371;100 mA
62.6863108417323;0.399871826171875;0.00224639892578125;3.70999999063315;372;100 mA
62.696310841707;0.399749755859375;0.00223602294921875;3.7199999906079;373;100 mA
62.7063108416818;0.399749755859375;0.00227142333984375;3.72999999058266;374;100 mA
62.7163108416565;0.399749755859375;0.00225067138671875;3.73999999055741;375;100 mA
62.7263108416313;0.3997802734375;0.00223236083984375;3.74999999053216;376;100 mA
62.736310841606;0.3997802734375;0.002239990234375;3.75999999050691;377;100 mA
62.7463108415808;0.399810791015625;0.002230224609375;3.76999999048167;378;100 mA
62.7563108415555;0.399749755859375;0.00223541259765625;3.77999999045642;379;100 mA
62.7663108415303;0.399810791015625;0.00222015380859375;3.78999999043117;380;100 mA
62.7763108415051;0.399749755859375;0.00219268798828125;3.79999999040592;381;100 mA
62.7863108414798;0.399749755859375;0.00217864990234375;3.80999999038067;382;100 mA
62.7963108414546;0.399749755859375;0.00220550537109375;3.81999999035543;383;100 mA
62.8063108414293;0.399810791015625;0.002205810546875;3.82999999033018;384;100 mA
62.8163108414041;0.3997802734375;0.00219268798828125;3.83999999030493;385;100 mA
62.8263108413788;0.3997802734375;0.0021917724609375;3.84999999027968;386;100 mA
62.8363108413536;0.3997802734375;0.00219085693359375;3.85999999025444;387;100 mA
62.8463108413283;0.399749755859375;0.00220794677734375;3.86999999022919;388;100 mA
62.8563108413031;0.399749755859375;0.00222198486328125;3.87999999020394;389;100 mA
62.8663108412778;0.399810791015625;0.00220672607421875;3.88999999017869;390;100 mA
62.8763108412526;0.3997802734375;0.00219879150390625;3.89999999015345;391;100 mA
62.8863108412273;0.39971923828125;0.00220916748046875;3.9099999901282;392;100 mA
62.8963108412021;0.399749755859375;0.0022320556640625;3.91999999010295;393;100 mA
62.9063108411768;0.3997802734375;0.00221954345703125;3.9299999900777;394;100 mA
62.9163108411516;0.3997802734375;0.00221282958984375;3.93999999005246;395;100 mA
62.9263108411263;0.399749755859375;0.0022021484375;3.94999999002721;396;100 mA
62.9363108411011;0.39971923828125;0.002183837890625;3.95999999000196;397;100 mA
62.9463108410758;0.39971923828125;0.00220794677734375;3.96999998997671;398;100 mA
62.9563108410506;0.39971923828125;0.00218017578125;3.97999998995147;399;100 mA
62.9663108410253;0.399810791015625;0.00216461181640625;3.98999998992622;400;100 mA
62.9763108410001;0.3997802734375;0.00216766357421875;3.99999998990097;401;100 mA
62.9863108409749;0.399810791015625;0.0021588134765625;4.00999998987572;402;100 mA
62.9963108409496;0.399810791015625;0.002174072265625;4.01999998985048;403;100 mA
63.0063108409244;0.3997802734375;0.0021710205078125;4.02999998982523;404;100 mA
63.0163108408991;0.399688720703125;0.00216064453125;4.03999998979998;405;100 mA
63.0263108408739;0.3997802734375;0.002152099609375;4.04999998977473;406;100 mA
63.0363108408486;0.399749755859375;0.002177734375;4.05999998974949;407;100 mA
63.0463108408234;0.399749755859375;0.00217742919921875;4.06999998972424;408;100 mA
63.0563108407981;0.399810791015625;0.002159423828125;4.07999998969899;409;100 mA
63.0663108407729;0.39984130859375;0.002161865234375;4.08999998967374;410;100 mA
63.0763108407476;0.3997802734375;0.00216217041015625;4.0999999896485;411;100 mA
63.0863108407224;0.399810791015625;0.0021771240234375;4.10999998962325;412;100 mA
63.0963108406971;0.39971923828125;0.00218841552734375;4.119999989598;413;100 mA
63.1063108406719;0.399749755859375;0.0021575927734375;4.12999998957275;414;100 mA
63.1163108406466;0.399749755859375;0.00214019775390625;4.1399999895475;415;100 mA
63.1263108406214;0.399749755859375;0.002144775390625;4.14999998952226;416;100 mA
63.1363108405961;0.3997802734375;0.00216033935546875;4.15999998949701;417;100 mA
63.1463108405709;0.3997802734375;0.00215606689453125;4.16999998947176;418;100 mA
63.1563108405456;0.3997802734375;0.00214508056640625;4.17999998944651;419;100 mA
63.1663108405204;0.399749755859375;0.0021453857421875;4.18999998942127;420;100 mA
63.1763108404951;0.399749755859375;0.002139892578125;4.19999998939602;421;100 mA
63.1863108404699;0.399749755859375;0.0021771240234375;4.20999998937077;422;100 mA
63.1963108404447;0.399749755859375;0.0021551513671875;4.21999998934552;423;100 mA
63.2063108404194;0.399871826171875;0.0021392822265625;4.22999998932028;424;100 mA
63.2163108403942;0.39984130859375;0.00214813232421875;4.23999998929503;425;100 mA
63.2263108403689;0.39984130859375;0.00213623046875;4.24999998926978;426;100 mA
63.2363108403437;0.399688720703125;0.0021551513671875;4.25999998924453;427;100 mA
63.2463108403184;0.399749755859375;0.00215179443359375;4.26999998921929;428;100 mA
63.2563108402932;0.399810791015625;0.0021380615234375;4.27999998919404;429;100 mA
63.2663108402679;0.3997802734375;0.00213653564453125;4.28999998916879;430;100 mA
63.2763108402427;0.399688720703125;0.0021636962890625;4.29999998914354;431;100 mA
63.2863108402174;0.399749755859375;0.00215545654296875;4.3099999891183;432;100 mA
63.2963108401922;0.3997802734375;0.00214141845703125;4.31999998909305;433;100 mA
63.3063108401669;0.399810791015625;0.00213226318359375;4.3299999890678;434;100 mA
63.3163108401417;0.3997802734375;0.00213531494140625;4.33999998904255;435;100 mA
63.3263108401164;0.399810791015625;0.00215362548828125;4.34999998901731;436;100 mA
63.3363108400912;0.3997802734375;0.0021649169921875;4.35999998899206;437;100 mA
63.3463108400659;0.399749755859375;0.00214263916015625;4.36999998896681;438;100 mA
63.3563108400407;0.399749755859375;0.00213409423828125;4.37999998894156;439;100 mA
63.3663108400154;0.3997802734375;0.002139892578125;4.38999998891632;440;100 mA
63.3763108399902;0.399810791015625;0.0021490478515625;4.39999998889107;441;100 mA
63.3863108399649;0.3997802734375;0.00213958740234375;4.40999998886582;442;100 mA
63.3963108399397;0.399749755859375;0.0021258544921875;4.41999998884057;443;100 mA
63.4063108399145;0.3997802734375;0.0021173095703125;4.42999998881533;444;100 mA
63.4163108398892;0.399749755859375;0.00211700439453125;4.43999998879008;445;100 mA
63.426310839864;0.39971923828125;0.00214752197265625;4.44999998876483;446;100 mA
63.4363108398387;0.39971923828125;0.0021270751953125;4.45999998873958;447;100 mA
63.4463108398135;0.3997802734375;0.0021136474609375;4.46999998871433;448;100 mA
63.4563108397882;0.3997802734375;0.00212005615234375;4.47999998868909;449;100 mA
63.466310839763;0.399749755859375;0.00211517333984375;4.48999998866384;450;100 mA
63.4763108397377;0.3997802734375;0.00212738037109375;4.49999998863859;451;100 mA
63.4863108397125;0.399749755859375;0.00211578369140625;4.50999998861334;452;100 mA
63.4963108396872;0.3997802734375;0.00210174560546875;4.5199999885881;453;100 mA
63.506310839662;0.3997802734375;0.00209716796875;4.52999998856285;454;100 mA
63.5163108396367;0.3997802734375;0.0021221923828125;4.5399999885376;455;100 mA
63.5263108396115;0.399749755859375;0.0021075439453125;4.54999998851235;456;100 mA
63.5363108395862;0.3997802734375;0.00209136962890625;4.55999998848711;457;100 mA
63.546310839561;0.3997802734375;0.00208984375;4.56999998846186;458;100 mA
63.5563108395357;0.3997802734375;0.00208099365234375;4.57999998843661;459;100 mA
63.5663108395105;0.399810791015625;0.002100830078125;4.58999998841136;460;100 mA
63.5763108394852;0.3997802734375;0.00210906982421875;4.59999998838612;461;100 mA
63.58631083946;0.39971923828125;0.0020843505859375;4.60999998836087;462;100 mA
63.5963108394348;0.399749755859375;0.0020843505859375;4.61999998833562;463;100 mA
63.6063108394095;0.399749755859375;0.00208892822265625;4.62999998831037;464;100 mA
63.6163108393843;0.399688720703125;0.00211395263671875;4.63999998828513;465;100 mA
63.626310839359;0.399749755859375;0.0021136474609375;4.64999998825988;466;100 mA
63.6363108393338;0.399688720703125;0.0021014404296875;4.65999998823463;467;100 mA
63.6463108393085;0.3997802734375;0.00209625244140625;4.66999998820938;468;100 mA
63.6563108392833;0.399810791015625;0.00208709716796875;4.67999998818414;469;100 mA
63.666310839258;0.399749755859375;0.00211761474609375;4.68999998815889;470;100 mA
63.6763108392328;0.399749755859375;0.0020867919921875;4.69999998813364;471;100 mA
63.6863108392075;0.399810791015625;0.00207672119140625;4.70999998810839;472;100 mA
63.6963108391823;0.399749755859375;0.0020880126953125;4.71999998808315;473;100 mA
63.706310839157;0.399810791015625;0.002083740234375;4.7299999880579;474;100 mA
63.7163108391318;0.399749755859375;0.0021063232421875;4.73999998803265;475;100 mA
63.7263108391065;0.399810791015625;0.00209686279296875;4.7499999880074;476;100 mA
63.7363108390813;0.399749755859375;0.00207366943359375;4.75999998798216;477;100 mA
63.746310839056;0.399749755859375;0.0020684814453125;4.76999998795691;478;100 mA
63.7563108390308;0.39971923828125;0.0020928955078125;4.77999998793166;479;100 mA
63.7663108390055;0.3997802734375;0.00208770751953125;4.78999998790641;480;100 mA
63.7763108389803;0.399749755859375;0.00207550048828125;4.79999998788116;481;100 mA
63.786310838955;0.399749755859375;0.00207000732421875;4.80999998785592;482;100 mA
63.7963108389298;0.399749755859375;0.00206756591796875;4.81999998783067;483;100 mA
63.8063108389046;0.39984130859375;0.002086181640625;4.82999998780542;484;100 mA
63.8163108388793;0.3997802734375;0.0020947265625;4.83999998778017;485;100 mA
63.8263108388541;0.399810791015625;0.002066650390625;4.84999998775493;486;100 mA
63.8363108388288;0.39971923828125;0.0020611572265625;4.85999998772968;487;100 mA
63.8463108388036;0.399810791015625;0.0020660400390625;4.86999998770443;488;100 mA
63.8563108387783;0.3997802734375;0.00208099365234375;4.87999998767918;489;100 mA
63.8663108387531;0.39971923828125;0.0020941162109375;4.88999998765394;490;100 mA
63.8763108387278;0.3997802734375;0.00207733154296875;4.89999998762869;491;100 mA
63.8863108387026;0.3997802734375;0.002073974609375;4.90999998760344;492;100 mA
63.8963108386773;0.3997802734375;0.00207672119140625;4.91999998757819;493;100 mA
63.9063108386521;0.3997802734375;0.00210479736328125;4.92999998755295;494;100 mA
63.9163108386268;0.399810791015625;0.002083740234375;4.9399999875277;495;100 mA
63.9263108386016;0.399749755859375;0.002076416015625;4.94999998750245;496;100 mA
63.9363108385763;0.399810791015625;0.00208038330078125;4.9599999874772;497;100 mA
63.9463108385511;0.399810791015625;0.00207183837890625;4.96999998745196;498;100 mA
63.9563108385258;0.399810791015625;0.0020904541015625;4.97999998742671;499;100 mA
63.9663108385006;0.3997802734375;0.00208038330078125;4.98999998740146;500;100 mA
63.9763108384753;0.3997802734375;0.00206298828125;4.99999998737621;501;100 mA
63.9863108384501;0.399810791015625;0.00206146240234375;5.00999998735097;502;100 mA
63.9963108384248;0.399749755859375;0.00208160400390625;5.01999998732572;503;100 mA
64.0063108383996;0.399749755859375;0.00207977294921875;5.02999998730047;504;100 mA
64.0163108383744;0.399749755859375;0.00207275390625;5.03999998727522;505;100 mA
64.0263108383491;0.399810791015625;0.0020635986328125;5.04999998724998;506;100 mA
64.0363108383239;0.399749755859375;0.0020538330078125;5.05999998722473;507;100 mA
64.0463108382986;0.399749755859375;0.00207611083984375;5.06999998719948;508;100 mA
64.0563108382734;0.3997802734375;0.002071533203125;5.07999998717423;509;100 mA
64.0663108382481;0.399749755859375;0.0020489501953125;5.08999998714899;510;100 mA
64.0763108382229;0.39971923828125;0.00204833984375;5.09999998712374;511;100 mA
64.0863108381976;0.399749755859375;0.0020513916015625;5.10999998709849;512;100 mA
64.0963108381724;0.399810791015625;0.0020648193359375;5.11999998707324;513;100 mA
64.1063108381471;0.3997802734375;0.00206512451171875;5.129999987048;514;100 mA
64.1163108381219;0.3997802734375;0.00205322265625;5.13999998702275;515;100 mA
64.1263108380966;0.399749755859375;0.0020465087890625;5.1499999869975;516;100 mA
64.1363108380714;0.399749755859375;0.0020465087890625;5.15999998697225;517;100 mA
64.1463108380461;0.39971923828125;0.00206787109375;5.169999986947;518;100 mA
64.1563108380209;0.39984130859375;0.00203887939453125;5.17999998692176;519;100 mA
64.1663108379956;0.399749755859375;0.0020343017578125;5.18999998689651;520;100 mA
64.1763108379704;0.39971923828125;0.0020416259765625;5.19999998687126;521;100 mA
64.1863108379451;0.399810791015625;0.00203887939453125;5.20999998684601;522;100 mA
64.1963108379199;0.3997802734375;0.002064208984375;5.21999998682077;523;100 mA
64.2063108378946;0.39971923828125;0.0020526123046875;5.22999998679552;524;100 mA
64.2163108378694;0.399810791015625;0.00203765869140625;5.23999998677027;525;100 mA
64.2263108378442;0.3997802734375;0.002047119140625;5.24999998674502;526;100 mA
64.2363108378189;0.39971923828125;0.00206787109375;5.25999998671978;527;100 mA
64.2463108377937;0.3997802734375;0.00206756591796875;5.26999998669453;528;100 mA
64.2563108377684;0.399749755859375;0.0020489501953125;5.27999998666928;529;100 mA
64.2663108377432;0.399810791015625;0.00203826904296875;5.28999998664403;530;100 mA
64.2763108377179;0.399749755859375;0.00202880859375;5.29999998661879;531;100 mA
64.2863108376927;0.3997802734375;0.00205963134765625;5.30999998659354;532;100 mA
64.2963108376674;0.3997802734375;0.00206268310546875;5.31999998656829;533;100 mA
64.3063108376422;0.3997802734375;0.0020361328125;5.32999998654304;534;100 mA
64.3163108376169;0.39971923828125;0.002041015625;5.3399999865178;535;100 mA
64.3263108375917;0.39971923828125;0.00204376220703125;5.34999998649255;536;100 mA
64.3363108375664;0.3997802734375;0.00206390380859375;5.3599999864673;537;100 mA
64.3463108375412;0.399810791015625;0.00206329345703125;5.36999998644205;538;100 mA
64.3563108375159;0.3997802734375;0.0020501708984375;5.37999998641681;539;100 mA
64.3663108374907;0.399810791015625;0.00204437255859375;5.38999998639156;540;100 mA
64.3763108374654;0.3997802734375;0.00204742431640625;5.39999998636631;541;100 mA
64.3863108374402;0.39971923828125;0.002069091796875;5.40999998634106;542;100 mA
64.3963108374149;0.3997802734375;0.002044677734375;5.41999998631582;543;100 mA
64.4063108373897;0.39971923828125;0.00203338623046875;5.42999998629057;544;100 mA
64.4163108373644;0.3997802734375;0.002037353515625;5.43999998626532;545;100 mA
64.4263108373392;0.3997802734375;0.00202423095703125;5.44999998624007;546;100 mA
64.436310837314;0.39984130859375;0.00204559326171875;5.45999998621483;547;100 mA
64.4463108372887;0.3997802734375;0.00202667236328125;5.46999998618958;548;100 mA
64.4563108372635;0.399688720703125;0.00200164794921875;5.47999998616433;549;100 mA
64.4663108372382;0.3997802734375;0.0020037841796875;5.48999998613908;550;100 mA
64.476310837213;0.399749755859375;0.0020147705078125;5.49999998611383;551;100 mA
64.4863108371877;0.3997802734375;0.00201324462890625;5.50999998608859;552;100 mA
64.4963108371625;0.399749755859375;0.00200347900390625;5.51999998606334;553;100 mA
64.5063108371372;0.399810791015625;0.00199737548828125;5.52999998603809;554;100 mA
64.516310837112;0.3997802734375;0.00199951171875;5.53999998601284;555;100 mA
64.5263108370867;0.399810791015625;0.00203460693359375;5.5499999859876;556;100 mA
64.5363108370615;0.39971923828125;0.00203521728515625;5.55999998596235;557;100 mA
64.5463108370362;0.399749755859375;0.00201324462890625;5.5699999859371;558;100 mA
64.556310837011;0.399749755859375;0.00201629638671875;5.57999998591185;559;100 mA
64.5663108369857;0.399810791015625;0.00201934814453125;5.58999998588661;560;100 mA
64.5763108369605;0.399749755859375;0.00203369140625;5.59999998586136;561;100 mA
64.5863108369352;0.399749755859375;0.00203765869140625;5.60999998583611;562;100 mA
64.59631083691;0.3997802734375;0.00201904296875;5.61999998581086;563;100 mA
64.6063108368847;0.399749755859375;0.002010498046875;5.62999998578562;564;100 mA
64.6163108368595;0.39984130859375;0.0020208740234375;5.63999998576037;565;100 mA
64.6263108368343;0.39971923828125;0.00204193115234375;5.64999998573512;566;100 mA
64.636310836809;0.399749755859375;0.0020245361328125;5.65999998570987;567;100 mA
64.6463108367838;0.3997802734375;0.00201812744140625;5.66999998568463;568;100 mA
64.6563108367585;0.399749755859375;0.0020233154296875;5.67999998565938;569;100 mA
64.6663108367333;0.3997802734375;0.00201995849609375;5.68999998563413;570;100 mA
64.676310836708;0.3997802734375;0.0020477294921875;5.69999998560888;571;100 mA
64.6863108366828;0.399688720703125;0.0020343017578125;5.70999998558364;572;100 mA
64.6963108366575;0.3997802734375;0.0020196533203125;5.71999998555839;573;100 mA
64.7063108366323;0.399749755859375;0.00202606201171875;5.72999998553314;574;100 mA
64.716310836607;0.3997802734375;0.002032470703125;5.73999998550789;575;100 mA
64.7263108365818;0.39971923828125;0.0020318603515625;5.74999998548265;576;100 mA
64.7363108365565;0.3997802734375;0.00201873779296875;5.7599999854574;577;100 mA
64.7463108365313;0.39971923828125;0.0020123291015625;5.76999998543215;578;100 mA
64.756310836506;0.39971923828125;0.00200592041015625;5.7799999854069;579;100 mA
64.7663108364808;0.3997802734375;0.0020343017578125;5.78999998538166;580;100 mA
64.7763108364555;0.3997802734375;0.0020263671875;5.79999998535641;581;100 mA
64.7863108364303;0.3997802734375;0.00200347900390625;5.80999998533116;582;100 mA
64.796310836405;0.39971923828125;0.0020062255859375;5.81999998530591;583;100 mA
64.8063108363798;0.399810791015625;0.0020074462890625;5.82999998528066;584;100 mA
64.8163108363545;0.399688720703125;0.00202880859375;5.83999998525542;585;100 mA
64.8263108363293;0.399810791015625;0.00203582763671875;5.84999998523017;586;100 mA
64.8363108363041;0.3997802734375;0.002017822265625;5.85999998520492;587;100 mA
64.8463108362788;0.3997802734375;0.00201080322265625;5.86999998517967;588;100 mA
64.8563108362536;0.3997802734375;0.0020147705078125;5.87999998515443;589;100 mA
64.8663108362283;0.399749755859375;0.00203521728515625;5.88999998512918;590;100 mA
64.8763108362031;0.3997802734375;0.00201568603515625;5.89999998510393;591;100 mA
64.8863108361778;0.399749755859375;0.002010498046875;5.90999998507868;592;100 mA
64.8963108361526;0.399749755859375;0.00201507568359375;5.91999998505344;593;100 mA
64.9063108361273;0.39984130859375;0.00201080322265625;5.92999998502819;594;100 mA
64.9163108361021;0.3997802734375;0.002044677734375;5.93999998500294;595;100 mA
64.9263108360768;0.3997802734375;0.0020257568359375;5.94999998497769;596;100 mA
64.9363108360516;0.399749755859375;0.0020172119140625;5.95999998495245;597;100 mA
64.9463108360263;0.399749755859375;0.002030029296875;5.9699999849272;598;100 mA
64.9563108360011;0.399749755859375;0.00203521728515625;5.97999998490195;599;100 mA
64.9663108359758;0.399810791015625;0.00204254150390625;5.9899999848767;600;100 mA
64.9763108359506;0.399810791015625;0.0020330810546875;5.99999998485146;601;100 mA
64.9863108359253;0.399749755859375;0.00202972412109375;6.00999998482621;602;100 mA
64.9963108359001;0.3997802734375;0.00202728271484375;6.01999998480096;603;100 mA
65.0063108358748;0.3997802734375;0.0020587158203125;6.02999998477571;604;100 mA
65.0163108358496;0.39971923828125;0.0020513916015625;6.03999998475047;605;100 mA
65.0263108358243;0.3997802734375;0.002025146484375;6.04999998472522;606;100 mA
65.0363108357991;0.399749755859375;0.00203216552734375;6.05999998469997;607;100 mA
65.0463108357739;0.399749755859375;0.00202728271484375;6.06999998467472;608;100 mA
65.0563108357486;0.39984130859375;0.0020465087890625;6.07999998464948;609;100 mA
65.0663108357234;0.399749755859375;0.00205169677734375;6.08999998462423;610;100 mA
65.0763108356981;0.39971923828125;0.00203765869140625;6.09999998459898;611;100 mA
65.0863108356729;0.399810791015625;0.00202880859375;6.10999998457373;612;100 mA
65.0963108356476;0.3997802734375;0.00204315185546875;6.11999998454849;613;100 mA
65.1063108356224;0.399749755859375;0.00206268310546875;6.12999998452324;614;100 mA
65.1163108355971;0.39971923828125;0.00204742431640625;6.13999998449799;615;100 mA
65.1263108355719;0.3997802734375;0.0020404052734375;6.14999998447274;616;100 mA
65.1363108355466;0.39984130859375;0.00204010009765625;6.1599999844475;617;100 mA
65.1463108355214;0.399749755859375;0.00203369140625;6.16999998442225;618;100 mA
65.1563108354961;0.3997802734375;0.0020648193359375;6.179999984397;619;100 mA
65.1663108354709;0.399810791015625;0.00204925537109375;6.18999998437175;620;100 mA
65.1763108354456;0.3997802734375;0.00203826904296875;6.1999999843465;621;100 mA
65.1863108354204;0.399749755859375;0.00205078125;6.20999998432126;622;100 mA
65.1963108353951;0.399810791015625;0.00205810546875;6.21999998429601;623;100 mA
65.2063108353699;0.3997802734375;0.002066650390625;6.22999998427076;624;100 mA
65.2163108353446;0.399749755859375;0.0020587158203125;6.23999998424551;625;100 mA
65.2263108353194;0.399749755859375;0.00204833984375;6.24999998422027;626;100 mA
65.2363108352941;0.3997802734375;0.00204132080078125;6.25999998419502;627;100 mA
65.2463108352689;0.39971923828125;0.00207061767578125;6.26999998416977;628;100 mA
65.2563108352437;0.399810791015625;0.002056884765625;6.27999998414452;629;100 mA
65.2663108352184;0.3997802734375;0.00204010009765625;6.28999998411928;630;100 mA
65.2763108351932;0.39971923828125;0.002044677734375;6.29999998409403;631;100 mA
65.2863108351679;0.399810791015625;0.00204193115234375;6.30999998406878;632;100 mA
65.2963108351427;0.39971923828125;0.00206146240234375;6.31999998404353;633;100 mA
65.3063108351174;0.3997802734375;0.00206390380859375;6.32999998401829;634;100 mA
65.3163108350922;0.39984130859375;0.00204742431640625;6.33999998399304;635;100 mA
65.3263108350669;0.3997802734375;0.00204803466796875;6.34999998396779;636;100 mA
65.3363108350417;0.3997802734375;0.002061767578125;6.35999998394254;637;100 mA
65.3463108350164;0.3997802734375;0.00208038330078125;6.3699999839173;638;100 mA
65.3563108349912;0.3997802734375;0.00206329345703125;6.37999998389205;639;100 mA
65.3663108349659;0.3997802734375;0.00206512451171875;6.3899999838668;640;100 mA
65.3763108349407;0.39971923828125;0.002069091796875;6.39999998384155;641;100 mA
65.3863108349154;0.3997802734375;0.0020672607421875;6.40999998381631;642;100 mA
65.3963108348902;0.3997802734375;0.00209381103515625;6.41999998379106;643;100 mA
65.4063108348649;0.399749755859375;0.00206878662109375;6.42999998376581;644;100 mA
65.4163108348397;0.39984130859375;0.00205963134765625;6.43999998374056;645;100 mA
65.4263108348144;0.3997802734375;0.0020672607421875;6.44999998371532;646;100 mA
65.4363108347892;0.399749755859375;0.00206817626953125;6.45999998369007;647;100 mA
65.4463108347639;0.399810791015625;0.00207733154296875;6.46999998366482;648;100 mA
65.4563108347387;0.399749755859375;0.002064208984375;6.47999998363957;649;100 mA
65.4663108347135;0.399749755859375;0.002059326171875;6.48999998361433;650;100 mA
65.4763108346882;0.399871826171875;0.0020501708984375;6.49999998358908;651;100 mA
65.486310834663;0.3997802734375;0.00208160400390625;6.50999998356383;652;100 mA
65.4963108346377;0.399749755859375;0.0020721435546875;6.51999998353858;653;100 mA
65.5063108346125;0.39984130859375;0.00205963134765625;6.52999998351333;654;100 mA
65.5163108345872;0.3997802734375;0.002064208984375;6.53999998348809;655;100 mA
65.526310834562;0.399749755859375;0.002061767578125;6.54999998346284;656;100 mA
65.5363108345367;0.3997802734375;0.0020806884765625;6.55999998343759;657;100 mA
65.5463108345115;0.3997802734375;0.0020904541015625;6.56999998341234;658;100 mA
65.5563108344862;0.399810791015625;0.002069091796875;6.5799999833871;659;100 mA
65.566310834461;0.3997802734375;0.00206634521484375;6.58999998336185;660;100 mA
65.5763108344357;0.39971923828125;0.00206878662109375;6.5999999833366;661;100 mA
65.5863108344105;0.399749755859375;0.00207611083984375;6.60999998331135;662;100 mA
65.5963108343852;0.39971923828125;0.00205047607421875;6.61999998328611;663;100 mA
65.60631083436;0.399749755859375;0.0020343017578125;6.62999998326086;664;100 mA
65.6163108343347;0.39971923828125;0.00202972412109375;6.63999998323561;665;100 mA
65.6263108343095;0.3997802734375;0.00202880859375;6.64999998321036;666;100 mA
65.6363108342842;0.399810791015625;0.00205657958984375;6.65999998318512;667;100 mA
65.646310834259;0.39971923828125;0.00203125;6.66999998315987;668;100 mA
65.6563108342338;0.399810791015625;0.0020196533203125;6.67999998313462;669;100 mA
65.6663108342085;0.399749755859375;0.00203094482421875;6.68999998310937;670;100 mA
65.6763108341833;0.399749755859375;0.002034912109375;6.69999998308413;671;100 mA
65.686310834158;0.3997802734375;0.002047119140625;6.70999998305888;672;100 mA
65.6963108341328;0.3997802734375;0.0020391845703125;6.71999998303363;673;100 mA
65.7063108341075;0.399749755859375;0.00203338623046875;6.72999998300838;674;100 mA
65.7163108340823;0.399810791015625;0.00203033447265625;6.73999998298314;675;100 mA
65.726310834057;0.39984130859375;0.00206634521484375;6.74999998295789;676;100 mA
65.7363108340318;0.399810791015625;0.00204864501953125;6.75999998293264;677;100 mA
65.7463108340065;0.399749755859375;0.0020318603515625;6.76999998290739;678;100 mA
65.7563108339813;0.399810791015625;0.0020318603515625;6.77999998288215;679;100 mA
65.766310833956;0.399688720703125;0.00202239990234375;6.7899999828569;680;100 mA
65.7763108339308;0.399749755859375;0.0020404052734375;6.79999998283165;681;100 mA
65.7863108339055;0.399749755859375;0.0020428466796875;6.8099999828064;682;100 mA
65.7963108338803;0.399749755859375;0.0020263671875;6.81999998278116;683;100 mA
65.806310833855;0.3997802734375;0.002030029296875;6.82999998275591;684;100 mA
65.8163108338298;0.399749755859375;0.00204193115234375;6.83999998273066;685;100 mA
65.8263108338045;0.399749755859375;0.00205841064453125;6.84999998270541;686;100 mA
65.8363108337793;0.399749755859375;0.0020526123046875;6.85999998268016;687;100 mA
65.846310833754;0.3997802734375;0.00204864501953125;6.86999998265492;688;100 mA
65.8563108337288;0.39984130859375;0.00204345703125;6.87999998262967;689;100 mA
65.8663108337036;0.3997802734375;0.00204193115234375;6.88999998260442;690;100 mA
65.8763108336783;0.399810791015625;0.00206512451171875;6.89999998257917;691;100 mA
65.8863108336531;0.39971923828125;0.00203369140625;6.90999998255393;692;100 mA
65.8963108336278;0.399749755859375;0.00203094482421875;6.91999998252868;693;100 mA
65.9063108336026;0.39971923828125;0.00204742431640625;6.92999998250343;694;100 mA
65.9163108335773;0.3997802734375;0.002054443359375;6.93999998247818;695;100 mA
65.9263108335521;0.399688720703125;0.0020703125;6.94999998245294;696;100 mA
65.9363108335268;0.3997802734375;0.00206756591796875;6.95999998242769;697;100 mA
65.9463108335016;0.3997802734375;0.002060546875;6.96999998240244;698;100 mA
65.9563108334763;0.3997802734375;0.002064208984375;6.97999998237719;699;100 mA
65.9663108334511;0.39984130859375;0.00209686279296875;6.98999998235195;700;100 mA
