Time (s);WE(1).Potential (V);WE(1).Current (A);Corrected time (s);Index;Current range
66.4474518322363;0.299835205078125;0.0009185791015625;0;1;100 mA
66.4574518322111;0.2999267578125;0.00118896484375;0.00999999997475243;2;100 mA
66.4674518321858;0.299896240234375;0.00131683349609375;0.0199999999495049;3;100 mA
66.4774518321606;0.29986572265625;0.001383056640625;0.0299999999242573;4;100 mA
66.4874518321353;0.29986572265625;0.00147674560546875;0.0399999998990097;5;100 mA
66.4974518321101;0.29986572265625;0.00152191162109375;0.0499999998737621;6;100 mA
66.5074518320848;0.2999267578125;0.00154632568359375;0.0599999998485146;7;100 mA
66.5174518320596;0.29986572265625;0.00157928466796875;0.069999999823267;8;100 mA
66.5274518320343;0.299835205078125;0.0015948486328125;0.0799999997980194;9;100 mA
66.5374518320091;0.299835205078125;0.00162689208984375;0.0899999997727718;10;100 mA
66.5474518319838;0.299896240234375;0.00163330078125;0.0999999997475243;11;100 mA
66.5574518319586;0.2998046875;0.00163726806640625;0.109999999722277;12;100 mA
66.5674518319333;0.29986572265625;0.00163482666015625;0.119999999697029;13;100 mA
66.5774518319081;0.299835205078125;0.0016510009765625;0.129999999671782;14;100 mA
66.5874518318828;0.29986572265625;0.00167877197265625;0.139999999646534;15;100 mA
66.5974518318576;0.299896240234375;0.00166534423828125;0.149999999621286;16;100 mA
66.6074518318323;0.299835205078125;0.00167755126953125;0.159999999596039;17;100 mA
66.6174518318071;0.2998046875;0.00169097900390625;0.169999999570791;18;100 mA
66.6274518317819;0.29986572265625;0.0016998291015625;0.179999999545544;19;100 mA
66.6374518317566;0.2998046875;0.0017254638671875;0.189999999520296;20;100 mA
66.6474518317314;0.29986572265625;0.0017120361328125;0.199999999495049;21;100 mA
66.6574518317061;0.29986572265625;0.00170867919921875;0.209999999469801;22;100 mA
66.6674518316809;0.299957275390625;0.00171600341796875;0.219999999444553;23;100 mA
66.6774518316556;0.29986572265625;0.0017462158203125;0.229999999419306;24;100 mA
66.6874518316304;0.299896240234375;0.0017437744140625;0.239999999394058;25;100 mA
66.6974518316051;0.299896240234375;0.00173675537109375;0.249999999368811;26;100 mA
66.7074518315799;0.299835205078125;0.0017401123046875;0.259999999343563;27;100 mA
66.7174518315546;0.2998046875;0.001732177734375;0.269999999318316;28;100 mA
66.7274518315294;0.29986572265625;0.00176361083984375;0.279999999293068;29;100 mA
66.7374518315041;0.299835205078125;0.0017584228515625;0.28999999926782;30;100 mA
66.7474518314789;0.299835205078125;0.0017437744140625;0.299999999242573;31;100 mA
66.7574518314536;0.299835205078125;0.00174560546875;0.309999999217325;32;100 mA
66.7674518314284;0.29986572265625;0.00174163818359375;0.319999999192078;33;100 mA
66.7774518314031;0.29986572265625;0.0017572021484375;0.32999999916683;34;100 mA
66.7874518313779;0.29986572265625;0.0017523193359375;0.339999999141583;35;100 mA
66.7974518313526;0.299896240234375;0.00173675537109375;0.349999999116335;36;100 mA
66.8074518313274;0.299835205078125;0.00173187255859375;0.359999999091087;37;100 mA
66.8174518313022;0.299835205078125;0.00173828125;0.36999999906584;38;100 mA
66.8274518312769;0.29986572265625;0.00174652099609375;0.379999999040592;39;100 mA
66.8374518312517;0.2998046875;0.001729736328125;0.389999999015345;40;100 mA
66.8474518312264;0.29986572265625;0.00173309326171875;0.399999998990097;41;100 mA
66.8574518312012;0.299835205078125;0.00174652099609375;0.40999999896485;42;100 mA
66.8674518311759;0.299896240234375;0.00174407958984375;0.419999998939602;43;100 mA
66.8774518311507;0.29986572265625;0.00176361083984375;0.429999998914354;44;100 mA
66.8874518311254;0.29986572265625;0.00174468994140625;0.439999998889107;45;100 mA
66.8974518311002;0.299957275390625;0.001727294921875;0.449999998863859;46;100 mA
66.9074518310749;0.29986572265625;0.00173370361328125;0.459999998838612;47;100 mA
66.9174518310497;0.29986572265625;0.00175140380859375;0.469999998813364;48;100 mA
66.9274518310244;0.299835205078125;0.001741943359375;0.479999998788116;49;100 mA
66.9374518309992;0.299896240234375;0.0017352294921875;0.489999998762869;50;100 mA
66.9474518309739;0.2998046875;0.0017376708984375;0.499999998737621;51;100 mA
66.9574518309487;0.29986572265625;0.00173858642578125;0.509999998712374;52;100 mA
66.9674518309234;0.299896240234375;0.00177886962890625;0.519999998687126;53;100 mA
66.9774518308982;0.29986572265625;0.00176910400390625;0.529999998661879;54;100 mA
66.9874518308729;0.29986572265625;0.0017535400390625;0.539999998636631;55;100 mA
66.9974518308477;0.299835205078125;0.00175262451171875;0.549999998611383;56;100 mA
67.0074518308224;0.299774169921875;0.00174560546875;0.559999998586136;57;100 mA
67.0174518307972;0.299896240234375;0.00176483154296875;0.569999998560888;58;100 mA
67.027451830772;0.299835205078125;0.00176666259765625;0.579999998535641;59;100 mA
67.0374518307467;0.29986572265625;0.00176025390625;0.589999998510393;60;100 mA
67.0474518307215;0.299835205078125;0.00175689697265625;0.599999998485146;61;100 mA
67.0574518306962;0.299835205078125;0.00178192138671875;0.609999998459898;62;100 mA
67.067451830671;0.299835205078125;0.0017962646484375;0.61999999843465;63;100 mA
67.0774518306457;0.29986572265625;0.00178192138671875;0.629999998409403;64;100 mA
67.0874518306205;0.2998046875;0.001783447265625;0.639999998384155;65;100 mA
67.0974518305952;0.299774169921875;0.00179351806640625;0.649999998358908;66;100 mA
67.10745183057;0.29986572265625;0.0017974853515625;0.65999999833366;67;100 mA
67.1174518305447;0.29986572265625;0.00182342529296875;0.669999998308413;68;100 mA
67.1274518305195;0.29986572265625;0.00180908203125;0.679999998283165;69;100 mA
67.1374518304942;0.299896240234375;0.0017974853515625;0.689999998257917;70;100 mA
67.147451830469;0.299835205078125;0.001796875;0.69999999823267;71;100 mA
67.1574518304437;0.29986572265625;0.00181182861328125;0.709999998207422;72;100 mA
67.1674518304185;0.299835205078125;0.001802978515625;0.719999998182175;73;100 mA
67.1774518303932;0.2999267578125;0.00178558349609375;0.729999998156927;74;100 mA
67.187451830368;0.29986572265625;0.00177703857421875;0.73999999813168;75;100 mA
67.1974518303427;0.299835205078125;0.0017657470703125;0.749999998106432;76;100 mA
67.2074518303175;0.29986572265625;0.00179779052734375;0.759999998081184;77;100 mA
67.2174518302922;0.2998046875;0.001781005859375;0.769999998055937;78;100 mA
67.227451830267;0.299896240234375;0.001761474609375;0.779999998030689;79;100 mA
67.2374518302418;0.299835205078125;0.0017633056640625;0.789999998005442;80;100 mA
67.2474518302165;0.2999267578125;0.0017535400390625;0.799999997980194;81;100 mA
67.2574518301913;0.299896240234375;0.0017742919921875;0.809999997954947;82;100 mA
67.267451830166;0.299835205078125;0.00177032470703125;0.819999997929699;83;100 mA
67.2774518301408;0.299896240234375;0.0017572021484375;0.829999997904451;84;100 mA
67.2874518301155;0.299896240234375;0.00175262451171875;0.839999997879204;85;100 mA
67.2974518300903;0.29986572265625;0.00177490234375;0.849999997853956;86;100 mA
67.307451830065;0.299774169921875;0.0017901611328125;0.859999997828709;87;100 mA
67.3174518300398;0.2998046875;0.001778564453125;0.869999997803461;88;100 mA
67.3274518300145;0.299896240234375;0.00177734375;0.879999997778214;89;100 mA
67.3374518299893;0.29986572265625;0.00178436279296875;0.889999997752966;90;100 mA
67.347451829964;0.299835205078125;0.00178558349609375;0.899999997727718;91;100 mA
67.3574518299388;0.2998046875;0.001810302734375;0.909999997702471;92;100 mA
67.3674518299135;0.29986572265625;0.00179412841796875;0.919999997677223;93;100 mA
67.3774518298883;0.29986572265625;0.00178863525390625;0.929999997651976;94;100 mA
67.387451829863;0.299835205078125;0.00179779052734375;0.939999997626728;95;100 mA
67.3974518298378;0.299835205078125;0.0018145751953125;0.949999997601481;96;100 mA
67.4074518298125;0.2998046875;0.0018145751953125;0.959999997576233;97;100 mA
67.4174518297873;0.299896240234375;0.00180084228515625;0.969999997550985;98;100 mA
67.427451829762;0.2998046875;0.0017950439453125;0.979999997525738;99;100 mA
67.4374518297368;0.299835205078125;0.00178924560546875;0.98999999750049;100;100 mA
67.4474518297116;0.299835205078125;0.00182281494140625;0.999999997475243;101;100 mA
67.4574518296863;0.299835205078125;0.001806640625;1.00999999745;102;100 mA
67.4674518296611;0.299835205078125;0.00178802490234375;1.01999999742475;103;100 mA
67.4774518296358;0.29986572265625;0.00178802490234375;1.0299999973995;104;100 mA
67.4874518296106;0.29986572265625;0.00178070068359375;1.03999999737425;105;100 mA
67.4974518295853;0.299896240234375;0.00179718017578125;1.049999997349;106;100 mA
67.5074518295601;0.29986572265625;0.0017919921875;1.05999999732376;107;100 mA
67.5174518295348;0.2999267578125;0.00177215576171875;1.06999999729851;108;100 mA
67.5274518295096;0.29986572265625;0.00176544189453125;1.07999999727326;109;100 mA
67.5374518294843;0.2998046875;0.001787109375;1.08999999724801;110;100 mA
67.5474518294591;0.299835205078125;0.0017987060546875;1.09999999722277;111;100 mA
67.5574518294338;0.29986572265625;0.00178497314453125;1.10999999719752;112;100 mA
67.5674518294086;0.299835205078125;0.0017803955078125;1.11999999717227;113;100 mA
67.5774518293833;0.299835205078125;0.00177703857421875;1.12999999714702;114;100 mA
67.5874518293581;0.299835205078125;0.00178314208984375;1.13999999712178;115;100 mA
67.5974518293328;0.299835205078125;0.0018084716796875;1.14999999709653;116;100 mA
67.6074518293076;0.299835205078125;0.00178375244140625;1.15999999707128;117;100 mA
67.6174518292823;0.299896240234375;0.00176910400390625;1.16999999704603;118;100 mA
67.6274518292571;0.299835205078125;0.0017742919921875;1.17999999702079;119;100 mA
67.6374518292318;0.29986572265625;0.0017889404296875;1.18999999699554;120;100 mA
67.6474518292066;0.299835205078125;0.001788330078125;1.19999999697029;121;100 mA
67.6574518291814;0.2999267578125;0.00177520751953125;1.20999999694504;122;100 mA
67.6674518291561;0.299835205078125;0.00176483154296875;1.2199999969198;123;100 mA
67.6774518291309;0.29986572265625;0.00175537109375;1.22999999689455;124;100 mA
67.6874518291056;0.299835205078125;0.0017962646484375;1.2399999968693;125;100 mA
67.6974518290804;0.29986572265625;0.00178741455078125;1.24999999684405;126;100 mA
67.7074518290551;0.2998046875;0.00178863525390625;1.25999999681881;127;100 mA
67.7174518290299;0.299896240234375;0.0018011474609375;1.26999999679356;128;100 mA
67.7274518290046;0.29986572265625;0.0017987060546875;1.27999999676831;129;100 mA
67.7374518289794;0.29986572265625;0.00182464599609375;1.28999999674306;130;100 mA
67.7474518289541;0.299896240234375;0.00182098388671875;1.29999999671782;131;100 mA
67.7574518289289;0.29986572265625;0.00180908203125;1.30999999669257;132;100 mA
67.7674518289036;0.29986572265625;0.00180389404296875;1.31999999666732;133;100 mA
67.7774518288784;0.299835205078125;0.0018218994140625;1.32999999664207;134;100 mA
67.7874518288531;0.29986572265625;0.001827392578125;1.33999999661683;135;100 mA
67.7974518288279;0.299835205078125;0.0018121337890625;1.34999999659158;136;100 mA
67.8074518288026;0.299835205078125;0.00180816650390625;1.35999999656633;137;100 mA
67.8174518287774;0.2998046875;0.001807861328125;1.36999999654108;138;100 mA
67.8274518287521;0.29986572265625;0.00181396484375;1.37999999651583;139;100 mA
67.8374518287269;0.29986572265625;0.00183685302734375;1.38999999649059;140;100 mA
67.8474518287017;0.299835205078125;0.0018115234375;1.39999999646534;141;100 mA
67.8574518286764;0.299896240234375;0.001800537109375;1.40999999644009;142;100 mA
67.8674518286512;0.29986572265625;0.00180206298828125;1.41999999641484;143;100 mA
67.8774518286259;0.29986572265625;0.001812744140625;1.4299999963896;144;100 mA
67.8874518286007;0.29986572265625;0.00181854248046875;1.43999999636435;145;100 mA
67.8974518285754;0.299957275390625;0.00180572509765625;1.4499999963391;146;100 mA
67.9074518285502;0.299835205078125;0.0018017578125;1.45999999631385;147;100 mA
67.9174518285249;0.2998046875;0.00179840087890625;1.46999999628861;148;100 mA
67.9274518284997;0.29986572265625;0.00183197021484375;1.47999999626336;149;100 mA
67.9374518284744;0.299896240234375;0.00180999755859375;1.48999999623811;150;100 mA
67.9474518284492;0.299835205078125;0.00179229736328125;1.49999999621286;151;100 mA
67.9574518284239;0.29986572265625;0.00179229736328125;1.50999999618762;152;100 mA
67.9674518283987;0.299896240234375;0.00177886962890625;1.51999999616237;153;100 mA
67.9774518283734;0.29986572265625;0.001800537109375;1.52999999613712;154;100 mA
67.9874518283482;0.2998046875;0.00178802490234375;1.53999999611187;155;100 mA
67.9974518283229;0.299835205078125;0.0017681884765625;1.54999999608663;156;100 mA
68.0074518282977;0.29986572265625;0.00176605224609375;1.55999999606138;157;100 mA
68.0174518282724;0.29986572265625;0.00179412841796875;1.56999999603613;158;100 mA
68.0274518282472;0.2998046875;0.0018023681640625;1.57999999601088;159;100 mA
68.0374518282219;0.2998046875;0.00178955078125;1.58999999598564;160;100 mA
68.0474518281967;0.299896240234375;0.0017852783203125;1.59999999596039;161;100 mA
68.0574518281715;0.2998046875;0.00178314208984375;1.60999999593514;162;100 mA
68.0674518281462;0.299896240234375;0.00179473876953125;1.61999999590989;163;100 mA
68.077451828121;0.29986572265625;0.00180755615234375;1.62999999588465;164;100 mA
68.0874518280957;0.299835205078125;0.00177398681640625;1.6399999958594;165;100 mA
68.0974518280705;0.299835205078125;0.0017633056640625;1.64999999583415;166;100 mA
68.1074518280452;0.2998046875;0.0017730712890625;1.6599999958089;167;100 mA
68.11745182802;0.299835205078125;0.00179443359375;1.66999999578366;168;100 mA
68.1274518279947;0.299835205078125;0.00180633544921875;1.67999999575841;169;100 mA
68.1374518279695;0.299896240234375;0.0017962646484375;1.68999999573316;170;100 mA
68.1474518279442;0.2999267578125;0.0017877197265625;1.69999999570791;171;100 mA
68.157451827919;0.299896240234375;0.00178741455078125;1.70999999568267;172;100 mA
68.1674518278937;0.29986572265625;0.00182647705078125;1.71999999565742;173;100 mA
68.1774518278685;0.299835205078125;0.0018170166015625;1.72999999563217;174;100 mA
68.1874518278432;0.299835205078125;0.00181182861328125;1.73999999560692;175;100 mA
68.197451827818;0.299835205078125;0.0018121337890625;1.74999999558167;176;100 mA
68.2074518277927;0.2998046875;0.00179840087890625;1.75999999555643;177;100 mA
68.2174518277675;0.299835205078125;0.0018267822265625;1.76999999553118;178;100 mA
68.2274518277422;0.299835205078125;0.00182403564453125;1.77999999550593;179;100 mA
68.237451827717;0.2998046875;0.001807861328125;1.78999999548068;180;100 mA
68.2474518276917;0.2998046875;0.00180267333984375;1.79999999545544;181;100 mA
68.2574518276665;0.29986572265625;0.00181549072265625;1.80999999543019;182;100 mA
68.2674518276413;0.299774169921875;0.0018157958984375;1.81999999540494;183;100 mA
68.277451827616;0.29986572265625;0.00180328369140625;1.82999999537969;184;100 mA
68.2874518275908;0.299835205078125;0.0017999267578125;1.83999999535445;185;100 mA
68.2974518275655;0.29986572265625;0.00178924560546875;1.8499999953292;186;100 mA
68.3074518275403;0.29986572265625;0.0018060302734375;1.85999999530395;187;100 mA
68.317451827515;0.299896240234375;0.0018353271484375;1.8699999952787;188;100 mA
68.3274518274898;0.299835205078125;0.0018170166015625;1.87999999525346;189;100 mA
68.3374518274645;0.299896240234375;0.0018133544921875;1.88999999522821;190;100 mA
68.3474518274393;0.29986572265625;0.00181854248046875;1.89999999520296;191;100 mA
68.357451827414;0.29986572265625;0.0018341064453125;1.90999999517771;192;100 mA
68.3674518273888;0.299835205078125;0.0018463134765625;1.91999999515247;193;100 mA
68.3774518273635;0.29986572265625;0.00183349609375;1.92999999512722;194;100 mA
68.3874518273383;0.29986572265625;0.00182464599609375;1.93999999510197;195;100 mA
68.397451827313;0.299896240234375;0.001815185546875;1.94999999507672;196;100 mA
68.4074518272878;0.2998046875;0.00184814453125;1.95999999505148;197;100 mA
68.4174518272625;0.299896240234375;0.00182891845703125;1.96999999502623;198;100 mA
68.4274518272373;0.2998046875;0.0018182373046875;1.97999999500098;199;100 mA
68.437451827212;0.299835205078125;0.00181549072265625;1.98999999497573;200;100 mA
68.4474518271868;0.29986572265625;0.00180328369140625;1.99999999495049;201;100 mA
68.4574518271615;0.299896240234375;0.0018389892578125;2.00999999492524;202;100 mA
68.4674518271363;0.29986572265625;0.001834716796875;2.01999999489999;203;100 mA
68.4774518271111;0.299896240234375;0.0018218994140625;2.02999999487474;204;100 mA
68.4874518270858;0.299896240234375;0.00182342529296875;2.0399999948495;205;100 mA
68.4974518270606;0.299835205078125;0.00183197021484375;2.04999999482425;206;100 mA
68.5074518270353;0.299835205078125;0.00184112548828125;2.059999994799;207;100 mA
68.5174518270101;0.299835205078125;0.00183441162109375;2.06999999477375;208;100 mA
68.5274518269848;0.29986572265625;0.001826171875;2.0799999947485;209;100 mA
68.5374518269596;0.2998046875;0.00182098388671875;2.08999999472326;210;100 mA
68.5474518269343;0.2998046875;0.00183135986328125;2.09999999469801;211;100 mA
68.5574518269091;0.299896240234375;0.0018499755859375;2.10999999467276;212;100 mA
68.5674518268838;0.29986572265625;0.0018218994140625;2.11999999464751;213;100 mA
68.5774518268586;0.299835205078125;0.00181060791015625;2.12999999462227;214;100 mA
68.5874518268333;0.299896240234375;0.00180877685546875;2.13999999459702;215;100 mA
68.5974518268081;0.299835205078125;0.0018182373046875;2.14999999457177;216;100 mA
68.6074518267828;0.299896240234375;0.00183074951171875;2.15999999454652;217;100 mA
68.6174518267576;0.299957275390625;0.00181243896484375;2.16999999452128;218;100 mA
68.6274518267323;0.29986572265625;0.0017999267578125;2.17999999449603;219;100 mA
68.6374518267071;0.299835205078125;0.0017962646484375;2.18999999447078;220;100 mA
68.6474518266818;0.299835205078125;0.00182342529296875;2.19999999444553;221;100 mA
68.6574518266566;0.29986572265625;0.00181365966796875;2.20999999442029;222;100 mA
68.6674518266313;0.299896240234375;0.001807861328125;2.21999999439504;223;100 mA
68.6774518266061;0.29986572265625;0.0018109130859375;2.22999999436979;224;100 mA
68.6874518265809;0.29986572265625;0.00179718017578125;2.23999999434454;225;100 mA
68.6974518265556;0.299835205078125;0.0018280029296875;2.2499999943193;226;100 mA
68.7074518265304;0.2998046875;0.00182098388671875;2.25999999429405;227;100 mA
68.7174518265051;0.2998046875;0.00180419921875;2.2699999942688;228;100 mA
68.7274518264799;0.299835205078125;0.00180267333984375;2.27999999424355;229;100 mA
68.7374518264546;0.299835205078125;0.00180908203125;2.28999999421831;230;100 mA
68.7474518264294;0.2999267578125;0.001812744140625;2.29999999419306;231;100 mA
68.7574518264041;0.299835205078125;0.00180572509765625;2.30999999416781;232;100 mA
68.7674518263789;0.29986572265625;0.001796875;2.31999999414256;233;100 mA
68.7774518263536;0.299835205078125;0.001781005859375;2.32999999411732;234;100 mA
68.7874518263284;0.29986572265625;0.00179901123046875;2.33999999409207;235;100 mA
68.7974518263031;0.299835205078125;0.00181304931640625;2.34999999406682;236;100 mA
68.8074518262779;0.299896240234375;0.001796875;2.35999999404157;237;100 mA
68.8174518262526;0.299835205078125;0.00179962158203125;2.36999999401633;238;100 mA
68.8274518262274;0.299896240234375;0.0017999267578125;2.37999999399108;239;100 mA
68.8374518262021;0.299835205078125;0.0018084716796875;2.38999999396583;240;100 mA
68.8474518261769;0.299835205078125;0.001817626953125;2.39999999394058;241;100 mA
68.8574518261516;0.29986572265625;0.00180511474609375;2.40999999391533;242;100 mA
68.8674518261264;0.29986572265625;0.00179107666015625;2.41999999389009;243;100 mA
68.8774518261012;0.2998046875;0.0017901611328125;2.42999999386484;244;100 mA
68.8874518260759;0.29986572265625;0.001815185546875;2.43999999383959;245;100 mA
68.8974518260507;0.2998046875;0.0018011474609375;2.44999999381434;246;100 mA
68.9074518260254;0.2998046875;0.00179595947265625;2.4599999937891;247;100 mA
68.9174518260002;0.29986572265625;0.00179412841796875;2.46999999376385;248;100 mA
68.9274518259749;0.299835205078125;0.00177703857421875;2.4799999937386;249;100 mA
68.9374518259497;0.29986572265625;0.00180908203125;2.48999999371335;250;100 mA
68.9474518259244;0.299835205078125;0.001796875;2.49999999368811;251;100 mA
68.9574518258992;0.29986572265625;0.0017822265625;2.50999999366286;252;100 mA
68.9674518258739;0.299835205078125;0.00178802490234375;2.51999999363761;253;100 mA
68.9774518258487;0.299774169921875;0.00179412841796875;2.52999999361236;254;100 mA
68.9874518258234;0.299835205078125;0.00180908203125;2.53999999358712;255;100 mA
68.9974518257982;0.2998046875;0.001800537109375;2.54999999356187;256;100 mA
69.0074518257729;0.29986572265625;0.00179534912109375;2.55999999353662;257;100 mA
69.0174518257477;0.29986572265625;0.00177978515625;2.56999999351137;258;100 mA
69.0274518257224;0.299896240234375;0.001795654296875;2.57999999348613;259;100 mA
69.0374518256972;0.299835205078125;0.00180999755859375;2.58999999346088;260;100 mA
69.0474518256719;0.299896240234375;0.001796875;2.59999999343563;261;100 mA
69.0574518256467;0.29986572265625;0.00180572509765625;2.60999999341038;262;100 mA
69.0674518256214;0.299835205078125;0.00180694580078125;2.61999999338514;263;100 mA
69.0774518255962;0.29986572265625;0.00182098388671875;2.62999999335989;264;100 mA
69.087451825571;0.2998046875;0.0018304443359375;2.63999999333464;265;100 mA
69.0974518255457;0.2999267578125;0.00180694580078125;2.64999999330939;266;100 mA
69.1074518255205;0.29986572265625;0.001790771484375;2.65999999328415;267;100 mA
69.1174518254952;0.2999267578125;0.00178680419921875;2.6699999932589;268;100 mA
69.12745182547;0.2998046875;0.00181182861328125;2.67999999323365;269;100 mA
69.1374518254447;0.299835205078125;0.00180419921875;2.6899999932084;270;100 mA
69.1474518254195;0.299835205078125;0.00179962158203125;2.69999999318316;271;100 mA
69.1574518253942;0.2998046875;0.00180023193359375;2.70999999315791;272;100 mA
69.167451825369;0.299835205078125;0.0017840576171875;2.71999999313266;273;100 mA
69.1774518253437;0.299835205078125;0.00181640625;2.72999999310741;274;100 mA
69.1874518253185;0.299835205078125;0.00180572509765625;2.73999999308217;275;100 mA
69.1974518252932;0.29986572265625;0.001798095703125;2.74999999305692;276;100 mA
69.207451825268;0.29986572265625;0.00180572509765625;2.75999999303167;277;100 mA
69.2174518252427;0.29986572265625;0.00180328369140625;2.76999999300642;278;100 mA
69.2274518252175;0.2998046875;0.00181488037109375;2.77999999298117;279;100 mA
69.2374518251922;0.2998046875;0.00180755615234375;2.78999999295593;280;100 mA
69.247451825167;0.299835205078125;0.00179840087890625;2.79999999293068;281;100 mA
69.2574518251417;0.29986572265625;0.00178924560546875;2.80999999290543;282;100 mA
69.2674518251165;0.299835205078125;0.001805419921875;2.81999999288018;283;100 mA
69.2774518250912;0.299835205078125;0.00180938720703125;2.82999999285494;284;100 mA
69.287451825066;0.299835205078125;0.0017901611328125;2.83999999282969;285;100 mA
69.2974518250408;0.299835205078125;0.0017877197265625;2.84999999280444;286;100 mA
69.3074518250155;0.29986572265625;0.0017816162109375;2.85999999277919;287;100 mA
69.3174518249903;0.299835205078125;0.00179107666015625;2.86999999275395;288;100 mA
69.327451824965;0.29986572265625;0.00180450439453125;2.8799999927287;289;100 mA
69.3374518249398;0.2999267578125;0.0017938232421875;2.88999999270345;290;100 mA
69.3474518249145;0.299835205078125;0.00178924560546875;2.8999999926782;291;100 mA
69.3574518248893;0.299896240234375;0.00179473876953125;2.90999999265296;292;100 mA
69.367451824864;0.2998046875;0.001817626953125;2.91999999262771;293;100 mA
69.3774518248388;0.299835205078125;0.0018011474609375;2.92999999260246;294;100 mA
69.3874518248135;0.299835205078125;0.0017950439453125;2.93999999257721;295;100 mA
69.3974518247883;0.299835205078125;0.00178802490234375;2.94999999255197;296;100 mA
69.407451824763;0.29986572265625;0.0017742919921875;2.95999999252672;297;100 mA
69.4174518247378;0.29986572265625;0.00180267333984375;2.96999999250147;298;100 mA
69.4274518247125;0.299835205078125;0.00178375244140625;2.97999999247622;299;100 mA
69.4374518246873;0.299896240234375;0.00176727294921875;2.98999999245098;300;100 mA
69.447451824662;0.299896240234375;0.0017669677734375;2.99999999242573;301;100 mA
69.4574518246368;0.299774169921875;0.0017694091796875;3.00999999240048;302;100 mA
69.4674518246115;0.2998046875;0.00178802490234375;3.01999999237523;303;100 mA
69.4774518245863;0.299835205078125;0.00178558349609375;3.02999999234999;304;100 mA
69.487451824561;0.29986572265625;0.00178192138671875;3.03999999232474;305;100 mA
69.4974518245358;0.299774169921875;0.00177337646484375;3.04999999229949;306;100 mA
69.5074518245106;0.2998046875;0.00179473876953125;3.05999999227424;307;100 mA
69.5174518244853;0.299896240234375;0.001793212890625;3.069999992249;308;100 mA
69.5274518244601;0.299835205078125;0.001771240234375;3.07999999222375;309;100 mA
69.5374518244348;0.29986572265625;0.0017706298828125;3.0899999921985;310;100 mA
69.5474518244096;0.2998046875;0.0017718505859375;3.09999999217325;311;100 mA
69.5574518243843;0.299774169921875;0.0017864990234375;3.109999992148;312;100 mA
69.5674518243591;0.29986572265625;0.00179718017578125;3.11999999212276;313;100 mA
69.5774518243338;0.299835205078125;0.0017767333984375;3.12999999209751;314;100 mA
69.5874518243086;0.29986572265625;0.00177093505859375;3.13999999207226;315;100 mA
69.5974518242833;0.299835205078125;0.0017742919921875;3.14999999204701;316;100 mA
69.6074518242581;0.299896240234375;0.00179443359375;3.15999999202177;317;100 mA
69.6174518242328;0.29986572265625;0.00177734375;3.16999999199652;318;100 mA
69.6274518242076;0.299896240234375;0.00176849365234375;3.17999999197127;319;100 mA
69.6374518241823;0.2998046875;0.00176666259765625;3.18999999194602;320;100 mA
69.6474518241571;0.2998046875;0.001754150390625;3.19999999192078;321;100 mA
69.6574518241318;0.2998046875;0.00179229736328125;3.20999999189553;322;100 mA
69.6674518241066;0.299835205078125;0.0017681884765625;3.21999999187028;323;100 mA
69.6774518240813;0.299896240234375;0.001759033203125;3.22999999184503;324;100 mA
69.6874518240561;0.29986572265625;0.0017718505859375;3.23999999181979;325;100 mA
69.6974518240308;0.299774169921875;0.00177490234375;3.24999999179454;326;100 mA
69.7074518240056;0.299896240234375;0.00179107666015625;3.25999999176929;327;100 mA
69.7174518239804;0.2998046875;0.0017828369140625;3.26999999174404;328;100 mA
69.7274518239551;0.299896240234375;0.00177001953125;3.2799999917188;329;100 mA
69.7374518239299;0.299896240234375;0.0017596435546875;3.28999999169355;330;100 mA
69.7474518239046;0.299835205078125;0.00178314208984375;3.2999999916683;331;100 mA
69.7574518238794;0.299835205078125;0.00178375244140625;3.30999999164305;332;100 mA
69.7674518238541;0.2998046875;0.00176483154296875;3.31999999161781;333;100 mA
69.7774518238289;0.299896240234375;0.00176177978515625;3.32999999159256;334;100 mA
69.7874518238036;0.29986572265625;0.00175567626953125;3.33999999156731;335;100 mA
69.7974518237784;0.29986572265625;0.0017681884765625;3.34999999154206;336;100 mA
69.8074518237531;0.299835205078125;0.0017822265625;3.35999999151682;337;100 mA
69.8174518237279;0.299896240234375;0.00176239013671875;3.36999999149157;338;100 mA
69.8274518237026;0.29986572265625;0.0017578125;3.37999999146632;339;100 mA
69.8374518236774;0.29986572265625;0.001763916015625;3.38999999144107;340;100 mA
69.8474518236521;0.2998046875;0.0017816162109375;3.39999999141583;341;100 mA
69.8574518236269;0.2999267578125;0.00177734375;3.40999999139058;342;100 mA
69.8674518236016;0.29986572265625;0.00177337646484375;3.41999999136533;343;100 mA
69.8774518235764;0.299896240234375;0.00177337646484375;3.42999999134008;344;100 mA
69.8874518235511;0.299896240234375;0.0017584228515625;3.43999999131483;345;100 mA
69.8974518235259;0.2998046875;0.00178375244140625;3.44999999128959;346;100 mA
69.9074518235007;0.299896240234375;0.0017608642578125;3.45999999126434;347;100 mA
69.9174518234754;0.299835205078125;0.001746826171875;3.46999999123909;348;100 mA
69.9274518234502;0.2998046875;0.00175201416015625;3.47999999121384;349;100 mA
69.9374518234249;0.29986572265625;0.001749267578125;3.4899999911886;350;100 mA
69.9474518233997;0.299896240234375;0.00176666259765625;3.49999999116335;351;100 mA
69.9574518233744;0.299835205078125;0.001761474609375;3.5099999911381;352;100 mA
69.9674518233492;0.29986572265625;0.00175506591796875;3.51999999111285;353;100 mA
69.9774518233239;0.299896240234375;0.00175201416015625;3.52999999108761;354;100 mA
69.9874518232987;0.29986572265625;0.0017840576171875;3.53999999106236;355;100 mA
69.9974518232734;0.299896240234375;0.00178192138671875;3.54999999103711;356;100 mA
70.0074518232482;0.29986572265625;0.00176666259765625;3.55999999101186;357;100 mA
70.0174518232229;0.29986572265625;0.001766357421875;3.56999999098662;358;100 mA
70.0274518231977;0.299896240234375;0.00176239013671875;3.57999999096137;359;100 mA
70.0374518231724;0.299835205078125;0.0017816162109375;3.58999999093612;360;100 mA
70.0474518231472;0.2998046875;0.0017962646484375;3.59999999091087;361;100 mA
70.0574518231219;0.299896240234375;0.00177825927734375;3.60999999088563;362;100 mA
70.0674518230967;0.299896240234375;0.0017730712890625;3.61999999086038;363;100 mA
70.0774518230714;0.29986572265625;0.0017724609375;3.62999999083513;364;100 mA
70.0874518230462;0.2998046875;0.00179290771484375;3.63999999080988;365;100 mA
70.0974518230209;0.29986572265625;0.00177825927734375;3.64999999078464;366;100 mA
70.1074518229957;0.299835205078125;0.00177398681640625;3.65999999075939;367;100 mA
70.1174518229705;0.299835205078125;0.001768798828125;3.66999999073414;368;100 mA
70.1274518229452;0.299835205078125;0.00176300048828125;3.67999999070889;369;100 mA
70.13745182292;0.299835205078125;0.00179534912109375;3.68999999068365;370;100 mA
70.1474518228947;0.29986572265625;0.0017724609375;3.6999999906584;371;100 mA
70.1574518228695;0.299896240234375;0.00176025390625;3.70999999063315;372;100 mA
70.1674518228442;0.299835205078125;0.0017608642578125;3.7199999906079;373;100 mA
70.177451822819;0.299835205078125;0.001748046875;3.72999999058266;374;100 mA
70.1874518227937;0.29986572265625;0.00176422119140625;3.73999999055741;375;100 mA
70.1974518227685;0.299896240234375;0.00175994873046875;3.74999999053216;376;100 mA
70.2074518227432;0.299774169921875;0.001746826171875;3.75999999050691;377;100 mA
70.217451822718;0.29986572265625;0.00173553466796875;3.76999999048167;378;100 mA
70.2274518226927;0.2998046875;0.00176025390625;3.77999999045642;379;100 mA
70.2374518226675;0.299835205078125;0.0017572021484375;3.78999999043117;380;100 mA
70.2474518226422;0.29986572265625;0.00174407958984375;3.79999999040592;381;100 mA
70.257451822617;0.2998046875;0.0017425537109375;3.80999999038067;382;100 mA
70.2674518225917;0.2998046875;0.001734619140625;3.81999999035543;383;100 mA
70.2774518225665;0.299835205078125;0.001751708984375;3.82999999033018;384;100 mA
70.2874518225412;0.2998046875;0.00176300048828125;3.83999999030493;385;100 mA
70.297451822516;0.299835205078125;0.0017388916015625;3.84999999027968;386;100 mA
70.3074518224907;0.299835205078125;0.00173492431640625;3.85999999025444;387;100 mA
70.3174518224655;0.29986572265625;0.00174468994140625;3.86999999022919;388;100 mA
70.3274518224403;0.29986572265625;0.0017626953125;3.87999999020394;389;100 mA
70.337451822415;0.299835205078125;0.00176239013671875;3.88999999017869;390;100 mA
70.3474518223898;0.299774169921875;0.0017572021484375;3.89999999015345;391;100 mA
70.3574518223645;0.299835205078125;0.0017547607421875;3.9099999901282;392;100 mA
70.3674518223393;0.299896240234375;0.00174468994140625;3.91999999010295;393;100 mA
70.377451822314;0.299896240234375;0.0017755126953125;3.9299999900777;394;100 mA
70.3874518222888;0.299835205078125;0.0017559814453125;3.93999999005246;395;100 mA
70.3974518222635;0.299896240234375;0.001746826171875;3.94999999002721;396;100 mA
70.4074518222383;0.299896240234375;0.00175567626953125;3.95999999000196;397;100 mA
70.417451822213;0.29986572265625;0.0017523193359375;3.96999998997671;398;100 mA
70.4274518221878;0.29986572265625;0.001768798828125;3.97999998995147;399;100 mA
70.4374518221625;0.299835205078125;0.0017657470703125;3.98999998992622;400;100 mA
70.4474518221373;0.29986572265625;0.00175384521484375;3.99999998990097;401;100 mA
70.457451822112;0.299835205078125;0.00175018310546875;4.00999998987572;402;100 mA
70.4674518220868;0.29986572265625;0.0017755126953125;4.01999998985048;403;100 mA
70.4774518220615;0.299835205078125;0.00177032470703125;4.02999998982523;404;100 mA
70.4874518220363;0.2998046875;0.00175689697265625;4.03999998979998;405;100 mA
70.497451822011;0.29986572265625;0.0017535400390625;4.04999998977473;406;100 mA
70.5074518219858;0.29986572265625;0.001748046875;4.05999998974949;407;100 mA
70.5174518219605;0.299835205078125;0.00177154541015625;4.06999998972424;408;100 mA
70.5274518219353;0.299835205078125;0.0017767333984375;4.07999998969899;409;100 mA
70.5374518219101;0.299896240234375;0.001749267578125;4.08999998967374;410;100 mA
70.5474518218848;0.299896240234375;0.00174957275390625;4.0999999896485;411;100 mA
70.5574518218596;0.29986572265625;0.00175689697265625;4.10999998962325;412;100 mA
70.5674518218343;0.29986572265625;0.00177093505859375;4.119999989598;413;100 mA
70.5774518218091;0.29986572265625;0.001766357421875;4.12999998957275;414;100 mA
70.5874518217838;0.299835205078125;0.00175933837890625;4.1399999895475;415;100 mA
70.5974518217586;0.299835205078125;0.0017572021484375;4.14999998952226;416;100 mA
70.6074518217333;0.299774169921875;0.00175750732421875;4.15999998949701;417;100 mA
70.6174518217081;0.29986572265625;0.001787109375;4.16999998947176;418;100 mA
70.6274518216828;0.29986572265625;0.00175689697265625;4.17999998944651;419;100 mA
70.6374518216576;0.299835205078125;0.00174713134765625;4.18999998942127;420;100 mA
70.6474518216323;0.29986572265625;0.00174835205078125;4.19999998939602;421;100 mA
70.6574518216071;0.299835205078125;0.00174713134765625;4.20999998937077;422;100 mA
70.6674518215818;0.29986572265625;0.001767578125;4.21999998934552;423;100 mA
70.6774518215566;0.29986572265625;0.0017572021484375;4.22999998932028;424;100 mA
70.6874518215313;0.299835205078125;0.001739501953125;4.23999998929503;425;100 mA
70.6974518215061;0.29986572265625;0.00173370361328125;4.24999998926978;426;100 mA
70.7074518214808;0.29986572265625;0.00175445556640625;4.25999998924453;427;100 mA
70.7174518214556;0.299835205078125;0.0017449951171875;4.26999998921929;428;100 mA
70.7274518214303;0.29986572265625;0.001727294921875;4.27999998919404;429;100 mA
70.7374518214051;0.299774169921875;0.00171875;4.28999998916879;430;100 mA
70.7474518213799;0.299835205078125;0.00170440673828125;4.29999998914354;431;100 mA
70.7574518213546;0.29986572265625;0.0017236328125;4.3099999891183;432;100 mA
70.7674518213294;0.299835205078125;0.0017279052734375;4.31999998909305;433;100 mA
70.7774518213041;0.29986572265625;0.00170379638671875;4.3299999890678;434;100 mA
70.7874518212789;0.299835205078125;0.001705322265625;4.33999998904255;435;100 mA
70.7974518212536;0.299896240234375;0.00171173095703125;4.34999998901731;436;100 mA
70.8074518212284;0.2999267578125;0.00173309326171875;4.35999998899206;437;100 mA
70.8174518212031;0.2998046875;0.00173675537109375;4.36999998896681;438;100 mA
70.8274518211779;0.2999267578125;0.00172119140625;4.37999998894156;439;100 mA
70.8374518211526;0.29986572265625;0.00171539306640625;4.38999998891632;440;100 mA
70.8474518211274;0.299835205078125;0.00171539306640625;4.39999998889107;441;100 mA
70.8574518211021;0.29986572265625;0.00174468994140625;4.40999998886582;442;100 mA
70.8674518210769;0.299835205078125;0.0017156982421875;4.41999998884057;443;100 mA
70.8774518210516;0.29986572265625;0.00170501708984375;4.42999998881533;444;100 mA
70.8874518210264;0.299835205078125;0.00170623779296875;4.43999998879008;445;100 mA
70.8974518210011;0.2998046875;0.0016912841796875;4.44999998876483;446;100 mA
70.9074518209759;0.299835205078125;0.00171173095703125;4.45999998873958;447;100 mA
70.9174518209506;0.299835205078125;0.00170257568359375;4.46999998871433;448;100 mA
70.9274518209254;0.29986572265625;0.00169342041015625;4.47999998868909;449;100 mA
70.9374518209002;0.2998046875;0.00169464111328125;4.48999998866384;450;100 mA
70.9474518208749;0.29986572265625;0.00171417236328125;4.49999998863859;451;100 mA
70.9574518208497;0.29986572265625;0.00171478271484375;4.50999998861334;452;100 mA
70.9674518208244;0.2998046875;0.00170013427734375;4.5199999885881;453;100 mA
70.9774518207992;0.299896240234375;0.0016973876953125;4.52999998856285;454;100 mA
70.9874518207739;0.299835205078125;0.00169464111328125;4.5399999885376;455;100 mA
70.9974518207487;0.299896240234375;0.00172332763671875;4.54999998851235;456;100 mA
71.0074518207234;0.299835205078125;0.00172821044921875;4.55999998848711;457;100 mA
71.0174518206982;0.299896240234375;0.00170501708984375;4.56999998846186;458;100 mA
71.0274518206729;0.299835205078125;0.001708984375;4.57999998843661;459;100 mA
71.0374518206477;0.299835205078125;0.00171600341796875;4.58999998841136;460;100 mA
71.0474518206224;0.299835205078125;0.00173614501953125;4.59999998838612;461;100 mA
71.0574518205972;0.29986572265625;0.00173919677734375;4.60999998836087;462;100 mA
71.0674518205719;0.2998046875;0.00173187255859375;4.61999998833562;463;100 mA
71.0774518205467;0.299896240234375;0.00172393798828125;4.62999998831037;464;100 mA
71.0874518205214;0.299835205078125;0.00173004150390625;4.63999998828513;465;100 mA
71.0974518204962;0.299835205078125;0.001751708984375;4.64999998825988;466;100 mA
71.1074518204709;0.29986572265625;0.00172821044921875;4.65999998823463;467;100 mA
71.1174518204457;0.299896240234375;0.00172271728515625;4.66999998820938;468;100 mA
71.1274518204204;0.299896240234375;0.00172576904296875;4.67999998818414;469;100 mA
71.1374518203952;0.299835205078125;0.001719970703125;4.68999998815889;470;100 mA
71.14745182037;0.299896240234375;0.00173797607421875;4.69999998813364;471;100 mA
71.1574518203447;0.29986572265625;0.00172210693359375;4.70999998810839;472;100 mA
71.1674518203195;0.29986572265625;0.001702880859375;4.71999998808315;473;100 mA
71.1774518202942;0.299835205078125;0.0016986083984375;4.7299999880579;474;100 mA
71.187451820269;0.29986572265625;0.001712646484375;4.73999998803265;475;100 mA
71.1974518202437;0.29986572265625;0.00170745849609375;4.7499999880074;476;100 mA
71.2074518202185;0.299896240234375;0.0016973876953125;4.75999998798216;477;100 mA
71.2174518201932;0.299896240234375;0.00169769287109375;4.76999998795691;478;100 mA
71.227451820168;0.29986572265625;0.00169464111328125;4.77999998793166;479;100 mA
71.2374518201427;0.2998046875;0.0017230224609375;4.78999998790641;480;100 mA
71.2474518201175;0.29986572265625;0.00171417236328125;4.79999998788116;481;100 mA
71.2574518200922;0.299957275390625;0.0016876220703125;4.80999998785592;482;100 mA
71.267451820067;0.299835205078125;0.00168670654296875;4.81999998783067;483;100 mA
71.2774518200417;0.299835205078125;0.00168304443359375;4.82999998780542;484;100 mA
71.2874518200165;0.29986572265625;0.00169830322265625;4.83999998778017;485;100 mA
71.2974518199912;0.2999267578125;0.00169189453125;4.84999998775493;486;100 mA
71.307451819966;0.299835205078125;0.00167999267578125;4.85999998772968;487;100 mA
71.3174518199407;0.299835205078125;0.00167755126953125;4.86999998770443;488;100 mA
71.3274518199155;0.299835205078125;0.001683349609375;4.87999998767918;489;100 mA
71.3374518198902;0.29986572265625;0.001707763671875;4.88999998765394;490;100 mA
71.347451819865;0.2999267578125;0.00168701171875;4.89999998762869;491;100 mA
71.3574518198398;0.29986572265625;0.00169036865234375;4.90999998760344;492;100 mA
71.3674518198145;0.299835205078125;0.00169952392578125;4.91999998757819;493;100 mA
71.3774518197893;0.299835205078125;0.0017022705078125;4.92999998755295;494;100 mA
71.387451819764;0.299896240234375;0.00172760009765625;4.9399999875277;495;100 mA
71.3974518197388;0.299896240234375;0.00170806884765625;4.94999998750245;496;100 mA
71.4074518197135;0.299896240234375;0.00169342041015625;4.9599999874772;497;100 mA
71.4174518196883;0.299835205078125;0.00169708251953125;4.96999998745196;498;100 mA
71.427451819663;0.29986572265625;0.0017138671875;4.97999998742671;499;100 mA
71.4374518196378;0.299835205078125;0.001710205078125;4.98999998740146;500;100 mA
71.4474518196125;0.29986572265625;0.001697998046875;4.99999998737621;501;100 mA
71.4574518195873;0.299835205078125;0.00169769287109375;5.00999998735097;502;100 mA
71.467451819562;0.299835205078125;0.00169219970703125;5.01999998732572;503;100 mA
71.4774518195368;0.29986572265625;0.00171783447265625;5.02999998730047;504;100 mA
71.4874518195115;0.299835205078125;0.001710205078125;5.03999998727522;505;100 mA
71.4974518194863;0.299896240234375;0.00168365478515625;5.04999998724998;506;100 mA
71.507451819461;0.299835205078125;0.00168121337890625;5.05999998722473;507;100 mA
71.5174518194358;0.29986572265625;0.0016839599609375;5.06999998719948;508;100 mA
71.5274518194105;0.29986572265625;0.00169891357421875;5.07999998717423;509;100 mA
71.5374518193853;0.299835205078125;0.00169921875;5.08999998714899;510;100 mA
71.54745181936;0.29986572265625;0.00167999267578125;5.09999998712374;511;100 mA
71.5574518193348;0.29986572265625;0.00167724609375;5.10999998709849;512;100 mA
71.5674518193096;0.299835205078125;0.0016876220703125;5.11999998707324;513;100 mA
71.5774518192843;0.299835205078125;0.00170867919921875;5.129999987048;514;100 mA
71.5874518192591;0.299896240234375;0.0016845703125;5.13999998702275;515;100 mA
71.5974518192338;0.2998046875;0.00167572021484375;5.1499999869975;516;100 mA
71.6074518192086;0.29986572265625;0.00167724609375;5.15999998697225;517;100 mA
71.6174518191833;0.2998046875;0.00166839599609375;5.169999986947;518;100 mA
71.6274518191581;0.29986572265625;0.00168731689453125;5.17999998692176;519;100 mA
71.6374518191328;0.299835205078125;0.00166656494140625;5.18999998689651;520;100 mA
71.6474518191076;0.299835205078125;0.001649169921875;5.19999998687126;521;100 mA
71.6574518190823;0.299896240234375;0.00165679931640625;5.20999998684601;522;100 mA
71.6674518190571;0.2999267578125;0.00167144775390625;5.21999998682077;523;100 mA
71.6774518190318;0.299835205078125;0.0016754150390625;5.22999998679552;524;100 mA
71.6874518190066;0.2998046875;0.001663818359375;5.23999998677027;525;100 mA
71.6974518189813;0.299896240234375;0.00165740966796875;5.24999998674502;526;100 mA
71.7074518189561;0.299896240234375;0.00165313720703125;5.25999998671978;527;100 mA
71.7174518189308;0.299896240234375;0.001690673828125;5.26999998669453;528;100 mA
71.7274518189056;0.299835205078125;0.001690673828125;5.27999998666928;529;100 mA
71.7374518188803;0.299896240234375;0.00167266845703125;5.28999998664403;530;100 mA
71.7474518188551;0.299896240234375;0.001680908203125;5.29999998661879;531;100 mA
71.7574518188298;0.2998046875;0.00168212890625;5.30999998659354;532;100 mA
71.7674518188046;0.299774169921875;0.00170166015625;5.31999998656829;533;100 mA
71.7774518187794;0.29986572265625;0.00170318603515625;5.32999998654304;534;100 mA
71.7874518187541;0.2998046875;0.00169281005859375;5.3399999865178;535;100 mA
71.7974518187289;0.299896240234375;0.001690673828125;5.34999998649255;536;100 mA
71.8074518187036;0.299835205078125;0.0017059326171875;5.3599999864673;537;100 mA
71.8174518186784;0.2999267578125;0.001722412109375;5.36999998644205;538;100 mA
71.8274518186531;0.299896240234375;0.00169921875;5.37999998641681;539;100 mA
71.8374518186279;0.29986572265625;0.00169708251953125;5.38999998639156;540;100 mA
71.8474518186026;0.299896240234375;0.00169921875;5.39999998636631;541;100 mA
71.8574518185774;0.299835205078125;0.0017010498046875;5.40999998634106;542;100 mA
71.8674518185521;0.299835205078125;0.00173065185546875;5.41999998631582;543;100 mA
71.8774518185269;0.29986572265625;0.00170745849609375;5.42999998629057;544;100 mA
71.8874518185016;0.299835205078125;0.0016961669921875;5.43999998626532;545;100 mA
71.8974518184764;0.2998046875;0.0017059326171875;5.44999998624007;546;100 mA
71.9074518184511;0.299835205078125;0.0017218017578125;5.45999998621483;547;100 mA
71.9174518184259;0.299896240234375;0.001728515625;5.46999998618958;548;100 mA
71.9274518184006;0.299835205078125;0.001717529296875;5.47999998616433;549;100 mA
71.9374518183754;0.29986572265625;0.001708984375;5.48999998613908;550;100 mA
71.9474518183501;0.299835205078125;0.00169464111328125;5.49999998611383;551;100 mA
71.9574518183249;0.29986572265625;0.0017279052734375;5.50999998608859;552;100 mA
71.9674518182997;0.29986572265625;0.00172119140625;5.51999998606334;553;100 mA
71.9774518182744;0.2999267578125;0.001695556640625;5.52999998603809;554;100 mA
71.9874518182492;0.299835205078125;0.0016973876953125;5.53999998601284;555;100 mA
71.9974518182239;0.299835205078125;0.00169097900390625;5.5499999859876;556;100 mA
72.0074518181987;0.29986572265625;0.0017108154296875;5.55999998596235;557;100 mA
72.0174518181734;0.29986572265625;0.0017181396484375;5.5699999859371;558;100 mA
72.0274518181482;0.2998046875;0.0016986083984375;5.57999998591185;559;100 mA
72.0374518181229;0.299835205078125;0.0016949462890625;5.58999998588661;560;100 mA
72.0474518180977;0.29986572265625;0.0017041015625;5.59999998586136;561;100 mA
72.0574518180724;0.29986572265625;0.00172119140625;5.60999998583611;562;100 mA
72.0674518180472;0.299835205078125;0.00169921875;5.61999998581086;563;100 mA
72.0774518180219;0.299896240234375;0.00169342041015625;5.62999998578562;564;100 mA
72.0874518179967;0.29986572265625;0.00169464111328125;5.63999998576037;565;100 mA
72.0974518179714;0.299835205078125;0.0016949462890625;5.64999998573512;566;100 mA
72.1074518179462;0.299835205078125;0.00172821044921875;5.65999998570987;567;100 mA
72.1174518179209;0.299896240234375;0.0017071533203125;5.66999998568463;568;100 mA
72.1274518178957;0.2998046875;0.00168914794921875;5.67999998565938;569;100 mA
72.1374518178704;0.299835205078125;0.0016912841796875;5.68999998563413;570;100 mA
72.1474518178452;0.299896240234375;0.0016986083984375;5.69999998560888;571;100 mA
72.1574518178199;0.299835205078125;0.00170684814453125;5.70999998558364;572;100 mA
72.1674518177947;0.29986572265625;0.00169952392578125;5.71999998555839;573;100 mA
72.1774518177695;0.299774169921875;0.0016986083984375;5.72999998553314;574;100 mA
72.1874518177442;0.299896240234375;0.00169647216796875;5.73999998550789;575;100 mA
72.197451817719;0.299896240234375;0.00173187255859375;5.74999998548265;576;100 mA
72.2074518176937;0.29986572265625;0.00171966552734375;5.7599999854574;577;100 mA
72.2174518176685;0.299896240234375;0.00169830322265625;5.76999998543215;578;100 mA
72.2274518176432;0.29986572265625;0.00169464111328125;5.7799999854069;579;100 mA
72.237451817618;0.29986572265625;0.00169342041015625;5.78999998538166;580;100 mA
72.2474518175927;0.299835205078125;0.00171661376953125;5.79999998535641;581;100 mA
72.2574518175675;0.29986572265625;0.001722412109375;5.80999998533116;582;100 mA
72.2674518175422;0.29986572265625;0.00170135498046875;5.81999998530591;583;100 mA
72.277451817517;0.299835205078125;0.00169830322265625;5.82999998528066;584;100 mA
72.2874518174917;0.299835205078125;0.00171875;5.83999998525542;585;100 mA
72.2974518174665;0.299896240234375;0.00174102783203125;5.84999998523017;586;100 mA
72.3074518174412;0.299835205078125;0.00172882080078125;5.85999998520492;587;100 mA
72.317451817416;0.29986572265625;0.00172698974609375;5.86999998517967;588;100 mA
72.3274518173907;0.29986572265625;0.0017303466796875;5.87999998515443;589;100 mA
72.3374518173655;0.299835205078125;0.0017364501953125;5.88999998512918;590;100 mA
72.3474518173402;0.299896240234375;0.00176513671875;5.89999998510393;591;100 mA
72.357451817315;0.29986572265625;0.00174652099609375;5.90999998507868;592;100 mA
72.3674518172897;0.299896240234375;0.00173126220703125;5.91999998505344;593;100 mA
72.3774518172645;0.299835205078125;0.0017401123046875;5.92999998502819;594;100 mA
72.3874518172393;0.29986572265625;0.00174835205078125;5.93999998500294;595;100 mA
72.397451817214;0.29986572265625;0.0017529296875;5.94999998497769;596;100 mA
72.4074518171888;0.2998046875;0.001737060546875;5.95999998495245;597;100 mA
72.4174518171635;0.29986572265625;0.00172332763671875;5.9699999849272;598;100 mA
72.4274518171383;0.2999267578125;0.001712646484375;5.97999998490195;599;100 mA
72.437451817113;0.29986572265625;0.001748046875;5.9899999848767;600;100 mA
72.4474518170878;0.299896240234375;0.00173614501953125;5.99999998485146;601;100 mA
72.4574518170625;0.29986572265625;0.00171661376953125;6.00999998482621;602;100 mA
72.4674518170373;0.2999267578125;0.001715087890625;6.01999998480096;603;100 mA
72.477451817012;0.299835205078125;0.00170684814453125;6.02999998477571;604;100 mA
72.4874518169868;0.299896240234375;0.001729736328125;6.03999998475047;605;100 mA
72.4974518169615;0.299835205078125;0.00173065185546875;6.04999998472522;606;100 mA
72.5074518169363;0.29986572265625;0.00170684814453125;6.05999998469997;607;100 mA
72.517451816911;0.29986572265625;0.00170257568359375;6.06999998467472;608;100 mA
72.5274518168858;0.29986572265625;0.0017132568359375;6.07999998464948;609;100 mA
72.5374518168605;0.29986572265625;0.0017315673828125;6.08999998462423;610;100 mA
72.5474518168353;0.2998046875;0.00171661376953125;6.09999998459898;611;100 mA
72.55745181681;0.2998046875;0.001705322265625;6.10999998457373;612;100 mA
72.5674518167848;0.299835205078125;0.00170257568359375;6.11999998454849;613;100 mA
72.5774518167595;0.29986572265625;0.001707763671875;6.12999998452324;614;100 mA
72.5874518167343;0.299896240234375;0.0017388916015625;6.13999998449799;615;100 mA
72.5974518167091;0.299896240234375;0.00170623779296875;6.14999998447274;616;100 mA
72.6074518166838;0.2999267578125;0.001695556640625;6.1599999844475;617;100 mA
72.6174518166586;0.299835205078125;0.00169921875;6.16999998442225;618;100 mA
72.6274518166333;0.29986572265625;0.0017059326171875;6.179999984397;619;100 mA
72.6374518166081;0.299896240234375;0.00171630859375;6.18999998437175;620;100 mA
72.6474518165828;0.29986572265625;0.001702880859375;6.1999999843465;621;100 mA
72.6574518165576;0.29986572265625;0.00169403076171875;6.20999998432126;622;100 mA
72.6674518165323;0.299835205078125;0.001693115234375;6.21999998429601;623;100 mA
72.6774518165071;0.299835205078125;0.0017333984375;6.22999998427076;624;100 mA
72.6874518164818;0.2998046875;0.0017236328125;6.23999998424551;625;100 mA
72.6974518164566;0.299835205078125;0.00170867919921875;6.24999998422027;626;100 mA
72.7074518164313;0.299896240234375;0.00171356201171875;6.25999998419502;627;100 mA
72.7174518164061;0.29986572265625;0.00171539306640625;6.26999998416977;628;100 mA
72.7274518163808;0.299896240234375;0.0017486572265625;6.27999998414452;629;100 mA
72.7374518163556;0.299835205078125;0.0017559814453125;6.28999998411928;630;100 mA
72.7474518163303;0.29986572265625;0.00173126220703125;6.29999998409403;631;100 mA
72.7574518163051;0.29986572265625;0.00173187255859375;6.30999998406878;632;100 mA
72.7674518162798;0.299835205078125;0.0017523193359375;6.31999998404353;633;100 mA
72.7774518162546;0.299835205078125;0.00177459716796875;6.32999998401829;634;100 mA
72.7874518162293;0.299774169921875;0.00176666259765625;6.33999998399304;635;100 mA
72.7974518162041;0.299896240234375;0.001759033203125;6.34999998396779;636;100 mA
72.8074518161789;0.299835205078125;0.0017578125;6.35999998394254;637;100 mA
72.8174518161536;0.2998046875;0.00175689697265625;6.3699999839173;638;100 mA
72.8274518161284;0.299835205078125;0.00177764892578125;6.37999998389205;639;100 mA
72.8374518161031;0.29986572265625;0.001748046875;6.3899999838668;640;100 mA
72.8474518160779;0.29986572265625;0.001737060546875;6.39999998384155;641;100 mA
72.8574518160526;0.29986572265625;0.00174072265625;6.40999998381631;642;100 mA
72.8674518160274;0.2998046875;0.001741943359375;6.41999998379106;643;100 mA
72.8774518160021;0.299835205078125;0.00175445556640625;6.42999998376581;644;100 mA
72.8874518159769;0.299835205078125;0.00174468994140625;6.43999998374056;645;100 mA
72.8974518159516;0.299896240234375;0.001729736328125;6.44999998371532;646;100 mA
72.9074518159264;0.299835205078125;0.00172698974609375;6.45999998369007;647;100 mA
72.9174518159011;0.29986572265625;0.001763916015625;6.46999998366482;648;100 mA
72.9274518158759;0.299774169921875;0.0017584228515625;6.47999998363957;649;100 mA
72.9374518158506;0.299957275390625;0.0017535400390625;6.48999998361433;650;100 mA
72.9474518158254;0.299835205078125;0.001754150390625;6.49999998358908;651;100 mA
72.9574518158001;0.299835205078125;0.0017474365234375;6.50999998356383;652;100 mA
72.9674518157749;0.299835205078125;0.001771240234375;6.51999998353858;653;100 mA
72.9774518157496;0.299835205078125;0.00175811767578125;6.52999998351333;654;100 mA
72.9874518157244;0.299774169921875;0.001727294921875;6.53999998348809;655;100 mA
72.9974518156992;0.2998046875;0.00171722412109375;6.54999998346284;656;100 mA
73.0074518156739;0.29986572265625;0.00172210693359375;6.55999998343759;657;100 mA
73.0174518156487;0.299896240234375;0.00173675537109375;6.56999998341234;658;100 mA
73.0274518156234;0.299774169921875;0.00172607421875;6.5799999833871;659;100 mA
73.0374518155982;0.299896240234375;0.00171966552734375;6.58999998336185;660;100 mA
73.0474518155729;0.299896240234375;0.0017138671875;6.5999999833366;661;100 mA
73.0574518155477;0.299835205078125;0.0017254638671875;6.60999998331135;662;100 mA
73.0674518155224;0.299896240234375;0.00175689697265625;6.61999998328611;663;100 mA
73.0774518154972;0.299896240234375;0.0017352294921875;6.62999998326086;664;100 mA
73.0874518154719;0.29986572265625;0.0017352294921875;6.63999998323561;665;100 mA
73.0974518154467;0.29986572265625;0.001741943359375;6.64999998321036;666;100 mA
73.1074518154214;0.29986572265625;0.00174530029296875;6.65999998318512;667;100 mA
73.1174518153962;0.299835205078125;0.0017596435546875;6.66999998315987;668;100 mA
73.1274518153709;0.299835205078125;0.00174346923828125;6.67999998313462;669;100 mA
73.1374518153457;0.29986572265625;0.0017279052734375;6.68999998310937;670;100 mA
73.1474518153204;0.29986572265625;0.00171661376953125;6.69999998308413;671;100 mA
73.1574518152952;0.299896240234375;0.001746826171875;6.70999998305888;672;100 mA
73.1674518152699;0.299835205078125;0.00174102783203125;6.71999998303363;673;100 mA
73.1774518152447;0.29986572265625;0.001729736328125;6.72999998300838;674;100 mA
73.1874518152194;0.29986572265625;0.0017327880859375;6.73999998298314;675;100 mA
73.1974518151942;0.299896240234375;0.001727294921875;6.74999998295789;676;100 mA
73.207451815169;0.299896240234375;0.00176177978515625;6.75999998293264;677;100 mA
73.2174518151437;0.2998046875;0.0017694091796875;6.76999998290739;678;100 mA
73.2274518151185;0.299835205078125;0.00174835205078125;6.77999998288215;679;100 mA
73.2374518150932;0.2998046875;0.0017425537109375;6.7899999828569;680;100 mA
73.247451815068;0.299835205078125;0.00173675537109375;6.79999998283165;681;100 mA
73.2574518150427;0.299896240234375;0.00174957275390625;6.8099999828064;682;100 mA
73.2674518150175;0.29986572265625;0.001741943359375;6.81999998278116;683;100 mA
73.2774518149922;0.299835205078125;0.001737060546875;6.82999998275591;684;100 mA
73.287451814967;0.29986572265625;0.00173309326171875;6.83999998273066;685;100 mA
73.2974518149417;0.299835205078125;0.00174102783203125;6.84999998270541;686;100 mA
73.3074518149165;0.299774169921875;0.0017706298828125;6.85999998268016;687;100 mA
73.3174518148912;0.29986572265625;0.00174285888671875;6.86999998265492;688;100 mA
73.327451814866;0.299835205078125;0.00173187255859375;6.87999998262967;689;100 mA
73.3374518148407;0.29986572265625;0.0017327880859375;6.88999998260442;690;100 mA
73.3474518148155;0.29986572265625;0.00173309326171875;6.89999998257917;691;100 mA
73.3574518147902;0.29986572265625;0.00175140380859375;6.90999998255393;692;100 mA
73.367451814765;0.29986572265625;0.001739501953125;6.91999998252868;693;100 mA
73.3774518147397;0.299835205078125;0.00172332763671875;6.92999998250343;694;100 mA
73.3874518147145;0.29986572265625;0.00172271728515625;6.93999998247818;695;100 mA
73.3974518146892;0.299835205078125;0.0017559814453125;6.94999998245294;696;100 mA
73.407451814664;0.299896240234375;0.00175140380859375;6.95999998242769;697;100 mA
73.4174518146388;0.29986572265625;0.001741943359375;6.96999998240244;698;100 mA
73.4274518146135;0.29986572265625;0.00174041748046875;6.97999998237719;699;100 mA
73.4374518145883;0.299896240234375;0.00173370361328125;6.98999998235195;700;100 mA
