Time (s);WE(1).Potential (V);WE(1).Current (A);Corrected time (s);Index;Current range
73.9356818133303;0.199920654296875;0.000579833984375;0;1;100 mA
73.9456818133051;0.20001220703125;0.0009002685546875;0.00999999997475243;2;100 mA
73.9556818132799;0.20001220703125;0.00103759765625;0.0199999999495049;3;100 mA
73.9656818132546;0.199981689453125;0.0011517333984375;0.0299999999242573;4;100 mA
73.9756818132294;0.199981689453125;0.00122467041015625;0.0399999998990097;5;100 mA
73.9856818132041;0.199951171875;0.00125457763671875;0.0499999998737621;6;100 mA
73.9956818131789;0.199981689453125;0.00127838134765625;0.0599999998485146;7;100 mA
74.0056818131536;0.199981689453125;0.0012969970703125;0.069999999823267;8;100 mA
74.0156818131284;0.199920654296875;0.00135772705078125;0.0799999997980194;9;100 mA
74.0256818131031;0.20001220703125;0.0013641357421875;0.0899999997727718;10;100 mA
74.0356818130779;0.20001220703125;0.00137542724609375;0.0999999997475243;11;100 mA
74.0456818130526;0.199951171875;0.00138702392578125;0.109999999722277;12;100 mA
74.0556818130274;0.199951171875;0.0013812255859375;0.119999999697029;13;100 mA
74.0656818130021;0.20001220703125;0.0014190673828125;0.129999999671782;14;100 mA
74.0756818129769;0.199951171875;0.001417236328125;0.139999999646534;15;100 mA
74.0856818129516;0.199951171875;0.00140625;0.149999999621286;16;100 mA
74.0956818129264;0.20001220703125;0.00141265869140625;0.159999999596039;17;100 mA
74.1056818129011;0.20001220703125;0.00143707275390625;0.169999999570791;18;100 mA
74.1156818128759;0.20001220703125;0.001456298828125;0.179999999545544;19;100 mA
74.1256818128506;0.199981689453125;0.001456298828125;0.189999999520296;20;100 mA
74.1356818128254;0.199981689453125;0.00145355224609375;0.199999999495049;21;100 mA
74.1456818128001;0.199951171875;0.0014483642578125;0.209999999469801;22;100 mA
74.1556818127749;0.200042724609375;0.00147491455078125;0.219999999444553;23;100 mA
74.1656818127497;0.199981689453125;0.0014984130859375;0.229999999419306;24;100 mA
74.1756818127244;0.19989013671875;0.0014910888671875;0.239999999394058;25;100 mA
74.1856818126992;0.199920654296875;0.00149200439453125;0.249999999368811;26;100 mA
74.1956818126739;0.20001220703125;0.00149139404296875;0.259999999343563;27;100 mA
74.2056818126487;0.199920654296875;0.00150421142578125;0.269999999318316;28;100 mA
74.2156818126234;0.200042724609375;0.001512451171875;0.279999999293068;29;100 mA
74.2256818125982;0.199920654296875;0.0014984130859375;0.28999999926782;30;100 mA
74.2356818125729;0.200042724609375;0.001485595703125;0.299999999242573;31;100 mA
74.2456818125477;0.199981689453125;0.00148651123046875;0.309999999217325;32;100 mA
74.2556818125224;0.20001220703125;0.00151702880859375;0.319999999192078;33;100 mA
74.2656818124972;0.200042724609375;0.0015057373046875;0.32999999916683;34;100 mA
74.2756818124719;0.199981689453125;0.001502685546875;0.339999999141583;35;100 mA
74.2856818124467;0.199951171875;0.0014984130859375;0.349999999116335;36;100 mA
74.2956818124214;0.199981689453125;0.001492919921875;0.359999999091087;37;100 mA
74.3056818123962;0.199951171875;0.0015289306640625;0.36999999906584;38;100 mA
74.3156818123709;0.199981689453125;0.00152374267578125;0.379999999040592;39;100 mA
74.3256818123457;0.199951171875;0.001507568359375;0.389999999015345;40;100 mA
74.3356818123204;0.2000732421875;0.00150115966796875;0.399999998990097;41;100 mA
74.3456818122952;0.199981689453125;0.001519775390625;0.40999999896485;42;100 mA
74.3556818122699;0.199981689453125;0.0015313720703125;0.419999998939602;43;100 mA
74.3656818122447;0.199981689453125;0.00152740478515625;0.429999998914354;44;100 mA
74.3756818122195;0.199951171875;0.00152496337890625;0.439999998889107;45;100 mA
74.3856818121942;0.199920654296875;0.00151763916015625;0.449999998863859;46;100 mA
74.395681812169;0.199981689453125;0.0015545654296875;0.459999998838612;47;100 mA
74.4056818121437;0.199981689453125;0.00156463623046875;0.469999998813364;48;100 mA
74.4156818121185;0.19989013671875;0.00154144287109375;0.479999998788116;49;100 mA
74.4256818120932;0.20001220703125;0.00153411865234375;0.489999998762869;50;100 mA
74.435681812068;0.199981689453125;0.0015240478515625;0.499999998737621;51;100 mA
74.4456818120427;0.199920654296875;0.00153839111328125;0.509999998712374;52;100 mA
74.4556818120175;0.20001220703125;0.0015423583984375;0.519999998687126;53;100 mA
74.4656818119922;0.199951171875;0.00153106689453125;0.529999998661879;54;100 mA
74.475681811967;0.20001220703125;0.00152008056640625;0.539999998636631;55;100 mA
74.4856818119417;0.200042724609375;0.0015216064453125;0.549999998611383;56;100 mA
74.4956818119165;0.199951171875;0.00155426025390625;0.559999998586136;57;100 mA
74.5056818118912;0.199951171875;0.00153778076171875;0.569999998560888;58;100 mA
74.515681811866;0.20001220703125;0.001531982421875;0.579999998535641;59;100 mA
74.5256818118407;0.199981689453125;0.0015325927734375;0.589999998510393;60;100 mA
74.5356818118155;0.199981689453125;0.0015252685546875;0.599999998485146;61;100 mA
74.5456818117902;0.20001220703125;0.00155975341796875;0.609999998459898;62;100 mA
74.555681811765;0.199981689453125;0.00154632568359375;0.61999999843465;63;100 mA
74.5656818117398;0.199981689453125;0.0015350341796875;0.629999998409403;64;100 mA
74.5756818117145;0.200042724609375;0.00153594970703125;0.639999998384155;65;100 mA
74.5856818116893;0.199981689453125;0.00154144287109375;0.649999998358908;66;100 mA
74.595681811664;0.199951171875;0.00155792236328125;0.65999999833366;67;100 mA
74.6056818116388;0.20001220703125;0.001553955078125;0.669999998308413;68;100 mA
74.6156818116135;0.199981689453125;0.00154541015625;0.679999998283165;69;100 mA
74.6256818115883;0.199981689453125;0.00153594970703125;0.689999998257917;70;100 mA
74.635681811563;0.199981689453125;0.00155975341796875;0.69999999823267;71;100 mA
74.6456818115378;0.199981689453125;0.00157135009765625;0.709999998207422;72;100 mA
74.6556818115125;0.199920654296875;0.00154876708984375;0.719999998182175;73;100 mA
74.6656818114873;0.199951171875;0.001552734375;0.729999998156927;74;100 mA
74.675681811462;0.20001220703125;0.00154815673828125;0.73999999813168;75;100 mA
74.6856818114368;0.20001220703125;0.00156219482421875;0.749999998106432;76;100 mA
74.6956818114115;0.20001220703125;0.001571044921875;0.759999998081184;77;100 mA
74.7056818113863;0.200042724609375;0.001549072265625;0.769999998055937;78;100 mA
74.715681811361;0.20001220703125;0.00153594970703125;0.779999998030689;79;100 mA
74.7256818113358;0.199981689453125;0.00154327392578125;0.789999998005442;80;100 mA
74.7356818113105;0.199951171875;0.001563720703125;0.799999997980194;81;100 mA
74.7456818112853;0.199981689453125;0.0015545654296875;0.809999997954947;82;100 mA
74.75568181126;0.199951171875;0.001553955078125;0.819999997929699;83;100 mA
74.7656818112348;0.20001220703125;0.00155853271484375;0.829999997904451;84;100 mA
74.7756818112096;0.199981689453125;0.0015509033203125;0.839999997879204;85;100 mA
74.7856818111843;0.199981689453125;0.00157745361328125;0.849999997853956;86;100 mA
74.7956818111591;0.20001220703125;0.00156097412109375;0.859999997828709;87;100 mA
74.8056818111338;0.200042724609375;0.0015460205078125;0.869999997803461;88;100 mA
74.8156818111086;0.2000732421875;0.0015545654296875;0.879999997778214;89;100 mA
74.8256818110833;0.200042724609375;0.00157012939453125;0.889999997752966;90;100 mA
74.8356818110581;0.199951171875;0.0015850830078125;0.899999997727718;91;100 mA
74.8456818110328;0.199951171875;0.00158203125;0.909999997702471;92;100 mA
74.8556818110076;0.199920654296875;0.00156829833984375;0.919999997677223;93;100 mA
74.8656818109823;0.199981689453125;0.00155975341796875;0.929999997651976;94;100 mA
74.8756818109571;0.199981689453125;0.001591796875;0.939999997626728;95;100 mA
74.8856818109318;0.199981689453125;0.0016015625;0.949999997601481;96;100 mA
74.8956818109066;0.199798583984375;0.00158660888671875;0.959999997576233;97;100 mA
74.9056818108813;0.200042724609375;0.0015826416015625;0.969999997550985;98;100 mA
74.9156818108561;0.20001220703125;0.00157440185546875;0.979999997525738;99;100 mA
74.9256818108308;0.20001220703125;0.00158447265625;0.98999999750049;100;100 mA
74.9356818108056;0.199951171875;0.00158905029296875;0.999999997475243;101;100 mA
74.9456818107803;0.20001220703125;0.00156829833984375;1.00999999745;102;100 mA
74.9556818107551;0.19989013671875;0.00155731201171875;1.01999999742475;103;100 mA
74.9656818107298;0.200042724609375;0.00156219482421875;1.0299999973995;104;100 mA
74.9756818107046;0.200042724609375;0.00157867431640625;1.03999999737425;105;100 mA
74.9856818106794;0.200042724609375;0.0015606689453125;1.049999997349;106;100 mA
74.9956818106541;0.199981689453125;0.001551513671875;1.05999999732376;107;100 mA
75.0056818106289;0.199981689453125;0.0015447998046875;1.06999999729851;108;100 mA
75.0156818106036;0.200042724609375;0.00154571533203125;1.07999999727326;109;100 mA
75.0256818105784;0.20001220703125;0.00158172607421875;1.08999999724801;110;100 mA
75.0356818105531;0.199981689453125;0.001571044921875;1.09999999722277;111;100 mA
75.0456818105279;0.20001220703125;0.0015679931640625;1.10999999719752;112;100 mA
75.0556818105026;0.199981689453125;0.0015740966796875;1.11999999717227;113;100 mA
75.0656818104774;0.199981689453125;0.00157562255859375;1.12999999714702;114;100 mA
75.0756818104521;0.199920654296875;0.0015875244140625;1.13999999712178;115;100 mA
75.0856818104269;0.199981689453125;0.00157501220703125;1.14999999709653;116;100 mA
75.0956818104016;0.199981689453125;0.00155731201171875;1.15999999707128;117;100 mA
75.1056818103764;0.199951171875;0.00154510498046875;1.16999999704603;118;100 mA
75.1156818103511;0.199951171875;0.0015777587890625;1.17999999702079;119;100 mA
75.1256818103259;0.200042724609375;0.0015869140625;1.18999999699554;120;100 mA
75.1356818103006;0.199859619140625;0.001580810546875;1.19999999697029;121;100 mA
75.1456818102754;0.20001220703125;0.00158843994140625;1.20999999694504;122;100 mA
75.1556818102501;0.199981689453125;0.00158782958984375;1.2199999969198;123;100 mA
75.1656818102249;0.199981689453125;0.00161224365234375;1.22999999689455;124;100 mA
75.1756818101996;0.20001220703125;0.00162353515625;1.2399999968693;125;100 mA
75.1856818101744;0.199981689453125;0.00159912109375;1.24999999684405;126;100 mA
75.1956818101492;0.199981689453125;0.0015911865234375;1.25999999681881;127;100 mA
75.2056818101239;0.199981689453125;0.00160003662109375;1.26999999679356;128;100 mA
75.2156818100987;0.20001220703125;0.0016241455078125;1.27999999676831;129;100 mA
75.2256818100734;0.20001220703125;0.00161529541015625;1.28999999674306;130;100 mA
75.2356818100482;0.199981689453125;0.001602783203125;1.29999999671782;131;100 mA
75.2456818100229;0.200042724609375;0.00160186767578125;1.30999999669257;132;100 mA
75.2556818099977;0.199951171875;0.00159423828125;1.31999999666732;133;100 mA
75.2656818099724;0.199951171875;0.00163116455078125;1.32999999664207;134;100 mA
75.2756818099472;0.20001220703125;0.00160736083984375;1.33999999661683;135;100 mA
75.2856818099219;0.199951171875;0.00159088134765625;1.34999999659158;136;100 mA
75.2956818098967;0.2000732421875;0.00160003662109375;1.35999999656633;137;100 mA
75.3056818098714;0.199920654296875;0.0016058349609375;1.36999999654108;138;100 mA
75.3156818098462;0.20001220703125;0.001624755859375;1.37999999651583;139;100 mA
75.3256818098209;0.199951171875;0.00161712646484375;1.38999999649059;140;100 mA
75.3356818097957;0.199951171875;0.00160003662109375;1.39999999646534;141;100 mA
75.3456818097704;0.199920654296875;0.001595458984375;1.40999999644009;142;100 mA
75.3556818097452;0.200042724609375;0.00161712646484375;1.41999999641484;143;100 mA
75.3656818097199;0.199981689453125;0.001617431640625;1.4299999963896;144;100 mA
75.3756818096947;0.199859619140625;0.00160247802734375;1.43999999636435;145;100 mA
75.3856818096694;0.199951171875;0.0015997314453125;1.4499999963391;146;100 mA
75.3956818096442;0.199951171875;0.00159637451171875;1.45999999631385;147;100 mA
75.405681809619;0.199981689453125;0.0016204833984375;1.46999999628861;148;100 mA
75.4156818095937;0.20001220703125;0.00162872314453125;1.47999999626336;149;100 mA
75.4256818095685;0.200042724609375;0.0016046142578125;1.48999999623811;150;100 mA
75.4356818095432;0.20001220703125;0.0015875244140625;1.49999999621286;151;100 mA
75.445681809518;0.199981689453125;0.001591796875;1.50999999618762;152;100 mA
75.4556818094927;0.199981689453125;0.0016082763671875;1.51999999616237;153;100 mA
75.4656818094675;0.199951171875;0.0015997314453125;1.52999999613712;154;100 mA
75.4756818094422;0.200042724609375;0.00159210205078125;1.53999999611187;155;100 mA
75.485681809417;0.199951171875;0.00158355712890625;1.54999999608663;156;100 mA
75.4956818093917;0.199951171875;0.0015869140625;1.55999999606138;157;100 mA
75.5056818093665;0.199981689453125;0.0016265869140625;1.56999999603613;158;100 mA
75.5156818093412;0.199920654296875;0.00161224365234375;1.57999999601088;159;100 mA
75.525681809316;0.199951171875;0.00160491943359375;1.58999999598564;160;100 mA
75.5356818092907;0.2000732421875;0.00160614013671875;1.59999999596039;161;100 mA
75.5456818092655;0.199981689453125;0.001602783203125;1.60999999593514;162;100 mA
75.5556818092402;0.199951171875;0.00161285400390625;1.61999999590989;163;100 mA
75.565681809215;0.20001220703125;0.00160858154296875;1.62999999588465;164;100 mA
75.5756818091897;0.199951171875;0.0015960693359375;1.6399999958594;165;100 mA
75.5856818091645;0.199920654296875;0.00158966064453125;1.64999999583415;166;100 mA
75.5956818091393;0.199981689453125;0.00161590576171875;1.6599999958089;167;100 mA
75.605681809114;0.199981689453125;0.0016131591796875;1.66999999578366;168;100 mA
75.6156818090888;0.199920654296875;0.001600341796875;1.67999999575841;169;100 mA
75.6256818090635;0.199981689453125;0.0015960693359375;1.68999999573316;170;100 mA
75.6356818090383;0.199951171875;0.001585693359375;1.69999999570791;171;100 mA
75.645681809013;0.199951171875;0.00160736083984375;1.70999999568267;172;100 mA
75.6556818089878;0.200042724609375;0.0016156005859375;1.71999999565742;173;100 mA
75.6656818089625;0.20001220703125;0.001590576171875;1.72999999563217;174;100 mA
75.6756818089373;0.20001220703125;0.00157989501953125;1.73999999560692;175;100 mA
75.685681808912;0.199981689453125;0.00158172607421875;1.74999999558167;176;100 mA
75.6956818088868;0.199951171875;0.00159759521484375;1.75999999555643;177;100 mA
75.7056818088615;0.20001220703125;0.0015826416015625;1.76999999553118;178;100 mA
75.7156818088363;0.20001220703125;0.0015667724609375;1.77999999550593;179;100 mA
75.725681808811;0.199951171875;0.001553955078125;1.78999999548068;180;100 mA
75.7356818087858;0.20001220703125;0.00155609130859375;1.79999999545544;181;100 mA
75.7456818087605;0.199951171875;0.00159393310546875;1.80999999543019;182;100 mA
75.7556818087353;0.199981689453125;0.0015753173828125;1.81999999540494;183;100 mA
75.76568180871;0.199920654296875;0.00157073974609375;1.82999999537969;184;100 mA
75.7756818086848;0.20001220703125;0.001578369140625;1.83999999535445;185;100 mA
75.7856818086595;0.199981689453125;0.00158111572265625;1.8499999953292;186;100 mA
75.7956818086343;0.20001220703125;0.00160064697265625;1.85999999530395;187;100 mA
75.8056818086091;0.20001220703125;0.00158782958984375;1.8699999952787;188;100 mA
75.8156818085838;0.199951171875;0.00156951904296875;1.87999999525346;189;100 mA
75.8256818085586;0.199981689453125;0.001566162109375;1.88999999522821;190;100 mA
75.8356818085333;0.199951171875;0.0015899658203125;1.89999999520296;191;100 mA
75.8456818085081;0.2000732421875;0.001590576171875;1.90999999517771;192;100 mA
75.8556818084828;0.199859619140625;0.00157440185546875;1.91999999515247;193;100 mA
75.8656818084576;0.2000732421875;0.00156982421875;1.92999999512722;194;100 mA
75.8756818084323;0.199981689453125;0.0015625;1.93999999510197;195;100 mA
75.8856818084071;0.199981689453125;0.001588134765625;1.94999999507672;196;100 mA
75.8956818083818;0.200042724609375;0.0015985107421875;1.95999999505148;197;100 mA
75.9056818083566;0.199981689453125;0.0015704345703125;1.96999999502623;198;100 mA
75.9156818083313;0.199951171875;0.00156829833984375;1.97999999500098;199;100 mA
75.9256818083061;0.200042724609375;0.00156951904296875;1.98999999497573;200;100 mA
75.9356818082808;0.199981689453125;0.001583251953125;1.99999999495049;201;100 mA
75.9456818082556;0.199981689453125;0.0015740966796875;2.00999999492524;202;100 mA
75.9556818082303;0.199981689453125;0.00155731201171875;2.01999999489999;203;100 mA
75.9656818082051;0.2000732421875;0.0015447998046875;2.02999999487474;204;100 mA
75.9756818081798;0.199981689453125;0.001544189453125;2.0399999948495;205;100 mA
75.9856818081546;0.20001220703125;0.0015655517578125;2.04999999482425;206;100 mA
75.9956818081293;0.199951171875;0.001544189453125;2.059999994799;207;100 mA
76.0056818081041;0.199981689453125;0.0015374755859375;2.06999999477375;208;100 mA
76.0156818080789;0.2000732421875;0.00154144287109375;2.0799999947485;209;100 mA
76.0256818080536;0.199981689453125;0.00154571533203125;2.08999999472326;210;100 mA
76.0356818080284;0.199981689453125;0.0015594482421875;2.09999999469801;211;100 mA
76.0456818080031;0.20001220703125;0.0015509033203125;2.10999999467276;212;100 mA
76.0556818079779;0.20001220703125;0.00153289794921875;2.11999999464751;213;100 mA
76.0656818079526;0.20001220703125;0.001536865234375;2.12999999462227;214;100 mA
76.0756818079274;0.199951171875;0.00156707763671875;2.13999999459702;215;100 mA
76.0856818079021;0.199981689453125;0.00156890869140625;2.14999999457177;216;100 mA
76.0956818078769;0.199859619140625;0.00156402587890625;2.15999999454652;217;100 mA
76.1056818078516;0.20001220703125;0.00155792236328125;2.16999999452128;218;100 mA
76.1156818078264;0.199920654296875;0.001549072265625;2.17999999449603;219;100 mA
76.1256818078011;0.20001220703125;0.00156890869140625;2.18999999447078;220;100 mA
76.1356818077759;0.199981689453125;0.00156524658203125;2.19999999444553;221;100 mA
76.1456818077506;0.199981689453125;0.00154388427734375;2.20999999442029;222;100 mA
76.1556818077254;0.199981689453125;0.00153900146484375;2.21999999439504;223;100 mA
76.1656818077001;0.199981689453125;0.0015435791015625;2.22999999436979;224;100 mA
76.1756818076749;0.199920654296875;0.0015545654296875;2.23999999434454;225;100 mA
76.1856818076496;0.20001220703125;0.00154632568359375;2.2499999943193;226;100 mA
76.1956818076244;0.199981689453125;0.0015362548828125;2.25999999429405;227;100 mA
76.2056818075991;0.199981689453125;0.00153289794921875;2.2699999942688;228;100 mA
76.2156818075739;0.199981689453125;0.00154083251953125;2.27999999424355;229;100 mA
76.2256818075487;0.199951171875;0.00157135009765625;2.28999999421831;230;100 mA
76.2356818075234;0.199951171875;0.00154693603515625;2.29999999419306;231;100 mA
76.2456818074982;0.200042724609375;0.0015380859375;2.30999999416781;232;100 mA
76.2556818074729;0.200042724609375;0.001536865234375;2.31999999414256;233;100 mA
76.2656818074477;0.2000732421875;0.00153656005859375;2.32999999411732;234;100 mA
76.2756818074224;0.20001220703125;0.00155487060546875;2.33999999409207;235;100 mA
76.2856818073972;0.199981689453125;0.0015472412109375;2.34999999406682;236;100 mA
76.2956818073719;0.199981689453125;0.00153472900390625;2.35999999404157;237;100 mA
76.3056818073467;0.199920654296875;0.00154144287109375;2.36999999401633;238;100 mA
76.3156818073214;0.199951171875;0.0015692138671875;2.37999999399108;239;100 mA
76.3256818072962;0.199981689453125;0.0015643310546875;2.38999999396583;240;100 mA
76.3356818072709;0.199859619140625;0.00155426025390625;2.39999999394058;241;100 mA
76.3456818072457;0.20001220703125;0.00155731201171875;2.40999999391533;242;100 mA
76.3556818072204;0.20001220703125;0.0015496826171875;2.41999999389009;243;100 mA
76.3656818071952;0.20001220703125;0.00157379150390625;2.42999999386484;244;100 mA
76.3756818071699;0.199951171875;0.00157440185546875;2.43999999383959;245;100 mA
76.3856818071447;0.200042724609375;0.0015509033203125;2.44999999381434;246;100 mA
76.3956818071194;0.199951171875;0.00154937744140625;2.4599999937891;247;100 mA
76.4056818070942;0.199951171875;0.00154388427734375;2.46999999376385;248;100 mA
76.4156818070689;0.199951171875;0.00155517578125;2.4799999937386;249;100 mA
76.4256818070437;0.199981689453125;0.0015521240234375;2.48999999371335;250;100 mA
76.4356818070185;0.199859619140625;0.00153900146484375;2.49999999368811;251;100 mA
76.4456818069932;0.199920654296875;0.00153350830078125;2.50999999366286;252;100 mA
76.455681806968;0.20001220703125;0.0015325927734375;2.51999999363761;253;100 mA
76.4656818069427;0.199981689453125;0.0015509033203125;2.52999999361236;254;100 mA
76.4756818069175;0.199981689453125;0.00153106689453125;2.53999999358712;255;100 mA
76.4856818068922;0.199951171875;0.00152496337890625;2.54999999356187;256;100 mA
76.495681806867;0.20001220703125;0.0015325927734375;2.55999999353662;257;100 mA
76.5056818068417;0.199981689453125;0.001534423828125;2.56999999351137;258;100 mA
76.5156818068165;0.20001220703125;0.00155914306640625;2.57999999348613;259;100 mA
76.5256818067912;0.20001220703125;0.00154815673828125;2.58999999346088;260;100 mA
76.535681806766;0.20001220703125;0.0015283203125;2.59999999343563;261;100 mA
76.5456818067407;0.20001220703125;0.0015283203125;2.60999999341038;262;100 mA
76.5556818067155;0.200042724609375;0.00154449462890625;2.61999999338514;263;100 mA
76.5656818066902;0.199981689453125;0.00154083251953125;2.62999999335989;264;100 mA
76.575681806665;0.199859619140625;0.00153167724609375;2.63999999333464;265;100 mA
76.5856818066397;0.199981689453125;0.00152587890625;2.64999999330939;266;100 mA
76.5956818066145;0.199981689453125;0.00152130126953125;2.65999999328415;267;100 mA
76.6056818065892;0.199981689453125;0.0015460205078125;2.6699999932589;268;100 mA
76.615681806564;0.20001220703125;0.0015423583984375;2.67999999323365;269;100 mA
76.6256818065388;0.199981689453125;0.00151885986328125;2.6899999932084;270;100 mA
76.6356818065135;0.200042724609375;0.0015118408203125;2.69999999318316;271;100 mA
76.6456818064883;0.199981689453125;0.0015087890625;2.70999999315791;272;100 mA
76.655681806463;0.199920654296875;0.0015203857421875;2.71999999313266;273;100 mA
76.6656818064378;0.199981689453125;0.00151885986328125;2.72999999310741;274;100 mA
76.6756818064125;0.199981689453125;0.0015087890625;2.73999999308217;275;100 mA
76.6856818063873;0.199981689453125;0.001500244140625;2.74999999305692;276;100 mA
76.695681806362;0.20001220703125;0.00151123046875;2.75999999303167;277;100 mA
76.7056818063368;0.199981689453125;0.00152862548828125;2.76999999300642;278;100 mA
76.7156818063115;0.199951171875;0.00151092529296875;2.77999999298117;279;100 mA
76.7256818062863;0.199920654296875;0.00150787353515625;2.78999999295593;280;100 mA
76.735681806261;0.199981689453125;0.0015106201171875;2.79999999293068;281;100 mA
76.7456818062358;0.199951171875;0.0015087890625;2.80999999290543;282;100 mA
76.7556818062105;0.20001220703125;0.00152740478515625;2.81999999288018;283;100 mA
76.7656818061853;0.20001220703125;0.00151092529296875;2.82999999285494;284;100 mA
76.77568180616;0.200042724609375;0.00149383544921875;2.83999999282969;285;100 mA
76.7856818061348;0.199951171875;0.00149749755859375;2.84999999280444;286;100 mA
76.7956818061095;0.200042724609375;0.001517333984375;2.85999999277919;287;100 mA
76.8056818060843;0.20001220703125;0.0015155029296875;2.86999999275395;288;100 mA
76.815681806059;0.199951171875;0.0015093994140625;2.8799999927287;289;100 mA
76.8256818060338;0.199951171875;0.00150787353515625;2.88999999270345;290;100 mA
76.8356818060086;0.20001220703125;0.00150115966796875;2.8999999926782;291;100 mA
76.8456818059833;0.20001220703125;0.001529541015625;2.90999999265296;292;100 mA
76.8556818059581;0.200042724609375;0.00151947021484375;2.91999999262771;293;100 mA
76.8656818059328;0.199920654296875;0.00150146484375;2.92999999260246;294;100 mA
76.8756818059076;0.200042724609375;0.00150360107421875;2.93999999257721;295;100 mA
76.8856818058823;0.200042724609375;0.001505126953125;2.94999999255197;296;100 mA
76.8956818058571;0.199951171875;0.00152679443359375;2.95999999252672;297;100 mA
76.9056818058318;0.199951171875;0.00152587890625;2.96999999250147;298;100 mA
76.9156818058066;0.199951171875;0.001514892578125;2.97999999247622;299;100 mA
76.9256818057813;0.199951171875;0.001505126953125;2.98999999245098;300;100 mA
76.9356818057561;0.199981689453125;0.00151031494140625;2.99999999242573;301;100 mA
76.9456818057308;0.20001220703125;0.0015252685546875;3.00999999240048;302;100 mA
76.9556818057056;0.199981689453125;0.00150665283203125;3.01999999237523;303;100 mA
76.9656818056803;0.199981689453125;0.0015057373046875;3.02999999234999;304;100 mA
76.9756818056551;0.200042724609375;0.001510009765625;3.03999999232474;305;100 mA
76.9856818056298;0.199981689453125;0.00150726318359375;3.04999999229949;306;100 mA
76.9956818056046;0.20001220703125;0.00153533935546875;3.05999999227424;307;100 mA
77.0056818055793;0.20001220703125;0.00151824951171875;3.069999992249;308;100 mA
77.0156818055541;0.200042724609375;0.00150482177734375;3.07999999222375;309;100 mA
77.0256818055288;0.199981689453125;0.0015155029296875;3.0899999921985;310;100 mA
77.0356818055036;0.199981689453125;0.00153228759765625;3.09999999217325;311;100 mA
77.0456818054784;0.199981689453125;0.00153472900390625;3.109999992148;312;100 mA
77.0556818054531;0.199981689453125;0.00152313232421875;3.11999999212276;313;100 mA
77.0656818054279;0.20001220703125;0.00151885986328125;3.12999999209751;314;100 mA
77.0756818054026;0.20001220703125;0.00151214599609375;3.13999999207226;315;100 mA
77.0856818053774;0.199981689453125;0.0015380859375;3.14999999204701;316;100 mA
77.0956818053521;0.200042724609375;0.00153350830078125;3.15999999202177;317;100 mA
77.1056818053269;0.199981689453125;0.00151611328125;3.16999999199652;318;100 mA
77.1156818053016;0.20001220703125;0.0015185546875;3.17999999197127;319;100 mA
77.1256818052764;0.199981689453125;0.0015228271484375;3.18999999194602;320;100 mA
77.1356818052511;0.199981689453125;0.0015411376953125;3.19999999192078;321;100 mA
77.1456818052259;0.20001220703125;0.0015435791015625;3.20999999189553;322;100 mA
77.1556818052006;0.199951171875;0.00152435302734375;3.21999999187028;323;100 mA
77.1656818051754;0.199951171875;0.00152130126953125;3.22999999184503;324;100 mA
77.1756818051501;0.199981689453125;0.00153594970703125;3.23999999181979;325;100 mA
77.1856818051249;0.200042724609375;0.00154693603515625;3.24999999179454;326;100 mA
77.1956818050996;0.199981689453125;0.00152862548828125;3.25999999176929;327;100 mA
77.2056818050744;0.20001220703125;0.00152313232421875;3.26999999174404;328;100 mA
77.2156818050491;0.199981689453125;0.00152862548828125;3.2799999917188;329;100 mA
77.2256818050239;0.199981689453125;0.00153167724609375;3.28999999169355;330;100 mA
77.2356818049986;0.199981689453125;0.0015521240234375;3.2999999916683;331;100 mA
77.2456818049734;0.200042724609375;0.00153656005859375;3.30999999164305;332;100 mA
77.2556818049482;0.20001220703125;0.0015185546875;3.31999999161781;333;100 mA
77.2656818049229;0.199981689453125;0.0015277099609375;3.32999999159256;334;100 mA
77.2756818048977;0.199951171875;0.0015423583984375;3.33999999156731;335;100 mA
77.2856818048724;0.199981689453125;0.00153717041015625;3.34999999154206;336;100 mA
77.2956818048472;0.199920654296875;0.001522216796875;3.35999999151682;337;100 mA
77.3056818048219;0.20001220703125;0.001517333984375;3.36999999149157;338;100 mA
77.3156818047967;0.199920654296875;0.0015167236328125;3.37999999146632;339;100 mA
77.3256818047714;0.199981689453125;0.00155120849609375;3.38999999144107;340;100 mA
77.3356818047462;0.200042724609375;0.001544189453125;3.39999999141583;341;100 mA
77.3456818047209;0.199981689453125;0.00152923583984375;3.40999999139058;342;100 mA
77.3556818046957;0.200042724609375;0.00152618408203125;3.41999999136533;343;100 mA
77.3656818046704;0.199981689453125;0.00152252197265625;3.42999999134008;344;100 mA
77.3756818046452;0.199920654296875;0.00154205322265625;3.43999999131483;345;100 mA
77.3856818046199;0.199951171875;0.001539306640625;3.44999999128959;346;100 mA
77.3956818045947;0.199981689453125;0.00152252197265625;3.45999999126434;347;100 mA
77.4056818045694;0.199981689453125;0.00151947021484375;3.46999999123909;348;100 mA
77.4156818045442;0.199981689453125;0.0015380859375;3.47999999121384;349;100 mA
77.4256818045189;0.200042724609375;0.0015521240234375;3.4899999911886;350;100 mA
77.4356818044937;0.199920654296875;0.0015338134765625;3.49999999116335;351;100 mA
77.4456818044684;0.200042724609375;0.0015264892578125;3.5099999911381;352;100 mA
77.4556818044432;0.20001220703125;0.001527099609375;3.51999999111285;353;100 mA
77.465681804418;0.199981689453125;0.0015325927734375;3.52999999108761;354;100 mA
77.4756818043927;0.199981689453125;0.0015545654296875;3.53999999106236;355;100 mA
77.4856818043675;0.20001220703125;0.0015289306640625;3.54999999103711;356;100 mA
77.4956818043422;0.199981689453125;0.0015191650390625;3.55999999101186;357;100 mA
77.505681804317;0.200042724609375;0.00152496337890625;3.56999999098662;358;100 mA
77.5156818042917;0.200042724609375;0.0015374755859375;3.57999999096137;359;100 mA
77.5256818042665;0.199981689453125;0.00153900146484375;3.58999999093612;360;100 mA
77.5356818042412;0.199951171875;0.001524658203125;3.59999999091087;361;100 mA
77.545681804216;0.20001220703125;0.00152313232421875;3.60999999088563;362;100 mA
77.5556818041907;0.199951171875;0.00151702880859375;3.61999999086038;363;100 mA
77.5656818041655;0.20001220703125;0.00155517578125;3.62999999083513;364;100 mA
77.5756818041402;0.199981689453125;0.00154998779296875;3.63999999080988;365;100 mA
77.585681804115;0.2000732421875;0.00153076171875;3.64999999078464;366;100 mA
77.5956818040897;0.20001220703125;0.00152984619140625;3.65999999075939;367;100 mA
77.6056818040645;0.20001220703125;0.00152130126953125;3.66999999073414;368;100 mA
77.6156818040392;0.19989013671875;0.00154510498046875;3.67999999070889;369;100 mA
77.625681804014;0.20001220703125;0.0015496826171875;3.68999999068365;370;100 mA
77.6356818039887;0.199981689453125;0.0015338134765625;3.6999999906584;371;100 mA
77.6456818039635;0.199951171875;0.00153228759765625;3.70999999063315;372;100 mA
77.6556818039383;0.20001220703125;0.00155120849609375;3.7199999906079;373;100 mA
77.665681803913;0.20001220703125;0.0015673828125;3.72999999058266;374;100 mA
77.6756818038878;0.20001220703125;0.0015533447265625;3.73999999055741;375;100 mA
77.6856818038625;0.200042724609375;0.00154541015625;3.74999999053216;376;100 mA
77.6956818038373;0.199981689453125;0.0015478515625;3.75999999050691;377;100 mA
77.705681803812;0.199981689453125;0.0015521240234375;3.76999999048167;378;100 mA
77.7156818037868;0.199981689453125;0.0015814208984375;3.77999999045642;379;100 mA
77.7256818037615;0.199951171875;0.00156036376953125;3.78999999043117;380;100 mA
77.7356818037363;0.199981689453125;0.001544189453125;3.79999999040592;381;100 mA
77.745681803711;0.199981689453125;0.00155853271484375;3.80999999038067;382;100 mA
77.7556818036858;0.20001220703125;0.00157073974609375;3.81999999035543;383;100 mA
77.7656818036605;0.199981689453125;0.0015826416015625;3.82999999033018;384;100 mA
77.7756818036353;0.199920654296875;0.0015679931640625;3.83999999030493;385;100 mA
77.78568180361;0.20001220703125;0.00155975341796875;3.84999999027968;386;100 mA
77.7956818035848;0.20001220703125;0.001556396484375;3.85999999025444;387;100 mA
77.8056818035595;0.199951171875;0.0015875244140625;3.86999999022919;388;100 mA
77.8156818035343;0.200042724609375;0.00157318115234375;3.87999999020394;389;100 mA
77.825681803509;0.20001220703125;0.00155792236328125;3.88999999017869;390;100 mA
77.8356818034838;0.200042724609375;0.00155670166015625;3.89999999015345;391;100 mA
77.8456818034585;0.199981689453125;0.00155487060546875;3.9099999901282;392;100 mA
77.8556818034333;0.199981689453125;0.00158050537109375;3.91999999010295;393;100 mA
77.8656818034081;0.199951171875;0.00158721923828125;3.9299999900777;394;100 mA
77.8756818033828;0.199951171875;0.0015740966796875;3.93999999005246;395;100 mA
77.8856818033576;0.20001220703125;0.00157196044921875;3.94999999002721;396;100 mA
77.8956818033323;0.200042724609375;0.0015875244140625;3.95999999000196;397;100 mA
77.9056818033071;0.20001220703125;0.00159637451171875;3.96999998997671;398;100 mA
77.9156818032818;0.20001220703125;0.00158355712890625;3.97999998995147;399;100 mA
77.9256818032566;0.199981689453125;0.00158111572265625;3.98999998992622;400;100 mA
77.9356818032313;0.2000732421875;0.0015814208984375;3.99999998990097;401;100 mA
77.9456818032061;0.199981689453125;0.0015911865234375;4.00999998987572;402;100 mA
77.9556818031808;0.199951171875;0.00161102294921875;4.01999998985048;403;100 mA
77.9656818031556;0.20001220703125;0.0015814208984375;4.02999998982523;404;100 mA
77.9756818031303;0.199981689453125;0.00156890869140625;4.03999998979998;405;100 mA
77.9856818031051;0.199981689453125;0.00157073974609375;4.04999998977473;406;100 mA
77.9956818030798;0.199981689453125;0.00157470703125;4.05999998974949;407;100 mA
78.0056818030546;0.199981689453125;0.00157989501953125;4.06999998972424;408;100 mA
78.0156818030293;0.199981689453125;0.001563720703125;4.07999998969899;409;100 mA
78.0256818030041;0.199920654296875;0.00155609130859375;4.08999998967374;410;100 mA
78.0356818029788;0.199951171875;0.0015570068359375;4.0999999896485;411;100 mA
78.0456818029536;0.199981689453125;0.0015911865234375;4.10999998962325;412;100 mA
78.0556818029283;0.199981689453125;0.00158172607421875;4.119999989598;413;100 mA
78.0656818029031;0.20001220703125;0.00156890869140625;4.12999998957275;414;100 mA
78.0756818028779;0.200042724609375;0.00157440185546875;4.1399999895475;415;100 mA
78.0856818028526;0.199981689453125;0.00157257080078125;4.14999998952226;416;100 mA
78.0956818028274;0.199951171875;0.00160675048828125;4.15999998949701;417;100 mA
78.1056818028021;0.199951171875;0.0016064453125;4.16999998947176;418;100 mA
78.1156818027769;0.199951171875;0.00158905029296875;4.17999998944651;419;100 mA
78.1256818027516;0.19989013671875;0.0015936279296875;4.18999998942127;420;100 mA
78.1356818027264;0.199951171875;0.0016082763671875;4.19999998939602;421;100 mA
78.1456818027011;0.199981689453125;0.00162078857421875;4.20999998937077;422;100 mA
78.1556818026759;0.199951171875;0.0016064453125;4.21999998934552;423;100 mA
78.1656818026506;0.199981689453125;0.0015966796875;4.22999998932028;424;100 mA
78.1756818026254;0.199920654296875;0.00159027099609375;4.23999998929503;425;100 mA
78.1856818026001;0.199981689453125;0.00160369873046875;4.24999998926978;426;100 mA
78.1956818025749;0.199981689453125;0.0016339111328125;4.25999998924453;427;100 mA
78.2056818025496;0.199981689453125;0.0016082763671875;4.26999998921929;428;100 mA
78.2156818025244;0.199981689453125;0.00160003662109375;4.27999998919404;429;100 mA
78.2256818024991;0.199981689453125;0.00160858154296875;4.28999998916879;430;100 mA
78.2356818024739;0.199951171875;0.00161834716796875;4.29999998914354;431;100 mA
78.2456818024486;0.199981689453125;0.00162628173828125;4.3099999891183;432;100 mA
78.2556818024234;0.199981689453125;0.00160919189453125;4.31999998909305;433;100 mA
78.2656818023981;0.2000732421875;0.00160064697265625;4.3299999890678;434;100 mA
78.2756818023729;0.199981689453125;0.0016021728515625;4.33999998904255;435;100 mA
78.2856818023477;0.199981689453125;0.00163116455078125;4.34999998901731;436;100 mA
78.2956818023224;0.20001220703125;0.001619873046875;4.35999998899206;437;100 mA
78.3056818022972;0.199951171875;0.0015997314453125;4.36999998896681;438;100 mA
78.3156818022719;0.20001220703125;0.00159637451171875;4.37999998894156;439;100 mA
78.3256818022467;0.199951171875;0.00158660888671875;4.38999998891632;440;100 mA
78.3356818022214;0.199981689453125;0.0016094970703125;4.39999998889107;441;100 mA
78.3456818021962;0.199981689453125;0.00160400390625;4.40999998886582;442;100 mA
78.3556818021709;0.20001220703125;0.00157745361328125;4.41999998884057;443;100 mA
78.3656818021457;0.20001220703125;0.00157470703125;4.42999998881533;444;100 mA
78.3756818021204;0.199951171875;0.001583251953125;4.43999998879008;445;100 mA
78.3856818020952;0.20001220703125;0.0015924072265625;4.44999998876483;446;100 mA
78.3956818020699;0.199981689453125;0.00158294677734375;4.45999998873958;447;100 mA
78.4056818020447;0.199981689453125;0.00157501220703125;4.46999998871433;448;100 mA
78.4156818020194;0.199981689453125;0.00157012939453125;4.47999998868909;449;100 mA
78.4256818019942;0.199981689453125;0.00158416748046875;4.48999998866384;450;100 mA
78.4356818019689;0.200042724609375;0.0016046142578125;4.49999998863859;451;100 mA
78.4456818019437;0.199981689453125;0.00158477783203125;4.50999998861334;452;100 mA
78.4556818019184;0.199981689453125;0.001580810546875;4.5199999885881;453;100 mA
78.4656818018932;0.199981689453125;0.00159210205078125;4.52999998856285;454;100 mA
78.4756818018679;0.199981689453125;0.00160369873046875;4.5399999885376;455;100 mA
78.4856818018427;0.20001220703125;0.0016162109375;4.54999998851235;456;100 mA
78.4956818018175;0.20001220703125;0.0016009521484375;4.55999998848711;457;100 mA
78.5056818017922;0.199951171875;0.001588134765625;4.56999998846186;458;100 mA
78.515681801767;0.199951171875;0.001590576171875;4.57999998843661;459;100 mA
78.5256818017417;0.199981689453125;0.001622314453125;4.58999998841136;460;100 mA
78.5356818017165;0.199981689453125;0.00161163330078125;4.59999998838612;461;100 mA
78.5456818016912;0.199981689453125;0.0016046142578125;4.60999998836087;462;100 mA
78.555681801666;0.20001220703125;0.00160369873046875;4.61999998833562;463;100 mA
78.5656818016407;0.20001220703125;0.00159423828125;4.62999998831037;464;100 mA
78.5756818016155;0.20001220703125;0.00162109375;4.63999998828513;465;100 mA
78.5856818015902;0.199951171875;0.00161529541015625;4.64999998825988;466;100 mA
78.595681801565;0.20001220703125;0.0016046142578125;4.65999998823463;467;100 mA
78.6056818015397;0.199951171875;0.00161163330078125;4.66999998820938;468;100 mA
78.6156818015145;0.199951171875;0.00162017822265625;4.67999998818414;469;100 mA
78.6256818014892;0.199951171875;0.00163330078125;4.68999998815889;470;100 mA
78.635681801464;0.199920654296875;0.00162078857421875;4.69999998813364;471;100 mA
78.6456818014387;0.20001220703125;0.00161041259765625;4.70999998810839;472;100 mA
78.6556818014135;0.20001220703125;0.0015960693359375;4.71999998808315;473;100 mA
78.6656818013882;0.199951171875;0.001607666015625;4.7299999880579;474;100 mA
78.675681801363;0.199951171875;0.00161956787109375;4.73999998803265;475;100 mA
78.6856818013378;0.20001220703125;0.00159088134765625;4.7499999880074;476;100 mA
78.6956818013125;0.199951171875;0.00158294677734375;4.75999998798216;477;100 mA
78.7056818012873;0.200042724609375;0.00158355712890625;4.76999998795691;478;100 mA
78.715681801262;0.199981689453125;0.001590576171875;4.77999998793166;479;100 mA
78.7256818012368;0.20001220703125;0.0016046142578125;4.78999998790641;480;100 mA
78.7356818012115;0.199981689453125;0.0015850830078125;4.79999998788116;481;100 mA
78.7456818011863;0.20001220703125;0.00157745361328125;4.80999998785592;482;100 mA
78.755681801161;0.20001220703125;0.00157958984375;4.81999998783067;483;100 mA
78.7656818011358;0.20001220703125;0.00160675048828125;4.82999998780542;484;100 mA
78.7756818011105;0.20001220703125;0.00159576416015625;4.83999998778017;485;100 mA
78.7856818010853;0.2000732421875;0.00158172607421875;4.84999998775493;486;100 mA
78.79568180106;0.199951171875;0.00158050537109375;4.85999998772968;487;100 mA
78.8056818010348;0.199981689453125;0.00157379150390625;4.86999998770443;488;100 mA
78.8156818010095;0.199951171875;0.001611328125;4.87999998767918;489;100 mA
78.8256818009843;0.199981689453125;0.00160919189453125;4.88999998765394;490;100 mA
78.835681800959;0.20001220703125;0.00159423828125;4.89999998762869;491;100 mA
78.8456818009338;0.199951171875;0.0015997314453125;4.90999998760344;492;100 mA
78.8556818009085;0.199951171875;0.00160400390625;4.91999998757819;493;100 mA
78.8656818008833;0.199951171875;0.00161865234375;4.92999998755295;494;100 mA
78.875681800858;0.199981689453125;0.00161285400390625;4.9399999875277;495;100 mA
78.8856818008328;0.2000732421875;0.001602783203125;4.94999998750245;496;100 mA
78.8956818008076;0.199981689453125;0.001597900390625;4.9599999874772;497;100 mA
78.9056818007823;0.199951171875;0.0016162109375;4.96999998745196;498;100 mA
78.9156818007571;0.199981689453125;0.001630859375;4.97999998742671;499;100 mA
78.9256818007318;0.199981689453125;0.001612548828125;4.98999998740146;500;100 mA
78.9356818007066;0.20001220703125;0.00160675048828125;4.99999998737621;501;100 mA
78.9456818006813;0.199981689453125;0.00161163330078125;5.00999998735097;502;100 mA
78.9556818006561;0.199981689453125;0.001619873046875;5.01999998732572;503;100 mA
78.9656818006308;0.199981689453125;0.00163604736328125;5.02999998730047;504;100 mA
78.9756818006056;0.199981689453125;0.0016204833984375;5.03999998727522;505;100 mA
78.9856818005803;0.199981689453125;0.0016070556640625;5.04999998724998;506;100 mA
78.9956818005551;0.199981689453125;0.0016131591796875;5.05999998722473;507;100 mA
79.0056818005298;0.20001220703125;0.00163055419921875;5.06999998719948;508;100 mA
79.0156818005046;0.200042724609375;0.001617431640625;5.07999998717423;509;100 mA
79.0256818004793;0.20001220703125;0.00160675048828125;5.08999998714899;510;100 mA
79.0356818004541;0.199981689453125;0.00160308837890625;5.09999998712374;511;100 mA
79.0456818004288;0.20001220703125;0.00159820556640625;5.10999998709849;512;100 mA
79.0556818004036;0.199951171875;0.0016326904296875;5.11999998707324;513;100 mA
79.0656818003783;0.199981689453125;0.00162139892578125;5.129999987048;514;100 mA
79.0756818003531;0.199981689453125;0.00160430908203125;5.13999998702275;515;100 mA
79.0856818003278;0.20001220703125;0.00160003662109375;5.1499999869975;516;100 mA
79.0956818003026;0.20001220703125;0.00160125732421875;5.15999998697225;517;100 mA
79.1056818002774;0.199981689453125;0.0016064453125;5.169999986947;518;100 mA
79.1156818002521;0.199981689453125;0.0015985107421875;5.17999998692176;519;100 mA
79.1256818002269;0.199981689453125;0.00159027099609375;5.18999998689651;520;100 mA
79.1356818002016;0.19989013671875;0.00158111572265625;5.19999998687126;521;100 mA
79.1456818001764;0.20001220703125;0.0015985107421875;5.20999998684601;522;100 mA
79.1556818001511;0.199981689453125;0.00160430908203125;5.21999998682077;523;100 mA
79.1656818001259;0.200042724609375;0.0015771484375;5.22999998679552;524;100 mA
79.1756818001006;0.200042724609375;0.001568603515625;5.23999998677027;525;100 mA
79.1856818000754;0.199981689453125;0.00156463623046875;5.24999998674502;526;100 mA
79.1956818000501;0.199981689453125;0.001573486328125;5.25999998671978;527;100 mA
79.2056818000249;0.20001220703125;0.00159210205078125;5.26999998669453;528;100 mA
79.2156817999996;0.20001220703125;0.00157470703125;5.27999998666928;529;100 mA
79.2256817999744;0.199951171875;0.00156341552734375;5.28999998664403;530;100 mA
79.2356817999491;0.199951171875;0.0015655517578125;5.29999998661879;531;100 mA
79.2456817999239;0.200042724609375;0.00158477783203125;5.30999998659354;532;100 mA
79.2556817998986;0.200042724609375;0.00157928466796875;5.31999998656829;533;100 mA
79.2656817998734;0.199951171875;0.0015716552734375;5.32999998654304;534;100 mA
79.2756817998481;0.199981689453125;0.00156707763671875;5.3399999865178;535;100 mA
79.2856817998229;0.199981689453125;0.0015576171875;5.34999998649255;536;100 mA
79.2956817997976;0.199920654296875;0.00159393310546875;5.3599999864673;537;100 mA
79.3056817997724;0.199981689453125;0.00158233642578125;5.36999998644205;538;100 mA
79.3156817997472;0.199951171875;0.00156768798828125;5.37999998641681;539;100 mA
79.3256817997219;0.199981689453125;0.00157684326171875;5.38999998639156;540;100 mA
79.3356817996967;0.199951171875;0.00157989501953125;5.39999998636631;541;100 mA
79.3456817996714;0.20001220703125;0.0016033935546875;5.40999998634106;542;100 mA
79.3556817996462;0.199981689453125;0.0015966796875;5.41999998631582;543;100 mA
79.3656817996209;0.20001220703125;0.00158782958984375;5.42999998629057;544;100 mA
79.3756817995957;0.199981689453125;0.00158050537109375;5.43999998626532;545;100 mA
79.3856817995704;0.199951171875;0.00160247802734375;5.44999998624007;546;100 mA
79.3956817995452;0.20001220703125;0.0016107177734375;5.45999998621483;547;100 mA
79.4056817995199;0.199981689453125;0.001590576171875;5.46999998618958;548;100 mA
79.4156817994947;0.199981689453125;0.00158477783203125;5.47999998616433;549;100 mA
79.4256817994694;0.200042724609375;0.00158477783203125;5.48999998613908;550;100 mA
79.4356817994442;0.199981689453125;0.00158966064453125;5.49999998611383;551;100 mA
79.4456817994189;0.199981689453125;0.0016070556640625;5.50999998608859;552;100 mA
79.4556817993937;0.199920654296875;0.001580810546875;5.51999998606334;553;100 mA
79.4656817993684;0.200042724609375;0.00156585693359375;5.52999998603809;554;100 mA
79.4756817993432;0.199981689453125;0.0015667724609375;5.53999998601284;555;100 mA
79.4856817993179;0.20001220703125;0.0015838623046875;5.5499999859876;556;100 mA
79.4956817992927;0.20001220703125;0.00157958984375;5.55999998596235;557;100 mA
79.5056817992674;0.199951171875;0.00157318115234375;5.5699999859371;558;100 mA
79.5156817992422;0.199981689453125;0.00156829833984375;5.57999998591185;559;100 mA
79.525681799217;0.20001220703125;0.00156158447265625;5.58999998588661;560;100 mA
79.5356817991917;0.19989013671875;0.001593017578125;5.59999998586136;561;100 mA
79.5456817991665;0.20001220703125;0.00157928466796875;5.60999998583611;562;100 mA
79.5556817991412;0.20001220703125;0.00156951904296875;5.61999998581086;563;100 mA
79.565681799116;0.199981689453125;0.0015728759765625;5.62999998578562;564;100 mA
79.5756817990907;0.199920654296875;0.00157135009765625;5.63999998576037;565;100 mA
79.5856817990655;0.199951171875;0.0015887451171875;5.64999998573512;566;100 mA
79.5956817990402;0.199951171875;0.00158782958984375;5.65999998570987;567;100 mA
79.605681799015;0.199981689453125;0.00157440185546875;5.66999998568463;568;100 mA
79.6156817989897;0.199920654296875;0.00156829833984375;5.67999998565938;569;100 mA
79.6256817989645;0.199981689453125;0.00159454345703125;5.68999998563413;570;100 mA
79.6356817989392;0.200042724609375;0.0016064453125;5.69999998560888;571;100 mA
79.645681798914;0.199951171875;0.00159393310546875;5.70999998558364;572;100 mA
79.6556817988887;0.20001220703125;0.00158294677734375;5.71999998555839;573;100 mA
79.6656817988635;0.199981689453125;0.00157562255859375;5.72999998553314;574;100 mA
79.6756817988382;0.199981689453125;0.0015850830078125;5.73999998550789;575;100 mA
79.685681798813;0.199981689453125;0.00159393310546875;5.74999998548265;576;100 mA
79.6956817987877;0.20001220703125;0.001572265625;5.7599999854574;577;100 mA
79.7056817987625;0.199951171875;0.0015606689453125;5.76999998543215;578;100 mA
79.7156817987373;0.20001220703125;0.00155914306640625;5.7799999854069;579;100 mA
79.725681798712;0.199920654296875;0.00157440185546875;5.78999998538166;580;100 mA
79.7356817986868;0.20001220703125;0.00157073974609375;5.79999998535641;581;100 mA
79.7456817986615;0.199951171875;0.0015692138671875;5.80999998533116;582;100 mA
79.7556817986363;0.20001220703125;0.0015655517578125;5.81999998530591;583;100 mA
79.765681798611;0.20001220703125;0.0015576171875;5.82999998528066;584;100 mA
79.7756817985858;0.199951171875;0.00158782958984375;5.83999998525542;585;100 mA
79.7856817985605;0.200042724609375;0.0015667724609375;5.84999998523017;586;100 mA
79.7956817985353;0.199981689453125;0.00155609130859375;5.85999998520492;587;100 mA
79.80568179851;0.199981689453125;0.00155670166015625;5.86999998517967;588;100 mA
79.8156817984848;0.20001220703125;0.00155303955078125;5.87999998515443;589;100 mA
79.8256817984595;0.199981689453125;0.00157958984375;5.88999998512918;590;100 mA
79.8356817984343;0.200042724609375;0.001585693359375;5.89999998510393;591;100 mA
79.845681798409;0.199951171875;0.00157501220703125;5.90999998507868;592;100 mA
79.8556817983838;0.199951171875;0.001563720703125;5.91999998505344;593;100 mA
79.8656817983585;0.199981689453125;0.00157958984375;5.92999998502819;594;100 mA
79.8756817983333;0.20001220703125;0.0015814208984375;5.93999998500294;595;100 mA
79.885681798308;0.199951171875;0.0015692138671875;5.94999998497769;596;100 mA
79.8956817982828;0.199981689453125;0.00156829833984375;5.95999998495245;597;100 mA
79.9056817982575;0.199981689453125;0.00156463623046875;5.9699999849272;598;100 mA
79.9156817982323;0.20001220703125;0.0015814208984375;5.97999998490195;599;100 mA
79.9256817982071;0.199981689453125;0.00160247802734375;5.9899999848767;600;100 mA
79.9356817981818;0.200042724609375;0.0015863037109375;5.99999998485146;601;100 mA
79.9456817981566;0.199981689453125;0.00158538818359375;6.00999998482621;602;100 mA
79.9556817981313;0.199981689453125;0.001585693359375;6.01999998480096;603;100 mA
79.9656817981061;0.199981689453125;0.0015960693359375;6.02999998477571;604;100 mA
79.9756817980808;0.200042724609375;0.00159332275390625;6.03999998475047;605;100 mA
79.9856817980556;0.199981689453125;0.00158447265625;6.04999998472522;606;100 mA
79.9956817980303;0.199920654296875;0.00158233642578125;6.05999998469997;607;100 mA
80.0056817980051;0.20001220703125;0.00157135009765625;6.06999998467472;608;100 mA
80.0156817979798;0.199981689453125;0.0015972900390625;6.07999998464948;609;100 mA
80.0256817979546;0.199951171875;0.00157928466796875;6.08999998462423;610;100 mA
80.0356817979293;0.199981689453125;0.00156280517578125;6.09999998459898;611;100 mA
80.0456817979041;0.200042724609375;0.0015679931640625;6.10999998457373;612;100 mA
80.0556817978788;0.200042724609375;0.00156158447265625;6.11999998454849;613;100 mA
80.0656817978536;0.199981689453125;0.00158111572265625;6.12999998452324;614;100 mA
80.0756817978283;0.2000732421875;0.0015777587890625;6.13999998449799;615;100 mA
80.0856817978031;0.199981689453125;0.0015594482421875;6.14999998447274;616;100 mA
80.0956817977778;0.199920654296875;0.0015545654296875;6.1599999844475;617;100 mA
80.1056817977526;0.199951171875;0.00157379150390625;6.16999998442225;618;100 mA
80.1156817977273;0.200042724609375;0.0015802001953125;6.179999984397;619;100 mA
80.1256817977021;0.199981689453125;0.00157440185546875;6.18999998437175;620;100 mA
80.1356817976769;0.20001220703125;0.00156951904296875;6.1999999843465;621;100 mA
80.1456817976516;0.20001220703125;0.00157562255859375;6.20999998432126;622;100 mA
80.1556817976264;0.199981689453125;0.00158935546875;6.21999998429601;623;100 mA
80.1656817976011;0.200042724609375;0.00160491943359375;6.22999998427076;624;100 mA
80.1756817975759;0.20001220703125;0.00158233642578125;6.23999998424551;625;100 mA
80.1856817975506;0.199951171875;0.00157928466796875;6.24999998422027;626;100 mA
80.1956817975254;0.20001220703125;0.00158599853515625;6.25999998419502;627;100 mA
80.2056817975001;0.199981689453125;0.00160003662109375;6.26999998416977;628;100 mA
80.2156817974749;0.199981689453125;0.00160369873046875;6.27999998414452;629;100 mA
80.2256817974496;0.199951171875;0.00159332275390625;6.28999998411928;630;100 mA
80.2356817974244;0.199981689453125;0.001580810546875;6.29999998409403;631;100 mA
80.2456817973991;0.199981689453125;0.00157806396484375;6.30999998406878;632;100 mA
80.2556817973739;0.199981689453125;0.001611328125;6.31999998404353;633;100 mA
80.2656817973486;0.20001220703125;0.00159942626953125;6.32999998401829;634;100 mA
80.2756817973234;0.199981689453125;0.0015924072265625;6.33999998399304;635;100 mA
80.2856817972981;0.20001220703125;0.00159271240234375;6.34999998396779;636;100 mA
80.2956817972729;0.20001220703125;0.00158355712890625;6.35999998394254;637;100 mA
80.3056817972476;0.199981689453125;0.00160186767578125;6.3699999839173;638;100 mA
80.3156817972224;0.199981689453125;0.0015966796875;6.37999998389205;639;100 mA
80.3256817971971;0.199981689453125;0.0015863037109375;6.3899999838668;640;100 mA
80.3356817971719;0.200042724609375;0.00158172607421875;6.39999998384155;641;100 mA
80.3456817971467;0.199981689453125;0.00160675048828125;6.40999998381631;642;100 mA
80.3556817971214;0.199981689453125;0.00160919189453125;6.41999998379106;643;100 mA
80.3656817970962;0.20001220703125;0.00160064697265625;6.42999998376581;644;100 mA
80.3756817970709;0.199981689453125;0.001593017578125;6.43999998374056;645;100 mA
80.3856817970457;0.200042724609375;0.00158477783203125;6.44999998371532;646;100 mA
80.3956817970204;0.199981689453125;0.0015997314453125;6.45999998369007;647;100 mA
80.4056817969952;0.199981689453125;0.00161590576171875;6.46999998366482;648;100 mA
80.4156817969699;0.199981689453125;0.00158843994140625;6.47999998363957;649;100 mA
80.4256817969447;0.199981689453125;0.0015863037109375;6.48999998361433;650;100 mA
80.4356817969194;0.199920654296875;0.001588134765625;6.49999998358908;651;100 mA
80.4456817968942;0.200042724609375;0.00159912109375;6.50999998356383;652;100 mA
80.4556817968689;0.199981689453125;0.00159637451171875;6.51999998353858;653;100 mA
80.4656817968437;0.199981689453125;0.00157806396484375;6.52999998351333;654;100 mA
80.4756817968184;0.199981689453125;0.0015673828125;6.53999998348809;655;100 mA
80.4856817967932;0.200042724609375;0.00156158447265625;6.54999998346284;656;100 mA
80.4956817967679;0.199981689453125;0.00159332275390625;6.55999998343759;657;100 mA
80.5056817967427;0.199920654296875;0.00157928466796875;6.56999998341234;658;100 mA
80.5156817967174;0.20001220703125;0.0015692138671875;6.5799999833871;659;100 mA
80.5256817966922;0.199951171875;0.001568603515625;6.58999998336185;660;100 mA
80.5356817966669;0.200042724609375;0.001553955078125;6.5999999833366;661;100 mA
80.5456817966417;0.20001220703125;0.0015753173828125;6.60999998331135;662;100 mA
80.5556817966165;0.199951171875;0.00156707763671875;6.61999998328611;663;100 mA
80.5656817965912;0.20001220703125;0.0015521240234375;6.62999998326086;664;100 mA
80.575681796566;0.20001220703125;0.0015478515625;6.63999998323561;665;100 mA
80.5856817965407;0.199981689453125;0.00156524658203125;6.64999998321036;666;100 mA
80.5956817965155;0.20001220703125;0.0015704345703125;6.65999998318512;667;100 mA
80.6056817964902;0.199981689453125;0.0015582275390625;6.66999998315987;668;100 mA
80.615681796465;0.199981689453125;0.0015484619140625;6.67999998313462;669;100 mA
80.6256817964397;0.200042724609375;0.0015386962890625;6.68999998310937;670;100 mA
80.6356817964145;0.199981689453125;0.00155303955078125;6.69999998308413;671;100 mA
80.6456817963892;0.199981689453125;0.00156097412109375;6.70999998305888;672;100 mA
80.655681796364;0.2000732421875;0.00153076171875;6.71999998303363;673;100 mA
80.6656817963387;0.200042724609375;0.0015289306640625;6.72999998300838;674;100 mA
80.6756817963135;0.199981689453125;0.0015289306640625;6.73999998298314;675;100 mA
80.6856817962882;0.20001220703125;0.00154266357421875;6.74999998295789;676;100 mA
80.695681796263;0.199981689453125;0.00155181884765625;6.75999998293264;677;100 mA
80.7056817962377;0.200042724609375;0.001541748046875;6.76999998290739;678;100 mA
80.7156817962125;0.199920654296875;0.00153167724609375;6.77999998288215;679;100 mA
80.7256817961872;0.20001220703125;0.0015252685546875;6.7899999828569;680;100 mA
80.735681796162;0.20001220703125;0.00155120849609375;6.79999998283165;681;100 mA
80.7456817961368;0.199951171875;0.00154541015625;6.8099999828064;682;100 mA
80.7556817961115;0.20001220703125;0.0015509033203125;6.81999998278116;683;100 mA
80.7656817960863;0.199920654296875;0.00156219482421875;6.82999998275591;684;100 mA
80.775681796061;0.200042724609375;0.0015570068359375;6.83999998273066;685;100 mA
80.7856817960358;0.20001220703125;0.0015789794921875;6.84999998270541;686;100 mA
80.7956817960105;0.20001220703125;0.0015789794921875;6.85999998268016;687;100 mA
80.8056817959853;0.20001220703125;0.00156341552734375;6.86999998265492;688;100 mA
80.81568179596;0.199920654296875;0.001563720703125;6.87999998262967;689;100 mA
80.8256817959348;0.199981689453125;0.00157562255859375;6.88999998260442;690;100 mA
80.8356817959095;0.199920654296875;0.0015728759765625;6.89999998257917;691;100 mA
80.8456817958843;0.20001220703125;0.00156158447265625;6.90999998255393;692;100 mA
80.855681795859;0.20001220703125;0.00155609130859375;6.91999998252868;693;100 mA
80.8656817958338;0.199981689453125;0.0015509033203125;6.92999998250343;694;100 mA
80.8756817958085;0.199951171875;0.0015740966796875;6.93999998247818;695;100 mA
80.8856817957833;0.199951171875;0.00158935546875;6.94999998245294;696;100 mA
80.895681795758;0.2000732421875;0.00157745361328125;6.95999998242769;697;100 mA
80.9056817957328;0.20001220703125;0.001583251953125;6.96999998240244;698;100 mA
80.9156817957075;0.20001220703125;0.00158660888671875;6.97999998237719;699;100 mA
80.9256817956823;0.199981689453125;0.00160247802734375;6.98999998235195;700;100 mA
