Time (s);WE(1).Potential (V);WE(1).Current (A);Corrected time (s);Index;Current range
81.3659047945708;-0.699981689453125;-0.350860595703125;0;1;100 mA
81.3759047945456;-0.69952392578125;-0.25469970703125;0.00999999997475243;2;100 mA
81.3859047945203;-0.69952392578125;-0.208251953125;0.0199999999495049;3;100 mA
81.3959047944951;-0.6995849609375;-0.182220458984375;0.0299999999242573;4;100 mA
81.4059047944698;-0.699615478515625;-0.16400146484375;0.0399999998990097;5;100 mA
81.4159047944446;-0.699615478515625;-0.151214599609375;0.0499999998737621;6;100 mA
81.4259047944194;-0.6995849609375;-0.141632080078125;0.0599999998485146;7;100 mA
81.4359047943941;-0.699615478515625;-0.134674072265625;0.069999999823267;8;100 mA
81.4459047943689;-0.6995849609375;-0.129638671875;0.0799999997980194;9;100 mA
81.4559047943436;-0.699615478515625;-0.12420654296875;0.0899999997727718;10;100 mA
81.4659047943184;-0.699615478515625;-0.12066650390625;0.0999999997475243;11;100 mA
81.4759047942931;-0.69952392578125;-0.1182861328125;0.109999999722277;12;100 mA
81.4859047942679;-0.69964599609375;-0.11590576171875;0.119999999697029;13;100 mA
81.4959047942426;-0.699676513671875;-0.115264892578125;0.129999999671782;14;100 mA
81.5059047942174;-0.69964599609375;-0.1126708984375;0.139999999646534;15;100 mA
81.5159047941921;-0.699615478515625;-0.110687255859375;0.149999999621286;16;100 mA
81.5259047941669;-0.699615478515625;-0.109649658203125;0.159999999596039;17;100 mA
81.5359047941416;-0.69970703125;-0.10858154296875;0.169999999570791;18;100 mA
81.5459047941164;-0.69964599609375;-0.108306884765625;0.179999999545544;19;100 mA
81.5559047940911;-0.699676513671875;-0.107513427734375;0.189999999520296;20;100 mA
81.5659047940659;-0.69970703125;-0.107452392578125;0.199999999495049;21;100 mA
81.5759047940406;-0.6995849609375;-0.10638427734375;0.209999999469801;22;100 mA
81.5859047940154;-0.6995849609375;-0.1072998046875;0.219999999444553;23;100 mA
81.5959047939901;-0.699615478515625;-0.106536865234375;0.229999999419306;24;100 mA
81.6059047939649;-0.69964599609375;-0.105072021484375;0.239999999394058;25;100 mA
81.6159047939396;-0.6995849609375;-0.104644775390625;0.249999999368811;26;100 mA
81.6259047939144;-0.69964599609375;-0.1038818359375;0.259999999343563;27;100 mA
81.6359047938892;-0.69964599609375;-0.104156494140625;0.269999999318316;28;100 mA
81.6459047938639;-0.69964599609375;-0.104217529296875;0.279999999293068;29;100 mA
81.6559047938387;-0.69964599609375;-0.10308837890625;0.28999999926782;30;100 mA
81.6659047938134;-0.699737548828125;-0.102813720703125;0.299999999242573;31;100 mA
81.6759047937882;-0.699676513671875;-0.103271484375;0.309999999217325;32;100 mA
81.6859047937629;-0.69964599609375;-0.103851318359375;0.319999999192078;33;100 mA
81.6959047937377;-0.699676513671875;-0.102752685546875;0.32999999916683;34;100 mA
81.7059047937124;-0.699676513671875;-0.102447509765625;0.339999999141583;35;100 mA
81.7159047936872;-0.69964599609375;-0.10223388671875;0.349999999116335;36;100 mA
81.7259047936619;-0.69970703125;-0.10150146484375;0.359999999091087;37;100 mA
81.7359047936367;-0.699676513671875;-0.102691650390625;0.36999999906584;38;100 mA
81.7459047936114;-0.699615478515625;-0.101318359375;0.379999999040592;39;100 mA
81.7559047935862;-0.699676513671875;-0.1005859375;0.389999999015345;40;100 mA
81.7659047935609;-0.699676513671875;-0.100860595703125;0.399999998990097;41;100 mA
81.7759047935357;-0.69970703125;-0.100555419921875;0.40999999896485;42;100 mA
81.7859047935104;-0.699615478515625;-0.100738525390625;0.419999998939602;43;100 mA
81.7959047934852;-0.69964599609375;-0.10003662109375;0.429999998914354;44;100 mA
81.8059047934599;-0.69964599609375;-0.099822998046875;0.439999998889107;45;100 mA
81.8159047934347;-0.699676513671875;-0.099517822265625;0.449999998863859;46;100 mA
81.8259047934094;-0.699615478515625;-0.10101318359375;0.459999998838612;47;100 mA
81.8359047933842;-0.69964599609375;-0.10089111328125;0.469999998813364;48;100 mA
81.845904793359;-0.69970703125;-0.09967041015625;0.479999998788116;49;100 mA
81.8559047933337;-0.699676513671875;-0.09991455078125;0.489999998762869;50;100 mA
81.8659047933085;-0.699676513671875;-0.100128173828125;0.499999998737621;51;100 mA
81.8759047932832;-0.6995849609375;-0.1011962890625;0.509999998712374;52;100 mA
81.885904793258;-0.69964599609375;-0.101806640625;0.519999998687126;53;100 mA
81.8959047932327;-0.699676513671875;-0.1005859375;0.529999998661879;54;100 mA
81.9059047932075;-0.699676513671875;-0.10009765625;0.539999998636631;55;100 mA
81.9159047931822;-0.699615478515625;-0.100341796875;0.549999998611383;56;100 mA
81.925904793157;-0.699737548828125;-0.10076904296875;0.559999998586136;57;100 mA
81.9359047931317;-0.699676513671875;-0.0999755859375;0.569999998560888;58;100 mA
81.9459047931065;-0.69970703125;-0.099945068359375;0.579999998535641;59;100 mA
81.9559047930812;-0.69964599609375;-0.100067138671875;0.589999998510393;60;100 mA
81.965904793056;-0.69970703125;-0.09954833984375;0.599999998485146;61;100 mA
81.9759047930307;-0.699615478515625;-0.10107421875;0.609999998459898;62;100 mA
81.9859047930055;-0.699737548828125;-0.0997314453125;0.61999999843465;63;100 mA
81.9959047929802;-0.69964599609375;-0.099365234375;0.629999998409403;64;100 mA
82.005904792955;-0.69970703125;-0.10015869140625;0.639999998384155;65;100 mA
82.0159047929297;-0.6995849609375;-0.10028076171875;0.649999998358908;66;100 mA
82.0259047929045;-0.699676513671875;-0.101318359375;0.65999999833366;67;100 mA
82.0359047928793;-0.699615478515625;-0.101226806640625;0.669999998308413;68;100 mA
82.045904792854;-0.69970703125;-0.100921630859375;0.679999998283165;69;100 mA
82.0559047928288;-0.699615478515625;-0.100677490234375;0.689999998257917;70;100 mA
82.0659047928035;-0.69964599609375;-0.101715087890625;0.69999999823267;71;100 mA
82.0759047927783;-0.699615478515625;-0.101409912109375;0.709999998207422;72;100 mA
82.085904792753;-0.69964599609375;-0.100189208984375;0.719999998182175;73;100 mA
82.0959047927278;-0.699676513671875;-0.1005859375;0.729999998156927;74;100 mA
82.1059047927025;-0.69964599609375;-0.100494384765625;0.73999999813168;75;100 mA
82.1159047926773;-0.699615478515625;-0.101165771484375;0.749999998106432;76;100 mA
82.125904792652;-0.699615478515625;-0.101776123046875;0.759999998081184;77;100 mA
82.1359047926268;-0.699615478515625;-0.100738525390625;0.769999998055937;78;100 mA
82.1459047926015;-0.699676513671875;-0.100311279296875;0.779999998030689;79;100 mA
82.1559047925763;-0.69964599609375;-0.10015869140625;0.789999998005442;80;100 mA
82.165904792551;-0.699615478515625;-0.10076904296875;0.799999997980194;81;100 mA
82.1759047925258;-0.69970703125;-0.100311279296875;0.809999997954947;82;100 mA
82.1859047925005;-0.69964599609375;-0.10028076171875;0.819999997929699;83;100 mA
82.1959047924753;-0.699615478515625;-0.100616455078125;0.829999997904451;84;100 mA
82.20590479245;-0.699615478515625;-0.1002197265625;0.839999997879204;85;100 mA
82.2159047924248;-0.699615478515625;-0.10162353515625;0.849999997853956;86;100 mA
82.2259047923995;-0.699676513671875;-0.1004638671875;0.859999997828709;87;100 mA
82.2359047923743;-0.699676513671875;-0.100128173828125;0.869999997803461;88;100 mA
82.2459047923491;-0.6995849609375;-0.1004638671875;0.879999997778214;89;100 mA
82.2559047923238;-0.69970703125;-0.0997314453125;0.889999997752966;90;100 mA
82.2659047922986;-0.69970703125;-0.100311279296875;0.899999997727718;91;100 mA
82.2759047922733;-0.699676513671875;-0.10003662109375;0.909999997702471;92;100 mA
82.2859047922481;-0.699615478515625;-0.0994873046875;0.919999997677223;93;100 mA
82.2959047922228;-0.699676513671875;-0.09906005859375;0.929999997651976;94;100 mA
82.3059047921976;-0.699676513671875;-0.099578857421875;0.939999997626728;95;100 mA
82.3159047921723;-0.699615478515625;-0.0989990234375;0.949999997601481;96;100 mA
82.3259047921471;-0.69964599609375;-0.098052978515625;0.959999997576233;97;100 mA
82.3359047921218;-0.699615478515625;-0.09814453125;0.969999997550985;98;100 mA
82.3459047920966;-0.699676513671875;-0.097869873046875;0.979999997525738;99;100 mA
82.3559047920713;-0.69970703125;-0.098358154296875;0.98999999750049;100;100 mA
82.3659047920461;-0.699676513671875;-0.09881591796875;0.999999997475243;101;100 mA
82.3759047920208;-0.69964599609375;-0.09759521484375;1.00999999745;102;100 mA
82.3859047919956;-0.699676513671875;-0.097747802734375;1.01999999742475;103;100 mA
82.3959047919703;-0.699615478515625;-0.098114013671875;1.0299999973995;104;100 mA
82.4059047919451;-0.69964599609375;-0.098602294921875;1.03999999737425;105;100 mA
82.4159047919198;-0.699615478515625;-0.098419189453125;1.049999997349;106;100 mA
82.4259047918946;-0.699676513671875;-0.097808837890625;1.05999999732376;107;100 mA
82.4359047918693;-0.69964599609375;-0.09783935546875;1.06999999729851;108;100 mA
82.4459047918441;-0.69970703125;-0.097503662109375;1.07999999727326;109;100 mA
82.4559047918189;-0.69976806640625;-0.099151611328125;1.08999999724801;110;100 mA
82.4659047917936;-0.69964599609375;-0.098480224609375;1.09999999722277;111;100 mA
82.4759047917684;-0.699676513671875;-0.0982666015625;1.10999999719752;112;100 mA
82.4859047917431;-0.69964599609375;-0.09857177734375;1.11999999717227;113;100 mA
82.4959047917179;-0.699615478515625;-0.09722900390625;1.12999999714702;114;100 mA
82.5059047916926;-0.69976806640625;-0.0972900390625;1.13999999712178;115;100 mA
82.5159047916674;-0.69970703125;-0.0968017578125;1.14999999709653;116;100 mA
82.5259047916421;-0.699676513671875;-0.0963134765625;1.15999999707128;117;100 mA
82.5359047916169;-0.69964599609375;-0.096282958984375;1.16999999704603;118;100 mA
82.5459047915916;-0.699676513671875;-0.0970458984375;1.17999999702079;119;100 mA
82.5559047915664;-0.69970703125;-0.097076416015625;1.18999999699554;120;100 mA
82.5659047915411;-0.699676513671875;-0.0963134765625;1.19999999697029;121;100 mA
82.5759047915159;-0.699676513671875;-0.09649658203125;1.20999999694504;122;100 mA
82.5859047914906;-0.699676513671875;-0.096466064453125;1.2199999969198;123;100 mA
82.5959047914654;-0.699676513671875;-0.097259521484375;1.22999999689455;124;100 mA
82.6059047914401;-0.699676513671875;-0.0980224609375;1.2399999968693;125;100 mA
82.6159047914149;-0.699676513671875;-0.09674072265625;1.24999999684405;126;100 mA
82.6259047913896;-0.69964599609375;-0.0968017578125;1.25999999681881;127;100 mA
82.6359047913644;-0.69964599609375;-0.097076416015625;1.26999999679356;128;100 mA
82.6459047913391;-0.699676513671875;-0.09747314453125;1.27999999676831;129;100 mA
82.6559047913139;-0.69964599609375;-0.097320556640625;1.28999999674306;130;100 mA
82.6659047912887;-0.69964599609375;-0.0968017578125;1.29999999671782;131;100 mA
82.6759047912634;-0.699676513671875;-0.096771240234375;1.30999999669257;132;100 mA
82.6859047912382;-0.699676513671875;-0.096710205078125;1.31999999666732;133;100 mA
82.6959047912129;-0.69970703125;-0.09808349609375;1.32999999664207;134;100 mA
82.7059047911877;-0.69970703125;-0.097076416015625;1.33999999661683;135;100 mA
82.7159047911624;-0.69970703125;-0.09661865234375;1.34999999659158;136;100 mA
82.7259047911372;-0.699615478515625;-0.09686279296875;1.35999999656633;137;100 mA
82.7359047911119;-0.699676513671875;-0.095977783203125;1.36999999654108;138;100 mA
82.7459047910867;-0.69970703125;-0.096649169921875;1.37999999651583;139;100 mA
82.7559047910614;-0.69964599609375;-0.096649169921875;1.38999999649059;140;100 mA
82.7659047910362;-0.699676513671875;-0.09649658203125;1.39999999646534;141;100 mA
82.7759047910109;-0.69970703125;-0.09686279296875;1.40999999644009;142;100 mA
82.7859047909857;-0.699676513671875;-0.097747802734375;1.41999999641484;143;100 mA
82.7959047909604;-0.69970703125;-0.097442626953125;1.4299999963896;144;100 mA
82.8059047909352;-0.699737548828125;-0.09637451171875;1.43999999636435;145;100 mA
82.8159047909099;-0.69970703125;-0.0963134765625;1.4499999963391;146;100 mA
82.8259047908847;-0.699615478515625;-0.095977783203125;1.45999999631385;147;100 mA
82.8359047908594;-0.699676513671875;-0.0966796875;1.46999999628861;148;100 mA
82.8459047908342;-0.69964599609375;-0.097381591796875;1.47999999626336;149;100 mA
82.8559047908089;-0.69964599609375;-0.096343994140625;1.48999999623811;150;100 mA
82.8659047907837;-0.6995849609375;-0.0968017578125;1.49999999621286;151;100 mA
82.8759047907585;-0.69964599609375;-0.09735107421875;1.50999999618762;152;100 mA
82.8859047907332;-0.69964599609375;-0.0975341796875;1.51999999616237;153;100 mA
82.895904790708;-0.699615478515625;-0.097381591796875;1.52999999613712;154;100 mA
82.9059047906827;-0.69964599609375;-0.096649169921875;1.53999999611187;155;100 mA
82.9159047906575;-0.69964599609375;-0.09649658203125;1.54999999608663;156;100 mA
82.9259047906322;-0.699676513671875;-0.09619140625;1.55999999606138;157;100 mA
82.935904790607;-0.699676513671875;-0.09698486328125;1.56999999603613;158;100 mA
82.9459047905817;-0.699676513671875;-0.09552001953125;1.57999999601088;159;100 mA
82.9559047905565;-0.699676513671875;-0.094818115234375;1.58999999598564;160;100 mA
82.9659047905312;-0.69964599609375;-0.09515380859375;1.59999999596039;161;100 mA
82.975904790506;-0.69970703125;-0.0946044921875;1.60999999593514;162;100 mA
82.9859047904807;-0.699615478515625;-0.095428466796875;1.61999999590989;163;100 mA
82.9959047904555;-0.69970703125;-0.094970703125;1.62999999588465;164;100 mA
83.0059047904302;-0.699676513671875;-0.094390869140625;1.6399999958594;165;100 mA
83.015904790405;-0.699676513671875;-0.094329833984375;1.64999999583415;166;100 mA
83.0259047903797;-0.699676513671875;-0.0947265625;1.6599999958089;167;100 mA
83.0359047903545;-0.69964599609375;-0.094512939453125;1.66999999578366;168;100 mA
83.0459047903292;-0.69970703125;-0.093719482421875;1.67999999575841;169;100 mA
83.055904790304;-0.69970703125;-0.093536376953125;1.68999999573316;170;100 mA
83.0659047902788;-0.69964599609375;-0.09332275390625;1.69999999570791;171;100 mA
83.0759047902535;-0.69970703125;-0.09417724609375;1.70999999568267;172;100 mA
83.0859047902283;-0.69970703125;-0.09454345703125;1.71999999565742;173;100 mA
83.095904790203;-0.69970703125;-0.092926025390625;1.72999999563217;174;100 mA
83.1059047901778;-0.699676513671875;-0.0927734375;1.73999999560692;175;100 mA
83.1159047901525;-0.69964599609375;-0.093109130859375;1.74999999558167;176;100 mA
83.1259047901273;-0.699676513671875;-0.093414306640625;1.75999999555643;177;100 mA
83.135904790102;-0.69964599609375;-0.093353271484375;1.76999999553118;178;100 mA
83.1459047900768;-0.6995849609375;-0.092742919921875;1.77999999550593;179;100 mA
83.1559047900515;-0.699676513671875;-0.09283447265625;1.78999999548068;180;100 mA
83.1659047900263;-0.699676513671875;-0.09320068359375;1.79999999545544;181;100 mA
83.175904790001;-0.699676513671875;-0.0946044921875;1.80999999543019;182;100 mA
83.1859047899758;-0.69964599609375;-0.093963623046875;1.81999999540494;183;100 mA
83.1959047899505;-0.69970703125;-0.093902587890625;1.82999999537969;184;100 mA
83.2059047899253;-0.699615478515625;-0.0947265625;1.83999999535445;185;100 mA
83.2159047899;-0.69970703125;-0.094329833984375;1.8499999953292;186;100 mA
83.2259047898748;-0.69964599609375;-0.0953369140625;1.85999999530395;187;100 mA
83.2359047898495;-0.69964599609375;-0.095001220703125;1.8699999952787;188;100 mA
83.2459047898243;-0.699676513671875;-0.094512939453125;1.87999999525346;189;100 mA
83.255904789799;-0.69970703125;-0.0948486328125;1.88999999522821;190;100 mA
83.2659047897738;-0.69964599609375;-0.095245361328125;1.89999999520296;191;100 mA
83.2759047897486;-0.699676513671875;-0.09527587890625;1.90999999517771;192;100 mA
83.2859047897233;-0.69964599609375;-0.094635009765625;1.91999999515247;193;100 mA
83.2959047896981;-0.699676513671875;-0.094818115234375;1.92999999512722;194;100 mA
83.3059047896728;-0.699615478515625;-0.0948486328125;1.93999999510197;195;100 mA
83.3159047896476;-0.699676513671875;-0.09564208984375;1.94999999507672;196;100 mA
83.3259047896223;-0.69964599609375;-0.09619140625;1.95999999505148;197;100 mA
83.3359047895971;-0.699676513671875;-0.095001220703125;1.96999999502623;198;100 mA
83.3459047895718;-0.699676513671875;-0.095245361328125;1.97999999500098;199;100 mA
83.3559047895466;-0.69970703125;-0.095550537109375;1.98999999497573;200;100 mA
83.3659047895213;-0.699676513671875;-0.095733642578125;1.99999999495049;201;100 mA
83.3759047894961;-0.69970703125;-0.095916748046875;2.00999999492524;202;100 mA
83.3859047894708;-0.699676513671875;-0.095367431640625;2.01999999489999;203;100 mA
83.3959047894456;-0.699676513671875;-0.095458984375;2.02999999487474;204;100 mA
83.4059047894203;-0.699676513671875;-0.095458984375;2.0399999948495;205;100 mA
83.4159047893951;-0.699676513671875;-0.0963134765625;2.04999999482425;206;100 mA
83.4259047893698;-0.69964599609375;-0.09539794921875;2.059999994799;207;100 mA
83.4359047893446;-0.69970703125;-0.09503173828125;2.06999999477375;208;100 mA
83.4459047893193;-0.699676513671875;-0.095489501953125;2.0799999947485;209;100 mA
83.4559047892941;-0.69970703125;-0.094879150390625;2.08999999472326;210;100 mA
83.4659047892688;-0.69970703125;-0.095794677734375;2.09999999469801;211;100 mA
83.4759047892436;-0.69970703125;-0.095184326171875;2.10999999467276;212;100 mA
83.4859047892184;-0.69964599609375;-0.094390869140625;2.11999999464751;213;100 mA
83.4959047891931;-0.69970703125;-0.094451904296875;2.12999999462227;214;100 mA
83.5059047891679;-0.69970703125;-0.094451904296875;2.13999999459702;215;100 mA
83.5159047891426;-0.69970703125;-0.094512939453125;2.14999999457177;216;100 mA
83.5259047891174;-0.69964599609375;-0.0936279296875;2.15999999454652;217;100 mA
83.5359047890921;-0.699676513671875;-0.093292236328125;2.16999999452128;218;100 mA
83.5459047890669;-0.699676513671875;-0.09307861328125;2.17999999449603;219;100 mA
83.5559047890416;-0.699676513671875;-0.093994140625;2.18999999447078;220;100 mA
83.5659047890164;-0.69964599609375;-0.094390869140625;2.19999999444553;221;100 mA
83.5759047889911;-0.699676513671875;-0.093017578125;2.20999999442029;222;100 mA
83.5859047889659;-0.6995849609375;-0.092742919921875;2.21999999439504;223;100 mA
83.5959047889406;-0.699737548828125;-0.092529296875;2.22999999436979;224;100 mA
83.6059047889154;-0.699737548828125;-0.092681884765625;2.23999999434454;225;100 mA
83.6159047888901;-0.69964599609375;-0.092864990234375;2.2499999943193;226;100 mA
83.6259047888649;-0.699737548828125;-0.0921630859375;2.25999999429405;227;100 mA
83.6359047888396;-0.699676513671875;-0.09197998046875;2.2699999942688;228;100 mA
83.6459047888144;-0.699676513671875;-0.092315673828125;2.27999999424355;229;100 mA
83.6559047887891;-0.69970703125;-0.0933837890625;2.28999999421831;230;100 mA
83.6659047887639;-0.69964599609375;-0.092987060546875;2.29999999419306;231;100 mA
83.6759047887386;-0.699676513671875;-0.093109130859375;2.30999999416781;232;100 mA
83.6859047887134;-0.699615478515625;-0.093536376953125;2.31999999414256;233;100 mA
83.6959047886882;-0.69970703125;-0.093170166015625;2.32999999411732;234;100 mA
83.7059047886629;-0.699737548828125;-0.0941162109375;2.33999999409207;235;100 mA
83.7159047886377;-0.69970703125;-0.093353271484375;2.34999999406682;236;100 mA
83.7259047886124;-0.69970703125;-0.0927734375;2.35999999404157;237;100 mA
83.7359047885872;-0.699676513671875;-0.092864990234375;2.36999999401633;238;100 mA
83.7459047885619;-0.699676513671875;-0.09271240234375;2.37999999399108;239;100 mA
83.7559047885367;-0.69964599609375;-0.092803955078125;2.38999999396583;240;100 mA
83.7659047885114;-0.699676513671875;-0.092041015625;2.39999999394058;241;100 mA
83.7759047884862;-0.699676513671875;-0.0919189453125;2.40999999391533;242;100 mA
83.7859047884609;-0.699676513671875;-0.091705322265625;2.41999999389009;243;100 mA
83.7959047884357;-0.69964599609375;-0.09271240234375;2.42999999386484;244;100 mA
83.8059047884104;-0.699676513671875;-0.093292236328125;2.43999999383959;245;100 mA
83.8159047883852;-0.699737548828125;-0.092193603515625;2.44999999381434;246;100 mA
83.8259047883599;-0.699737548828125;-0.092437744140625;2.4599999937891;247;100 mA
83.8359047883347;-0.69964599609375;-0.092620849609375;2.46999999376385;248;100 mA
83.8459047883094;-0.699737548828125;-0.093048095703125;2.4799999937386;249;100 mA
83.8559047882842;-0.699676513671875;-0.0933837890625;2.48999999371335;250;100 mA
83.8659047882589;-0.699737548828125;-0.092681884765625;2.49999999368811;251;100 mA
83.8759047882337;-0.699676513671875;-0.092498779296875;2.50999999366286;252;100 mA
83.8859047882084;-0.699737548828125;-0.092498779296875;2.51999999363761;253;100 mA
83.8959047881832;-0.69970703125;-0.09320068359375;2.52999999361236;254;100 mA
83.905904788158;-0.69970703125;-0.092559814453125;2.53999999358712;255;100 mA
83.9159047881327;-0.69970703125;-0.092041015625;2.54999999356187;256;100 mA
83.9259047881075;-0.699676513671875;-0.092041015625;2.55999999353662;257;100 mA
83.9359047880822;-0.69970703125;-0.091552734375;2.56999999351137;258;100 mA
83.945904788057;-0.699676513671875;-0.092681884765625;2.57999999348613;259;100 mA
83.9559047880317;-0.699737548828125;-0.091949462890625;2.58999999346088;260;100 mA
83.9659047880065;-0.69970703125;-0.09130859375;2.59999999343563;261;100 mA
83.9759047879812;-0.699676513671875;-0.091552734375;2.60999999341038;262;100 mA
83.985904787956;-0.699676513671875;-0.09161376953125;2.61999999338514;263;100 mA
83.9959047879307;-0.699676513671875;-0.092193603515625;2.62999999335989;264;100 mA
84.0059047879055;-0.69970703125;-0.091888427734375;2.63999999333464;265;100 mA
84.0159047878802;-0.69970703125;-0.091796875;2.64999999330939;266;100 mA
84.025904787855;-0.699737548828125;-0.0914306640625;2.65999999328415;267;100 mA
84.0359047878297;-0.699676513671875;-0.092254638671875;2.6699999932589;268;100 mA
84.0459047878045;-0.699737548828125;-0.092498779296875;2.67999999323365;269;100 mA
84.0559047877792;-0.69964599609375;-0.091339111328125;2.6899999932084;270;100 mA
84.065904787754;-0.699737548828125;-0.0914306640625;2.69999999318316;271;100 mA
84.0759047877287;-0.699615478515625;-0.09130859375;2.70999999315791;272;100 mA
84.0859047877035;-0.69970703125;-0.09173583984375;2.71999999313266;273;100 mA
84.0959047876783;-0.69964599609375;-0.09228515625;2.72999999310741;274;100 mA
84.105904787653;-0.69970703125;-0.091583251953125;2.73999999308217;275;100 mA
84.1159047876278;-0.69964599609375;-0.091522216796875;2.74999999305692;276;100 mA
84.1259047876025;-0.69970703125;-0.092010498046875;2.75999999303167;277;100 mA
84.1359047875773;-0.69964599609375;-0.092681884765625;2.76999999300642;278;100 mA
84.145904787552;-0.699615478515625;-0.092254638671875;2.77999999298117;279;100 mA
84.1559047875268;-0.69970703125;-0.0921630859375;2.78999999295593;280;100 mA
84.1659047875015;-0.699676513671875;-0.092315673828125;2.79999999293068;281;100 mA
84.1759047874763;-0.69964599609375;-0.09210205078125;2.80999999290543;282;100 mA
84.185904787451;-0.69970703125;-0.09326171875;2.81999999288018;283;100 mA
84.1959047874258;-0.69964599609375;-0.092559814453125;2.82999999285494;284;100 mA
84.2059047874005;-0.69970703125;-0.092010498046875;2.83999999282969;285;100 mA
84.2159047873753;-0.699676513671875;-0.092437744140625;2.84999999280444;286;100 mA
84.22590478735;-0.699737548828125;-0.092315673828125;2.85999999277919;287;100 mA
84.2359047873248;-0.69964599609375;-0.09246826171875;2.86999999275395;288;100 mA
84.2459047872995;-0.69970703125;-0.091888427734375;2.8799999927287;289;100 mA
84.2559047872743;-0.69964599609375;-0.091461181640625;2.88999999270345;290;100 mA
84.265904787249;-0.699676513671875;-0.091400146484375;2.8999999926782;291;100 mA
84.2759047872238;-0.699676513671875;-0.092529296875;2.90999999265296;292;100 mA
84.2859047871985;-0.69964599609375;-0.09320068359375;2.91999999262771;293;100 mA
84.2959047871733;-0.69964599609375;-0.0921630859375;2.92999999260246;294;100 mA
84.3059047871481;-0.699615478515625;-0.0921630859375;2.93999999257721;295;100 mA
84.3159047871228;-0.69970703125;-0.092041015625;2.94999999255197;296;100 mA
84.3259047870976;-0.69964599609375;-0.09246826171875;2.95999999252672;297;100 mA
84.3359047870723;-0.69964599609375;-0.093231201171875;2.96999999250147;298;100 mA
84.3459047870471;-0.699737548828125;-0.092559814453125;2.97999999247622;299;100 mA
84.3559047870218;-0.699676513671875;-0.09271240234375;2.98999999245098;300;100 mA
84.3659047869966;-0.69970703125;-0.09326171875;2.99999999242573;301;100 mA
84.3759047869713;-0.699676513671875;-0.094390869140625;3.00999999240048;302;100 mA
84.3859047869461;-0.699676513671875;-0.094268798828125;3.01999999237523;303;100 mA
84.3959047869208;-0.69964599609375;-0.094024658203125;3.02999999234999;304;100 mA
84.4059047868956;-0.699676513671875;-0.094024658203125;3.03999999232474;305;100 mA
84.4159047868703;-0.699676513671875;-0.093414306640625;3.04999999229949;306;100 mA
84.4259047868451;-0.69976806640625;-0.09466552734375;3.05999999227424;307;100 mA
84.4359047868198;-0.699676513671875;-0.093841552734375;3.069999992249;308;100 mA
84.4459047867946;-0.699737548828125;-0.0933837890625;3.07999999222375;309;100 mA
84.4559047867693;-0.699676513671875;-0.093902587890625;3.0899999921985;310;100 mA
84.4659047867441;-0.69964599609375;-0.093780517578125;3.09999999217325;311;100 mA
84.4759047867188;-0.699676513671875;-0.094482421875;3.109999992148;312;100 mA
84.4859047866936;-0.699676513671875;-0.094146728515625;3.11999999212276;313;100 mA
84.4959047866683;-0.699676513671875;-0.0938720703125;3.12999999209751;314;100 mA
84.5059047866431;-0.69964599609375;-0.09375;3.13999999207226;315;100 mA
84.5159047866179;-0.699615478515625;-0.094635009765625;3.14999999204701;316;100 mA
84.5259047865926;-0.69970703125;-0.095001220703125;3.15999999202177;317;100 mA
84.5359047865674;-0.699737548828125;-0.094146728515625;3.16999999199652;318;100 mA
84.5459047865421;-0.69970703125;-0.094085693359375;3.17999999197127;319;100 mA
84.5559047865169;-0.69964599609375;-0.093719482421875;3.18999999194602;320;100 mA
84.5659047864916;-0.699676513671875;-0.093994140625;3.19999999192078;321;100 mA
84.5759047864664;-0.699615478515625;-0.094482421875;3.20999999189553;322;100 mA
84.5859047864411;-0.699676513671875;-0.09332275390625;3.21999999187028;323;100 mA
84.5959047864159;-0.69964599609375;-0.093109130859375;3.22999999184503;324;100 mA
84.6059047863906;-0.699615478515625;-0.09326171875;3.23999999181979;325;100 mA
84.6159047863654;-0.699676513671875;-0.0938720703125;3.24999999179454;326;100 mA
84.6259047863401;-0.699676513671875;-0.09356689453125;3.25999999176929;327;100 mA
84.6359047863149;-0.699615478515625;-0.0931396484375;3.26999999174404;328;100 mA
84.6459047862896;-0.699737548828125;-0.093017578125;3.2799999917188;329;100 mA
84.6559047862644;-0.69964599609375;-0.0926513671875;3.28999999169355;330;100 mA
84.6659047862391;-0.699737548828125;-0.0938720703125;3.2999999916683;331;100 mA
84.6759047862139;-0.69970703125;-0.09307861328125;3.30999999164305;332;100 mA
84.6859047861886;-0.699676513671875;-0.092559814453125;3.31999999161781;333;100 mA
84.6959047861634;-0.699676513671875;-0.092681884765625;3.32999999159256;334;100 mA
84.7059047861381;-0.69970703125;-0.092315673828125;3.33999999156731;335;100 mA
84.7159047861129;-0.699676513671875;-0.09283447265625;3.34999999154206;336;100 mA
84.7259047860877;-0.69970703125;-0.092437744140625;3.35999999151682;337;100 mA
84.7359047860624;-0.69964599609375;-0.092010498046875;3.36999999149157;338;100 mA
84.7459047860372;-0.699737548828125;-0.091949462890625;3.37999999146632;339;100 mA
84.7559047860119;-0.69970703125;-0.092742919921875;3.38999999144107;340;100 mA
84.7659047859867;-0.699615478515625;-0.092926025390625;3.39999999141583;341;100 mA
84.7759047859614;-0.69970703125;-0.0921630859375;3.40999999139058;342;100 mA
84.7859047859362;-0.699676513671875;-0.09222412109375;3.41999999136533;343;100 mA
84.7959047859109;-0.699676513671875;-0.092041015625;3.42999999134008;344;100 mA
84.8059047858857;-0.699676513671875;-0.092529296875;3.43999999131483;345;100 mA
84.8159047858604;-0.699676513671875;-0.09283447265625;3.44999999128959;346;100 mA
84.8259047858352;-0.69970703125;-0.0916748046875;3.45999999126434;347;100 mA
84.8359047858099;-0.699676513671875;-0.091552734375;3.46999999123909;348;100 mA
84.8459047857847;-0.69964599609375;-0.091552734375;3.47999999121384;349;100 mA
84.8559047857594;-0.699676513671875;-0.09197998046875;3.4899999911886;350;100 mA
84.8659047857342;-0.699676513671875;-0.0919189453125;3.49999999116335;351;100 mA
84.8759047857089;-0.699676513671875;-0.09161376953125;3.5099999911381;352;100 mA
84.8859047856837;-0.69964599609375;-0.091644287109375;3.51999999111285;353;100 mA
84.8959047856584;-0.699676513671875;-0.09149169921875;3.52999999108761;354;100 mA
84.9059047856332;-0.699676513671875;-0.092987060546875;3.53999999106236;355;100 mA
84.9159047856079;-0.699676513671875;-0.09234619140625;3.54999999103711;356;100 mA
84.9259047855827;-0.69970703125;-0.09210205078125;3.55999999101186;357;100 mA
84.9359047855575;-0.699676513671875;-0.09234619140625;3.56999999098662;358;100 mA
84.9459047855322;-0.699737548828125;-0.091888427734375;3.57999999096137;359;100 mA
84.955904785507;-0.699676513671875;-0.092437744140625;3.58999999093612;360;100 mA
84.9659047854817;-0.699676513671875;-0.092132568359375;3.59999999091087;361;100 mA
84.9759047854565;-0.69970703125;-0.091766357421875;3.60999999088563;362;100 mA
84.9859047854312;-0.69970703125;-0.0916748046875;3.61999999086038;363;100 mA
84.995904785406;-0.69970703125;-0.092254638671875;3.62999999083513;364;100 mA
85.0059047853807;-0.699737548828125;-0.09234619140625;3.63999999080988;365;100 mA
85.0159047853555;-0.69976806640625;-0.091461181640625;3.64999999078464;366;100 mA
85.0259047853302;-0.699676513671875;-0.0911865234375;3.65999999075939;367;100 mA
85.035904785305;-0.69964599609375;-0.090789794921875;3.66999999073414;368;100 mA
85.0459047852797;-0.699676513671875;-0.091583251953125;3.67999999070889;369;100 mA
85.0559047852545;-0.69964599609375;-0.09234619140625;3.68999999068365;370;100 mA
85.0659047852292;-0.699676513671875;-0.091796875;3.6999999906584;371;100 mA
85.075904785204;-0.699676513671875;-0.0921630859375;3.70999999063315;372;100 mA
85.0859047851787;-0.699676513671875;-0.09246826171875;3.7199999906079;373;100 mA
85.0959047851535;-0.699676513671875;-0.09295654296875;3.72999999058266;374;100 mA
85.1059047851282;-0.69964599609375;-0.09283447265625;3.73999999055741;375;100 mA
85.115904785103;-0.699676513671875;-0.0924072265625;3.74999999053216;376;100 mA
85.1259047850778;-0.699676513671875;-0.09228515625;3.75999999050691;377;100 mA
85.1359047850525;-0.69964599609375;-0.092041015625;3.76999999048167;378;100 mA
85.1459047850273;-0.699676513671875;-0.09283447265625;3.77999999045642;379;100 mA
85.155904785002;-0.699615478515625;-0.091766357421875;3.78999999043117;380;100 mA
85.1659047849768;-0.699676513671875;-0.091033935546875;3.79999999040592;381;100 mA
85.1759047849515;-0.69964599609375;-0.091064453125;3.80999999038067;382;100 mA
85.1859047849263;-0.699676513671875;-0.090606689453125;3.81999999035543;383;100 mA
85.195904784901;-0.699737548828125;-0.0914306640625;3.82999999033018;384;100 mA
85.2059047848758;-0.69970703125;-0.091217041015625;3.83999999030493;385;100 mA
85.2159047848505;-0.699676513671875;-0.0908203125;3.84999999027968;386;100 mA
85.2259047848253;-0.699676513671875;-0.090972900390625;3.85999999025444;387;100 mA
85.2359047848;-0.69964599609375;-0.091796875;3.86999999022919;388;100 mA
85.2459047847748;-0.699676513671875;-0.09210205078125;3.87999999020394;389;100 mA
85.2559047847495;-0.69964599609375;-0.091400146484375;3.88999999017869;390;100 mA
85.2659047847243;-0.699676513671875;-0.091339111328125;3.89999999015345;391;100 mA
85.275904784699;-0.699676513671875;-0.09075927734375;3.9099999901282;392;100 mA
85.2859047846738;-0.69970703125;-0.09149169921875;3.91999999010295;393;100 mA
85.2959047846485;-0.69964599609375;-0.09228515625;3.9299999900777;394;100 mA
85.3059047846233;-0.69970703125;-0.09136962890625;3.93999999005246;395;100 mA
85.315904784598;-0.69970703125;-0.091522216796875;3.94999999002721;396;100 mA
85.3259047845728;-0.699676513671875;-0.091552734375;3.95999999000196;397;100 mA
85.3359047845476;-0.699676513671875;-0.0921630859375;3.96999998997671;398;100 mA
85.3459047845223;-0.699676513671875;-0.092529296875;3.97999998995147;399;100 mA
85.3559047844971;-0.699676513671875;-0.0924072265625;3.98999998992622;400;100 mA
85.3659047844718;-0.699676513671875;-0.092498779296875;3.99999998990097;401;100 mA
85.3759047844466;-0.69964599609375;-0.092529296875;4.00999998987572;402;100 mA
85.3859047844213;-0.699676513671875;-0.093414306640625;4.01999998985048;403;100 mA
85.3959047843961;-0.69970703125;-0.092498779296875;4.02999998982523;404;100 mA
85.4059047843708;-0.69970703125;-0.09228515625;4.03999998979998;405;100 mA
85.4159047843456;-0.69964599609375;-0.0926513671875;4.04999998977473;406;100 mA
85.4259047843203;-0.69964599609375;-0.092315673828125;4.05999998974949;407;100 mA
85.4359047842951;-0.699676513671875;-0.093109130859375;4.06999998972424;408;100 mA
85.4459047842698;-0.699676513671875;-0.09283447265625;4.07999998969899;409;100 mA
85.4559047842446;-0.699676513671875;-0.0924072265625;4.08999998967374;410;100 mA
85.4659047842193;-0.699676513671875;-0.0924072265625;4.0999999896485;411;100 mA
85.4759047841941;-0.69964599609375;-0.09283447265625;4.10999998962325;412;100 mA
85.4859047841688;-0.699676513671875;-0.0928955078125;4.119999989598;413;100 mA
85.4959047841436;-0.69964599609375;-0.092376708984375;4.12999998957275;414;100 mA
85.5059047841183;-0.699676513671875;-0.09234619140625;4.1399999895475;415;100 mA
85.5159047840931;-0.699615478515625;-0.091949462890625;4.14999998952226;416;100 mA
85.5259047840678;-0.69964599609375;-0.092681884765625;4.15999998949701;417;100 mA
85.5359047840426;-0.699676513671875;-0.09320068359375;4.16999998947176;418;100 mA
85.5459047840174;-0.69976806640625;-0.09222412109375;4.17999998944651;419;100 mA
85.5559047839921;-0.699615478515625;-0.092193603515625;4.18999998942127;420;100 mA
85.5659047839669;-0.69964599609375;-0.0919189453125;4.19999998939602;421;100 mA
85.5759047839416;-0.69970703125;-0.092193603515625;4.20999998937077;422;100 mA
85.5859047839164;-0.69970703125;-0.092193603515625;4.21999998934552;423;100 mA
85.5959047838911;-0.699676513671875;-0.091705322265625;4.22999998932028;424;100 mA
85.6059047838659;-0.699676513671875;-0.091522216796875;4.23999998929503;425;100 mA
85.6159047838406;-0.699676513671875;-0.091461181640625;4.24999998926978;426;100 mA
85.6259047838154;-0.699676513671875;-0.092559814453125;4.25999998924453;427;100 mA
85.6359047837901;-0.699676513671875;-0.09185791015625;4.26999998921929;428;100 mA
85.6459047837649;-0.69970703125;-0.091796875;4.27999998919404;429;100 mA
85.6559047837396;-0.69964599609375;-0.09222412109375;4.28999998916879;430;100 mA
85.6659047837144;-0.69970703125;-0.09197998046875;4.29999998914354;431;100 mA
85.6759047836891;-0.69964599609375;-0.092987060546875;4.3099999891183;432;100 mA
85.6859047836639;-0.69976806640625;-0.09283447265625;4.31999998909305;433;100 mA
85.6959047836386;-0.69970703125;-0.09246826171875;4.3299999890678;434;100 mA
85.7059047836134;-0.69964599609375;-0.092681884765625;4.33999998904255;435;100 mA
85.7159047835881;-0.699676513671875;-0.093170166015625;4.34999998901731;436;100 mA
85.7259047835629;-0.699676513671875;-0.093475341796875;4.35999998899206;437;100 mA
85.7359047835376;-0.699676513671875;-0.093048095703125;4.36999998896681;438;100 mA
85.7459047835124;-0.699676513671875;-0.093170166015625;4.37999998894156;439;100 mA
85.7559047834872;-0.69976806640625;-0.092803955078125;4.38999998891632;440;100 mA
85.7659047834619;-0.699676513671875;-0.0936279296875;4.39999998889107;441;100 mA
85.7759047834367;-0.699737548828125;-0.09417724609375;4.40999998886582;442;100 mA
85.7859047834114;-0.699676513671875;-0.09332275390625;4.41999998884057;443;100 mA
85.7959047833862;-0.699676513671875;-0.093475341796875;4.42999998881533;444;100 mA
85.8059047833609;-0.699676513671875;-0.09332275390625;4.43999998879008;445;100 mA
85.8159047833357;-0.69964599609375;-0.09368896484375;4.44999998876483;446;100 mA
85.8259047833104;-0.699676513671875;-0.093963623046875;4.45999998873958;447;100 mA
85.8359047832852;-0.69964599609375;-0.093475341796875;4.46999998871433;448;100 mA
85.8459047832599;-0.69964599609375;-0.093414306640625;4.47999998868909;449;100 mA
85.8559047832347;-0.69970703125;-0.093292236328125;4.48999998866384;450;100 mA
85.8659047832094;-0.699676513671875;-0.09423828125;4.49999998863859;451;100 mA
85.8759047831842;-0.69970703125;-0.093353271484375;4.50999998861334;452;100 mA
85.8859047831589;-0.69964599609375;-0.09307861328125;4.5199999885881;453;100 mA
85.8959047831337;-0.699676513671875;-0.093536376953125;4.52999998856285;454;100 mA
85.9059047831084;-0.69970703125;-0.09326171875;4.5399999885376;455;100 mA
85.9159047830832;-0.69970703125;-0.09442138671875;4.54999998851235;456;100 mA
85.9259047830579;-0.699676513671875;-0.09405517578125;4.55999998848711;457;100 mA
85.9359047830327;-0.69970703125;-0.09375;4.56999998846186;458;100 mA
85.9459047830074;-0.69964599609375;-0.093963623046875;4.57999998843661;459;100 mA
85.9559047829822;-0.699676513671875;-0.09417724609375;4.58999998841136;460;100 mA
85.965904782957;-0.699676513671875;-0.094451904296875;4.59999998838612;461;100 mA
85.9759047829317;-0.69970703125;-0.093994140625;4.60999998836087;462;100 mA
85.9859047829065;-0.69964599609375;-0.093963623046875;4.61999998833562;463;100 mA
85.9959047828812;-0.69970703125;-0.093597412109375;4.62999998831037;464;100 mA
86.005904782856;-0.69964599609375;-0.09454345703125;4.63999998828513;465;100 mA
86.0159047828307;-0.69970703125;-0.09503173828125;4.64999998825988;466;100 mA
86.0259047828055;-0.69964599609375;-0.0941162109375;4.65999998823463;467;100 mA
86.0359047827802;-0.69964599609375;-0.094268798828125;4.66999998820938;468;100 mA
86.045904782755;-0.69970703125;-0.09405517578125;4.67999998818414;469;100 mA
86.0559047827297;-0.69964599609375;-0.094329833984375;4.68999998815889;470;100 mA
86.0659047827045;-0.69964599609375;-0.094482421875;4.69999998813364;471;100 mA
86.0759047826792;-0.699676513671875;-0.093780517578125;4.70999998810839;472;100 mA
86.085904782654;-0.699676513671875;-0.09344482421875;4.71999998808315;473;100 mA
86.0959047826287;-0.69964599609375;-0.093414306640625;4.7299999880579;474;100 mA
86.1059047826035;-0.699676513671875;-0.094268798828125;4.73999998803265;475;100 mA
86.1159047825782;-0.69964599609375;-0.093902587890625;4.7499999880074;476;100 mA
86.125904782553;-0.699615478515625;-0.094024658203125;4.75999998798216;477;100 mA
86.1359047825277;-0.699676513671875;-0.094146728515625;4.76999998795691;478;100 mA
86.1459047825025;-0.699676513671875;-0.093505859375;4.77999998793166;479;100 mA
86.1559047824773;-0.69970703125;-0.094268798828125;4.78999998790641;480;100 mA
86.165904782452;-0.699676513671875;-0.09375;4.79999998788116;481;100 mA
86.1759047824268;-0.69964599609375;-0.093353271484375;4.80999998785592;482;100 mA
86.1859047824015;-0.699676513671875;-0.093536376953125;4.81999998783067;483;100 mA
86.1959047823763;-0.69970703125;-0.0936279296875;4.82999998780542;484;100 mA
86.205904782351;-0.699615478515625;-0.093841552734375;4.83999998778017;485;100 mA
86.2159047823258;-0.699676513671875;-0.0933837890625;4.84999998775493;486;100 mA
86.2259047823005;-0.69970703125;-0.09332275390625;4.85999998772968;487;100 mA
86.2359047822753;-0.69970703125;-0.092864990234375;4.86999998770443;488;100 mA
86.24590478225;-0.69976806640625;-0.093536376953125;4.87999998767918;489;100 mA
86.2559047822248;-0.699676513671875;-0.09375;4.88999998765394;490;100 mA
86.2659047821995;-0.699615478515625;-0.092620849609375;4.89999998762869;491;100 mA
86.2759047821743;-0.699676513671875;-0.092742919921875;4.90999998760344;492;100 mA
86.285904782149;-0.69964599609375;-0.092559814453125;4.91999998757819;493;100 mA
86.2959047821238;-0.69970703125;-0.093017578125;4.92999998755295;494;100 mA
86.3059047820985;-0.69970703125;-0.0933837890625;4.9399999875277;495;100 mA
86.3159047820733;-0.699676513671875;-0.093017578125;4.94999998750245;496;100 mA
86.325904782048;-0.69964599609375;-0.092926025390625;4.9599999874772;497;100 mA
86.3359047820228;-0.69964599609375;-0.092803955078125;4.96999998745196;498;100 mA
86.3459047819975;-0.699676513671875;-0.093353271484375;4.97999998742671;499;100 mA
86.3559047819723;-0.699676513671875;-0.0927734375;4.98999998740146;500;100 mA
86.3659047819471;-0.69964599609375;-0.092620849609375;4.99999998737621;501;100 mA
86.3759047819218;-0.69970703125;-0.0926513671875;5.00999998735097;502;100 mA
86.3859047818966;-0.699676513671875;-0.092132568359375;5.01999998732572;503;100 mA
86.3959047818713;-0.69964599609375;-0.09307861328125;5.02999998730047;504;100 mA
86.4059047818461;-0.699676513671875;-0.09259033203125;5.03999998727522;505;100 mA
86.4159047818208;-0.69970703125;-0.09246826171875;5.04999998724998;506;100 mA
86.4259047817956;-0.69964599609375;-0.0927734375;5.05999998722473;507;100 mA
86.4359047817703;-0.699676513671875;-0.09283447265625;5.06999998719948;508;100 mA
86.4459047817451;-0.69964599609375;-0.093170166015625;5.07999998717423;509;100 mA
86.4559047817198;-0.699676513671875;-0.092926025390625;5.08999998714899;510;100 mA
86.4659047816946;-0.699737548828125;-0.092987060546875;5.09999998712374;511;100 mA
86.4759047816693;-0.699676513671875;-0.092559814453125;5.10999998709849;512;100 mA
86.4859047816441;-0.69970703125;-0.09332275390625;5.11999998707324;513;100 mA
86.4959047816188;-0.699676513671875;-0.093536376953125;5.129999987048;514;100 mA
86.5059047815936;-0.699676513671875;-0.092742919921875;5.13999998702275;515;100 mA
86.5159047815683;-0.69970703125;-0.09295654296875;5.1499999869975;516;100 mA
86.5259047815431;-0.69970703125;-0.092559814453125;5.15999998697225;517;100 mA
86.5359047815178;-0.69970703125;-0.092926025390625;5.169999986947;518;100 mA
86.5459047814926;-0.699676513671875;-0.093505859375;5.17999998692176;519;100 mA
86.5559047814673;-0.69964599609375;-0.093109130859375;5.18999998689651;520;100 mA
86.5659047814421;-0.69964599609375;-0.0931396484375;5.19999998687126;521;100 mA
86.5759047814169;-0.699615478515625;-0.093109130859375;5.20999998684601;522;100 mA
86.5859047813916;-0.699676513671875;-0.093719482421875;5.21999998682077;523;100 mA
86.5959047813664;-0.69964599609375;-0.093170166015625;5.22999998679552;524;100 mA
86.6059047813411;-0.69964599609375;-0.09295654296875;5.23999998677027;525;100 mA
86.6159047813159;-0.699676513671875;-0.09307861328125;5.24999998674502;526;100 mA
86.6259047812906;-0.69964599609375;-0.0926513671875;5.25999998671978;527;100 mA
86.6359047812654;-0.699676513671875;-0.093719482421875;5.26999998669453;528;100 mA
86.6459047812401;-0.699676513671875;-0.093109130859375;5.27999998666928;529;100 mA
86.6559047812149;-0.699676513671875;-0.0926513671875;5.28999998664403;530;100 mA
86.6659047811896;-0.699676513671875;-0.092742919921875;5.29999998661879;531;100 mA
86.6759047811644;-0.699676513671875;-0.092620849609375;5.30999998659354;532;100 mA
86.6859047811391;-0.699615478515625;-0.0931396484375;5.31999998656829;533;100 mA
86.6959047811139;-0.699676513671875;-0.093109130859375;5.32999998654304;534;100 mA
86.7059047810886;-0.699676513671875;-0.093170166015625;5.3399999865178;535;100 mA
86.7159047810634;-0.699615478515625;-0.09283447265625;5.34999998649255;536;100 mA
86.7259047810381;-0.699676513671875;-0.093597412109375;5.3599999864673;537;100 mA
86.7359047810129;-0.699676513671875;-0.09368896484375;5.36999998644205;538;100 mA
86.7459047809876;-0.69970703125;-0.092864990234375;5.37999998641681;539;100 mA
86.7559047809624;-0.69970703125;-0.092926025390625;5.38999998639156;540;100 mA
86.7659047809371;-0.69970703125;-0.092376708984375;5.39999998636631;541;100 mA
86.7759047809119;-0.699737548828125;-0.092559814453125;5.40999998634106;542;100 mA
86.7859047808867;-0.69970703125;-0.093017578125;5.41999998631582;543;100 mA
86.7959047808614;-0.69970703125;-0.092498779296875;5.42999998629057;544;100 mA
86.8059047808362;-0.699615478515625;-0.092498779296875;5.43999998626532;545;100 mA
86.8159047808109;-0.69970703125;-0.09234619140625;5.44999998624007;546;100 mA
86.8259047807857;-0.699676513671875;-0.09295654296875;5.45999998621483;547;100 mA
86.8359047807604;-0.69970703125;-0.092742919921875;5.46999998618958;548;100 mA
86.8459047807352;-0.699676513671875;-0.092864990234375;5.47999998616433;549;100 mA
86.8559047807099;-0.699737548828125;-0.093048095703125;5.48999998613908;550;100 mA
86.8659047806847;-0.69970703125;-0.092620849609375;5.49999998611383;551;100 mA
86.8759047806594;-0.699676513671875;-0.0936279296875;5.50999998608859;552;100 mA
86.8859047806342;-0.69964599609375;-0.09283447265625;5.51999998606334;553;100 mA
86.8959047806089;-0.69970703125;-0.092559814453125;5.52999998603809;554;100 mA
86.9059047805837;-0.699676513671875;-0.0927734375;5.53999998601284;555;100 mA
86.9159047805584;-0.699676513671875;-0.092620849609375;5.5499999859876;556;100 mA
86.9259047805332;-0.69964599609375;-0.09295654296875;5.55999998596235;557;100 mA
86.9359047805079;-0.699737548828125;-0.09259033203125;5.5699999859371;558;100 mA
86.9459047804827;-0.699676513671875;-0.09228515625;5.57999998591185;559;100 mA
86.9559047804574;-0.69964599609375;-0.091949462890625;5.58999998588661;560;100 mA
86.9659047804322;-0.69964599609375;-0.09259033203125;5.59999998586136;561;100 mA
86.9759047804069;-0.69964599609375;-0.0926513671875;5.60999998583611;562;100 mA
86.9859047803817;-0.69970703125;-0.0919189453125;5.61999998581086;563;100 mA
86.9959047803565;-0.69964599609375;-0.092315673828125;5.62999998578562;564;100 mA
87.0059047803312;-0.699676513671875;-0.09234619140625;5.63999998576037;565;100 mA
87.015904780306;-0.69970703125;-0.092681884765625;5.64999998573512;566;100 mA
87.0259047802807;-0.699676513671875;-0.092681884765625;5.65999998570987;567;100 mA
87.0359047802555;-0.69970703125;-0.09173583984375;5.66999998568463;568;100 mA
87.0459047802302;-0.699737548828125;-0.091339111328125;5.67999998565938;569;100 mA
87.055904780205;-0.69964599609375;-0.09124755859375;5.68999998563413;570;100 mA
87.0659047801797;-0.699676513671875;-0.091644287109375;5.69999998560888;571;100 mA
87.0759047801545;-0.699676513671875;-0.091278076171875;5.70999998558364;572;100 mA
87.0859047801292;-0.69964599609375;-0.091217041015625;5.71999998555839;573;100 mA
87.095904780104;-0.69970703125;-0.091217041015625;5.72999998553314;574;100 mA
87.1059047800787;-0.69970703125;-0.09112548828125;5.73999998550789;575;100 mA
87.1159047800535;-0.69964599609375;-0.09228515625;5.74999998548265;576;100 mA
87.1259047800282;-0.69970703125;-0.091766357421875;5.7599999854574;577;100 mA
87.135904780003;-0.699737548828125;-0.091705322265625;5.76999998543215;578;100 mA
87.1459047799777;-0.699676513671875;-0.09210205078125;5.7799999854069;579;100 mA
87.1559047799525;-0.69970703125;-0.0919189453125;5.78999998538166;580;100 mA
87.1659047799272;-0.69964599609375;-0.09210205078125;5.79999998535641;581;100 mA
87.175904779902;-0.699676513671875;-0.091552734375;5.80999998533116;582;100 mA
87.1859047798768;-0.69964599609375;-0.09124755859375;5.81999998530591;583;100 mA
87.1959047798515;-0.69964599609375;-0.09112548828125;5.82999998528066;584;100 mA
87.2059047798263;-0.699676513671875;-0.09185791015625;5.83999998525542;585;100 mA
87.215904779801;-0.699676513671875;-0.091796875;5.84999998523017;586;100 mA
87.2259047797758;-0.699676513671875;-0.091217041015625;5.85999998520492;587;100 mA
87.2359047797505;-0.699737548828125;-0.0914306640625;5.86999998517967;588;100 mA
87.2459047797253;-0.69964599609375;-0.0911865234375;5.87999998515443;589;100 mA
87.2559047797;-0.699737548828125;-0.0916748046875;5.88999998512918;590;100 mA
87.2659047796748;-0.69970703125;-0.091949462890625;5.89999998510393;591;100 mA
87.2759047796495;-0.699737548828125;-0.09130859375;5.90999998507868;592;100 mA
87.2859047796243;-0.69964599609375;-0.0911865234375;5.91999998505344;593;100 mA
87.295904779599;-0.69964599609375;-0.091064453125;5.92999998502819;594;100 mA
87.3059047795738;-0.699676513671875;-0.0914306640625;5.93999998500294;595;100 mA
87.3159047795485;-0.69964599609375;-0.09112548828125;5.94999998497769;596;100 mA
87.3259047795233;-0.69964599609375;-0.091033935546875;5.95999998495245;597;100 mA
87.335904779498;-0.699737548828125;-0.090850830078125;5.9699999849272;598;100 mA
87.3459047794728;-0.69964599609375;-0.090728759765625;5.97999998490195;599;100 mA
87.3559047794475;-0.699676513671875;-0.09185791015625;5.9899999848767;600;100 mA
87.3659047794223;-0.699615478515625;-0.091339111328125;5.99999998485146;601;100 mA
87.375904779397;-0.69970703125;-0.0914306640625;6.00999998482621;602;100 mA
87.3859047793718;-0.69964599609375;-0.09185791015625;6.01999998480096;603;100 mA
87.3959047793466;-0.699737548828125;-0.0916748046875;6.02999998477571;604;100 mA
87.4059047793213;-0.699676513671875;-0.091949462890625;6.03999998475047;605;100 mA
87.4159047792961;-0.69976806640625;-0.091552734375;6.04999998472522;606;100 mA
87.4259047792708;-0.699676513671875;-0.09130859375;6.05999998469997;607;100 mA
87.4359047792456;-0.69964599609375;-0.091156005859375;6.06999998467472;608;100 mA
87.4459047792203;-0.69964599609375;-0.091827392578125;6.07999998464948;609;100 mA
87.4559047791951;-0.69970703125;-0.091705322265625;6.08999998462423;610;100 mA
87.4659047791698;-0.69964599609375;-0.09112548828125;6.09999998459898;611;100 mA
87.4759047791446;-0.699676513671875;-0.091217041015625;6.10999998457373;612;100 mA
87.4859047791193;-0.69970703125;-0.090789794921875;6.11999998454849;613;100 mA
87.4959047790941;-0.69970703125;-0.09124755859375;6.12999998452324;614;100 mA
87.5059047790688;-0.699676513671875;-0.09136962890625;6.13999998449799;615;100 mA
87.5159047790436;-0.699737548828125;-0.090545654296875;6.14999998447274;616;100 mA
87.5259047790183;-0.69964599609375;-0.09051513671875;6.1599999844475;617;100 mA
87.5359047789931;-0.69970703125;-0.090484619140625;6.16999998442225;618;100 mA
87.5459047789678;-0.69970703125;-0.090850830078125;6.179999984397;619;100 mA
87.5559047789426;-0.69970703125;-0.090606689453125;6.18999998437175;620;100 mA
87.5659047789173;-0.69970703125;-0.0904541015625;6.1999999843465;621;100 mA
87.5759047788921;-0.699676513671875;-0.090545654296875;6.20999998432126;622;100 mA
87.5859047788668;-0.69970703125;-0.0904541015625;6.21999998429601;623;100 mA
87.5959047788416;-0.69964599609375;-0.091339111328125;6.22999998427076;624;100 mA
87.6059047788164;-0.699676513671875;-0.09051513671875;6.23999998424551;625;100 mA
87.6159047787911;-0.69964599609375;-0.090301513671875;6.24999998422027;626;100 mA
87.6259047787659;-0.69964599609375;-0.090362548828125;6.25999998419502;627;100 mA
87.6359047787406;-0.699676513671875;-0.090087890625;6.26999998416977;628;100 mA
87.6459047787154;-0.69964599609375;-0.09051513671875;6.27999998414452;629;100 mA
87.6559047786901;-0.699737548828125;-0.0902099609375;6.28999998411928;630;100 mA
87.6659047786649;-0.699676513671875;-0.089996337890625;6.29999998409403;631;100 mA
87.6759047786396;-0.699676513671875;-0.089935302734375;6.30999998406878;632;100 mA
87.6859047786144;-0.699676513671875;-0.090484619140625;6.31999998404353;633;100 mA
87.6959047785891;-0.69970703125;-0.09051513671875;6.32999998401829;634;100 mA
87.7059047785639;-0.69964599609375;-0.0902099609375;6.33999998399304;635;100 mA
87.7159047785386;-0.699737548828125;-0.090301513671875;6.34999998396779;636;100 mA
87.7259047785134;-0.699676513671875;-0.08978271484375;6.35999998394254;637;100 mA
87.7359047784881;-0.69970703125;-0.0902099609375;6.3699999839173;638;100 mA
87.7459047784629;-0.69970703125;-0.0902099609375;6.37999998389205;639;100 mA
87.7559047784376;-0.699676513671875;-0.08929443359375;6.3899999838668;640;100 mA
87.7659047784124;-0.699737548828125;-0.089141845703125;6.39999998384155;641;100 mA
87.7759047783871;-0.69964599609375;-0.088958740234375;6.40999998381631;642;100 mA
87.7859047783619;-0.699676513671875;-0.089263916015625;6.41999998379106;643;100 mA
87.7959047783366;-0.69970703125;-0.089202880859375;6.42999998376581;644;100 mA
87.8059047783114;-0.69970703125;-0.08905029296875;6.43999998374056;645;100 mA
87.8159047782862;-0.699676513671875;-0.08892822265625;6.44999998371532;646;100 mA
87.8259047782609;-0.69970703125;-0.088897705078125;6.45999998369007;647;100 mA
87.8359047782357;-0.699615478515625;-0.089569091796875;6.46999998366482;648;100 mA
87.8459047782104;-0.699676513671875;-0.0887451171875;6.47999998363957;649;100 mA
87.8559047781852;-0.699615478515625;-0.088653564453125;6.48999998361433;650;100 mA
87.8659047781599;-0.69970703125;-0.088714599609375;6.49999998358908;651;100 mA
87.8759047781347;-0.69970703125;-0.08856201171875;6.50999998356383;652;100 mA
87.8859047781094;-0.69964599609375;-0.08905029296875;6.51999998353858;653;100 mA
87.8959047780842;-0.69970703125;-0.088775634765625;6.52999998351333;654;100 mA
87.9059047780589;-0.69964599609375;-0.08868408203125;6.53999998348809;655;100 mA
87.9159047780337;-0.699676513671875;-0.088714599609375;6.54999998346284;656;100 mA
87.9259047780084;-0.699615478515625;-0.089080810546875;6.55999998343759;657;100 mA
87.9359047779832;-0.69970703125;-0.088897705078125;6.56999998341234;658;100 mA
87.9459047779579;-0.69970703125;-0.088531494140625;6.5799999833871;659;100 mA
87.9559047779327;-0.69964599609375;-0.0885009765625;6.58999998336185;660;100 mA
87.9659047779074;-0.699676513671875;-0.08819580078125;6.5999999833366;661;100 mA
87.9759047778822;-0.69970703125;-0.08892822265625;6.60999998331135;662;100 mA
87.9859047778569;-0.699676513671875;-0.089141845703125;6.61999998328611;663;100 mA
87.9959047778317;-0.699676513671875;-0.088714599609375;6.62999998326086;664;100 mA
88.0059047778064;-0.699676513671875;-0.088836669921875;6.63999998323561;665;100 mA
88.0159047777812;-0.699676513671875;-0.08856201171875;6.64999998321036;666;100 mA
88.025904777756;-0.699676513671875;-0.088470458984375;6.65999998318512;667;100 mA
88.0359047777307;-0.69970703125;-0.088043212890625;6.66999998315987;668;100 mA
88.0459047777055;-0.699676513671875;-0.087677001953125;6.67999998313462;669;100 mA
88.0559047776802;-0.69970703125;-0.087677001953125;6.68999998310937;670;100 mA
88.065904777655;-0.69970703125;-0.087860107421875;6.69999998308413;671;100 mA
88.0759047776297;-0.69964599609375;-0.08843994140625;6.70999998305888;672;100 mA
88.0859047776045;-0.69964599609375;-0.087738037109375;6.71999998303363;673;100 mA
88.0959047775792;-0.699676513671875;-0.087738037109375;6.72999998300838;674;100 mA
88.105904777554;-0.699615478515625;-0.08807373046875;6.73999998298314;675;100 mA
88.1159047775287;-0.699676513671875;-0.08782958984375;6.74999998295789;676;100 mA
88.1259047775035;-0.699676513671875;-0.088165283203125;6.75999998293264;677;100 mA
88.1359047774782;-0.69970703125;-0.087615966796875;6.76999998290739;678;100 mA
88.145904777453;-0.699676513671875;-0.08740234375;6.77999998288215;679;100 mA
88.1559047774277;-0.699676513671875;-0.087615966796875;6.7899999828569;680;100 mA
88.1659047774025;-0.699676513671875;-0.088104248046875;6.79999998283165;681;100 mA
88.1759047773772;-0.699676513671875;-0.087921142578125;6.8099999828064;682;100 mA
88.185904777352;-0.699737548828125;-0.087493896484375;6.81999998278116;683;100 mA
88.1959047773267;-0.69970703125;-0.087493896484375;6.82999998275591;684;100 mA
88.2059047773015;-0.699737548828125;-0.087310791015625;6.83999998273066;685;100 mA
88.2159047772763;-0.69970703125;-0.088104248046875;6.84999998270541;686;100 mA
88.225904777251;-0.699676513671875;-0.08819580078125;6.85999998268016;687;100 mA
88.2359047772258;-0.69970703125;-0.087738037109375;6.86999998265492;688;100 mA
88.2459047772005;-0.69970703125;-0.088043212890625;6.87999998262967;689;100 mA
88.2559047771753;-0.69970703125;-0.087982177734375;6.88999998260442;690;100 mA
88.26590477715;-0.699676513671875;-0.088226318359375;6.89999998257917;691;100 mA
88.2759047771248;-0.69970703125;-0.088043212890625;6.90999998255393;692;100 mA
88.2859047770995;-0.69970703125;-0.08782958984375;6.91999998252868;693;100 mA
88.2959047770743;-0.69970703125;-0.087860107421875;6.92999998250343;694;100 mA
88.305904777049;-0.699676513671875;-0.088104248046875;6.93999998247818;695;100 mA
88.3159047770238;-0.69964599609375;-0.088775634765625;6.94999998245294;696;100 mA
88.3259047769985;-0.69964599609375;-0.088287353515625;6.95999998242769;697;100 mA
88.3359047769733;-0.69964599609375;-0.08843994140625;6.96999998240244;698;100 mA
88.345904776948;-0.699676513671875;-0.088897705078125;6.97999998237719;699;100 mA
88.3559047769228;-0.69964599609375;-0.088897705078125;6.98999998235195;700;100 mA
