Time (s);WE(1).Potential (V);WE(1).Current (A);Corrected time (s);Index;Current range
103.959166737528;-0.80047607421875;-0.34246826171875;0;1;100 mA
103.969166737503;-0.79986572265625;-0.25177001953125;0.00999999997475243;2;100 mA
103.979166737478;-0.79986572265625;-0.208526611328125;0.0199999999495049;3;100 mA
103.989166737453;-0.80047607421875;-0.183197021484375;0.0299999999242573;4;100 mA
103.999166737427;-0.799560546875;-0.165191650390625;0.0399999998990097;5;100 mA
104.009166737402;-0.79925537109375;-0.152557373046875;0.0499999998737621;6;100 mA
104.019166737377;-0.799560546875;-0.143829345703125;0.0599999998485146;7;100 mA
104.029166737352;-0.799560546875;-0.1375732421875;0.069999999823267;8;100 mA
104.039166737326;-0.799560546875;-0.132171630859375;0.0799999997980194;9;100 mA
104.049166737301;-0.79925537109375;-0.127532958984375;0.0899999997727718;10;100 mA
104.059166737276;-0.79986572265625;-0.124359130859375;0.0999999997475243;11;100 mA
104.069166737251;-0.799560546875;-0.121368408203125;0.109999999722277;12;100 mA
104.079166737225;-0.79925537109375;-0.120330810546875;0.119999999697029;13;100 mA
104.0891667372;-0.799560546875;-0.11865234375;0.129999999671782;14;100 mA
104.099166737175;-0.79986572265625;-0.11590576171875;0.139999999646534;15;100 mA
104.10916673715;-0.799560546875;-0.11468505859375;0.149999999621286;16;100 mA
104.119166737124;-0.799560546875;-0.113555908203125;0.159999999596039;17;100 mA
104.129166737099;-0.799560546875;-0.1129150390625;0.169999999570791;18;100 mA
104.139166737074;-0.79925537109375;-0.112335205078125;0.179999999545544;19;100 mA
104.149166737049;-0.799560546875;-0.1109619140625;0.189999999520296;20;100 mA
104.159166737023;-0.799560546875;-0.110137939453125;0.199999999495049;21;100 mA
104.169166736998;-0.799560546875;-0.1099853515625;0.209999999469801;22;100 mA
104.179166736973;-0.799560546875;-0.11083984375;0.219999999444553;23;100 mA
104.189166736948;-0.799560546875;-0.109100341796875;0.229999999419306;24;100 mA
104.199166736922;-0.79925537109375;-0.108428955078125;0.239999999394058;25;100 mA
104.209166736897;-0.79986572265625;-0.108612060546875;0.249999999368811;26;100 mA
104.219166736872;-0.79925537109375;-0.10772705078125;0.259999999343563;27;100 mA
104.229166736847;-0.799560546875;-0.108795166015625;0.269999999318316;28;100 mA
104.239166736821;-0.79986572265625;-0.10772705078125;0.279999999293068;29;100 mA
104.249166736796;-0.799560546875;-0.106964111328125;0.28999999926782;30;100 mA
104.259166736771;-0.79925537109375;-0.107391357421875;0.299999999242573;31;100 mA
104.269166736746;-0.799560546875;-0.10748291015625;0.309999999217325;32;100 mA
104.27916673672;-0.799560546875;-0.10736083984375;0.319999999192078;33;100 mA
104.289166736695;-0.79925537109375;-0.1063232421875;0.32999999916683;34;100 mA
104.29916673667;-0.79925537109375;-0.10601806640625;0.339999999141583;35;100 mA
104.309166736645;-0.79925537109375;-0.10516357421875;0.349999999116335;36;100 mA
104.319166736619;-0.79925537109375;-0.106170654296875;0.359999999091087;37;100 mA
104.329166736594;-0.799560546875;-0.1064453125;0.36999999906584;38;100 mA
104.339166736569;-0.79925537109375;-0.105224609375;0.379999999040592;39;100 mA
104.349166736544;-0.79925537109375;-0.105438232421875;0.389999999015345;40;100 mA
104.359166736518;-0.7989501953125;-0.104888916015625;0.399999998990097;41;100 mA
104.369166736493;-0.79986572265625;-0.10516357421875;0.40999999896485;42;100 mA
104.379166736468;-0.79925537109375;-0.10565185546875;0.419999998939602;43;100 mA
104.389166736443;-0.799560546875;-0.105194091796875;0.429999998914354;44;100 mA
104.399166736417;-0.799560546875;-0.105133056640625;0.439999998889107;45;100 mA
104.409166736392;-0.79986572265625;-0.105224609375;0.449999998863859;46;100 mA
104.419166736367;-0.79925537109375;-0.106536865234375;0.459999998838612;47;100 mA
104.429166736342;-0.799560546875;-0.105743408203125;0.469999998813364;48;100 mA
104.439166736316;-0.799560546875;-0.10565185546875;0.479999998788116;49;100 mA
104.449166736291;-0.799560546875;-0.105804443359375;0.489999998762869;50;100 mA
104.459166736266;-0.79986572265625;-0.104522705078125;0.499999998737621;51;100 mA
104.469166736241;-0.799560546875;-0.106048583984375;0.509999998712374;52;100 mA
104.479166736215;-0.79925537109375;-0.104827880859375;0.519999998687126;53;100 mA
104.48916673619;-0.7989501953125;-0.103973388671875;0.529999998661879;54;100 mA
104.499166736165;-0.79925537109375;-0.10430908203125;0.539999998636631;55;100 mA
104.50916673614;-0.799560546875;-0.1043701171875;0.549999998611383;56;100 mA
104.519166736114;-0.799560546875;-0.105133056640625;0.559999998586136;57;100 mA
104.529166736089;-0.799560546875;-0.10498046875;0.569999998560888;58;100 mA
104.539166736064;-0.799560546875;-0.104705810546875;0.579999998535641;59;100 mA
104.549166736039;-0.799560546875;-0.10418701171875;0.589999998510393;60;100 mA
104.559166736013;-0.799560546875;-0.10546875;0.599999998485146;61;100 mA
104.569166735988;-0.799560546875;-0.10595703125;0.609999998459898;62;100 mA
104.579166735963;-0.79925537109375;-0.1046142578125;0.61999999843465;63;100 mA
104.589166735938;-0.799560546875;-0.104827880859375;0.629999998409403;64;100 mA
104.599166735912;-0.79986572265625;-0.104248046875;0.639999998384155;65;100 mA
104.609166735887;-0.799560546875;-0.104705810546875;0.649999998358908;66;100 mA
104.619166735862;-0.79986572265625;-0.105621337890625;0.65999999833366;67;100 mA
104.629166735837;-0.799560546875;-0.105133056640625;0.669999998308413;68;100 mA
104.639166735812;-0.799560546875;-0.10516357421875;0.679999998283165;69;100 mA
104.649166735786;-0.79986572265625;-0.105072021484375;0.689999998257917;70;100 mA
104.659166735761;-0.79986572265625;-0.105865478515625;0.69999999823267;71;100 mA
104.669166735736;-0.79925537109375;-0.104736328125;0.709999998207422;72;100 mA
104.679166735711;-0.79925537109375;-0.104278564453125;0.719999998182175;73;100 mA
104.689166735685;-0.79986572265625;-0.10406494140625;0.729999998156927;74;100 mA
104.69916673566;-0.79925537109375;-0.102874755859375;0.73999999813168;75;100 mA
104.709166735635;-0.79925537109375;-0.104339599609375;0.749999998106432;76;100 mA
104.71916673561;-0.79925537109375;-0.103485107421875;0.759999998081184;77;100 mA
104.729166735584;-0.79925537109375;-0.102691650390625;0.769999998055937;78;100 mA
104.739166735559;-0.799560546875;-0.103118896484375;0.779999998030689;79;100 mA
104.749166735534;-0.79925537109375;-0.10345458984375;0.789999998005442;80;100 mA
104.759166735509;-0.799560546875;-0.104827880859375;0.799999997980194;81;100 mA
104.769166735483;-0.79986572265625;-0.105133056640625;0.809999997954947;82;100 mA
104.779166735458;-0.79925537109375;-0.10504150390625;0.819999997929699;83;100 mA
104.789166735433;-0.79925537109375;-0.10430908203125;0.829999997904451;84;100 mA
104.799166735408;-0.8001708984375;-0.1051025390625;0.839999997879204;85;100 mA
104.809166735382;-0.79925537109375;-0.105255126953125;0.849999997853956;86;100 mA
104.819166735357;-0.7989501953125;-0.103851318359375;0.859999997828709;87;100 mA
104.829166735332;-0.79986572265625;-0.103668212890625;0.869999997803461;88;100 mA
104.839166735307;-0.799560546875;-0.10357666015625;0.879999997778214;89;100 mA
104.849166735281;-0.79986572265625;-0.103912353515625;0.889999997752966;90;100 mA
104.859166735256;-0.79986572265625;-0.10479736328125;0.899999997727718;91;100 mA
104.869166735231;-0.79986572265625;-0.104034423828125;0.909999997702471;92;100 mA
104.879166735206;-0.79925537109375;-0.1041259765625;0.919999997677223;93;100 mA
104.88916673518;-0.7989501953125;-0.104522705078125;0.929999997651976;94;100 mA
104.899166735155;-0.799560546875;-0.10546875;0.939999997626728;95;100 mA
104.90916673513;-0.799560546875;-0.104766845703125;0.949999997601481;96;100 mA
104.919166735105;-0.799560546875;-0.104400634765625;0.959999997576233;97;100 mA
104.929166735079;-0.79925537109375;-0.10418701171875;0.969999997550985;98;100 mA
104.939166735054;-0.79986572265625;-0.103546142578125;0.979999997525738;99;100 mA
104.949166735029;-0.799560546875;-0.105865478515625;0.98999999750049;100;100 mA
104.959166735004;-0.7989501953125;-0.105560302734375;0.999999997475243;101;100 mA
104.969166734978;-0.799560546875;-0.10504150390625;1.00999999745;102;100 mA
104.979166734953;-0.799560546875;-0.1053466796875;1.01999999742475;103;100 mA
104.989166734928;-0.799560546875;-0.10455322265625;1.0299999973995;104;100 mA
104.999166734903;-0.79925537109375;-0.104888916015625;1.03999999737425;105;100 mA
105.009166734877;-0.8001708984375;-0.104522705078125;1.049999997349;106;100 mA
105.019166734852;-0.79925537109375;-0.104156494140625;1.05999999732376;107;100 mA
105.029166734827;-0.79925537109375;-0.10400390625;1.06999999729851;108;100 mA
105.039166734802;-0.799560546875;-0.104827880859375;1.07999999727326;109;100 mA
105.049166734776;-0.79925537109375;-0.10516357421875;1.08999999724801;110;100 mA
105.059166734751;-0.7989501953125;-0.103729248046875;1.09999999722277;111;100 mA
105.069166734726;-0.7989501953125;-0.1036376953125;1.10999999719752;112;100 mA
105.079166734701;-0.7989501953125;-0.10333251953125;1.11999999717227;113;100 mA
105.089166734675;-0.8001708984375;-0.103668212890625;1.12999999714702;114;100 mA
105.09916673465;-0.79986572265625;-0.1044921875;1.13999999712178;115;100 mA
105.109166734625;-0.79925537109375;-0.103302001953125;1.14999999709653;116;100 mA
105.1191667346;-0.7989501953125;-0.10308837890625;1.15999999707128;117;100 mA
105.129166734574;-0.799560546875;-0.10321044921875;1.16999999704603;118;100 mA
105.139166734549;-0.8001708984375;-0.10357666015625;1.17999999702079;119;100 mA
105.149166734524;-0.79986572265625;-0.10284423828125;1.18999999699554;120;100 mA
105.159166734499;-0.799560546875;-0.102325439453125;1.19999999697029;121;100 mA
105.169166734473;-0.7989501953125;-0.102294921875;1.20999999694504;122;100 mA
105.179166734448;-0.799560546875;-0.1016845703125;1.2199999969198;123;100 mA
105.189166734423;-0.79986572265625;-0.103271484375;1.22999999689455;124;100 mA
105.199166734398;-0.799560546875;-0.101959228515625;1.2399999968693;125;100 mA
105.209166734372;-0.799560546875;-0.10150146484375;1.24999999684405;126;100 mA
105.219166734347;-0.799560546875;-0.102294921875;1.25999999681881;127;100 mA
105.229166734322;-0.799560546875;-0.1019287109375;1.26999999679356;128;100 mA
105.239166734297;-0.799560546875;-0.1024169921875;1.27999999676831;129;100 mA
105.249166734271;-0.8001708984375;-0.101959228515625;1.28999999674306;130;100 mA
105.259166734246;-0.7989501953125;-0.101287841796875;1.29999999671782;131;100 mA
105.269166734221;-0.79986572265625;-0.100830078125;1.30999999669257;132;100 mA
105.279166734196;-0.799560546875;-0.1014404296875;1.31999999666732;133;100 mA
105.28916673417;-0.799560546875;-0.101470947265625;1.32999999664207;134;100 mA
105.299166734145;-0.79986572265625;-0.1004638671875;1.33999999661683;135;100 mA
105.30916673412;-0.799560546875;-0.10076904296875;1.34999999659158;136;100 mA
105.319166734095;-0.79986572265625;-0.100860595703125;1.35999999656633;137;100 mA
105.329166734069;-0.79925537109375;-0.101287841796875;1.36999999654108;138;100 mA
105.339166734044;-0.79925537109375;-0.10198974609375;1.37999999651583;139;100 mA
105.349166734019;-0.79925537109375;-0.1005859375;1.38999999649059;140;100 mA
105.359166733994;-0.79925537109375;-0.100250244140625;1.39999999646534;141;100 mA
105.369166733968;-0.799560546875;-0.100677490234375;1.40999999644009;142;100 mA
105.379166733943;-0.79925537109375;-0.101226806640625;1.41999999641484;143;100 mA
105.389166733918;-0.79925537109375;-0.10107421875;1.4299999963896;144;100 mA
105.399166733893;-0.799560546875;-0.100860595703125;1.43999999636435;145;100 mA
105.409166733867;-0.79925537109375;-0.10101318359375;1.4499999963391;146;100 mA
105.419166733842;-0.79925537109375;-0.100555419921875;1.45999999631385;147;100 mA
105.429166733817;-0.799560546875;-0.1021728515625;1.46999999628861;148;100 mA
105.439166733792;-0.799560546875;-0.101348876953125;1.47999999626336;149;100 mA
105.449166733766;-0.79986572265625;-0.10064697265625;1.48999999623811;150;100 mA
105.459166733741;-0.79986572265625;-0.100982666015625;1.49999999621286;151;100 mA
105.469166733716;-0.79986572265625;-0.100250244140625;1.50999999618762;152;100 mA
105.479166733691;-0.79925537109375;-0.1007080078125;1.51999999616237;153;100 mA
105.489166733665;-0.79925537109375;-0.10028076171875;1.52999999613712;154;100 mA
105.49916673364;-0.7989501953125;-0.09979248046875;1.53999999611187;155;100 mA
105.509166733615;-0.799560546875;-0.099853515625;1.54999999608663;156;100 mA
105.51916673359;-0.79925537109375;-0.100830078125;1.55999999606138;157;100 mA
105.529166733564;-0.79925537109375;-0.100982666015625;1.56999999603613;158;100 mA
105.539166733539;-0.79925537109375;-0.100067138671875;1.57999999601088;159;100 mA
105.549166733514;-0.79925537109375;-0.100433349609375;1.58999999598564;160;100 mA
105.559166733489;-0.79986572265625;-0.100311279296875;1.59999999596039;161;100 mA
105.569166733463;-0.79925537109375;-0.100341796875;1.60999999593514;162;100 mA
105.579166733438;-0.799560546875;-0.1005859375;1.61999999590989;163;100 mA
105.589166733413;-0.799560546875;-0.099151611328125;1.62999999588465;164;100 mA
105.599166733388;-0.79986572265625;-0.0992431640625;1.6399999958594;165;100 mA
105.609166733362;-0.799560546875;-0.099822998046875;1.64999999583415;166;100 mA
105.619166733337;-0.79925537109375;-0.100250244140625;1.6599999958089;167;100 mA
105.629166733312;-0.79925537109375;-0.100067138671875;1.66999999578366;168;100 mA
105.639166733287;-0.79986572265625;-0.099639892578125;1.67999999575841;169;100 mA
105.649166733261;-0.79986572265625;-0.099609375;1.68999999573316;170;100 mA
105.659166733236;-0.79925537109375;-0.09930419921875;1.69999999570791;171;100 mA
105.669166733211;-0.799560546875;-0.10028076171875;1.70999999568267;172;100 mA
105.679166733186;-0.79925537109375;-0.098968505859375;1.71999999565742;173;100 mA
105.689166733161;-0.799560546875;-0.098541259765625;1.72999999563217;174;100 mA
105.699166733135;-0.799560546875;-0.09954833984375;1.73999999560692;175;100 mA
105.70916673311;-0.799560546875;-0.099334716796875;1.74999999558167;176;100 mA
105.719166733085;-0.79925537109375;-0.100128173828125;1.75999999555643;177;100 mA
105.72916673306;-0.799560546875;-0.10009765625;1.76999999553118;178;100 mA
105.739166733034;-0.79925537109375;-0.09979248046875;1.77999999550593;179;100 mA
105.749166733009;-0.799560546875;-0.099945068359375;1.78999999548068;180;100 mA
105.759166732984;-0.79986572265625;-0.100433349609375;1.79999999545544;181;100 mA
105.769166732959;-0.799560546875;-0.100067138671875;1.80999999543019;182;100 mA
105.779166732933;-0.799560546875;-0.098876953125;1.81999999540494;183;100 mA
105.789166732908;-0.799560546875;-0.098663330078125;1.82999999537969;184;100 mA
105.799166732883;-0.79986572265625;-0.098480224609375;1.83999999535445;185;100 mA
105.809166732858;-0.7989501953125;-0.098724365234375;1.8499999953292;186;100 mA
105.819166732832;-0.79986572265625;-0.0992431640625;1.85999999530395;187;100 mA
105.829166732807;-0.79986572265625;-0.09771728515625;1.8699999952787;188;100 mA
105.839166732782;-0.799560546875;-0.097625732421875;1.87999999525346;189;100 mA
105.849166732757;-0.799560546875;-0.09771728515625;1.88999999522821;190;100 mA
105.859166732731;-0.79925537109375;-0.09796142578125;1.89999999520296;191;100 mA
105.869166732706;-0.799560546875;-0.097808837890625;1.90999999517771;192;100 mA
105.879166732681;-0.799560546875;-0.097442626953125;1.91999999515247;193;100 mA
105.889166732656;-0.799560546875;-0.097503662109375;1.92999999512722;194;100 mA
105.89916673263;-0.799560546875;-0.097198486328125;1.93999999510197;195;100 mA
105.909166732605;-0.799560546875;-0.098541259765625;1.94999999507672;196;100 mA
105.91916673258;-0.7989501953125;-0.0975341796875;1.95999999505148;197;100 mA
105.929166732555;-0.79986572265625;-0.097015380859375;1.96999999502623;198;100 mA
105.939166732529;-0.799560546875;-0.09747314453125;1.97999999500098;199;100 mA
105.949166732504;-0.79925537109375;-0.09686279296875;1.98999999497573;200;100 mA
105.959166732479;-0.79925537109375;-0.097442626953125;1.99999999495049;201;100 mA
105.969166732454;-0.79925537109375;-0.09722900390625;2.00999999492524;202;100 mA
105.979166732428;-0.799560546875;-0.096710205078125;2.01999999489999;203;100 mA
105.989166732403;-0.79925537109375;-0.096923828125;2.02999999487474;204;100 mA
105.999166732378;-0.79925537109375;-0.0977783203125;2.0399999948495;205;100 mA
106.009166732353;-0.799560546875;-0.098236083984375;2.04999999482425;206;100 mA
106.019166732327;-0.79925537109375;-0.09771728515625;2.059999994799;207;100 mA
106.029166732302;-0.799560546875;-0.09796142578125;2.06999999477375;208;100 mA
106.039166732277;-0.79986572265625;-0.098052978515625;2.0799999947485;209;100 mA
106.049166732252;-0.79925537109375;-0.098724365234375;2.08999999472326;210;100 mA
106.059166732226;-0.799560546875;-0.099334716796875;2.09999999469801;211;100 mA
106.069166732201;-0.79925537109375;-0.09820556640625;2.10999999467276;212;100 mA
106.079166732176;-0.799560546875;-0.098480224609375;2.11999999464751;213;100 mA
106.089166732151;-0.799560546875;-0.09918212890625;2.12999999462227;214;100 mA
106.099166732125;-0.79925537109375;-0.099365234375;2.13999999459702;215;100 mA
106.1091667321;-0.79925537109375;-0.099151611328125;2.14999999457177;216;100 mA
106.119166732075;-0.799560546875;-0.09844970703125;2.15999999454652;217;100 mA
106.12916673205;-0.8001708984375;-0.09844970703125;2.16999999452128;218;100 mA
106.139166732024;-0.79925537109375;-0.098358154296875;2.17999999449603;219;100 mA
106.149166731999;-0.79986572265625;-0.099578857421875;2.18999999447078;220;100 mA
106.159166731974;-0.799560546875;-0.098724365234375;2.19999999444553;221;100 mA
106.169166731949;-0.79986572265625;-0.097930908203125;2.20999999442029;222;100 mA
106.179166731923;-0.799560546875;-0.098419189453125;2.21999999439504;223;100 mA
106.189166731898;-0.799560546875;-0.0980224609375;2.22999999436979;224;100 mA
106.199166731873;-0.799560546875;-0.09893798828125;2.23999999434454;225;100 mA
106.209166731848;-0.7989501953125;-0.09881591796875;2.2499999943193;226;100 mA
106.219166731822;-0.799560546875;-0.098388671875;2.25999999429405;227;100 mA
106.229166731797;-0.799560546875;-0.098663330078125;2.2699999942688;228;100 mA
106.239166731772;-0.799560546875;-0.099273681640625;2.27999999424355;229;100 mA
106.249166731747;-0.799560546875;-0.099212646484375;2.28999999421831;230;100 mA
106.259166731721;-0.79925537109375;-0.0982666015625;2.29999999419306;231;100 mA
106.269166731696;-0.79925537109375;-0.098114013671875;2.30999999416781;232;100 mA
106.279166731671;-0.79986572265625;-0.097686767578125;2.31999999414256;233;100 mA
106.289166731646;-0.79986572265625;-0.097900390625;2.32999999411732;234;100 mA
106.29916673162;-0.79925537109375;-0.09820556640625;2.33999999409207;235;100 mA
106.309166731595;-0.799560546875;-0.096771240234375;2.34999999406682;236;100 mA
106.31916673157;-0.799560546875;-0.096771240234375;2.35999999404157;237;100 mA
106.329166731545;-0.79986572265625;-0.09698486328125;2.36999999401633;238;100 mA
106.339166731519;-0.7989501953125;-0.0970458984375;2.37999999399108;239;100 mA
106.349166731494;-0.799560546875;-0.097137451171875;2.38999999396583;240;100 mA
106.359166731469;-0.7989501953125;-0.09661865234375;2.39999999394058;241;100 mA
106.369166731444;-0.799560546875;-0.096649169921875;2.40999999391533;242;100 mA
106.379166731418;-0.799560546875;-0.096771240234375;2.41999999389009;243;100 mA
106.389166731393;-0.79925537109375;-0.0980224609375;2.42999999386484;244;100 mA
106.399166731368;-0.79925537109375;-0.097137451171875;2.43999999383959;245;100 mA
106.409166731343;-0.799560546875;-0.096649169921875;2.44999999381434;246;100 mA
106.419166731317;-0.79986572265625;-0.096923828125;2.4599999937891;247;100 mA
106.429166731292;-0.799560546875;-0.09649658203125;2.46999999376385;248;100 mA
106.439166731267;-0.79925537109375;-0.09771728515625;2.4799999937386;249;100 mA
106.449166731242;-0.79925537109375;-0.097320556640625;2.48999999371335;250;100 mA
106.459166731216;-0.799560546875;-0.09661865234375;2.49999999368811;251;100 mA
106.469166731191;-0.799560546875;-0.096588134765625;2.50999999366286;252;100 mA
106.479166731166;-0.79986572265625;-0.0968017578125;2.51999999363761;253;100 mA
106.489166731141;-0.79925537109375;-0.096832275390625;2.52999999361236;254;100 mA
106.499166731115;-0.799560546875;-0.096038818359375;2.53999999358712;255;100 mA
106.50916673109;-0.79925537109375;-0.09576416015625;2.54999999356187;256;100 mA
106.519166731065;-0.799560546875;-0.095733642578125;2.55999999353662;257;100 mA
106.52916673104;-0.7989501953125;-0.0963134765625;2.56999999351137;258;100 mA
106.539166731014;-0.799560546875;-0.09661865234375;2.57999999348613;259;100 mA
106.549166730989;-0.799560546875;-0.095184326171875;2.58999999346088;260;100 mA
106.559166730964;-0.79925537109375;-0.095458984375;2.59999999343563;261;100 mA
106.569166730939;-0.79986572265625;-0.096160888671875;2.60999999341038;262;100 mA
106.579166730913;-0.799560546875;-0.096954345703125;2.61999999338514;263;100 mA
106.589166730888;-0.79986572265625;-0.097686767578125;2.62999999335989;264;100 mA
106.599166730863;-0.79925537109375;-0.097381591796875;2.63999999333464;265;100 mA
106.609166730838;-0.79986572265625;-0.097320556640625;2.64999999330939;266;100 mA
106.619166730812;-0.79925537109375;-0.097412109375;2.65999999328415;267;100 mA
106.629166730787;-0.799560546875;-0.098388671875;2.6699999932589;268;100 mA
106.639166730762;-0.79986572265625;-0.09735107421875;2.67999999323365;269;100 mA
106.649166730737;-0.79925537109375;-0.0965576171875;2.6899999932084;270;100 mA
106.659166730711;-0.799560546875;-0.096710205078125;2.69999999318316;271;100 mA
106.669166730686;-0.79925537109375;-0.096343994140625;2.70999999315791;272;100 mA
106.679166730661;-0.799560546875;-0.09747314453125;2.71999999313266;273;100 mA
106.689166730636;-0.79986572265625;-0.097076416015625;2.72999999310741;274;100 mA
106.699166730611;-0.79925537109375;-0.096405029296875;2.73999999308217;275;100 mA
106.709166730585;-0.799560546875;-0.0966796875;2.74999999305692;276;100 mA
106.71916673056;-0.799560546875;-0.096954345703125;2.75999999303167;277;100 mA
106.729166730535;-0.79925537109375;-0.0970458984375;2.76999999300642;278;100 mA
106.73916673051;-0.799560546875;-0.0963134765625;2.77999999298117;279;100 mA
106.749166730484;-0.79925537109375;-0.095977783203125;2.78999999295593;280;100 mA
106.759166730459;-0.79925537109375;-0.0955810546875;2.79999999293068;281;100 mA
106.769166730434;-0.799560546875;-0.09637451171875;2.80999999290543;282;100 mA
106.779166730409;-0.799560546875;-0.096954345703125;2.81999999288018;283;100 mA
106.789166730383;-0.799560546875;-0.095855712890625;2.82999999285494;284;100 mA
106.799166730358;-0.7989501953125;-0.09588623046875;2.83999999282969;285;100 mA
106.809166730333;-0.7989501953125;-0.095916748046875;2.84999999280444;286;100 mA
106.819166730308;-0.79925537109375;-0.095977783203125;2.85999999277919;287;100 mA
106.829166730282;-0.799560546875;-0.09637451171875;2.86999999275395;288;100 mA
106.839166730257;-0.799560546875;-0.096099853515625;2.8799999927287;289;100 mA
106.849166730232;-0.79925537109375;-0.0963134765625;2.88999999270345;290;100 mA
106.859166730207;-0.79986572265625;-0.096527099609375;2.8999999926782;291;100 mA
106.869166730181;-0.799560546875;-0.0975341796875;2.90999999265296;292;100 mA
106.879166730156;-0.79925537109375;-0.09698486328125;2.91999999262771;293;100 mA
106.889166730131;-0.799560546875;-0.0965576171875;2.92999999260246;294;100 mA
106.899166730106;-0.799560546875;-0.096771240234375;2.93999999257721;295;100 mA
106.90916673008;-0.79925537109375;-0.09637451171875;2.94999999255197;296;100 mA
106.919166730055;-0.79925537109375;-0.09747314453125;2.95999999252672;297;100 mA
106.92916673003;-0.799560546875;-0.09710693359375;2.96999999250147;298;100 mA
106.939166730005;-0.799560546875;-0.0963134765625;2.97999999247622;299;100 mA
106.949166729979;-0.79925537109375;-0.09661865234375;2.98999999245098;300;100 mA
106.959166729954;-0.79986572265625;-0.096649169921875;2.99999999242573;301;100 mA
106.969166729929;-0.799560546875;-0.09661865234375;3.00999999240048;302;100 mA
106.979166729904;-0.799560546875;-0.095947265625;3.01999999237523;303;100 mA
106.989166729878;-0.79925537109375;-0.095977783203125;3.02999999234999;304;100 mA
106.999166729853;-0.799560546875;-0.09625244140625;3.03999999232474;305;100 mA
107.009166729828;-0.799560546875;-0.09735107421875;3.04999999229949;306;100 mA
107.019166729803;-0.799560546875;-0.0980224609375;3.05999999227424;307;100 mA
107.029166729777;-0.799560546875;-0.0966796875;3.069999992249;308;100 mA
107.039166729752;-0.799560546875;-0.096405029296875;3.07999999222375;309;100 mA
107.049166729727;-0.799560546875;-0.096221923828125;3.0899999921985;310;100 mA
107.059166729702;-0.799560546875;-0.096221923828125;3.09999999217325;311;100 mA
107.069166729676;-0.799560546875;-0.096282958984375;3.109999992148;312;100 mA
107.079166729651;-0.799560546875;-0.095367431640625;3.11999999212276;313;100 mA
107.089166729626;-0.79986572265625;-0.095123291015625;3.12999999209751;314;100 mA
107.099166729601;-0.799560546875;-0.095367431640625;3.13999999207226;315;100 mA
107.109166729575;-0.79986572265625;-0.09619140625;3.14999999204701;316;100 mA
107.11916672955;-0.799560546875;-0.095428466796875;3.15999999202177;317;100 mA
107.129166729525;-0.799560546875;-0.09478759765625;3.16999999199652;318;100 mA
107.1391667295;-0.799560546875;-0.0948486328125;3.17999999197127;319;100 mA
107.149166729474;-0.79925537109375;-0.094482421875;3.18999999194602;320;100 mA
107.159166729449;-0.799560546875;-0.095672607421875;3.19999999192078;321;100 mA
107.169166729424;-0.79986572265625;-0.095123291015625;3.20999999189553;322;100 mA
107.179166729399;-0.79925537109375;-0.0946044921875;3.21999999187028;323;100 mA
107.189166729373;-0.799560546875;-0.09521484375;3.22999999184503;324;100 mA
107.199166729348;-0.799560546875;-0.095611572265625;3.23999999181979;325;100 mA
107.209166729323;-0.799560546875;-0.096221923828125;3.24999999179454;326;100 mA
107.219166729298;-0.799560546875;-0.095947265625;3.25999999176929;327;100 mA
107.229166729272;-0.799560546875;-0.096038818359375;3.26999999174404;328;100 mA
107.239166729247;-0.79986572265625;-0.09619140625;3.2799999917188;329;100 mA
107.249166729222;-0.79925537109375;-0.097259521484375;3.28999999169355;330;100 mA
107.259166729197;-0.79925537109375;-0.0980224609375;3.2999999916683;331;100 mA
107.269166729171;-0.799560546875;-0.096771240234375;3.30999999164305;332;100 mA
107.279166729146;-0.79986572265625;-0.0966796875;3.31999999161781;333;100 mA
107.289166729121;-0.79925537109375;-0.09649658203125;3.32999999159256;334;100 mA
107.299166729096;-0.799560546875;-0.0968017578125;3.33999999156731;335;100 mA
107.30916672907;-0.79925537109375;-0.097442626953125;3.34999999154206;336;100 mA
107.319166729045;-0.799560546875;-0.09661865234375;3.35999999151682;337;100 mA
107.32916672902;-0.799560546875;-0.09625244140625;3.36999999149157;338;100 mA
107.339166728995;-0.79986572265625;-0.096282958984375;3.37999999146632;339;100 mA
107.349166728969;-0.79925537109375;-0.096923828125;3.38999999144107;340;100 mA
107.359166728944;-0.799560546875;-0.09637451171875;3.39999999141583;341;100 mA
107.369166728919;-0.799560546875;-0.095977783203125;3.40999999139058;342;100 mA
107.379166728894;-0.799560546875;-0.09600830078125;3.41999999136533;343;100 mA
107.389166728868;-0.799560546875;-0.095703125;3.42999999134008;344;100 mA
107.399166728843;-0.79925537109375;-0.096954345703125;3.43999999131483;345;100 mA
107.409166728818;-0.799560546875;-0.09625244140625;3.44999999128959;346;100 mA
107.419166728793;-0.79986572265625;-0.095611572265625;3.45999999126434;347;100 mA
107.429166728767;-0.79925537109375;-0.09588623046875;3.46999999123909;348;100 mA
107.439166728742;-0.799560546875;-0.0960693359375;3.47999999121384;349;100 mA
107.449166728717;-0.799560546875;-0.096710205078125;3.4899999911886;350;100 mA
107.459166728692;-0.79925537109375;-0.0965576171875;3.49999999116335;351;100 mA
107.469166728666;-0.799560546875;-0.096405029296875;3.5099999911381;352;100 mA
107.479166728641;-0.79986572265625;-0.0963134765625;3.51999999111285;353;100 mA
107.489166728616;-0.799560546875;-0.09735107421875;3.52999999108761;354;100 mA
107.499166728591;-0.79925537109375;-0.098052978515625;3.53999999106236;355;100 mA
107.509166728565;-0.799560546875;-0.09710693359375;3.54999999103711;356;100 mA
107.51916672854;-0.79925537109375;-0.09716796875;3.55999999101186;357;100 mA
107.529166728515;-0.79925537109375;-0.09722900390625;3.56999999098662;358;100 mA
107.53916672849;-0.799560546875;-0.097564697265625;3.57999999096137;359;100 mA
107.549166728464;-0.799560546875;-0.098114013671875;3.58999999093612;360;100 mA
107.559166728439;-0.79925537109375;-0.09735107421875;3.59999999091087;361;100 mA
107.569166728414;-0.79986572265625;-0.0970458984375;3.60999999088563;362;100 mA
107.579166728389;-0.79925537109375;-0.09716796875;3.61999999086038;363;100 mA
107.589166728363;-0.80047607421875;-0.097900390625;3.62999999083513;364;100 mA
107.599166728338;-0.79986572265625;-0.097625732421875;3.63999999080988;365;100 mA
107.609166728313;-0.799560546875;-0.09722900390625;3.64999999078464;366;100 mA
107.619166728288;-0.799560546875;-0.097076416015625;3.65999999075939;367;100 mA
107.629166728262;-0.79925537109375;-0.096527099609375;3.66999999073414;368;100 mA
107.639166728237;-0.79986572265625;-0.097625732421875;3.67999999070889;369;100 mA
107.649166728212;-0.79925537109375;-0.097259521484375;3.68999999068365;370;100 mA
107.659166728187;-0.79925537109375;-0.0966796875;3.6999999906584;371;100 mA
107.669166728161;-0.799560546875;-0.096710205078125;3.70999999063315;372;100 mA
107.679166728136;-0.79986572265625;-0.09613037109375;3.7199999906079;373;100 mA
107.689166728111;-0.799560546875;-0.096221923828125;3.72999999058266;374;100 mA
107.699166728086;-0.799560546875;-0.095703125;3.73999999055741;375;100 mA
107.70916672806;-0.79925537109375;-0.095306396484375;3.74999999053216;376;100 mA
107.719166728035;-0.79925537109375;-0.0950927734375;3.75999999050691;377;100 mA
107.72916672801;-0.799560546875;-0.095733642578125;3.76999999048167;378;100 mA
107.739166727985;-0.799560546875;-0.09576416015625;3.77999999045642;379;100 mA
107.74916672796;-0.79925537109375;-0.094818115234375;3.78999999043117;380;100 mA
107.759166727934;-0.79986572265625;-0.094879150390625;3.79999999040592;381;100 mA
107.769166727909;-0.7989501953125;-0.094940185546875;3.80999999038067;382;100 mA
107.779166727884;-0.799560546875;-0.095428466796875;3.81999999035543;383;100 mA
107.789166727859;-0.799560546875;-0.0960693359375;3.82999999033018;384;100 mA
107.799166727833;-0.79986572265625;-0.09521484375;3.83999999030493;385;100 mA
107.809166727808;-0.7989501953125;-0.09503173828125;3.84999999027968;386;100 mA
107.819166727783;-0.79925537109375;-0.0953369140625;3.85999999025444;387;100 mA
107.829166727758;-0.799560546875;-0.09613037109375;3.86999999022919;388;100 mA
107.839166727732;-0.79925537109375;-0.096038818359375;3.87999999020394;389;100 mA
107.849166727707;-0.79925537109375;-0.095611572265625;3.88999999017869;390;100 mA
107.859166727682;-0.79986572265625;-0.095428466796875;3.89999999015345;391;100 mA
107.869166727657;-0.79925537109375;-0.094940185546875;3.9099999901282;392;100 mA
107.879166727631;-0.799560546875;-0.09576416015625;3.91999999010295;393;100 mA
107.889166727606;-0.799560546875;-0.095001220703125;3.9299999900777;394;100 mA
107.899166727581;-0.79925537109375;-0.0943603515625;3.93999999005246;395;100 mA
107.909166727556;-0.79925537109375;-0.09466552734375;3.94999999002721;396;100 mA
107.91916672753;-0.8001708984375;-0.094573974609375;3.95999999000196;397;100 mA
107.929166727505;-0.799560546875;-0.095001220703125;3.96999998997671;398;100 mA
107.93916672748;-0.799560546875;-0.09478759765625;3.97999998995147;399;100 mA
107.949166727455;-0.79925537109375;-0.0946044921875;3.98999998992622;400;100 mA
107.959166727429;-0.799560546875;-0.094573974609375;3.99999998990097;401;100 mA
107.969166727404;-0.799560546875;-0.09539794921875;4.00999998987572;402;100 mA
107.979166727379;-0.7989501953125;-0.095733642578125;4.01999998985048;403;100 mA
107.989166727354;-0.79986572265625;-0.09478759765625;4.02999998982523;404;100 mA
107.999166727328;-0.799560546875;-0.0946044921875;4.03999998979998;405;100 mA
108.009166727303;-0.8001708984375;-0.094390869140625;4.04999998977473;406;100 mA
108.019166727278;-0.7989501953125;-0.095001220703125;4.05999998974949;407;100 mA
108.029166727253;-0.79925537109375;-0.095672607421875;4.06999998972424;408;100 mA
108.039166727227;-0.79864501953125;-0.0947265625;4.07999998969899;409;100 mA
108.049166727202;-0.79925537109375;-0.094573974609375;4.08999998967374;410;100 mA
108.059166727177;-0.79986572265625;-0.0947265625;4.0999999896485;411;100 mA
108.069166727152;-0.799560546875;-0.09527587890625;4.10999998962325;412;100 mA
108.079166727126;-0.79925537109375;-0.09521484375;4.119999989598;413;100 mA
108.089166727101;-0.799560546875;-0.094696044921875;4.12999998957275;414;100 mA
108.099166727076;-0.79925537109375;-0.094390869140625;4.1399999895475;415;100 mA
108.109166727051;-0.79925537109375;-0.094207763671875;4.14999998952226;416;100 mA
108.119166727025;-0.799560546875;-0.0955810546875;4.15999998949701;417;100 mA
108.129166727;-0.799560546875;-0.0950927734375;4.16999998947176;418;100 mA
108.139166726975;-0.799560546875;-0.094635009765625;4.17999998944651;419;100 mA
108.14916672695;-0.79925537109375;-0.09490966796875;4.18999998942127;420;100 mA
108.159166726924;-0.799560546875;-0.094757080078125;4.19999998939602;421;100 mA
108.169166726899;-0.799560546875;-0.095458984375;4.20999998937077;422;100 mA
108.179166726874;-0.799560546875;-0.095428466796875;4.21999998934552;423;100 mA
108.189166726849;-0.79925537109375;-0.094970703125;4.22999998932028;424;100 mA
108.199166726823;-0.79925537109375;-0.094757080078125;4.23999998929503;425;100 mA
108.209166726798;-0.799560546875;-0.095245361328125;4.24999998926978;426;100 mA
108.219166726773;-0.79925537109375;-0.095123291015625;4.25999998924453;427;100 mA
108.229166726748;-0.79925537109375;-0.094207763671875;4.26999998921929;428;100 mA
108.239166726722;-0.79925537109375;-0.09393310546875;4.27999998919404;429;100 mA
108.249166726697;-0.799560546875;-0.0936279296875;4.28999998916879;430;100 mA
108.259166726672;-0.79986572265625;-0.09429931640625;4.29999998914354;431;100 mA
108.269166726647;-0.79925537109375;-0.09515380859375;4.3099999891183;432;100 mA
108.279166726621;-0.79986572265625;-0.094451904296875;4.31999998909305;433;100 mA
108.289166726596;-0.79925537109375;-0.0941162109375;4.3299999890678;434;100 mA
108.299166726571;-0.7989501953125;-0.09405517578125;4.33999998904255;435;100 mA
108.309166726546;-0.79986572265625;-0.09429931640625;4.34999998901731;436;100 mA
108.31916672652;-0.79986572265625;-0.093994140625;4.35999998899206;437;100 mA
108.329166726495;-0.7989501953125;-0.09344482421875;4.36999998896681;438;100 mA
108.33916672647;-0.79986572265625;-0.093017578125;4.37999998894156;439;100 mA
108.349166726445;-0.8001708984375;-0.09259033203125;4.38999998891632;440;100 mA
108.359166726419;-0.79925537109375;-0.093475341796875;4.39999998889107;441;100 mA
108.369166726394;-0.799560546875;-0.092987060546875;4.40999998886582;442;100 mA
108.379166726369;-0.7989501953125;-0.092681884765625;4.41999998884057;443;100 mA
108.389166726344;-0.7989501953125;-0.093109130859375;4.42999998881533;444;100 mA
108.399166726318;-0.799560546875;-0.0928955078125;4.43999998879008;445;100 mA
108.409166726293;-0.799560546875;-0.093353271484375;4.44999998876483;446;100 mA
108.419166726268;-0.79986572265625;-0.093017578125;4.45999998873958;447;100 mA
108.429166726243;-0.7989501953125;-0.09246826171875;4.46999998871433;448;100 mA
108.439166726217;-0.79925537109375;-0.092498779296875;4.47999998868909;449;100 mA
108.449166726192;-0.799560546875;-0.092987060546875;4.48999998866384;450;100 mA
108.459166726167;-0.799560546875;-0.092926025390625;4.49999998863859;451;100 mA
108.469166726142;-0.79925537109375;-0.092437744140625;4.50999998861334;452;100 mA
108.479166726116;-0.79925537109375;-0.092559814453125;4.5199999885881;453;100 mA
108.489166726091;-0.79986572265625;-0.092498779296875;4.52999998856285;454;100 mA
108.499166726066;-0.799560546875;-0.0928955078125;4.5399999885376;455;100 mA
108.509166726041;-0.79925537109375;-0.09320068359375;4.54999998851235;456;100 mA
108.519166726015;-0.79925537109375;-0.09222412109375;4.55999998848711;457;100 mA
108.52916672599;-0.79925537109375;-0.0921630859375;4.56999998846186;458;100 mA
108.539166725965;-0.799560546875;-0.092132568359375;4.57999998843661;459;100 mA
108.54916672594;-0.799560546875;-0.0921630859375;4.58999998841136;460;100 mA
108.559166725914;-0.799560546875;-0.09185791015625;4.59999998838612;461;100 mA
108.569166725889;-0.79986572265625;-0.09130859375;4.60999998836087;462;100 mA
108.579166725864;-0.79925537109375;-0.091156005859375;4.61999998833562;463;100 mA
108.589166725839;-0.79925537109375;-0.0911865234375;4.62999998831037;464;100 mA
108.599166725813;-0.799560546875;-0.092193603515625;4.63999998828513;465;100 mA
108.609166725788;-0.799560546875;-0.09149169921875;4.64999998825988;466;100 mA
108.619166725763;-0.79925537109375;-0.09124755859375;4.65999998823463;467;100 mA
108.629166725738;-0.79925537109375;-0.09136962890625;4.66999998820938;468;100 mA
108.639166725712;-0.799560546875;-0.09100341796875;4.67999998818414;469;100 mA
108.649166725687;-0.799560546875;-0.091522216796875;4.68999998815889;470;100 mA
108.659166725662;-0.79925537109375;-0.091522216796875;4.69999998813364;471;100 mA
108.669166725637;-0.79986572265625;-0.0914306640625;4.70999998810839;472;100 mA
108.679166725611;-0.799560546875;-0.0916748046875;4.71999998808315;473;100 mA
108.689166725586;-0.79925537109375;-0.091949462890625;4.7299999880579;474;100 mA
108.699166725561;-0.79925537109375;-0.09161376953125;4.73999998803265;475;100 mA
108.709166725536;-0.8001708984375;-0.090972900390625;4.7499999880074;476;100 mA
108.71916672551;-0.799560546875;-0.090728759765625;4.75999998798216;477;100 mA
108.729166725485;-0.79986572265625;-0.090362548828125;4.76999998795691;478;100 mA
108.73916672546;-0.79925537109375;-0.090789794921875;4.77999998793166;479;100 mA
108.749166725435;-0.799560546875;-0.091278076171875;4.78999998790641;480;100 mA
108.75916672541;-0.79986572265625;-0.0906982421875;4.79999998788116;481;100 mA
108.769166725384;-0.79986572265625;-0.09075927734375;4.80999998785592;482;100 mA
108.779166725359;-0.7989501953125;-0.090850830078125;4.81999998783067;483;100 mA
108.789166725334;-0.799560546875;-0.090972900390625;4.82999998780542;484;100 mA
108.799166725309;-0.79986572265625;-0.091033935546875;4.83999998778017;485;100 mA
108.809166725283;-0.79925537109375;-0.090728759765625;4.84999998775493;486;100 mA
108.819166725258;-0.799560546875;-0.090911865234375;4.85999998772968;487;100 mA
108.829166725233;-0.799560546875;-0.0908203125;4.86999998770443;488;100 mA
108.839166725208;-0.79986572265625;-0.091400146484375;4.87999998767918;489;100 mA
108.849166725182;-0.79925537109375;-0.0906982421875;4.88999998765394;490;100 mA
108.859166725157;-0.799560546875;-0.09039306640625;4.89999998762869;491;100 mA
108.869166725132;-0.799560546875;-0.090545654296875;4.90999998760344;492;100 mA
108.879166725107;-0.8001708984375;-0.090118408203125;4.91999998757819;493;100 mA
108.889166725081;-0.79925537109375;-0.090789794921875;4.92999998755295;494;100 mA
108.899166725056;-0.79925537109375;-0.090576171875;4.9399999875277;495;100 mA
108.909166725031;-0.79986572265625;-0.090240478515625;4.94999998750245;496;100 mA
108.919166725006;-0.79864501953125;-0.090484619140625;4.9599999874772;497;100 mA
108.92916672498;-0.799560546875;-0.0909423828125;4.96999998745196;498;100 mA
108.939166724955;-0.799560546875;-0.0909423828125;4.97999998742671;499;100 mA
108.94916672493;-0.799560546875;-0.09063720703125;4.98999998740146;500;100 mA
108.959166724905;-0.799560546875;-0.090606689453125;4.99999998737621;501;100 mA
108.969166724879;-0.8001708984375;-0.090362548828125;5.00999998735097;502;100 mA
108.979166724854;-0.7989501953125;-0.090911865234375;5.01999998732572;503;100 mA
108.989166724829;-0.799560546875;-0.091461181640625;5.02999998730047;504;100 mA
108.999166724804;-0.79925537109375;-0.090850830078125;5.03999998727522;505;100 mA
109.009166724778;-0.79986572265625;-0.09100341796875;5.04999998724998;506;100 mA
109.019166724753;-0.799560546875;-0.091064453125;5.05999998722473;507;100 mA
109.029166724728;-0.799560546875;-0.0911865234375;5.06999998719948;508;100 mA
109.039166724703;-0.79925537109375;-0.091156005859375;5.07999998717423;509;100 mA
109.049166724677;-0.79925537109375;-0.0906982421875;5.08999998714899;510;100 mA
109.059166724652;-0.79925537109375;-0.090606689453125;5.09999998712374;511;100 mA
109.069166724627;-0.79925537109375;-0.090667724609375;5.10999998709849;512;100 mA
109.079166724602;-0.799560546875;-0.091094970703125;5.11999998707324;513;100 mA
109.089166724576;-0.79986572265625;-0.09027099609375;5.129999987048;514;100 mA
109.099166724551;-0.79986572265625;-0.08984375;5.13999998702275;515;100 mA
109.109166724526;-0.79986572265625;-0.089813232421875;5.1499999869975;516;100 mA
109.119166724501;-0.79986572265625;-0.089447021484375;5.15999998697225;517;100 mA
109.129166724475;-0.79986572265625;-0.090087890625;5.169999986947;518;100 mA
109.13916672445;-0.79925537109375;-0.089630126953125;5.17999998692176;519;100 mA
109.149166724425;-0.799560546875;-0.089263916015625;5.18999998689651;520;100 mA
109.1591667244;-0.79925537109375;-0.08935546875;5.19999998687126;521;100 mA
109.169166724374;-0.799560546875;-0.089599609375;5.20999998684601;522;100 mA
109.179166724349;-0.8001708984375;-0.08966064453125;5.21999998682077;523;100 mA
109.189166724324;-0.79925537109375;-0.0892333984375;5.22999998679552;524;100 mA
109.199166724299;-0.79986572265625;-0.0889892578125;5.23999998677027;525;100 mA
109.209166724273;-0.79925537109375;-0.08868408203125;5.24999998674502;526;100 mA
109.219166724248;-0.799560546875;-0.08935546875;5.25999998671978;527;100 mA
109.229166724223;-0.799560546875;-0.089508056640625;5.26999998669453;528;100 mA
109.239166724198;-0.799560546875;-0.088775634765625;5.27999998666928;529;100 mA
109.249166724172;-0.79986572265625;-0.088897705078125;5.28999998664403;530;100 mA
109.259166724147;-0.7989501953125;-0.088775634765625;5.29999998661879;531;100 mA
109.269166724122;-0.79925537109375;-0.0892333984375;5.30999998659354;532;100 mA
109.279166724097;-0.79925537109375;-0.089752197265625;5.31999998656829;533;100 mA
109.289166724071;-0.79986572265625;-0.08966064453125;5.32999998654304;534;100 mA
109.299166724046;-0.799560546875;-0.089599609375;5.3399999865178;535;100 mA
109.309166724021;-0.79925537109375;-0.089752197265625;5.34999998649255;536;100 mA
109.319166723996;-0.799560546875;-0.090576171875;5.3599999864673;537;100 mA
109.32916672397;-0.79925537109375;-0.090423583984375;5.36999998644205;538;100 mA
109.339166723945;-0.799560546875;-0.090301513671875;5.37999998641681;539;100 mA
109.34916672392;-0.79986572265625;-0.09033203125;5.38999998639156;540;100 mA
109.359166723895;-0.799560546875;-0.08978271484375;5.39999998636631;541;100 mA
109.369166723869;-0.79925537109375;-0.090301513671875;5.40999998634106;542;100 mA
109.379166723844;-0.79925537109375;-0.089599609375;5.41999998631582;543;100 mA
109.389166723819;-0.79986572265625;-0.089111328125;5.42999998629057;544;100 mA
109.399166723794;-0.799560546875;-0.08929443359375;5.43999998626532;545;100 mA
109.409166723768;-0.79986572265625;-0.0894775390625;5.44999998624007;546;100 mA
109.419166723743;-0.799560546875;-0.089874267578125;5.45999998621483;547;100 mA
109.429166723718;-0.799560546875;-0.089813232421875;5.46999998618958;548;100 mA
109.439166723693;-0.799560546875;-0.089935302734375;5.47999998616433;549;100 mA
109.449166723667;-0.79925537109375;-0.089752197265625;5.48999998613908;550;100 mA
109.459166723642;-0.79925537109375;-0.09039306640625;5.49999998611383;551;100 mA
109.469166723617;-0.8001708984375;-0.09051513671875;5.50999998608859;552;100 mA
109.479166723592;-0.799560546875;-0.08978271484375;5.51999998606334;553;100 mA
109.489166723566;-0.79986572265625;-0.089813232421875;5.52999998603809;554;100 mA
109.499166723541;-0.799560546875;-0.089691162109375;5.53999998601284;555;100 mA
109.509166723516;-0.79986572265625;-0.090057373046875;5.5499999859876;556;100 mA
109.519166723491;-0.8001708984375;-0.090301513671875;5.55999998596235;557;100 mA
109.529166723465;-0.79925537109375;-0.08984375;5.5699999859371;558;100 mA
109.53916672344;-0.79925537109375;-0.089691162109375;5.57999998591185;559;100 mA
109.549166723415;-0.79986572265625;-0.0897216796875;5.58999998588661;560;100 mA
109.55916672339;-0.79925537109375;-0.089996337890625;5.59999998586136;561;100 mA
109.569166723364;-0.799560546875;-0.0894775390625;5.60999998583611;562;100 mA
109.579166723339;-0.799560546875;-0.08929443359375;5.61999998581086;563;100 mA
109.589166723314;-0.799560546875;-0.089324951171875;5.62999998578562;564;100 mA
109.599166723289;-0.79925537109375;-0.089111328125;5.63999998576037;565;100 mA
109.609166723263;-0.79925537109375;-0.08978271484375;5.64999998573512;566;100 mA
109.619166723238;-0.79986572265625;-0.08929443359375;5.65999998570987;567;100 mA
109.629166723213;-0.79925537109375;-0.089019775390625;5.66999998568463;568;100 mA
109.639166723188;-0.799560546875;-0.089263916015625;5.67999998565938;569;100 mA
109.649166723162;-0.799560546875;-0.089202880859375;5.68999998563413;570;100 mA
109.659166723137;-0.79925537109375;-0.08935546875;5.69999998560888;571;100 mA
109.669166723112;-0.79925537109375;-0.0889892578125;5.70999998558364;572;100 mA
109.679166723087;-0.79986572265625;-0.08892822265625;5.71999998555839;573;100 mA
109.689166723061;-0.799560546875;-0.08880615234375;5.72999998553314;574;100 mA
109.699166723036;-0.79986572265625;-0.089569091796875;5.73999998550789;575;100 mA
109.709166723011;-0.79925537109375;-0.08978271484375;5.74999998548265;576;100 mA
109.719166722986;-0.799560546875;-0.0892333984375;5.7599999854574;577;100 mA
109.72916672296;-0.79925537109375;-0.089447021484375;5.76999998543215;578;100 mA
109.739166722935;-0.799560546875;-0.089324951171875;5.7799999854069;579;100 mA
109.74916672291;-0.7989501953125;-0.089813232421875;5.78999998538166;580;100 mA
109.759166722885;-0.799560546875;-0.09039306640625;5.79999998535641;581;100 mA
109.769166722859;-0.79925537109375;-0.090057373046875;5.80999998533116;582;100 mA
109.779166722834;-0.799560546875;-0.0899658203125;5.81999998530591;583;100 mA
109.789166722809;-0.79925537109375;-0.089935302734375;5.82999998528066;584;100 mA
109.799166722784;-0.8001708984375;-0.09033203125;5.83999998525542;585;100 mA
109.809166722759;-0.799560546875;-0.089996337890625;5.84999998523017;586;100 mA
109.819166722733;-0.799560546875;-0.089874267578125;5.85999998520492;587;100 mA
109.829166722708;-0.79986572265625;-0.08990478515625;5.86999998517967;588;100 mA
109.839166722683;-0.799560546875;-0.089813232421875;5.87999998515443;589;100 mA
109.849166722658;-0.79986572265625;-0.090606689453125;5.88999998512918;590;100 mA
109.859166722632;-0.79925537109375;-0.09002685546875;5.89999998510393;591;100 mA
109.869166722607;-0.79925537109375;-0.08990478515625;5.90999998507868;592;100 mA
109.879166722582;-0.79925537109375;-0.090087890625;5.91999998505344;593;100 mA
109.889166722557;-0.8001708984375;-0.09002685546875;5.92999998502819;594;100 mA
109.899166722531;-0.79925537109375;-0.090545654296875;5.93999998500294;595;100 mA
109.909166722506;-0.799560546875;-0.090545654296875;5.94999998497769;596;100 mA
109.919166722481;-0.799560546875;-0.09075927734375;5.95999998495245;597;100 mA
109.929166722456;-0.79925537109375;-0.090789794921875;5.9699999849272;598;100 mA
109.93916672243;-0.79986572265625;-0.091644287109375;5.97999998490195;599;100 mA
109.949166722405;-0.799560546875;-0.092010498046875;5.9899999848767;600;100 mA
109.95916672238;-0.799560546875;-0.0914306640625;5.99999998485146;601;100 mA
109.969166722355;-0.79986572265625;-0.091522216796875;6.00999998482621;602;100 mA
109.979166722329;-0.79986572265625;-0.091278076171875;6.01999998480096;603;100 mA
109.989166722304;-0.79925537109375;-0.0914306640625;6.02999998477571;604;100 mA
109.999166722279;-0.799560546875;-0.091400146484375;6.03999998475047;605;100 mA
110.009166722254;-0.799560546875;-0.090728759765625;6.04999998472522;606;100 mA
110.019166722228;-0.799560546875;-0.09039306640625;6.05999998469997;607;100 mA
110.029166722203;-0.799560546875;-0.09027099609375;6.06999998467472;608;100 mA
110.039166722178;-0.79925537109375;-0.0904541015625;6.07999998464948;609;100 mA
110.049166722153;-0.79986572265625;-0.0899658203125;6.08999998462423;610;100 mA
110.059166722127;-0.799560546875;-0.089569091796875;6.09999998459898;611;100 mA
110.069166722102;-0.7989501953125;-0.08929443359375;6.10999998457373;612;100 mA
110.079166722077;-0.79986572265625;-0.089080810546875;6.11999998454849;613;100 mA
110.089166722052;-0.799560546875;-0.090057373046875;6.12999998452324;614;100 mA
110.099166722026;-0.79986572265625;-0.089874267578125;6.13999998449799;615;100 mA
110.109166722001;-0.7989501953125;-0.08990478515625;6.14999998447274;616;100 mA
110.119166721976;-0.79986572265625;-0.09027099609375;6.1599999844475;617;100 mA
110.129166721951;-0.79925537109375;-0.090301513671875;6.16999998442225;618;100 mA
110.139166721925;-0.79986572265625;-0.090789794921875;6.179999984397;619;100 mA
110.1491667219;-0.799560546875;-0.090789794921875;6.18999998437175;620;100 mA
110.159166721875;-0.79986572265625;-0.0906982421875;6.1999999843465;621;100 mA
110.16916672185;-0.79986572265625;-0.090484619140625;6.20999998432126;622;100 mA
110.179166721824;-0.799560546875;-0.0909423828125;6.21999998429601;623;100 mA
110.189166721799;-0.79925537109375;-0.0908203125;6.22999998427076;624;100 mA
110.199166721774;-0.7989501953125;-0.09027099609375;6.23999998424551;625;100 mA
110.209166721749;-0.799560546875;-0.090301513671875;6.24999998422027;626;100 mA
110.219166721723;-0.799560546875;-0.08990478515625;6.25999998419502;627;100 mA
110.229166721698;-0.799560546875;-0.089996337890625;6.26999998416977;628;100 mA
110.239166721673;-0.799560546875;-0.089996337890625;6.27999998414452;629;100 mA
110.249166721648;-0.79925537109375;-0.089385986328125;6.28999998411928;630;100 mA
110.259166721622;-0.79925537109375;-0.08929443359375;6.29999998409403;631;100 mA
110.269166721597;-0.79925537109375;-0.089324951171875;6.30999998406878;632;100 mA
110.279166721572;-0.799560546875;-0.089599609375;6.31999998404353;633;100 mA
110.289166721547;-0.799560546875;-0.08941650390625;6.32999998401829;634;100 mA
110.299166721521;-0.79925537109375;-0.08941650390625;6.33999998399304;635;100 mA
110.309166721496;-0.79925537109375;-0.089599609375;6.34999998396779;636;100 mA
110.319166721471;-0.799560546875;-0.0897216796875;6.35999998394254;637;100 mA
110.329166721446;-0.79925537109375;-0.090606689453125;6.3699999839173;638;100 mA
110.33916672142;-0.799560546875;-0.090057373046875;6.37999998389205;639;100 mA
110.349166721395;-0.79925537109375;-0.08978271484375;6.3899999838668;640;100 mA
110.35916672137;-0.79986572265625;-0.08984375;6.39999998384155;641;100 mA
110.369166721345;-0.79925537109375;-0.08966064453125;6.40999998381631;642;100 mA
110.379166721319;-0.799560546875;-0.089935302734375;6.41999998379106;643;100 mA
110.389166721294;-0.79986572265625;-0.089691162109375;6.42999998376581;644;100 mA
110.399166721269;-0.79925537109375;-0.089630126953125;6.43999998374056;645;100 mA
110.409166721244;-0.799560546875;-0.089569091796875;6.44999998371532;646;100 mA
110.419166721218;-0.79925537109375;-0.090240478515625;6.45999998369007;647;100 mA
110.429166721193;-0.79925537109375;-0.0902099609375;6.46999998366482;648;100 mA
110.439166721168;-0.799560546875;-0.08966064453125;6.47999998363957;649;100 mA
110.449166721143;-0.799560546875;-0.089599609375;6.48999998361433;650;100 mA
110.459166721117;-0.799560546875;-0.0892333984375;6.49999998358908;651;100 mA
110.469166721092;-0.79986572265625;-0.08978271484375;6.50999998356383;652;100 mA
110.479166721067;-0.799560546875;-0.090118408203125;6.51999998353858;653;100 mA
110.489166721042;-0.799560546875;-0.089630126953125;6.52999998351333;654;100 mA
110.499166721016;-0.79925537109375;-0.089752197265625;6.53999998348809;655;100 mA
110.509166720991;-0.799560546875;-0.08984375;6.54999998346284;656;100 mA
110.519166720966;-0.79925537109375;-0.090118408203125;6.55999998343759;657;100 mA
110.529166720941;-0.79925537109375;-0.08990478515625;6.56999998341234;658;100 mA
110.539166720915;-0.79986572265625;-0.089874267578125;6.5799999833871;659;100 mA
110.54916672089;-0.7989501953125;-0.0899658203125;6.58999998336185;660;100 mA
110.559166720865;-0.799560546875;-0.089996337890625;6.5999999833366;661;100 mA
110.56916672084;-0.79925537109375;-0.0906982421875;6.60999998331135;662;100 mA
110.579166720814;-0.79986572265625;-0.09027099609375;6.61999998328611;663;100 mA
110.589166720789;-0.799560546875;-0.09027099609375;6.62999998326086;664;100 mA
110.599166720764;-0.799560546875;-0.090576171875;6.63999998323561;665;100 mA
110.609166720739;-0.79925537109375;-0.09039306640625;6.64999998321036;666;100 mA
110.619166720713;-0.79925537109375;-0.09051513671875;6.65999998318512;667;100 mA
110.629166720688;-0.799560546875;-0.090057373046875;6.66999998315987;668;100 mA
110.639166720663;-0.799560546875;-0.0897216796875;6.67999998313462;669;100 mA
110.649166720638;-0.7989501953125;-0.0897216796875;6.68999998310937;670;100 mA
110.659166720612;-0.79925537109375;-0.09033203125;6.69999998308413;671;100 mA
110.669166720587;-0.799560546875;-0.090362548828125;6.70999998305888;672;100 mA
110.679166720562;-0.799560546875;-0.090057373046875;6.71999998303363;673;100 mA
110.689166720537;-0.799560546875;-0.090087890625;6.72999998300838;674;100 mA
110.699166720511;-0.79986572265625;-0.089569091796875;6.73999998298314;675;100 mA
110.709166720486;-0.79864501953125;-0.089752197265625;6.74999998295789;676;100 mA
110.719166720461;-0.79986572265625;-0.08978271484375;6.75999998293264;677;100 mA
110.729166720436;-0.799560546875;-0.08929443359375;6.76999998290739;678;100 mA
110.73916672041;-0.799560546875;-0.089447021484375;6.77999998288215;679;100 mA
110.749166720385;-0.799560546875;-0.089599609375;6.7899999828569;680;100 mA
110.75916672036;-0.799560546875;-0.08990478515625;6.79999998283165;681;100 mA
110.769166720335;-0.79925537109375;-0.089813232421875;6.8099999828064;682;100 mA
110.779166720309;-0.79986572265625;-0.08978271484375;6.81999998278116;683;100 mA
110.789166720284;-0.79925537109375;-0.089935302734375;6.82999998275591;684;100 mA
110.799166720259;-0.8001708984375;-0.090087890625;6.83999998273066;685;100 mA
110.809166720234;-0.79986572265625;-0.090850830078125;6.84999998270541;686;100 mA
110.819166720209;-0.79986572265625;-0.09039306640625;6.85999998268016;687;100 mA
110.829166720183;-0.79925537109375;-0.090484619140625;6.86999998265492;688;100 mA
110.839166720158;-0.799560546875;-0.0909423828125;6.87999998262967;689;100 mA
110.849166720133;-0.799560546875;-0.091033935546875;6.88999998260442;690;100 mA
110.859166720108;-0.79925537109375;-0.09161376953125;6.89999998257917;691;100 mA
110.869166720082;-0.79925537109375;-0.09149169921875;6.90999998255393;692;100 mA
110.879166720057;-0.79986572265625;-0.09130859375;6.91999998252868;693;100 mA
110.889166720032;-0.799560546875;-0.091217041015625;6.92999998250343;694;100 mA
110.899166720007;-0.79925537109375;-0.091552734375;6.93999998247818;695;100 mA
110.909166719981;-0.79986572265625;-0.091400146484375;6.94999998245294;696;100 mA
110.919166719956;-0.799560546875;-0.090972900390625;6.95999998242769;697;100 mA
110.929166719931;-0.79925537109375;-0.090789794921875;6.96999998240244;698;100 mA
110.939166719906;-0.7989501953125;-0.090301513671875;6.97999998237719;699;100 mA
110.94916671988;-0.799560546875;-0.090606689453125;6.98999998235195;700;100 mA
