Time (s);WE(1).Potential (V);WE(1).Current (A);Corrected time (s);Index;Current range
126.833728679776;-0.90057373046875;-0.338043212890625;0;1;100 mA
126.84372867975;-0.89996337890625;-0.24945068359375;0.00999999997475243;2;100 mA
126.853728679725;-0.89996337890625;-0.207427978515625;0.0199999999495049;3;100 mA
126.8637286797;-0.899658203125;-0.182830810546875;0.0299999999242573;4;100 mA
126.873728679675;-0.89996337890625;-0.166015625;0.0399999998990097;5;100 mA
126.883728679649;-0.89935302734375;-0.153167724609375;0.0499999998737621;6;100 mA
126.893728679624;-0.89996337890625;-0.14404296875;0.0599999998485146;7;100 mA
126.903728679599;-0.899658203125;-0.13800048828125;0.069999999823267;8;100 mA
126.913728679574;-0.89996337890625;-0.13348388671875;0.0799999997980194;9;100 mA
126.923728679548;-0.89935302734375;-0.128662109375;0.0899999997727718;10;100 mA
126.933728679523;-0.8990478515625;-0.1248779296875;0.0999999997475243;11;100 mA
126.943728679498;-0.89935302734375;-0.122406005859375;0.109999999722277;12;100 mA
126.953728679473;-0.899658203125;-0.120147705078125;0.119999999697029;13;100 mA
126.963728679447;-0.899658203125;-0.120086669921875;0.129999999671782;14;100 mA
126.973728679422;-0.899658203125;-0.117523193359375;0.139999999646534;15;100 mA
126.983728679397;-0.89935302734375;-0.115264892578125;0.149999999621286;16;100 mA
126.993728679372;-0.89996337890625;-0.115081787109375;0.159999999596039;17;100 mA
127.003728679346;-0.8990478515625;-0.11474609375;0.169999999570791;18;100 mA
127.013728679321;-0.899658203125;-0.114227294921875;0.179999999545544;19;100 mA
127.023728679296;-0.899658203125;-0.112701416015625;0.189999999520296;20;100 mA
127.033728679271;-0.899658203125;-0.11163330078125;0.199999999495049;21;100 mA
127.043728679245;-0.89935302734375;-0.110992431640625;0.209999999469801;22;100 mA
127.05372867922;-0.8990478515625;-0.112548828125;0.219999999444553;23;100 mA
127.063728679195;-0.89935302734375;-0.11175537109375;0.229999999419306;24;100 mA
127.07372867917;-0.8990478515625;-0.109649658203125;0.239999999394058;25;100 mA
127.083728679144;-0.89935302734375;-0.109039306640625;0.249999999368811;26;100 mA
127.093728679119;-0.89935302734375;-0.108306884765625;0.259999999343563;27;100 mA
127.103728679094;-0.899658203125;-0.108795166015625;0.269999999318316;28;100 mA
127.113728679069;-0.89874267578125;-0.108612060546875;0.279999999293068;29;100 mA
127.123728679043;-0.899658203125;-0.107208251953125;0.28999999926782;30;100 mA
127.133728679018;-0.89935302734375;-0.107177734375;0.299999999242573;31;100 mA
127.143728678993;-0.89996337890625;-0.107940673828125;0.309999999217325;32;100 mA
127.153728678968;-0.89935302734375;-0.10906982421875;0.319999999192078;33;100 mA
127.163728678942;-0.89935302734375;-0.108428955078125;0.32999999916683;34;100 mA
127.173728678917;-0.899658203125;-0.10821533203125;0.339999999141583;35;100 mA
127.183728678892;-0.89996337890625;-0.10833740234375;0.349999999116335;36;100 mA
127.193728678867;-0.89996337890625;-0.107666015625;0.359999999091087;37;100 mA
127.203728678841;-0.89935302734375;-0.109466552734375;0.36999999906584;38;100 mA
127.213728678816;-0.899658203125;-0.10760498046875;0.379999999040592;39;100 mA
127.223728678791;-0.89935302734375;-0.106597900390625;0.389999999015345;40;100 mA
127.233728678766;-0.899658203125;-0.106597900390625;0.399999998990097;41;100 mA
127.24372867874;-0.899658203125;-0.106781005859375;0.40999999896485;42;100 mA
127.253728678715;-0.899658203125;-0.107757568359375;0.419999998939602;43;100 mA
127.26372867869;-0.899658203125;-0.107391357421875;0.429999998914354;44;100 mA
127.273728678665;-0.89996337890625;-0.107086181640625;0.439999998889107;45;100 mA
127.283728678639;-0.899658203125;-0.106781005859375;0.449999998863859;46;100 mA
127.293728678614;-0.8990478515625;-0.10882568359375;0.459999998838612;47;100 mA
127.303728678589;-0.89996337890625;-0.10821533203125;0.469999998813364;48;100 mA
127.313728678564;-0.89935302734375;-0.106658935546875;0.479999998788116;49;100 mA
127.323728678538;-0.89996337890625;-0.106597900390625;0.489999998762869;50;100 mA
127.333728678513;-0.8990478515625;-0.106170654296875;0.499999998737621;51;100 mA
127.343728678488;-0.8990478515625;-0.1075439453125;0.509999998712374;52;100 mA
127.353728678463;-0.899658203125;-0.108306884765625;0.519999998687126;53;100 mA
127.363728678437;-0.89935302734375;-0.1070556640625;0.529999998661879;54;100 mA
127.373728678412;-0.89935302734375;-0.1068115234375;0.539999998636631;55;100 mA
127.383728678387;-0.8990478515625;-0.107513427734375;0.549999998611383;56;100 mA
127.393728678362;-0.89935302734375;-0.1082763671875;0.559999998586136;57;100 mA
127.403728678337;-0.89935302734375;-0.107330322265625;0.569999998560888;58;100 mA
127.413728678311;-0.8990478515625;-0.106475830078125;0.579999998535641;59;100 mA
127.423728678286;-0.89935302734375;-0.10601806640625;0.589999998510393;60;100 mA
127.433728678261;-0.89935302734375;-0.105621337890625;0.599999998485146;61;100 mA
127.443728678236;-0.89996337890625;-0.107940673828125;0.609999998459898;62;100 mA
127.45372867821;-0.89996337890625;-0.107025146484375;0.61999999843465;63;100 mA
127.463728678185;-0.899658203125;-0.1065673828125;0.629999998409403;64;100 mA
127.47372867816;-0.8990478515625;-0.1068115234375;0.639999998384155;65;100 mA
127.483728678135;-0.899658203125;-0.106536865234375;0.649999998358908;66;100 mA
127.493728678109;-0.899658203125;-0.107025146484375;0.65999999833366;67;100 mA
127.503728678084;-0.89935302734375;-0.106170654296875;0.669999998308413;68;100 mA
127.513728678059;-0.89996337890625;-0.105377197265625;0.679999998283165;69;100 mA
127.523728678034;-0.899658203125;-0.104827880859375;0.689999998257917;70;100 mA
127.533728678008;-0.899658203125;-0.10687255859375;0.69999999823267;71;100 mA
127.543728677983;-0.89935302734375;-0.1068115234375;0.709999998207422;72;100 mA
127.553728677958;-0.8990478515625;-0.105987548828125;0.719999998182175;73;100 mA
127.563728677933;-0.8990478515625;-0.106048583984375;0.729999998156927;74;100 mA
127.573728677907;-0.89935302734375;-0.105377197265625;0.73999999813168;75;100 mA
127.583728677882;-0.899658203125;-0.10650634765625;0.749999998106432;76;100 mA
127.593728677857;-0.899658203125;-0.1070556640625;0.759999998081184;77;100 mA
127.603728677832;-0.899658203125;-0.105987548828125;0.769999998055937;78;100 mA
127.613728677806;-0.89935302734375;-0.105926513671875;0.779999998030689;79;100 mA
127.623728677781;-0.89935302734375;-0.106231689453125;0.789999998005442;80;100 mA
127.633728677756;-0.89996337890625;-0.10675048828125;0.799999997980194;81;100 mA
127.643728677731;-0.899658203125;-0.10552978515625;0.809999997954947;82;100 mA
127.653728677705;-0.8990478515625;-0.1046142578125;0.819999997929699;83;100 mA
127.66372867768;-0.899658203125;-0.104217529296875;0.829999997904451;84;100 mA
127.673728677655;-0.89935302734375;-0.104156494140625;0.839999997879204;85;100 mA
127.68372867763;-0.899658203125;-0.106353759765625;0.849999997853956;86;100 mA
127.693728677604;-0.89996337890625;-0.104949951171875;0.859999997828709;87;100 mA
127.703728677579;-0.89935302734375;-0.10443115234375;0.869999997803461;88;100 mA
127.713728677554;-0.89935302734375;-0.104888916015625;0.879999997778214;89;100 mA
127.723728677529;-0.899658203125;-0.104888916015625;0.889999997752966;90;100 mA
127.733728677503;-0.89935302734375;-0.105987548828125;0.899999997727718;91;100 mA
127.743728677478;-0.89935302734375;-0.1053466796875;0.909999997702471;92;100 mA
127.753728677453;-0.899658203125;-0.1046142578125;0.919999997677223;93;100 mA
127.763728677428;-0.899658203125;-0.104461669921875;0.929999997651976;94;100 mA
127.773728677402;-0.899658203125;-0.106597900390625;0.939999997626728;95;100 mA
127.783728677377;-0.899658203125;-0.106536865234375;0.949999997601481;96;100 mA
127.793728677352;-0.899658203125;-0.10577392578125;0.959999997576233;97;100 mA
127.803728677327;-0.899658203125;-0.105865478515625;0.969999997550985;98;100 mA
127.813728677301;-0.899658203125;-0.105438232421875;0.979999997525738;99;100 mA
127.823728677276;-0.89935302734375;-0.106658935546875;0.98999999750049;100;100 mA
127.833728677251;-0.89935302734375;-0.106903076171875;0.999999997475243;101;100 mA
127.843728677226;-0.899658203125;-0.105377197265625;1.00999999745;102;100 mA
127.8537286772;-0.89996337890625;-0.10498046875;1.01999999742475;103;100 mA
127.863728677175;-0.89935302734375;-0.1048583984375;1.0299999973995;104;100 mA
127.87372867715;-0.89935302734375;-0.1053466796875;1.03999999737425;105;100 mA
127.883728677125;-0.899658203125;-0.104766845703125;1.049999997349;106;100 mA
127.893728677099;-0.899658203125;-0.104248046875;1.05999999732376;107;100 mA
127.903728677074;-0.8990478515625;-0.103729248046875;1.06999999729851;108;100 mA
127.913728677049;-0.89935302734375;-0.10321044921875;1.07999999727326;109;100 mA
127.923728677024;-0.89996337890625;-0.1046142578125;1.08999999724801;110;100 mA
127.933728676998;-0.89935302734375;-0.10296630859375;1.09999999722277;111;100 mA
127.943728676973;-0.89935302734375;-0.102783203125;1.10999999719752;112;100 mA
127.953728676948;-0.89935302734375;-0.10357666015625;1.11999999717227;113;100 mA
127.963728676923;-0.8990478515625;-0.103607177734375;1.12999999714702;114;100 mA
127.973728676897;-0.89935302734375;-0.1048583984375;1.13999999712178;115;100 mA
127.983728676872;-0.89996337890625;-0.104583740234375;1.14999999709653;116;100 mA
127.993728676847;-0.89935302734375;-0.10382080078125;1.15999999707128;117;100 mA
128.003728676822;-0.899658203125;-0.103973388671875;1.16999999704603;118;100 mA
128.013728676796;-0.89996337890625;-0.105224609375;1.17999999702079;119;100 mA
128.023728676771;-0.8990478515625;-0.104583740234375;1.18999999699554;120;100 mA
128.033728676746;-0.89874267578125;-0.103271484375;1.19999999697029;121;100 mA
128.043728676721;-0.8990478515625;-0.102752685546875;1.20999999694504;122;100 mA
128.053728676695;-0.89935302734375;-0.102264404296875;1.2199999969198;123;100 mA
128.06372867667;-0.89935302734375;-0.10400390625;1.22999999689455;124;100 mA
128.073728676645;-0.899658203125;-0.104400634765625;1.2399999968693;125;100 mA
128.08372867662;-0.89935302734375;-0.10302734375;1.24999999684405;126;100 mA
128.093728676594;-0.899658203125;-0.1029052734375;1.25999999681881;127;100 mA
128.103728676569;-0.899658203125;-0.103179931640625;1.26999999679356;128;100 mA
128.113728676544;-0.899658203125;-0.103729248046875;1.27999999676831;129;100 mA
128.123728676519;-0.89935302734375;-0.103118896484375;1.28999999674306;130;100 mA
128.133728676493;-0.89935302734375;-0.102081298828125;1.29999999671782;131;100 mA
128.143728676468;-0.899658203125;-0.101593017578125;1.30999999669257;132;100 mA
128.153728676443;-0.89935302734375;-0.101593017578125;1.31999999666732;133;100 mA
128.163728676418;-0.89935302734375;-0.10321044921875;1.32999999664207;134;100 mA
128.173728676392;-0.899658203125;-0.10174560546875;1.33999999661683;135;100 mA
128.183728676367;-0.89935302734375;-0.101776123046875;1.34999999659158;136;100 mA
128.193728676342;-0.899658203125;-0.10284423828125;1.35999999656633;137;100 mA
128.203728676317;-0.8990478515625;-0.1031494140625;1.36999999654108;138;100 mA
128.213728676291;-0.899658203125;-0.104705810546875;1.37999999651583;139;100 mA
128.223728676266;-0.89935302734375;-0.104248046875;1.38999999649059;140;100 mA
128.233728676241;-0.899658203125;-0.103485107421875;1.39999999646534;141;100 mA
128.243728676216;-0.8990478515625;-0.103302001953125;1.40999999644009;142;100 mA
128.25372867619;-0.89935302734375;-0.104034423828125;1.41999999641484;143;100 mA
128.263728676165;-0.899658203125;-0.1033935546875;1.4299999963896;144;100 mA
128.27372867614;-0.89935302734375;-0.10235595703125;1.43999999636435;145;100 mA
128.283728676115;-0.89935302734375;-0.101959228515625;1.4499999963391;146;100 mA
128.293728676089;-0.899658203125;-0.100982666015625;1.45999999631385;147;100 mA
128.303728676064;-0.89935302734375;-0.102081298828125;1.46999999628861;148;100 mA
128.313728676039;-0.899658203125;-0.102142333984375;1.47999999626336;149;100 mA
128.323728676014;-0.8990478515625;-0.100799560546875;1.48999999623811;150;100 mA
128.333728675988;-0.8990478515625;-0.10113525390625;1.49999999621286;151;100 mA
128.343728675963;-0.89935302734375;-0.101348876953125;1.50999999618762;152;100 mA
128.353728675938;-0.89935302734375;-0.1021728515625;1.51999999616237;153;100 mA
128.363728675913;-0.8990478515625;-0.102142333984375;1.52999999613712;154;100 mA
128.373728675887;-0.89935302734375;-0.10150146484375;1.53999999611187;155;100 mA
128.383728675862;-0.89996337890625;-0.101409912109375;1.54999999608663;156;100 mA
128.393728675837;-0.89996337890625;-0.10150146484375;1.55999999606138;157;100 mA
128.403728675812;-0.8990478515625;-0.10260009765625;1.56999999603613;158;100 mA
128.413728675787;-0.899658203125;-0.101226806640625;1.57999999601088;159;100 mA
128.423728675761;-0.89996337890625;-0.101043701171875;1.58999999598564;160;100 mA
128.433728675736;-0.89935302734375;-0.1016845703125;1.59999999596039;161;100 mA
128.443728675711;-0.89935302734375;-0.1016845703125;1.60999999593514;162;100 mA
128.453728675686;-0.89935302734375;-0.103179931640625;1.61999999590989;163;100 mA
128.46372867566;-0.89935302734375;-0.102691650390625;1.62999999588465;164;100 mA
128.473728675635;-0.89996337890625;-0.102081298828125;1.6399999958594;165;100 mA
128.48372867561;-0.89996337890625;-0.10211181640625;1.64999999583415;166;100 mA
128.493728675585;-0.89935302734375;-0.103179931640625;1.6599999958089;167;100 mA
128.503728675559;-0.899658203125;-0.10333251953125;1.66999999578366;168;100 mA
128.513728675534;-0.8990478515625;-0.102752685546875;1.67999999575841;169;100 mA
128.523728675509;-0.89935302734375;-0.1025390625;1.68999999573316;170;100 mA
128.533728675484;-0.899658203125;-0.10150146484375;1.69999999570791;171;100 mA
128.543728675458;-0.89935302734375;-0.1024169921875;1.70999999568267;172;100 mA
128.553728675433;-0.899658203125;-0.102508544921875;1.71999999565742;173;100 mA
128.563728675408;-0.89935302734375;-0.101226806640625;1.72999999563217;174;100 mA
128.573728675383;-0.8990478515625;-0.1016845703125;1.73999999560692;175;100 mA
128.583728675357;-0.89996337890625;-0.101898193359375;1.74999999558167;176;100 mA
128.593728675332;-0.89935302734375;-0.1026611328125;1.75999999555643;177;100 mA
128.603728675307;-0.899658203125;-0.103118896484375;1.76999999553118;178;100 mA
128.613728675282;-0.89935302734375;-0.102630615234375;1.77999999550593;179;100 mA
128.623728675256;-0.89935302734375;-0.1021728515625;1.78999999548068;180;100 mA
128.633728675231;-0.89935302734375;-0.101959228515625;1.79999999545544;181;100 mA
128.643728675206;-0.89935302734375;-0.103179931640625;1.80999999543019;182;100 mA
128.653728675181;-0.8990478515625;-0.101959228515625;1.81999999540494;183;100 mA
128.663728675155;-0.89935302734375;-0.101715087890625;1.82999999537969;184;100 mA
128.67372867513;-0.89996337890625;-0.101837158203125;1.83999999535445;185;100 mA
128.683728675105;-0.8990478515625;-0.1009521484375;1.8499999953292;186;100 mA
128.69372867508;-0.899658203125;-0.101715087890625;1.85999999530395;187;100 mA
128.703728675054;-0.89935302734375;-0.1007080078125;1.8699999952787;188;100 mA
128.713728675029;-0.89935302734375;-0.099945068359375;1.87999999525346;189;100 mA
128.723728675004;-0.899658203125;-0.10003662109375;1.88999999522821;190;100 mA
128.733728674979;-0.89935302734375;-0.100677490234375;1.89999999520296;191;100 mA
128.743728674953;-0.899658203125;-0.1005859375;1.90999999517771;192;100 mA
128.753728674928;-0.899658203125;-0.099761962890625;1.91999999515247;193;100 mA
128.763728674903;-0.89996337890625;-0.09942626953125;1.92999999512722;194;100 mA
128.773728674878;-0.89935302734375;-0.0987548828125;1.93999999510197;195;100 mA
128.783728674852;-0.89935302734375;-0.100067138671875;1.94999999507672;196;100 mA
128.793728674827;-0.899658203125;-0.10003662109375;1.95999999505148;197;100 mA
128.803728674802;-0.899658203125;-0.099151611328125;1.96999999502623;198;100 mA
128.813728674777;-0.899658203125;-0.099609375;1.97999999500098;199;100 mA
128.823728674751;-0.89996337890625;-0.0997314453125;1.98999999497573;200;100 mA
128.833728674726;-0.89996337890625;-0.100341796875;1.99999999495049;201;100 mA
128.843728674701;-0.899658203125;-0.100494384765625;2.00999999492524;202;100 mA
128.853728674676;-0.89935302734375;-0.099945068359375;2.01999999489999;203;100 mA
128.86372867465;-0.899658203125;-0.0997314453125;2.02999999487474;204;100 mA
128.873728674625;-0.899658203125;-0.099884033203125;2.0399999948495;205;100 mA
128.8837286746;-0.8990478515625;-0.10113525390625;2.04999999482425;206;100 mA
128.893728674575;-0.89935302734375;-0.10009765625;2.059999994799;207;100 mA
128.903728674549;-0.89935302734375;-0.100006103515625;2.06999999477375;208;100 mA
128.913728674524;-0.89935302734375;-0.100616455078125;2.0799999947485;209;100 mA
128.923728674499;-0.899658203125;-0.100341796875;2.08999999472326;210;100 mA
128.933728674474;-0.89996337890625;-0.10186767578125;2.09999999469801;211;100 mA
128.943728674448;-0.89935302734375;-0.10125732421875;2.10999999467276;212;100 mA
128.953728674423;-0.89874267578125;-0.100799560546875;2.11999999464751;213;100 mA
128.963728674398;-0.89935302734375;-0.10113525390625;2.12999999462227;214;100 mA
128.973728674373;-0.89935302734375;-0.101654052734375;2.13999999459702;215;100 mA
128.983728674347;-0.899658203125;-0.101837158203125;2.14999999457177;216;100 mA
128.993728674322;-0.89996337890625;-0.10125732421875;2.15999999454652;217;100 mA
129.003728674297;-0.899658203125;-0.100982666015625;2.16999999452128;218;100 mA
129.013728674272;-0.899658203125;-0.10028076171875;2.17999999449603;219;100 mA
129.023728674246;-0.8990478515625;-0.10137939453125;2.18999999447078;220;100 mA
129.033728674221;-0.89935302734375;-0.1016845703125;2.19999999444553;221;100 mA
129.043728674196;-0.899658203125;-0.100738525390625;2.20999999442029;222;100 mA
129.053728674171;-0.89935302734375;-0.1011962890625;2.21999999439504;223;100 mA
129.063728674145;-0.89935302734375;-0.10113525390625;2.22999999436979;224;100 mA
129.07372867412;-0.899658203125;-0.101593017578125;2.23999999434454;225;100 mA
129.083728674095;-0.89935302734375;-0.101654052734375;2.2499999943193;226;100 mA
129.09372867407;-0.899658203125;-0.101043701171875;2.25999999429405;227;100 mA
129.103728674044;-0.89935302734375;-0.100830078125;2.2699999942688;228;100 mA
129.113728674019;-0.89935302734375;-0.10113525390625;2.27999999424355;229;100 mA
129.123728673994;-0.899658203125;-0.10198974609375;2.28999999421831;230;100 mA
129.133728673969;-0.899658203125;-0.1005859375;2.29999999419306;231;100 mA
129.143728673943;-0.89935302734375;-0.099945068359375;2.30999999416781;232;100 mA
129.153728673918;-0.899658203125;-0.099853515625;2.31999999414256;233;100 mA
129.163728673893;-0.899658203125;-0.099365234375;2.32999999411732;234;100 mA
129.173728673868;-0.8990478515625;-0.100555419921875;2.33999999409207;235;100 mA
129.183728673842;-0.89996337890625;-0.099578857421875;2.34999999406682;236;100 mA
129.193728673817;-0.899658203125;-0.098968505859375;2.35999999404157;237;100 mA
129.203728673792;-0.89996337890625;-0.099212646484375;2.36999999401633;238;100 mA
129.213728673767;-0.8990478515625;-0.099334716796875;2.37999999399108;239;100 mA
129.223728673741;-0.899658203125;-0.099517822265625;2.38999999396583;240;100 mA
129.233728673716;-0.89874267578125;-0.098968505859375;2.39999999394058;241;100 mA
129.243728673691;-0.89935302734375;-0.0987548828125;2.40999999391533;242;100 mA
129.253728673666;-0.899658203125;-0.0980224609375;2.41999999389009;243;100 mA
129.26372867364;-0.89935302734375;-0.0989990234375;2.42999999386484;244;100 mA
129.273728673615;-0.899658203125;-0.099029541015625;2.43999999383959;245;100 mA
129.28372867359;-0.8990478515625;-0.097930908203125;2.44999999381434;246;100 mA
129.293728673565;-0.899658203125;-0.09814453125;2.4599999937891;247;100 mA
129.303728673539;-0.899658203125;-0.097808837890625;2.46999999376385;248;100 mA
129.313728673514;-0.8990478515625;-0.09820556640625;2.4799999937386;249;100 mA
129.323728673489;-0.89935302734375;-0.098419189453125;2.48999999371335;250;100 mA
129.333728673464;-0.89996337890625;-0.097747802734375;2.49999999368811;251;100 mA
129.343728673438;-0.89935302734375;-0.09759521484375;2.50999999366286;252;100 mA
129.353728673413;-0.899658203125;-0.097930908203125;2.51999999363761;253;100 mA
129.363728673388;-0.89935302734375;-0.09893798828125;2.52999999361236;254;100 mA
129.373728673363;-0.89935302734375;-0.098419189453125;2.53999999358712;255;100 mA
129.383728673337;-0.89935302734375;-0.098663330078125;2.54999999356187;256;100 mA
129.393728673312;-0.89935302734375;-0.09912109375;2.55999999353662;257;100 mA
129.403728673287;-0.89996337890625;-0.09918212890625;2.56999999351137;258;100 mA
129.413728673262;-0.899658203125;-0.100555419921875;2.57999999348613;259;100 mA
129.423728673236;-0.89935302734375;-0.099273681640625;2.58999999346088;260;100 mA
129.433728673211;-0.89874267578125;-0.09844970703125;2.59999999343563;261;100 mA
129.443728673186;-0.899658203125;-0.098419189453125;2.60999999341038;262;100 mA
129.453728673161;-0.89935302734375;-0.098419189453125;2.61999999338514;263;100 mA
129.463728673136;-0.899658203125;-0.098663330078125;2.62999999335989;264;100 mA
129.47372867311;-0.899658203125;-0.09820556640625;2.63999999333464;265;100 mA
129.483728673085;-0.8990478515625;-0.098052978515625;2.64999999330939;266;100 mA
129.49372867306;-0.899658203125;-0.09765625;2.65999999328415;267;100 mA
129.503728673035;-0.89935302734375;-0.099029541015625;2.6699999932589;268;100 mA
129.513728673009;-0.89996337890625;-0.0992431640625;2.67999999323365;269;100 mA
129.523728672984;-0.8990478515625;-0.098236083984375;2.6899999932084;270;100 mA
129.533728672959;-0.899658203125;-0.098358154296875;2.69999999318316;271;100 mA
129.543728672934;-0.899658203125;-0.097991943359375;2.70999999315791;272;100 mA
129.553728672908;-0.899658203125;-0.09844970703125;2.71999999313266;273;100 mA
129.563728672883;-0.899658203125;-0.09881591796875;2.72999999310741;274;100 mA
129.573728672858;-0.89935302734375;-0.098052978515625;2.73999999308217;275;100 mA
129.583728672833;-0.8990478515625;-0.097564697265625;2.74999999305692;276;100 mA
129.593728672807;-0.899658203125;-0.097625732421875;2.75999999303167;277;100 mA
129.603728672782;-0.8990478515625;-0.098236083984375;2.76999999300642;278;100 mA
129.613728672757;-0.899658203125;-0.097625732421875;2.77999999298117;279;100 mA
129.623728672732;-0.89935302734375;-0.097442626953125;2.78999999295593;280;100 mA
129.633728672706;-0.89935302734375;-0.097259521484375;2.79999999293068;281;100 mA
129.643728672681;-0.899658203125;-0.096832275390625;2.80999999290543;282;100 mA
129.653728672656;-0.8990478515625;-0.098052978515625;2.81999999288018;283;100 mA
129.663728672631;-0.899658203125;-0.09716796875;2.82999999285494;284;100 mA
129.673728672605;-0.89996337890625;-0.09698486328125;2.83999999282969;285;100 mA
129.68372867258;-0.899658203125;-0.097564697265625;2.84999999280444;286;100 mA
129.693728672555;-0.899658203125;-0.097747802734375;2.85999999277919;287;100 mA
129.70372867253;-0.899658203125;-0.098297119140625;2.86999999275395;288;100 mA
129.713728672504;-0.899658203125;-0.097991943359375;2.8799999927287;289;100 mA
129.723728672479;-0.899658203125;-0.097747802734375;2.88999999270345;290;100 mA
129.733728672454;-0.8990478515625;-0.097412109375;2.8999999926782;291;100 mA
129.743728672429;-0.89996337890625;-0.0986328125;2.90999999265296;292;100 mA
129.753728672403;-0.899658203125;-0.098876953125;2.91999999262771;293;100 mA
129.763728672378;-0.89935302734375;-0.09814453125;2.92999999260246;294;100 mA
129.773728672353;-0.89935302734375;-0.098388671875;2.93999999257721;295;100 mA
129.783728672328;-0.89874267578125;-0.097930908203125;2.94999999255197;296;100 mA
129.793728672302;-0.8990478515625;-0.0986328125;2.95999999252672;297;100 mA
129.803728672277;-0.89996337890625;-0.099090576171875;2.96999999250147;298;100 mA
129.813728672252;-0.89935302734375;-0.0982666015625;2.97999999247622;299;100 mA
129.823728672227;-0.899658203125;-0.09796142578125;2.98999999245098;300;100 mA
129.833728672201;-0.89935302734375;-0.0980224609375;2.99999999242573;301;100 mA
129.843728672176;-0.89996337890625;-0.098358154296875;3.00999999240048;302;100 mA
129.853728672151;-0.899658203125;-0.097686767578125;3.01999999237523;303;100 mA
129.863728672126;-0.899658203125;-0.0972900390625;3.02999999234999;304;100 mA
129.8737286721;-0.899658203125;-0.09710693359375;3.03999999232474;305;100 mA
129.883728672075;-0.899658203125;-0.096710205078125;3.04999999229949;306;100 mA
129.89372867205;-0.89874267578125;-0.097686767578125;3.05999999227424;307;100 mA
129.903728672025;-0.89935302734375;-0.096710205078125;3.069999992249;308;100 mA
129.913728671999;-0.899658203125;-0.0965576171875;3.07999999222375;309;100 mA
129.923728671974;-0.89874267578125;-0.096954345703125;3.0899999921985;310;100 mA
129.933728671949;-0.89935302734375;-0.0966796875;3.09999999217325;311;100 mA
129.943728671924;-0.89935302734375;-0.0968017578125;3.109999992148;312;100 mA
129.953728671898;-0.89874267578125;-0.09619140625;3.11999999212276;313;100 mA
129.963728671873;-0.89935302734375;-0.095794677734375;3.12999999209751;314;100 mA
129.973728671848;-0.89935302734375;-0.095367431640625;3.13999999207226;315;100 mA
129.983728671823;-0.89996337890625;-0.096343994140625;3.14999999204701;316;100 mA
129.993728671797;-0.89935302734375;-0.09637451171875;3.15999999202177;317;100 mA
130.003728671772;-0.89935302734375;-0.09600830078125;3.16999999199652;318;100 mA
130.013728671747;-0.89996337890625;-0.0965576171875;3.17999999197127;319;100 mA
130.023728671722;-0.8990478515625;-0.096221923828125;3.18999999194602;320;100 mA
130.033728671696;-0.89935302734375;-0.0968017578125;3.19999999192078;321;100 mA
130.043728671671;-0.899658203125;-0.097076416015625;3.20999999189553;322;100 mA
130.053728671646;-0.89935302734375;-0.0963134765625;3.21999999187028;323;100 mA
130.063728671621;-0.89935302734375;-0.09619140625;3.22999999184503;324;100 mA
130.073728671595;-0.899658203125;-0.096038818359375;3.23999999181979;325;100 mA
130.08372867157;-0.899658203125;-0.096405029296875;3.24999999179454;326;100 mA
130.093728671545;-0.8990478515625;-0.095916748046875;3.25999999176929;327;100 mA
130.10372867152;-0.89874267578125;-0.095672607421875;3.26999999174404;328;100 mA
130.113728671494;-0.89935302734375;-0.09539794921875;3.2799999917188;329;100 mA
130.123728671469;-0.8990478515625;-0.095245361328125;3.28999999169355;330;100 mA
130.133728671444;-0.89935302734375;-0.096343994140625;3.2999999916683;331;100 mA
130.143728671419;-0.899658203125;-0.09564208984375;3.30999999164305;332;100 mA
130.153728671393;-0.899658203125;-0.0955810546875;3.31999999161781;333;100 mA
130.163728671368;-0.899658203125;-0.09600830078125;3.32999999159256;334;100 mA
130.173728671343;-0.899658203125;-0.095672607421875;3.33999999156731;335;100 mA
130.183728671318;-0.899658203125;-0.095916748046875;3.34999999154206;336;100 mA
130.193728671292;-0.8990478515625;-0.095611572265625;3.35999999151682;337;100 mA
130.203728671267;-0.89935302734375;-0.09527587890625;3.36999999149157;338;100 mA
130.213728671242;-0.89935302734375;-0.094970703125;3.37999999146632;339;100 mA
130.223728671217;-0.89935302734375;-0.09564208984375;3.38999999144107;340;100 mA
130.233728671191;-0.899658203125;-0.095245361328125;3.39999999141583;341;100 mA
130.243728671166;-0.899658203125;-0.0946044921875;3.40999999139058;342;100 mA
130.253728671141;-0.89935302734375;-0.094635009765625;3.41999999136533;343;100 mA
130.263728671116;-0.89935302734375;-0.0941162109375;3.42999999134008;344;100 mA
130.27372867109;-0.89935302734375;-0.09478759765625;3.43999999131483;345;100 mA
130.283728671065;-0.899658203125;-0.095001220703125;3.44999999128959;346;100 mA
130.29372867104;-0.9002685546875;-0.094207763671875;3.45999999126434;347;100 mA
130.303728671015;-0.899658203125;-0.094329833984375;3.46999999123909;348;100 mA
130.313728670989;-0.89996337890625;-0.09478759765625;3.47999999121384;349;100 mA
130.323728670964;-0.89935302734375;-0.09503173828125;3.4899999911886;350;100 mA
130.333728670939;-0.8990478515625;-0.09429931640625;3.49999999116335;351;100 mA
130.343728670914;-0.899658203125;-0.094024658203125;3.5099999911381;352;100 mA
130.353728670888;-0.899658203125;-0.094085693359375;3.51999999111285;353;100 mA
130.363728670863;-0.89935302734375;-0.094390869140625;3.52999999108761;354;100 mA
130.373728670838;-0.89935302734375;-0.095367431640625;3.53999999106236;355;100 mA
130.383728670813;-0.89935302734375;-0.09423828125;3.54999999103711;356;100 mA
130.393728670787;-0.899658203125;-0.094207763671875;3.55999999101186;357;100 mA
130.403728670762;-0.899658203125;-0.09454345703125;3.56999999098662;358;100 mA
130.413728670737;-0.89935302734375;-0.094451904296875;3.57999999096137;359;100 mA
130.423728670712;-0.899658203125;-0.09503173828125;3.58999999093612;360;100 mA
130.433728670686;-0.89935302734375;-0.09466552734375;3.59999999091087;361;100 mA
130.443728670661;-0.899658203125;-0.094329833984375;3.60999999088563;362;100 mA
130.453728670636;-0.89935302734375;-0.0943603515625;3.61999999086038;363;100 mA
130.463728670611;-0.89874267578125;-0.095123291015625;3.62999999083513;364;100 mA
130.473728670586;-0.89996337890625;-0.0948486328125;3.63999999080988;365;100 mA
130.48372867056;-0.8990478515625;-0.09423828125;3.64999999078464;366;100 mA
130.493728670535;-0.899658203125;-0.094451904296875;3.65999999075939;367;100 mA
130.50372867051;-0.89935302734375;-0.094146728515625;3.66999999073414;368;100 mA
130.513728670485;-0.89935302734375;-0.094879150390625;3.67999999070889;369;100 mA
130.523728670459;-0.89996337890625;-0.094818115234375;3.68999999068365;370;100 mA
130.533728670434;-0.8990478515625;-0.093994140625;3.6999999906584;371;100 mA
130.543728670409;-0.8990478515625;-0.093902587890625;3.70999999063315;372;100 mA
130.553728670384;-0.89996337890625;-0.093658447265625;3.7199999906079;373;100 mA
130.563728670358;-0.899658203125;-0.09393310546875;3.72999999058266;374;100 mA
130.573728670333;-0.8990478515625;-0.093780517578125;3.73999999055741;375;100 mA
130.583728670308;-0.89996337890625;-0.093658447265625;3.74999999053216;376;100 mA
130.593728670283;-0.8990478515625;-0.093536376953125;3.75999999050691;377;100 mA
130.603728670257;-0.899658203125;-0.093597412109375;3.76999999048167;378;100 mA
130.613728670232;-0.899658203125;-0.094329833984375;3.77999999045642;379;100 mA
130.623728670207;-0.8990478515625;-0.09307861328125;3.78999999043117;380;100 mA
130.633728670182;-0.89935302734375;-0.0928955078125;3.79999999040592;381;100 mA
130.643728670156;-0.8990478515625;-0.09295654296875;3.80999999038067;382;100 mA
130.653728670131;-0.899658203125;-0.092681884765625;3.81999999035543;383;100 mA
130.663728670106;-0.89935302734375;-0.093017578125;3.82999999033018;384;100 mA
130.673728670081;-0.89935302734375;-0.09259033203125;3.83999999030493;385;100 mA
130.683728670055;-0.899658203125;-0.09228515625;3.84999999027968;386;100 mA
130.69372867003;-0.89935302734375;-0.09228515625;3.85999999025444;387;100 mA
130.703728670005;-0.899658203125;-0.09295654296875;3.86999999022919;388;100 mA
130.71372866998;-0.89935302734375;-0.09271240234375;3.87999999020394;389;100 mA
130.723728669954;-0.899658203125;-0.0921630859375;3.88999999017869;390;100 mA
130.733728669929;-0.89996337890625;-0.092010498046875;3.89999999015345;391;100 mA
130.743728669904;-0.8990478515625;-0.091552734375;3.9099999901282;392;100 mA
130.753728669879;-0.899658203125;-0.09234619140625;3.91999999010295;393;100 mA
130.763728669853;-0.89935302734375;-0.09234619140625;3.9299999900777;394;100 mA
130.773728669828;-0.89935302734375;-0.091583251953125;3.93999999005246;395;100 mA
130.783728669803;-0.89935302734375;-0.091766357421875;3.94999999002721;396;100 mA
130.793728669778;-0.899658203125;-0.09185791015625;3.95999999000196;397;100 mA
130.803728669752;-0.899658203125;-0.092254638671875;3.96999998997671;398;100 mA
130.813728669727;-0.89935302734375;-0.092071533203125;3.97999998995147;399;100 mA
130.823728669702;-0.89935302734375;-0.0916748046875;3.98999998992622;400;100 mA
130.833728669677;-0.899658203125;-0.0914306640625;3.99999998990097;401;100 mA
130.843728669651;-0.8990478515625;-0.091705322265625;4.00999998987572;402;100 mA
130.853728669626;-0.89935302734375;-0.09246826171875;4.01999998985048;403;100 mA
130.863728669601;-0.89935302734375;-0.09161376953125;4.02999998982523;404;100 mA
130.873728669576;-0.89996337890625;-0.0916748046875;4.03999998979998;405;100 mA
130.88372866955;-0.89935302734375;-0.091796875;4.04999998977473;406;100 mA
130.893728669525;-0.899658203125;-0.091552734375;4.05999998974949;407;100 mA
130.9037286695;-0.899658203125;-0.091949462890625;4.06999998972424;408;100 mA
130.913728669475;-0.89935302734375;-0.09124755859375;4.07999998969899;409;100 mA
130.923728669449;-0.89935302734375;-0.090789794921875;4.08999998967374;410;100 mA
130.933728669424;-0.89935302734375;-0.090606689453125;4.0999999896485;411;100 mA
130.943728669399;-0.89935302734375;-0.0909423828125;4.10999998962325;412;100 mA
130.953728669374;-0.89935302734375;-0.09075927734375;4.119999989598;413;100 mA
130.963728669348;-0.899658203125;-0.090667724609375;4.12999998957275;414;100 mA
130.973728669323;-0.899658203125;-0.09088134765625;4.1399999895475;415;100 mA
130.983728669298;-0.89996337890625;-0.090576171875;4.14999998952226;416;100 mA
130.993728669273;-0.899658203125;-0.091644287109375;4.15999998949701;417;100 mA
131.003728669247;-0.89935302734375;-0.091949462890625;4.16999998947176;418;100 mA
131.013728669222;-0.89935302734375;-0.09161376953125;4.17999998944651;419;100 mA
131.023728669197;-0.899658203125;-0.092071533203125;4.18999998942127;420;100 mA
131.033728669172;-0.89996337890625;-0.092041015625;4.19999998939602;421;100 mA
131.043728669146;-0.899658203125;-0.09228515625;4.20999998937077;422;100 mA
131.053728669121;-0.89935302734375;-0.092132568359375;4.21999998934552;423;100 mA
131.063728669096;-0.899658203125;-0.0919189453125;4.22999998932028;424;100 mA
131.073728669071;-0.899658203125;-0.091949462890625;4.23999998929503;425;100 mA
131.083728669045;-0.899658203125;-0.092254638671875;4.24999998926978;426;100 mA
131.09372866902;-0.899658203125;-0.0926513671875;4.25999998924453;427;100 mA
131.103728668995;-0.89935302734375;-0.09161376953125;4.26999998921929;428;100 mA
131.11372866897;-0.89935302734375;-0.091583251953125;4.27999998919404;429;100 mA
131.123728668944;-0.899658203125;-0.09173583984375;4.28999998916879;430;100 mA
131.133728668919;-0.899658203125;-0.091552734375;4.29999998914354;431;100 mA
131.143728668894;-0.89935302734375;-0.092376708984375;4.3099999891183;432;100 mA
131.153728668869;-0.89935302734375;-0.092193603515625;4.31999998909305;433;100 mA
131.163728668843;-0.899658203125;-0.09222412109375;4.3299999890678;434;100 mA
131.173728668818;-0.899658203125;-0.092498779296875;4.33999998904255;435;100 mA
131.183728668793;-0.899658203125;-0.09283447265625;4.34999998901731;436;100 mA
131.193728668768;-0.8990478515625;-0.092437744140625;4.35999998899206;437;100 mA
131.203728668742;-0.89996337890625;-0.091827392578125;4.36999998896681;438;100 mA
131.213728668717;-0.89935302734375;-0.091461181640625;4.37999998894156;439;100 mA
131.223728668692;-0.89935302734375;-0.090972900390625;4.38999998891632;440;100 mA
131.233728668667;-0.899658203125;-0.091705322265625;4.39999998889107;441;100 mA
131.243728668641;-0.89935302734375;-0.09161376953125;4.40999998886582;442;100 mA
131.253728668616;-0.899658203125;-0.091339111328125;4.41999998884057;443;100 mA
131.263728668591;-0.89935302734375;-0.09185791015625;4.42999998881533;444;100 mA
131.273728668566;-0.89935302734375;-0.091888427734375;4.43999998879008;445;100 mA
131.28372866854;-0.899658203125;-0.092193603515625;4.44999998876483;446;100 mA
131.293728668515;-0.899658203125;-0.09197998046875;4.45999998873958;447;100 mA
131.30372866849;-0.899658203125;-0.09161376953125;4.46999998871433;448;100 mA
131.313728668465;-0.899658203125;-0.091552734375;4.47999998868909;449;100 mA
131.323728668439;-0.89996337890625;-0.09197998046875;4.48999998866384;450;100 mA
131.333728668414;-0.89935302734375;-0.09228515625;4.49999998863859;451;100 mA
131.343728668389;-0.89935302734375;-0.09130859375;4.50999998861334;452;100 mA
131.353728668364;-0.8990478515625;-0.091064453125;4.5199999885881;453;100 mA
131.363728668338;-0.89935302734375;-0.09112548828125;4.52999998856285;454;100 mA
131.373728668313;-0.899658203125;-0.091064453125;4.5399999885376;455;100 mA
131.383728668288;-0.899658203125;-0.091644287109375;4.54999998851235;456;100 mA
131.393728668263;-0.899658203125;-0.090911865234375;4.55999998848711;457;100 mA
131.403728668237;-0.899658203125;-0.090484619140625;4.56999998846186;458;100 mA
131.413728668212;-0.89935302734375;-0.090728759765625;4.57999998843661;459;100 mA
131.423728668187;-0.89996337890625;-0.0911865234375;4.58999998841136;460;100 mA
131.433728668162;-0.899658203125;-0.091278076171875;4.59999998838612;461;100 mA
131.443728668136;-0.89996337890625;-0.091217041015625;4.60999998836087;462;100 mA
131.453728668111;-0.899658203125;-0.09130859375;4.61999998833562;463;100 mA
131.463728668086;-0.899658203125;-0.09130859375;4.62999998831037;464;100 mA
131.473728668061;-0.89996337890625;-0.09234619140625;4.63999998828513;465;100 mA
131.483728668035;-0.89996337890625;-0.0921630859375;4.64999998825988;466;100 mA
131.49372866801;-0.89935302734375;-0.09161376953125;4.65999998823463;467;100 mA
131.503728667985;-0.899658203125;-0.091827392578125;4.66999998820938;468;100 mA
131.51372866796;-0.899658203125;-0.091766357421875;4.67999998818414;469;100 mA
131.523728667935;-0.89935302734375;-0.092071533203125;4.68999998815889;470;100 mA
131.533728667909;-0.89935302734375;-0.091949462890625;4.69999998813364;471;100 mA
131.543728667884;-0.899658203125;-0.09161376953125;4.70999998810839;472;100 mA
131.553728667859;-0.899658203125;-0.0916748046875;4.71999998808315;473;100 mA
131.563728667834;-0.8990478515625;-0.09210205078125;4.7299999880579;474;100 mA
131.573728667808;-0.89996337890625;-0.092437744140625;4.73999998803265;475;100 mA
131.583728667783;-0.89935302734375;-0.091796875;4.7499999880074;476;100 mA
131.593728667758;-0.89935302734375;-0.091888427734375;4.75999998798216;477;100 mA
131.603728667733;-0.89996337890625;-0.092193603515625;4.76999998795691;478;100 mA
131.613728667707;-0.89996337890625;-0.092315673828125;4.77999998793166;479;100 mA
131.623728667682;-0.899658203125;-0.0931396484375;4.78999998790641;480;100 mA
131.633728667657;-0.899658203125;-0.09283447265625;4.79999998788116;481;100 mA
131.643728667632;-0.899658203125;-0.092926025390625;4.80999998785592;482;100 mA
131.653728667606;-0.899658203125;-0.093292236328125;4.81999998783067;483;100 mA
131.663728667581;-0.899658203125;-0.09356689453125;4.82999998780542;484;100 mA
131.673728667556;-0.899658203125;-0.093353271484375;4.83999998778017;485;100 mA
131.683728667531;-0.89935302734375;-0.092926025390625;4.84999998775493;486;100 mA
131.693728667505;-0.89935302734375;-0.092620849609375;4.85999998772968;487;100 mA
131.70372866748;-0.89935302734375;-0.09210205078125;4.86999998770443;488;100 mA
131.713728667455;-0.89935302734375;-0.09271240234375;4.87999998767918;489;100 mA
131.72372866743;-0.89996337890625;-0.09222412109375;4.88999998765394;490;100 mA
131.733728667404;-0.89935302734375;-0.091461181640625;4.89999998762869;491;100 mA
131.743728667379;-0.899658203125;-0.091583251953125;4.90999998760344;492;100 mA
131.753728667354;-0.89935302734375;-0.091400146484375;4.91999998757819;493;100 mA
131.763728667329;-0.899658203125;-0.091522216796875;4.92999998755295;494;100 mA
131.773728667303;-0.89996337890625;-0.09136962890625;4.9399999875277;495;100 mA
131.783728667278;-0.89996337890625;-0.090911865234375;4.94999998750245;496;100 mA
131.793728667253;-0.899658203125;-0.090911865234375;4.9599999874772;497;100 mA
131.803728667228;-0.89935302734375;-0.091400146484375;4.96999998745196;498;100 mA
131.813728667202;-0.899658203125;-0.09161376953125;4.97999998742671;499;100 mA
131.823728667177;-0.89935302734375;-0.09075927734375;4.98999998740146;500;100 mA
131.833728667152;-0.89935302734375;-0.09051513671875;4.99999998737621;501;100 mA
131.843728667127;-0.899658203125;-0.090423583984375;5.00999998735097;502;100 mA
131.853728667101;-0.89996337890625;-0.09051513671875;5.01999998732572;503;100 mA
131.863728667076;-0.89935302734375;-0.091339111328125;5.02999998730047;504;100 mA
131.873728667051;-0.899658203125;-0.09075927734375;5.03999998727522;505;100 mA
131.883728667026;-0.899658203125;-0.090667724609375;5.04999998724998;506;100 mA
131.893728667;-0.89935302734375;-0.091033935546875;5.05999998722473;507;100 mA
131.903728666975;-0.89935302734375;-0.091156005859375;5.06999998719948;508;100 mA
131.91372866695;-0.899658203125;-0.091033935546875;5.07999998717423;509;100 mA
131.923728666925;-0.89874267578125;-0.090484619140625;5.08999998714899;510;100 mA
131.933728666899;-0.899658203125;-0.090362548828125;5.09999998712374;511;100 mA
131.943728666874;-0.89935302734375;-0.090240478515625;5.10999998709849;512;100 mA
131.953728666849;-0.89935302734375;-0.091156005859375;5.11999998707324;513;100 mA
131.963728666824;-0.899658203125;-0.090911865234375;5.129999987048;514;100 mA
131.973728666798;-0.8990478515625;-0.090179443359375;5.13999998702275;515;100 mA
131.983728666773;-0.8990478515625;-0.0902099609375;5.1499999869975;516;100 mA
131.993728666748;-0.899658203125;-0.090057373046875;5.15999998697225;517;100 mA
132.003728666723;-0.899658203125;-0.090423583984375;5.169999986947;518;100 mA
132.013728666697;-0.899658203125;-0.0902099609375;5.17999998692176;519;100 mA
132.023728666672;-0.899658203125;-0.089630126953125;5.18999998689651;520;100 mA
132.033728666647;-0.8990478515625;-0.089569091796875;5.19999998687126;521;100 mA
132.043728666622;-0.899658203125;-0.09002685546875;5.20999998684601;522;100 mA
132.053728666596;-0.899658203125;-0.090423583984375;5.21999998682077;523;100 mA
132.063728666571;-0.899658203125;-0.090087890625;5.22999998679552;524;100 mA
132.073728666546;-0.89996337890625;-0.090179443359375;5.23999998677027;525;100 mA
132.083728666521;-0.899658203125;-0.0904541015625;5.24999998674502;526;100 mA
132.093728666495;-0.89935302734375;-0.090911865234375;5.25999998671978;527;100 mA
132.10372866647;-0.8990478515625;-0.09173583984375;5.26999998669453;528;100 mA
132.113728666445;-0.8990478515625;-0.090850830078125;5.27999998666928;529;100 mA
132.12372866642;-0.89935302734375;-0.090484619140625;5.28999998664403;530;100 mA
132.133728666394;-0.89935302734375;-0.090576171875;5.29999998661879;531;100 mA
132.143728666369;-0.899658203125;-0.090576171875;5.30999998659354;532;100 mA
132.153728666344;-0.899658203125;-0.090545654296875;5.31999998656829;533;100 mA
132.163728666319;-0.89935302734375;-0.090118408203125;5.32999998654304;534;100 mA
132.173728666293;-0.899658203125;-0.089996337890625;5.3399999865178;535;100 mA
132.183728666268;-0.89935302734375;-0.090057373046875;5.34999998649255;536;100 mA
132.193728666243;-0.899658203125;-0.090972900390625;5.3599999864673;537;100 mA
132.203728666218;-0.89935302734375;-0.090789794921875;5.36999998644205;538;100 mA
132.213728666192;-0.8990478515625;-0.09033203125;5.37999998641681;539;100 mA
132.223728666167;-0.899658203125;-0.0904541015625;5.38999998639156;540;100 mA
132.233728666142;-0.89935302734375;-0.090301513671875;5.39999998636631;541;100 mA
132.243728666117;-0.89935302734375;-0.0909423828125;5.40999998634106;542;100 mA
132.253728666091;-0.89935302734375;-0.0911865234375;5.41999998631582;543;100 mA
132.263728666066;-0.89935302734375;-0.091094970703125;5.42999998629057;544;100 mA
132.273728666041;-0.89935302734375;-0.09136962890625;5.43999998626532;545;100 mA
132.283728666016;-0.89935302734375;-0.09185791015625;5.44999998624007;546;100 mA
132.29372866599;-0.89935302734375;-0.09222412109375;5.45999998621483;547;100 mA
132.303728665965;-0.899658203125;-0.091796875;5.46999998618958;548;100 mA
132.31372866594;-0.899658203125;-0.091705322265625;5.47999998616433;549;100 mA
132.323728665915;-0.89935302734375;-0.0916748046875;5.48999998613908;550;100 mA
132.333728665889;-0.89935302734375;-0.091888427734375;5.49999998611383;551;100 mA
132.343728665864;-0.89874267578125;-0.09259033203125;5.50999998608859;552;100 mA
132.353728665839;-0.89935302734375;-0.09185791015625;5.51999998606334;553;100 mA
132.363728665814;-0.89935302734375;-0.0916748046875;5.52999998603809;554;100 mA
132.373728665788;-0.899658203125;-0.091949462890625;5.53999998601284;555;100 mA
132.383728665763;-0.89996337890625;-0.0921630859375;5.5499999859876;556;100 mA
132.393728665738;-0.89935302734375;-0.092254638671875;5.55999998596235;557;100 mA
132.403728665713;-0.89935302734375;-0.091888427734375;5.5699999859371;558;100 mA
132.413728665687;-0.89935302734375;-0.091827392578125;5.57999998591185;559;100 mA
132.423728665662;-0.89935302734375;-0.091949462890625;5.58999998588661;560;100 mA
132.433728665637;-0.899658203125;-0.0928955078125;5.59999998586136;561;100 mA
132.443728665612;-0.89996337890625;-0.0926513671875;5.60999998583611;562;100 mA
132.453728665586;-0.899658203125;-0.092071533203125;5.61999998581086;563;100 mA
132.463728665561;-0.89996337890625;-0.0921630859375;5.62999998578562;564;100 mA
132.473728665536;-0.89935302734375;-0.091827392578125;5.63999998576037;565;100 mA
132.483728665511;-0.899658203125;-0.09234619140625;5.64999998573512;566;100 mA
132.493728665485;-0.89935302734375;-0.092254638671875;5.65999998570987;567;100 mA
132.50372866546;-0.8990478515625;-0.091644287109375;5.66999998568463;568;100 mA
132.513728665435;-0.8990478515625;-0.091766357421875;5.67999998565938;569;100 mA
132.52372866541;-0.899658203125;-0.092376708984375;5.68999998563413;570;100 mA
132.533728665385;-0.89996337890625;-0.0926513671875;5.69999998560888;571;100 mA
132.543728665359;-0.89996337890625;-0.092193603515625;5.70999998558364;572;100 mA
132.553728665334;-0.8990478515625;-0.0921630859375;5.71999998555839;573;100 mA
132.563728665309;-0.89996337890625;-0.09246826171875;5.72999998553314;574;100 mA
132.573728665284;-0.89935302734375;-0.09283447265625;5.73999998550789;575;100 mA
132.583728665258;-0.89935302734375;-0.09332275390625;5.74999998548265;576;100 mA
132.593728665233;-0.899658203125;-0.09234619140625;5.7599999854574;577;100 mA
132.603728665208;-0.899658203125;-0.09210205078125;5.76999998543215;578;100 mA
132.613728665183;-0.899658203125;-0.092498779296875;5.7799999854069;579;100 mA
132.623728665157;-0.899658203125;-0.09259033203125;5.78999998538166;580;100 mA
132.633728665132;-0.89935302734375;-0.09259033203125;5.79999998535641;581;100 mA
132.643728665107;-0.89935302734375;-0.0919189453125;5.80999998533116;582;100 mA
132.653728665082;-0.89935302734375;-0.091705322265625;5.81999998530591;583;100 mA
132.663728665056;-0.89996337890625;-0.091888427734375;5.82999998528066;584;100 mA
132.673728665031;-0.89935302734375;-0.0928955078125;5.83999998525542;585;100 mA
132.683728665006;-0.89935302734375;-0.0926513671875;5.84999998523017;586;100 mA
132.693728664981;-0.8990478515625;-0.0921630859375;5.85999998520492;587;100 mA
132.703728664955;-0.899658203125;-0.092254638671875;5.86999998517967;588;100 mA
132.71372866493;-0.89935302734375;-0.09197998046875;5.87999998515443;589;100 mA
132.723728664905;-0.89996337890625;-0.09246826171875;5.88999998512918;590;100 mA
132.73372866488;-0.899658203125;-0.092193603515625;5.89999998510393;591;100 mA
132.743728664854;-0.89935302734375;-0.091400146484375;5.90999998507868;592;100 mA
132.753728664829;-0.89996337890625;-0.09136962890625;5.91999998505344;593;100 mA
132.763728664804;-0.89996337890625;-0.09173583984375;5.92999998502819;594;100 mA
132.773728664779;-0.899658203125;-0.09210205078125;5.93999998500294;595;100 mA
132.783728664753;-0.899658203125;-0.091796875;5.94999998497769;596;100 mA
132.793728664728;-0.899658203125;-0.091796875;5.95999998495245;597;100 mA
132.803728664703;-0.899658203125;-0.091766357421875;5.9699999849272;598;100 mA
132.813728664678;-0.899658203125;-0.09197998046875;5.97999998490195;599;100 mA
132.823728664652;-0.89996337890625;-0.09228515625;5.9899999848767;600;100 mA
132.833728664627;-0.89935302734375;-0.09112548828125;5.99999998485146;601;100 mA
132.843728664602;-0.899658203125;-0.0908203125;6.00999998482621;602;100 mA
132.853728664577;-0.89935302734375;-0.091033935546875;6.01999998480096;603;100 mA
132.863728664551;-0.899658203125;-0.09124755859375;6.02999998477571;604;100 mA
132.873728664526;-0.899658203125;-0.09149169921875;6.03999998475047;605;100 mA
132.883728664501;-0.8990478515625;-0.090972900390625;6.04999998472522;606;100 mA
132.893728664476;-0.899658203125;-0.0906982421875;6.05999998469997;607;100 mA
132.90372866445;-0.89935302734375;-0.090606689453125;6.06999998467472;608;100 mA
132.913728664425;-0.8990478515625;-0.09112548828125;6.07999998464948;609;100 mA
132.9237286644;-0.899658203125;-0.090728759765625;6.08999998462423;610;100 mA
132.933728664375;-0.89996337890625;-0.090301513671875;6.09999998459898;611;100 mA
132.943728664349;-0.89996337890625;-0.090606689453125;6.10999998457373;612;100 mA
132.953728664324;-0.899658203125;-0.090606689453125;6.11999998454849;613;100 mA
132.963728664299;-0.89935302734375;-0.091522216796875;6.12999998452324;614;100 mA
132.973728664274;-0.899658203125;-0.091583251953125;6.13999998449799;615;100 mA
132.983728664248;-0.8990478515625;-0.0911865234375;6.14999998447274;616;100 mA
132.993728664223;-0.89935302734375;-0.09124755859375;6.1599999844475;617;100 mA
133.003728664198;-0.89996337890625;-0.091217041015625;6.16999998442225;618;100 mA
133.013728664173;-0.89935302734375;-0.09136962890625;6.179999984397;619;100 mA
133.023728664147;-0.89935302734375;-0.091064453125;6.18999998437175;620;100 mA
133.033728664122;-0.899658203125;-0.090911865234375;6.1999999843465;621;100 mA
133.043728664097;-0.89996337890625;-0.0908203125;6.20999998432126;622;100 mA
133.053728664072;-0.89874267578125;-0.0911865234375;6.21999998429601;623;100 mA
133.063728664046;-0.899658203125;-0.091827392578125;6.22999998427076;624;100 mA
133.073728664021;-0.899658203125;-0.0911865234375;6.23999998424551;625;100 mA
133.083728663996;-0.89935302734375;-0.0914306640625;6.24999998422027;626;100 mA
133.093728663971;-0.89935302734375;-0.09185791015625;6.25999998419502;627;100 mA
133.103728663945;-0.899658203125;-0.09197998046875;6.26999998416977;628;100 mA
133.11372866392;-0.89935302734375;-0.0924072265625;6.27999998414452;629;100 mA
133.123728663895;-0.89935302734375;-0.092071533203125;6.28999998411928;630;100 mA
133.13372866387;-0.89874267578125;-0.0919189453125;6.29999998409403;631;100 mA
133.143728663844;-0.89996337890625;-0.09210205078125;6.30999998406878;632;100 mA
133.153728663819;-0.899658203125;-0.092926025390625;6.31999998404353;633;100 mA
133.163728663794;-0.8990478515625;-0.093017578125;6.32999998401829;634;100 mA
133.173728663769;-0.89996337890625;-0.092864990234375;6.33999998399304;635;100 mA
133.183728663743;-0.8990478515625;-0.0928955078125;6.34999998396779;636;100 mA
133.193728663718;-0.899658203125;-0.092437744140625;6.35999998394254;637;100 mA
133.203728663693;-0.899658203125;-0.09307861328125;6.3699999839173;638;100 mA
133.213728663668;-0.899658203125;-0.093017578125;6.37999998389205;639;100 mA
133.223728663642;-0.89935302734375;-0.09259033203125;6.3899999838668;640;100 mA
133.233728663617;-0.89935302734375;-0.0927734375;6.39999998384155;641;100 mA
133.243728663592;-0.89996337890625;-0.0926513671875;6.40999998381631;642;100 mA
133.253728663567;-0.89935302734375;-0.092803955078125;6.41999998379106;643;100 mA
133.263728663541;-0.89935302734375;-0.092376708984375;6.42999998376581;644;100 mA
133.273728663516;-0.89935302734375;-0.091888427734375;6.43999998374056;645;100 mA
133.283728663491;-0.89996337890625;-0.09149169921875;6.44999998371532;646;100 mA
133.293728663466;-0.8990478515625;-0.091644287109375;6.45999998369007;647;100 mA
133.30372866344;-0.89996337890625;-0.091888427734375;6.46999998366482;648;100 mA
133.313728663415;-0.899658203125;-0.0909423828125;6.47999998363957;649;100 mA
133.32372866339;-0.899658203125;-0.0906982421875;6.48999998361433;650;100 mA
133.333728663365;-0.899658203125;-0.0906982421875;6.49999998358908;651;100 mA
133.343728663339;-0.899658203125;-0.090728759765625;6.50999998356383;652;100 mA
133.353728663314;-0.89874267578125;-0.091064453125;6.51999998353858;653;100 mA
133.363728663289;-0.89935302734375;-0.090667724609375;6.52999998351333;654;100 mA
133.373728663264;-0.8990478515625;-0.090545654296875;6.53999998348809;655;100 mA
133.383728663238;-0.899658203125;-0.09075927734375;6.54999998346284;656;100 mA
133.393728663213;-0.89996337890625;-0.091339111328125;6.55999998343759;657;100 mA
133.403728663188;-0.899658203125;-0.091156005859375;6.56999998341234;658;100 mA
133.413728663163;-0.899658203125;-0.091033935546875;6.5799999833871;659;100 mA
133.423728663137;-0.8990478515625;-0.091156005859375;6.58999998336185;660;100 mA
133.433728663112;-0.89935302734375;-0.090850830078125;6.5999999833366;661;100 mA
133.443728663087;-0.89935302734375;-0.091644287109375;6.60999998331135;662;100 mA
133.453728663062;-0.89996337890625;-0.091552734375;6.61999998328611;663;100 mA
133.463728663036;-0.89935302734375;-0.09112548828125;6.62999998326086;664;100 mA
133.473728663011;-0.89935302734375;-0.09130859375;6.63999998323561;665;100 mA
133.483728662986;-0.899658203125;-0.09124755859375;6.64999998321036;666;100 mA
133.493728662961;-0.89996337890625;-0.09136962890625;6.65999998318512;667;100 mA
133.503728662935;-0.89935302734375;-0.090972900390625;6.66999998315987;668;100 mA
133.51372866291;-0.899658203125;-0.090576171875;6.67999998313462;669;100 mA
133.523728662885;-0.899658203125;-0.09039306640625;6.68999998310937;670;100 mA
133.53372866286;-0.89935302734375;-0.0908203125;6.69999998308413;671;100 mA
133.543728662834;-0.8990478515625;-0.091217041015625;6.70999998305888;672;100 mA
133.553728662809;-0.89935302734375;-0.090606689453125;6.71999998303363;673;100 mA
133.563728662784;-0.89996337890625;-0.090667724609375;6.72999998300838;674;100 mA
133.573728662759;-0.89935302734375;-0.090911865234375;6.73999998298314;675;100 mA
133.583728662734;-0.899658203125;-0.09124755859375;6.74999998295789;676;100 mA
133.593728662708;-0.89996337890625;-0.091796875;6.75999998293264;677;100 mA
133.603728662683;-0.899658203125;-0.091400146484375;6.76999998290739;678;100 mA
133.613728662658;-0.89935302734375;-0.091217041015625;6.77999998288215;679;100 mA
133.623728662633;-0.899658203125;-0.09124755859375;6.7899999828569;680;100 mA
133.633728662607;-0.899658203125;-0.091522216796875;6.79999998283165;681;100 mA
133.643728662582;-0.89935302734375;-0.0911865234375;6.8099999828064;682;100 mA
133.653728662557;-0.899658203125;-0.090972900390625;6.81999998278116;683;100 mA
133.663728662532;-0.89996337890625;-0.09100341796875;6.82999998275591;684;100 mA
133.673728662506;-0.8990478515625;-0.0906982421875;6.83999998273066;685;100 mA
133.683728662481;-0.899658203125;-0.09136962890625;6.84999998270541;686;100 mA
133.693728662456;-0.8990478515625;-0.090972900390625;6.85999998268016;687;100 mA
133.703728662431;-0.899658203125;-0.090362548828125;6.86999998265492;688;100 mA
133.713728662405;-0.89935302734375;-0.090301513671875;6.87999998262967;689;100 mA
133.72372866238;-0.899658203125;-0.0899658203125;6.88999998260442;690;100 mA
133.733728662355;-0.899658203125;-0.0902099609375;6.89999998257917;691;100 mA
133.74372866233;-0.8990478515625;-0.090057373046875;6.90999998255393;692;100 mA
133.753728662304;-0.899658203125;-0.08984375;6.91999998252868;693;100 mA
133.763728662279;-0.8990478515625;-0.089752197265625;6.92999998250343;694;100 mA
133.773728662254;-0.89996337890625;-0.0902099609375;6.93999998247818;695;100 mA
133.783728662229;-0.899658203125;-0.090484619140625;6.94999998245294;696;100 mA
133.793728662203;-0.89935302734375;-0.08990478515625;6.95999998242769;697;100 mA
133.803728662178;-0.89935302734375;-0.089874267578125;6.96999998240244;698;100 mA
133.813728662153;-0.89874267578125;-0.089813232421875;6.97999998237719;699;100 mA
133.823728662128;-0.899658203125;-0.09014892578125;6.98999998235195;700;100 mA
