Time (s);WE(1).Potential (V);WE(1).Current (A);Corrected time (s);Index;Current range
11.144425971863;0.399566650390625;0.0129302978515625;0;1;100 mA
11.1544259718378;0.399688720703125;0.0093536376953125;0.00999999997475243;2;100 mA
11.1644259718125;0.39971923828125;0.0076141357421875;0.0199999999495049;3;100 mA
11.1744259717873;0.39971923828125;0.0065582275390625;0.0299999999242573;4;100 mA
11.184425971762;0.39971923828125;0.005792236328125;0.0399999998990097;5;100 mA
11.1944259717368;0.399688720703125;0.0052703857421875;0.0499999998737621;6;100 mA
11.2044259717115;0.39971923828125;0.004901123046875;0.0599999998485146;7;100 mA
11.2144259716863;0.399688720703125;0.00459075927734375;0.069999999823267;8;100 mA
11.224425971661;0.399810791015625;0.00431854248046875;0.0799999997980194;9;100 mA
11.2344259716358;0.399749755859375;0.00409271240234375;0.0899999997727718;10;100 mA
11.2444259716106;0.39971923828125;0.0038916015625;0.0999999997475243;11;100 mA
11.2544259715853;0.39971923828125;0.00372802734375;0.109999999722277;12;100 mA
11.2644259715601;0.3997802734375;0.00361724853515625;0.119999999697029;13;100 mA
11.2744259715348;0.39971923828125;0.0034783935546875;0.129999999671782;14;100 mA
11.2844259715096;0.3997802734375;0.00335540771484375;0.139999999646534;15;100 mA
11.2944259714843;0.3997802734375;0.0032666015625;0.149999999621286;16;100 mA
11.3044259714591;0.3997802734375;0.00317169189453125;0.159999999596039;17;100 mA
11.3144259714338;0.399810791015625;0.00310455322265625;0.169999999570791;18;100 mA
11.3244259714086;0.399749755859375;0.0030487060546875;0.179999999545544;19;100 mA
11.3344259713833;0.3997802734375;0.00298004150390625;0.189999999520296;20;100 mA
11.3444259713581;0.3997802734375;0.002919921875;0.199999999495049;21;100 mA
11.3544259713328;0.39971923828125;0.0028717041015625;0.209999999469801;22;100 mA
11.3644259713076;0.399688720703125;0.002813720703125;0.219999999444553;23;100 mA
11.3744259712823;0.3997802734375;0.0027825927734375;0.229999999419306;24;100 mA
11.3844259712571;0.399749755859375;0.0027606201171875;0.239999999394058;25;100 mA
11.3944259712318;0.3997802734375;0.0027294921875;0.249999999368811;26;100 mA
11.4044259712066;0.39971923828125;0.00269195556640625;0.259999999343563;27;100 mA
11.4144259711813;0.39984130859375;0.00265960693359375;0.269999999318316;28;100 mA
11.4244259711561;0.3997802734375;0.00264434814453125;0.279999999293068;29;100 mA
11.4344259711308;0.399749755859375;0.002625732421875;0.28999999926782;30;100 mA
11.4444259711056;0.3997802734375;0.00260894775390625;0.299999999242573;31;100 mA
11.4544259710804;0.39971923828125;0.00256683349609375;0.309999999217325;32;100 mA
11.4644259710551;0.399749755859375;0.0025360107421875;0.319999999192078;33;100 mA
11.4744259710299;0.399749755859375;0.002510986328125;0.32999999916683;34;100 mA
11.4844259710046;0.3997802734375;0.0024755859375;0.339999999141583;35;100 mA
11.4944259709794;0.399810791015625;0.00246124267578125;0.349999999116335;36;100 mA
11.5044259709541;0.3997802734375;0.00245697021484375;0.359999999091087;37;100 mA
11.5144259709289;0.399749755859375;0.0024407958984375;0.36999999906584;38;100 mA
11.5244259709036;0.399810791015625;0.0024261474609375;0.379999999040592;39;100 mA
11.5344259708784;0.39984130859375;0.00240966796875;0.389999999015345;40;100 mA
11.5444259708531;0.3997802734375;0.002401123046875;0.399999998990097;41;100 mA
11.5544259708279;0.39971923828125;0.00238861083984375;0.40999999896485;42;100 mA
11.5644259708026;0.3997802734375;0.00239471435546875;0.419999998939602;43;100 mA
11.5744259707774;0.399749755859375;0.0023736572265625;0.429999998914354;44;100 mA
11.5844259707521;0.3997802734375;0.0023577880859375;0.439999998889107;45;100 mA
11.5944259707269;0.399749755859375;0.00234649658203125;0.449999998863859;46;100 mA
11.6044259707016;0.3997802734375;0.00233856201171875;0.459999998838612;47;100 mA
11.6144259706764;0.3997802734375;0.00233612060546875;0.469999998813364;48;100 mA
11.6244259706511;0.399749755859375;0.00233795166015625;0.479999998788116;49;100 mA
11.6344259706259;0.39971923828125;0.00232086181640625;0.489999998762869;50;100 mA
11.6444259706007;0.399749755859375;0.00231201171875;0.499999998737621;51;100 mA
11.6544259705754;0.399749755859375;0.002298583984375;0.509999998712374;52;100 mA
11.6644259705502;0.399749755859375;0.00227996826171875;0.519999998687126;53;100 mA
11.6744259705249;0.3997802734375;0.00227752685546875;0.529999998661879;54;100 mA
11.6844259704997;0.399749755859375;0.00228515625;0.539999998636631;55;100 mA
11.6944259704744;0.399749755859375;0.0022772216796875;0.549999998611383;56;100 mA
11.7044259704492;0.3997802734375;0.0022637939453125;0.559999998586136;57;100 mA
11.7144259704239;0.399749755859375;0.002247314453125;0.569999998560888;58;100 mA
11.7244259703987;0.399749755859375;0.002254638671875;0.579999998535641;59;100 mA
11.7344259703734;0.399749755859375;0.00223876953125;0.589999998510393;60;100 mA
11.7444259703482;0.399810791015625;0.002239990234375;0.599999998485146;61;100 mA
11.7544259703229;0.399749755859375;0.00222076416015625;0.609999998459898;62;100 mA
11.7644259702977;0.39971923828125;0.00221466064453125;0.61999999843465;63;100 mA
11.7744259702724;0.399810791015625;0.00220733642578125;0.629999998409403;64;100 mA
11.7844259702472;0.3997802734375;0.00219635009765625;0.639999998384155;65;100 mA
11.7944259702219;0.39971923828125;0.00219573974609375;0.649999998358908;66;100 mA
11.8044259701967;0.39971923828125;0.0022027587890625;0.65999999833366;67;100 mA
11.8144259701714;0.39971923828125;0.0021942138671875;0.669999998308413;68;100 mA
11.8244259701462;0.399749755859375;0.00219085693359375;0.679999998283165;69;100 mA
11.8344259701209;0.3997802734375;0.00218353271484375;0.689999998257917;70;100 mA
11.8444259700957;0.39971923828125;0.00218658447265625;0.69999999823267;71;100 mA
11.8544259700705;0.39984130859375;0.00218048095703125;0.709999998207422;72;100 mA
11.8644259700452;0.39971923828125;0.00219451904296875;0.719999998182175;73;100 mA
11.87442597002;0.3997802734375;0.00217803955078125;0.729999998156927;74;100 mA
11.8844259699947;0.399749755859375;0.00217437744140625;0.73999999813168;75;100 mA
11.8944259699695;0.399749755859375;0.00216766357421875;0.749999998106432;76;100 mA
11.9044259699442;0.399749755859375;0.002171630859375;0.759999998081184;77;100 mA
11.914425969919;0.3997802734375;0.0021697998046875;0.769999998055937;78;100 mA
11.9244259698937;0.399749755859375;0.00217254638671875;0.779999998030689;79;100 mA
11.9344259698685;0.3997802734375;0.00215301513671875;0.789999998005442;80;100 mA
11.9444259698432;0.3997802734375;0.00214813232421875;0.799999997980194;81;100 mA
11.954425969818;0.39971923828125;0.00214019775390625;0.809999997954947;82;100 mA
11.9644259697927;0.399810791015625;0.0021331787109375;0.819999997929699;83;100 mA
11.9744259697675;0.3997802734375;0.00213104248046875;0.829999997904451;84;100 mA
11.9844259697422;0.399810791015625;0.00214447021484375;0.839999997879204;85;100 mA
11.994425969717;0.399749755859375;0.00213409423828125;0.849999997853956;86;100 mA
12.0044259696917;0.3997802734375;0.0021319580078125;0.859999997828709;87;100 mA
12.0144259696665;0.3997802734375;0.00211517333984375;0.869999997803461;88;100 mA
12.0244259696412;0.399810791015625;0.00212371826171875;0.879999997778214;89;100 mA
12.034425969616;0.399749755859375;0.0021142578125;0.889999997752966;90;100 mA
12.0444259695907;0.399810791015625;0.00211883544921875;0.899999997727718;91;100 mA
12.0544259695655;0.3997802734375;0.0020947265625;0.909999997702471;92;100 mA
12.0644259695403;0.39971923828125;0.00208648681640625;0.919999997677223;93;100 mA
12.074425969515;0.3997802734375;0.00207794189453125;0.929999997651976;94;100 mA
12.0844259694898;0.3997802734375;0.00207855224609375;0.939999997626728;95;100 mA
12.0944259694645;0.399749755859375;0.00207763671875;0.949999997601481;96;100 mA
12.1044259694393;0.3997802734375;0.0020904541015625;0.959999997576233;97;100 mA
12.114425969414;0.399810791015625;0.0020843505859375;0.969999997550985;98;100 mA
12.1244259693888;0.399749755859375;0.00209381103515625;0.979999997525738;99;100 mA
12.1344259693635;0.3997802734375;0.0020977783203125;0.98999999750049;100;100 mA
12.1444259693383;0.3997802734375;0.0021075439453125;0.999999997475243;101;100 mA
12.154425969313;0.39984130859375;0.002100830078125;1.00999999745;102;100 mA
12.1644259692878;0.399810791015625;0.0021124267578125;1.01999999742475;103;100 mA
12.1744259692625;0.399749755859375;0.0020977783203125;1.0299999973995;104;100 mA
12.1844259692373;0.3997802734375;0.00209869384765625;1.03999999737425;105;100 mA
12.194425969212;0.399810791015625;0.00209228515625;1.049999997349;106;100 mA
12.2044259691868;0.3997802734375;0.00209930419921875;1.05999999732376;107;100 mA
12.2144259691615;0.3997802734375;0.00208953857421875;1.06999999729851;108;100 mA
12.2244259691363;0.39971923828125;0.00209381103515625;1.07999999727326;109;100 mA
12.234425969111;0.39984130859375;0.002071533203125;1.08999999724801;110;100 mA
12.2444259690858;0.3997802734375;0.00207122802734375;1.09999999722277;111;100 mA
12.2544259690605;0.399810791015625;0.002061767578125;1.10999999719752;112;100 mA
12.2644259690353;0.3997802734375;0.00205596923828125;1.11999999717227;113;100 mA
12.2744259690101;0.399749755859375;0.00205810546875;1.12999999714702;114;100 mA
12.2844259689848;0.399749755859375;0.00206878662109375;1.13999999712178;115;100 mA
12.2944259689596;0.3997802734375;0.00206085205078125;1.14999999709653;116;100 mA
12.3044259689343;0.3997802734375;0.00206207275390625;1.15999999707128;117;100 mA
12.3144259689091;0.3997802734375;0.00205352783203125;1.16999999704603;118;100 mA
12.3244259688838;0.3997802734375;0.00207366943359375;1.17999999702079;119;100 mA
12.3344259688586;0.399810791015625;0.00206146240234375;1.18999999699554;120;100 mA
12.3444259688333;0.399871826171875;0.002066650390625;1.19999999697029;121;100 mA
12.3544259688081;0.399749755859375;0.00204925537109375;1.20999999694504;122;100 mA
12.3644259687828;0.399688720703125;0.00204803466796875;1.2199999969198;123;100 mA
12.3744259687576;0.399749755859375;0.0020318603515625;1.22999999689455;124;100 mA
12.3844259687323;0.3997802734375;0.00202728271484375;1.2399999968693;125;100 mA
12.3944259687071;0.399749755859375;0.002021484375;1.24999999684405;126;100 mA
12.4044259686818;0.3997802734375;0.00202850341796875;1.25999999681881;127;100 mA
12.4144259686566;0.3997802734375;0.00201873779296875;1.26999999679356;128;100 mA
12.4244259686313;0.399749755859375;0.0020220947265625;1.27999999676831;129;100 mA
12.4344259686061;0.3997802734375;0.00202301025390625;1.28999999674306;130;100 mA
12.4444259685808;0.3997802734375;0.00202392578125;1.29999999671782;131;100 mA
12.4544259685556;0.39971923828125;0.00201202392578125;1.30999999669257;132;100 mA
12.4644259685303;0.3997802734375;0.00201812744140625;1.31999999666732;133;100 mA
12.4744259685051;0.399749755859375;0.0020001220703125;1.32999999664207;134;100 mA
12.4844259684799;0.399749755859375;0.00199981689453125;1.33999999661683;135;100 mA
12.4944259684546;0.3997802734375;0.0019927978515625;1.34999999659158;136;100 mA
12.5044259684294;0.39971923828125;0.00201080322265625;1.35999999656633;137;100 mA
12.5144259684041;0.399749755859375;0.0020025634765625;1.36999999654108;138;100 mA
12.5244259683789;0.3997802734375;0.0020166015625;1.37999999651583;139;100 mA
12.5344259683536;0.39971923828125;0.002000732421875;1.38999999649059;140;100 mA
12.5444259683284;0.39971923828125;0.002003173828125;1.39999999646534;141;100 mA
12.5544259683031;0.399810791015625;0.00199920654296875;1.40999999644009;142;100 mA
12.5644259682779;0.399749755859375;0.00200042724609375;1.41999999641484;143;100 mA
12.5744259682526;0.3997802734375;0.00199920654296875;1.4299999963896;144;100 mA
12.5844259682274;0.3997802734375;0.00200439453125;1.43999999636435;145;100 mA
12.5944259682021;0.3997802734375;0.00199005126953125;1.4499999963391;146;100 mA
12.6044259681769;0.3997802734375;0.001990966796875;1.45999999631385;147;100 mA
12.6144259681516;0.399749755859375;0.00198516845703125;1.46999999628861;148;100 mA
12.6244259681264;0.3997802734375;0.00200408935546875;1.47999999626336;149;100 mA
12.6344259681011;0.39971923828125;0.00200164794921875;1.48999999623811;150;100 mA
12.6444259680759;0.399749755859375;0.00200714111328125;1.49999999621286;151;100 mA
12.6544259680506;0.399810791015625;0.0019891357421875;1.50999999618762;152;100 mA
12.6644259680254;0.3997802734375;0.00198822021484375;1.51999999616237;153;100 mA
12.6744259680002;0.399749755859375;0.00198699951171875;1.52999999613712;154;100 mA
12.6844259679749;0.399810791015625;0.00198822021484375;1.53999999611187;155;100 mA
12.6944259679497;0.399749755859375;0.0019866943359375;1.54999999608663;156;100 mA
12.7044259679244;0.399688720703125;0.00199005126953125;1.55999999606138;157;100 mA
12.7144259678992;0.399749755859375;0.00198150634765625;1.56999999603613;158;100 mA
12.7244259678739;0.399810791015625;0.001988525390625;1.57999999601088;159;100 mA
12.7344259678487;0.39971923828125;0.00198944091796875;1.58999999598564;160;100 mA
12.7444259678234;0.399810791015625;0.00199462890625;1.59999999596039;161;100 mA
12.7544259677982;0.399810791015625;0.001988525390625;1.60999999593514;162;100 mA
12.7644259677729;0.3997802734375;0.002001953125;1.61999999590989;163;100 mA
12.7744259677477;0.399749755859375;0.00198638916015625;1.62999999588465;164;100 mA
12.7844259677224;0.3997802734375;0.00198944091796875;1.6399999958594;165;100 mA
12.7944259676972;0.399810791015625;0.00197723388671875;1.64999999583415;166;100 mA
12.8044259676719;0.3997802734375;0.0019879150390625;1.6599999958089;167;100 mA
12.8144259676467;0.3997802734375;0.00197967529296875;1.66999999578366;168;100 mA
12.8244259676214;0.39971923828125;0.0019818115234375;1.67999999575841;169;100 mA
12.8344259675962;0.399810791015625;0.001964111328125;1.68999999573316;170;100 mA
12.8444259675709;0.39971923828125;0.00196929931640625;1.69999999570791;171;100 mA
12.8544259675457;0.39984130859375;0.0019635009765625;1.70999999568267;172;100 mA
12.8644259675204;0.399749755859375;0.001964111328125;1.71999999565742;173;100 mA
12.8744259674952;0.399749755859375;0.00196197509765625;1.72999999563217;174;100 mA
12.88442596747;0.3997802734375;0.00197052001953125;1.73999999560692;175;100 mA
12.8944259674447;0.3997802734375;0.00195343017578125;1.74999999558167;176;100 mA
12.9044259674195;0.399749755859375;0.001949462890625;1.75999999555643;177;100 mA
12.9144259673942;0.399749755859375;0.0019451904296875;1.76999999553118;178;100 mA
12.924425967369;0.39971923828125;0.0019659423828125;1.77999999550593;179;100 mA
12.9344259673437;0.399810791015625;0.00195892333984375;1.78999999548068;180;100 mA
12.9444259673185;0.39971923828125;0.0019720458984375;1.79999999545544;181;100 mA
12.9544259672932;0.399749755859375;0.00195770263671875;1.80999999543019;182;100 mA
12.964425967268;0.3997802734375;0.0019610595703125;1.81999999540494;183;100 mA
12.9744259672427;0.3997802734375;0.001953125;1.82999999537969;184;100 mA
12.9844259672175;0.3997802734375;0.00195556640625;1.83999999535445;185;100 mA
12.9944259671922;0.3997802734375;0.00195220947265625;1.8499999953292;186;100 mA
13.004425967167;0.399810791015625;0.00195831298828125;1.85999999530395;187;100 mA
13.0144259671417;0.39971923828125;0.001943359375;1.8699999952787;188;100 mA
13.0244259671165;0.399749755859375;0.001944580078125;1.87999999525346;189;100 mA
13.0344259670912;0.3997802734375;0.0019464111328125;1.88999999522821;190;100 mA
13.044425967066;0.399749755859375;0.0019488525390625;1.89999999520296;191;100 mA
13.0544259670407;0.399810791015625;0.00194366455078125;1.90999999517771;192;100 mA
13.0644259670155;0.399749755859375;0.00195953369140625;1.91999999515247;193;100 mA
13.0744259669902;0.3997802734375;0.00194580078125;1.92999999512722;194;100 mA
13.084425966965;0.3997802734375;0.0019525146484375;1.93999999510197;195;100 mA
13.0944259669398;0.399688720703125;0.00195037841796875;1.94999999507672;196;100 mA
13.1044259669145;0.39971923828125;0.0019732666015625;1.95999999505148;197;100 mA
13.1144259668893;0.3997802734375;0.001968994140625;1.96999999502623;198;100 mA
13.124425966864;0.399749755859375;0.00197357177734375;1.97999999500098;199;100 mA
13.1344259668388;0.399810791015625;0.001959228515625;1.98999999497573;200;100 mA
13.1444259668135;0.39971923828125;0.00196929931640625;1.99999999495049;201;100 mA
13.1544259667883;0.399749755859375;0.00196197509765625;2.00999999492524;202;100 mA
13.164425966763;0.3997802734375;0.0019647216796875;2.01999999489999;203;100 mA
13.1744259667378;0.399749755859375;0.0019598388671875;2.02999999487474;204;100 mA
13.1844259667125;0.39971923828125;0.00197296142578125;2.0399999948495;205;100 mA
13.1944259666873;0.399749755859375;0.0019561767578125;2.04999999482425;206;100 mA
13.204425966662;0.399810791015625;0.0019512939453125;2.059999994799;207;100 mA
13.2144259666368;0.3997802734375;0.00194580078125;2.06999999477375;208;100 mA
13.2244259666115;0.399810791015625;0.00196319580078125;2.0799999947485;209;100 mA
13.2344259665863;0.399810791015625;0.00195037841796875;2.08999999472326;210;100 mA
13.244425966561;0.3997802734375;0.00196044921875;2.09999999469801;211;100 mA
13.2544259665358;0.399749755859375;0.00194122314453125;2.10999999467276;212;100 mA
13.2644259665105;0.399749755859375;0.00193878173828125;2.11999999464751;213;100 mA
13.2744259664853;0.399810791015625;0.00193511962890625;2.12999999462227;214;100 mA
13.28442596646;0.399749755859375;0.00193939208984375;2.13999999459702;215;100 mA
13.2944259664348;0.399749755859375;0.00193817138671875;2.14999999457177;216;100 mA
13.3044259664096;0.399810791015625;0.00194183349609375;2.15999999454652;217;100 mA
13.3144259663843;0.3997802734375;0.0019256591796875;2.16999999452128;218;100 mA
13.3244259663591;0.3997802734375;0.00192840576171875;2.17999999449603;219;100 mA
13.3344259663338;0.399749755859375;0.0019232177734375;2.18999999447078;220;100 mA
13.3444259663086;0.3997802734375;0.00192657470703125;2.19999999444553;221;100 mA
13.3544259662833;0.39984130859375;0.00192108154296875;2.20999999442029;222;100 mA
13.3644259662581;0.399810791015625;0.0019378662109375;2.21999999439504;223;100 mA
13.3744259662328;0.39971923828125;0.0019256591796875;2.22999999436979;224;100 mA
13.3844259662076;0.39984130859375;0.00192626953125;2.23999999434454;225;100 mA
13.3944259661823;0.399749755859375;0.0019195556640625;2.2499999943193;226;100 mA
13.4044259661571;0.399749755859375;0.00193450927734375;2.25999999429405;227;100 mA
13.4144259661318;0.399749755859375;0.0019293212890625;2.2699999942688;228;100 mA
13.4244259661066;0.399749755859375;0.00193695068359375;2.27999999424355;229;100 mA
13.4344259660813;0.399749755859375;0.0019183349609375;2.28999999421831;230;100 mA
13.4444259660561;0.399810791015625;0.0019189453125;2.29999999419306;231;100 mA
13.4544259660308;0.399688720703125;0.001917724609375;2.30999999416781;232;100 mA
13.4644259660056;0.3997802734375;0.00192230224609375;2.31999999414256;233;100 mA
13.4744259659803;0.399688720703125;0.001922607421875;2.32999999411732;234;100 mA
13.4844259659551;0.3997802734375;0.00194122314453125;2.33999999409207;235;100 mA
13.4944259659298;0.399749755859375;0.00193511962890625;2.34999999406682;236;100 mA
13.5044259659046;0.3997802734375;0.0019390869140625;2.35999999404157;237;100 mA
13.5144259658794;0.399810791015625;0.00193634033203125;2.36999999401633;238;100 mA
13.5244259658541;0.3997802734375;0.001954345703125;2.37999999399108;239;100 mA
13.5344259658289;0.3997802734375;0.00194183349609375;2.38999999396583;240;100 mA
13.5444259658036;0.3997802734375;0.00195526123046875;2.39999999394058;241;100 mA
13.5544259657784;0.399749755859375;0.00193878173828125;2.40999999391533;242;100 mA
13.5644259657531;0.399688720703125;0.00193023681640625;2.41999999389009;243;100 mA
13.5744259657279;0.3997802734375;0.00191802978515625;2.42999999386484;244;100 mA
13.5844259657026;0.399749755859375;0.00192047119140625;2.43999999383959;245;100 mA
13.5944259656774;0.399810791015625;0.00191009521484375;2.44999999381434;246;100 mA
13.6044259656521;0.399810791015625;0.001912841796875;2.4599999937891;247;100 mA
13.6144259656269;0.3997802734375;0.0018975830078125;2.46999999376385;248;100 mA
13.6244259656016;0.3997802734375;0.00190460205078125;2.4799999937386;249;100 mA
13.6344259655764;0.39971923828125;0.0018994140625;2.48999999371335;250;100 mA
13.6444259655511;0.39971923828125;0.001903076171875;2.49999999368811;251;100 mA
13.6544259655259;0.399749755859375;0.0019061279296875;2.50999999366286;252;100 mA
13.6644259655006;0.399749755859375;0.00192413330078125;2.51999999363761;253;100 mA
13.6744259654754;0.399749755859375;0.00192352294921875;2.52999999361236;254;100 mA
13.6844259654501;0.399810791015625;0.00193328857421875;2.53999999358712;255;100 mA
13.6944259654249;0.39971923828125;0.00192626953125;2.54999999356187;256;100 mA
13.7044259653997;0.39971923828125;0.00194976806640625;2.55999999353662;257;100 mA
13.7144259653744;0.3997802734375;0.00193206787109375;2.56999999351137;258;100 mA
13.7244259653492;0.399749755859375;0.00194000244140625;2.57999999348613;259;100 mA
13.7344259653239;0.3997802734375;0.00191986083984375;2.58999999346088;260;100 mA
13.7444259652987;0.399749755859375;0.00192596435546875;2.59999999343563;261;100 mA
13.7544259652734;0.3997802734375;0.00191680908203125;2.60999999341038;262;100 mA
13.7644259652482;0.399749755859375;0.00191802978515625;2.61999999338514;263;100 mA
13.7744259652229;0.3997802734375;0.0019195556640625;2.62999999335989;264;100 mA
13.7844259651977;0.3997802734375;0.00193145751953125;2.63999999333464;265;100 mA
13.7944259651724;0.399810791015625;0.0019195556640625;2.64999999330939;266;100 mA
13.8044259651472;0.3997802734375;0.0019244384765625;2.65999999328415;267;100 mA
13.8144259651219;0.399749755859375;0.00192626953125;2.6699999932589;268;100 mA
13.8244259650967;0.3997802734375;0.00194732666015625;2.67999999323365;269;100 mA
13.8344259650714;0.399749755859375;0.0019390869140625;2.6899999932084;270;100 mA
13.8444259650462;0.399749755859375;0.001953125;2.69999999318316;271;100 mA
13.8544259650209;0.399810791015625;0.00194122314453125;2.70999999315791;272;100 mA
13.8644259649957;0.399749755859375;0.00194366455078125;2.71999999313266;273;100 mA
13.8744259649704;0.399749755859375;0.00193267822265625;2.72999999310741;274;100 mA
13.8844259649452;0.399810791015625;0.001943359375;2.73999999308217;275;100 mA
13.8944259649199;0.399749755859375;0.00193206787109375;2.74999999305692;276;100 mA
13.9044259648947;0.39971923828125;0.00193572998046875;2.75999999303167;277;100 mA
13.9144259648695;0.3997802734375;0.0019158935546875;2.76999999300642;278;100 mA
13.9244259648442;0.399749755859375;0.00192901611328125;2.77999999298117;279;100 mA
13.934425964819;0.399749755859375;0.0019281005859375;2.78999999295593;280;100 mA
13.9444259647937;0.399749755859375;0.00193450927734375;2.79999999293068;281;100 mA
13.9544259647685;0.399810791015625;0.0019329833984375;2.80999999290543;282;100 mA
13.9644259647432;0.399749755859375;0.001944580078125;2.81999999288018;283;100 mA
13.974425964718;0.399749755859375;0.0019317626953125;2.82999999285494;284;100 mA
13.9844259646927;0.399749755859375;0.00193115234375;2.83999999282969;285;100 mA
13.9944259646675;0.399810791015625;0.00191192626953125;2.84999999280444;286;100 mA
14.0044259646422;0.3997802734375;0.00192535400390625;2.85999999277919;287;100 mA
14.014425964617;0.39984130859375;0.00190673828125;2.86999999275395;288;100 mA
14.0244259645917;0.399810791015625;0.0019122314453125;2.8799999927287;289;100 mA
14.0344259645665;0.3997802734375;0.00188720703125;2.88999999270345;290;100 mA
14.0444259645412;0.39971923828125;0.0018890380859375;2.8999999926782;291;100 mA
14.054425964516;0.39971923828125;0.00187530517578125;2.90999999265296;292;100 mA
14.0644259644907;0.399749755859375;0.00188018798828125;2.91999999262771;293;100 mA
14.0744259644655;0.399749755859375;0.0018890380859375;2.92999999260246;294;100 mA
14.0844259644402;0.3997802734375;0.00190704345703125;2.93999999257721;295;100 mA
14.094425964415;0.3997802734375;0.0018988037109375;2.94999999255197;296;100 mA
14.1044259643897;0.399810791015625;0.001907958984375;2.95999999252672;297;100 mA
14.1144259643645;0.3997802734375;0.00191192626953125;2.96999999250147;298;100 mA
14.1244259643393;0.399810791015625;0.00193115234375;2.97999999247622;299;100 mA
14.134425964314;0.399749755859375;0.00191436767578125;2.98999999245098;300;100 mA
14.1444259642888;0.3997802734375;0.0019293212890625;2.99999999242573;301;100 mA
14.1544259642635;0.39971923828125;0.0019183349609375;3.00999999240048;302;100 mA
14.1644259642383;0.39971923828125;0.00191864013671875;3.01999999237523;303;100 mA
14.174425964213;0.399749755859375;0.00190765380859375;3.02999999234999;304;100 mA
14.1844259641878;0.3997802734375;0.0019158935546875;3.03999999232474;305;100 mA
14.1944259641625;0.399749755859375;0.00191131591796875;3.04999999229949;306;100 mA
14.2044259641373;0.39971923828125;0.00191314697265625;3.05999999227424;307;100 mA
14.214425964112;0.399810791015625;0.0018988037109375;3.069999992249;308;100 mA
14.2244259640868;0.39971923828125;0.00190582275390625;3.07999999222375;309;100 mA
14.2344259640615;0.3997802734375;0.00190277099609375;3.0899999921985;310;100 mA
14.2444259640363;0.3997802734375;0.001903076171875;3.09999999217325;311;100 mA
14.254425964011;0.3997802734375;0.00190185546875;3.109999992148;312;100 mA
14.2644259639858;0.399749755859375;0.00191680908203125;3.11999999212276;313;100 mA
14.2744259639605;0.399749755859375;0.001904296875;3.12999999209751;314;100 mA
14.2844259639353;0.399810791015625;0.00189788818359375;3.13999999207226;315;100 mA
14.29442596391;0.3997802734375;0.00188262939453125;3.14999999204701;316;100 mA
14.3044259638848;0.399810791015625;0.00189788818359375;3.15999999202177;317;100 mA
14.3144259638595;0.399749755859375;0.00188446044921875;3.16999999199652;318;100 mA
14.3244259638343;0.3997802734375;0.00189544677734375;3.17999999197127;319;100 mA
14.3344259638091;0.399749755859375;0.00187774658203125;3.18999999194602;320;100 mA
14.3444259637838;0.399749755859375;0.00187835693359375;3.19999999192078;321;100 mA
14.3544259637586;0.399749755859375;0.001871337890625;3.20999999189553;322;100 mA
14.3644259637333;0.399749755859375;0.00187896728515625;3.21999999187028;323;100 mA
14.3744259637081;0.399749755859375;0.00188232421875;3.22999999184503;324;100 mA
14.3844259636828;0.399810791015625;0.00190277099609375;3.23999999181979;325;100 mA
14.3944259636576;0.39971923828125;0.0018896484375;3.24999999179454;326;100 mA
14.4044259636323;0.399749755859375;0.0018865966796875;3.25999999176929;327;100 mA
14.4144259636071;0.3997802734375;0.00187957763671875;3.26999999174404;328;100 mA
14.4244259635818;0.39971923828125;0.0018927001953125;3.2799999917188;329;100 mA
14.4344259635566;0.3997802734375;0.001876220703125;3.28999999169355;330;100 mA
14.4444259635313;0.39984130859375;0.00189453125;3.2999999916683;331;100 mA
14.4544259635061;0.39971923828125;0.00188262939453125;3.30999999164305;332;100 mA
14.4644259634808;0.3997802734375;0.00188934326171875;3.31999999161781;333;100 mA
14.4744259634556;0.3997802734375;0.0018829345703125;3.32999999159256;334;100 mA
14.4844259634303;0.39971923828125;0.00189727783203125;3.33999999156731;335;100 mA
14.4944259634051;0.399749755859375;0.0018927001953125;3.34999999154206;336;100 mA
14.5044259633798;0.399810791015625;0.00189605712890625;3.35999999151682;337;100 mA
14.5144259633546;0.399749755859375;0.00188385009765625;3.36999999149157;338;100 mA
14.5244259633293;0.399749755859375;0.001890869140625;3.37999999146632;339;100 mA
14.5344259633041;0.399749755859375;0.0018817138671875;3.38999999144107;340;100 mA
14.5444259632789;0.399810791015625;0.001883544921875;3.39999999141583;341;100 mA
14.5544259632536;0.399749755859375;0.00188232421875;3.40999999139058;342;100 mA
14.5644259632284;0.3997802734375;0.00189361572265625;3.41999999136533;343;100 mA
14.5744259632031;0.399749755859375;0.0018841552734375;3.42999999134008;344;100 mA
14.5844259631779;0.3997802734375;0.00188446044921875;3.43999999131483;345;100 mA
14.5944259631526;0.39971923828125;0.00187286376953125;3.44999999128959;346;100 mA
14.6044259631274;0.39971923828125;0.001888427734375;3.45999999126434;347;100 mA
14.6144259631021;0.399749755859375;0.00187957763671875;3.46999999123909;348;100 mA
14.6244259630769;0.399749755859375;0.0018804931640625;3.47999999121384;349;100 mA
14.6344259630516;0.399810791015625;0.001868896484375;3.4899999911886;350;100 mA
14.6444259630264;0.399749755859375;0.00186920166015625;3.49999999116335;351;100 mA
14.6544259630011;0.3997802734375;0.00186187744140625;3.5099999911381;352;100 mA
14.6644259629759;0.399749755859375;0.00186004638671875;3.51999999111285;353;100 mA
14.6744259629506;0.39971923828125;0.001861572265625;3.52999999108761;354;100 mA
14.6844259629254;0.3997802734375;0.0018707275390625;3.53999999106236;355;100 mA
14.6944259629001;0.399749755859375;0.00185943603515625;3.54999999103711;356;100 mA
14.7044259628749;0.3997802734375;0.00186431884765625;3.55999999101186;357;100 mA
14.7144259628496;0.3997802734375;0.00186859130859375;3.56999999098662;358;100 mA
14.7244259628244;0.3997802734375;0.00188079833984375;3.57999999096137;359;100 mA
14.7344259627992;0.399810791015625;0.0018695068359375;3.58999999093612;360;100 mA
14.7444259627739;0.39984130859375;0.00188201904296875;3.59999999091087;361;100 mA
14.7544259627487;0.399749755859375;0.0018634033203125;3.60999999088563;362;100 mA
14.7644259627234;0.3997802734375;0.0018585205078125;3.61999999086038;363;100 mA
14.7744259626982;0.399810791015625;0.00184906005859375;3.62999999083513;364;100 mA
14.7844259626729;0.399749755859375;0.00185791015625;3.63999999080988;365;100 mA
14.7944259626477;0.3997802734375;0.00185333251953125;3.64999999078464;366;100 mA
14.8044259626224;0.3997802734375;0.00185394287109375;3.65999999075939;367;100 mA
14.8144259625972;0.399749755859375;0.0018365478515625;3.66999999073414;368;100 mA
14.8244259625719;0.399749755859375;0.00184051513671875;3.67999999070889;369;100 mA
14.8344259625467;0.3997802734375;0.00183868408203125;3.68999999068365;370;100 mA
14.8444259625214;0.3997802734375;0.0018426513671875;3.6999999906584;371;100 mA
14.8544259624962;0.3997802734375;0.001844482421875;3.70999999063315;372;100 mA
14.8644259624709;0.3997802734375;0.00186126708984375;3.7199999906079;373;100 mA
14.8744259624457;0.39971923828125;0.0018560791015625;3.72999999058266;374;100 mA
14.8844259624204;0.3997802734375;0.001859130859375;3.73999999055741;375;100 mA
14.8944259623952;0.399749755859375;0.00185791015625;3.74999999053216;376;100 mA
14.9044259623699;0.399749755859375;0.00187774658203125;3.75999999050691;377;100 mA
14.9144259623447;0.399749755859375;0.00187286376953125;3.76999999048167;378;100 mA
14.9244259623194;0.399749755859375;0.0018792724609375;3.77999999045642;379;100 mA
14.9344259622942;0.399749755859375;0.00186431884765625;3.78999999043117;380;100 mA
14.944425962269;0.399749755859375;0.001861572265625;3.79999999040592;381;100 mA
14.9544259622437;0.399810791015625;0.00185546875;3.80999999038067;382;100 mA
14.9644259622185;0.3997802734375;0.00185516357421875;3.81999999035543;383;100 mA
14.9744259621932;0.399810791015625;0.00185302734375;3.82999999033018;384;100 mA
14.984425962168;0.3997802734375;0.00186279296875;3.83999999030493;385;100 mA
14.9944259621427;0.399749755859375;0.00185089111328125;3.84999999027968;386;100 mA
15.0044259621175;0.3997802734375;0.00185394287109375;3.85999999025444;387;100 mA
15.0144259620922;0.3997802734375;0.0018536376953125;3.86999999022919;388;100 mA
15.024425962067;0.399749755859375;0.00186737060546875;3.87999999020394;389;100 mA
15.0344259620417;0.399749755859375;0.00185638427734375;3.88999999017869;390;100 mA
15.0444259620165;0.39971923828125;0.00187347412109375;3.89999999015345;391;100 mA
15.0544259619912;0.399871826171875;0.00185638427734375;3.9099999901282;392;100 mA
15.064425961966;0.39971923828125;0.001854248046875;3.91999999010295;393;100 mA
15.0744259619407;0.399749755859375;0.001842041015625;3.9299999900777;394;100 mA
15.0844259619155;0.399749755859375;0.00185272216796875;3.93999999005246;395;100 mA
15.0944259618902;0.39971923828125;0.00184600830078125;3.94999999002721;396;100 mA
15.104425961865;0.399749755859375;0.00184722900390625;3.95999999000196;397;100 mA
15.1144259618397;0.399810791015625;0.00183074951171875;3.96999998997671;398;100 mA
15.1244259618145;0.3997802734375;0.00183563232421875;3.97999998995147;399;100 mA
15.1344259617892;0.39984130859375;0.00183349609375;3.98999998992622;400;100 mA
15.144425961764;0.399749755859375;0.00183685302734375;3.99999998990097;401;100 mA
15.1544259617388;0.399749755859375;0.00184112548828125;4.00999998987572;402;100 mA
15.1644259617135;0.3997802734375;0.00185760498046875;4.01999998985048;403;100 mA
15.1744259616883;0.3997802734375;0.00185333251953125;4.02999998982523;404;100 mA
15.184425961663;0.3997802734375;0.0018585205078125;4.03999998979998;405;100 mA
15.1944259616378;0.399749755859375;0.00185577392578125;4.04999998977473;406;100 mA
15.2044259616125;0.399810791015625;0.00187957763671875;4.05999998974949;407;100 mA
15.2144259615873;0.399810791015625;0.00187103271484375;4.06999998972424;408;100 mA
15.224425961562;0.399810791015625;0.00188079833984375;4.07999998969899;409;100 mA
15.2344259615368;0.39984130859375;0.00186676025390625;4.08999998967374;410;100 mA
15.2444259615115;0.399749755859375;0.00186798095703125;4.0999999896485;411;100 mA
15.2544259614863;0.3997802734375;0.00185760498046875;4.10999998962325;412;100 mA
15.264425961461;0.3997802734375;0.00185577392578125;4.119999989598;413;100 mA
15.2744259614358;0.399749755859375;0.00185272216796875;4.12999998957275;414;100 mA
15.2844259614105;0.399749755859375;0.00186309814453125;4.1399999895475;415;100 mA
15.2944259613853;0.399749755859375;0.00185455322265625;4.14999998952226;416;100 mA
15.30442596136;0.3997802734375;0.00186004638671875;4.15999998949701;417;100 mA
15.3144259613348;0.3997802734375;0.00185882568359375;4.16999998947176;418;100 mA
15.3244259613095;0.399749755859375;0.00186920166015625;4.17999998944651;419;100 mA
15.3344259612843;0.3997802734375;0.00185760498046875;4.18999998942127;420;100 mA
15.344425961259;0.3997802734375;0.00187408447265625;4.19999998939602;421;100 mA
15.3544259612338;0.399749755859375;0.00185638427734375;4.20999998937077;422;100 mA
15.3644259612086;0.399810791015625;0.0018572998046875;4.21999998934552;423;100 mA
15.3744259611833;0.399810791015625;0.00184661865234375;4.22999998932028;424;100 mA
15.3844259611581;0.3997802734375;0.00185394287109375;4.23999998929503;425;100 mA
15.3944259611328;0.399749755859375;0.0018475341796875;4.24999998926978;426;100 mA
15.4044259611076;0.399810791015625;0.0018511962890625;4.25999998924453;427;100 mA
15.4144259610823;0.399749755859375;0.00183624267578125;4.26999998921929;428;100 mA
15.4244259610571;0.399749755859375;0.0018402099609375;4.27999998919404;429;100 mA
15.4344259610318;0.399749755859375;0.00183685302734375;4.28999998916879;430;100 mA
15.4444259610066;0.3997802734375;0.001837158203125;4.29999998914354;431;100 mA
15.4544259609813;0.3997802734375;0.00183837890625;4.3099999891183;432;100 mA
15.4644259609561;0.3997802734375;0.001851806640625;4.31999998909305;433;100 mA
15.4744259609308;0.399810791015625;0.00183990478515625;4.3299999890678;434;100 mA
15.4844259609056;0.39971923828125;0.001842041015625;4.33999998904255;435;100 mA
15.4944259608803;0.3997802734375;0.00183441162109375;4.34999998901731;436;100 mA
15.5044259608551;0.3997802734375;0.00185028076171875;4.35999998899206;437;100 mA
15.5144259608298;0.399749755859375;0.0018377685546875;4.36999998896681;438;100 mA
15.5244259608046;0.399749755859375;0.0018426513671875;4.37999998894156;439;100 mA
15.5344259607793;0.3997802734375;0.00182647705078125;4.38999998891632;440;100 mA
15.5444259607541;0.399810791015625;0.00183258056640625;4.39999998889107;441;100 mA
15.5544259607288;0.399749755859375;0.00182708740234375;4.40999998886582;442;100 mA
15.5644259607036;0.399810791015625;0.0018310546875;4.41999998884057;443;100 mA
15.5744259606784;0.3997802734375;0.001827392578125;4.42999998881533;444;100 mA
15.5844259606531;0.399749755859375;0.001837158203125;4.43999998879008;445;100 mA
15.5944259606279;0.399749755859375;0.0018218994140625;4.44999998876483;446;100 mA
15.6044259606026;0.3997802734375;0.0018218994140625;4.45999998873958;447;100 mA
15.6144259605774;0.399749755859375;0.0018206787109375;4.46999998871433;448;100 mA
15.6244259605521;0.399810791015625;0.00182830810546875;4.47999998868909;449;100 mA
15.6344259605269;0.3997802734375;0.00181610107421875;4.48999998866384;450;100 mA
15.6444259605016;0.399749755859375;0.00183258056640625;4.49999998863859;451;100 mA
15.6544259604764;0.399749755859375;0.00181884765625;4.50999998861334;452;100 mA
15.6644259604511;0.3997802734375;0.00181732177734375;4.5199999885881;453;100 mA
15.6744259604259;0.399749755859375;0.00180908203125;4.52999998856285;454;100 mA
15.6844259604006;0.399810791015625;0.0018218994140625;4.5399999885376;455;100 mA
15.6944259603754;0.39971923828125;0.00180999755859375;4.54999998851235;456;100 mA
15.7044259603501;0.39971923828125;0.001810302734375;4.55999998848711;457;100 mA
15.7144259603249;0.399810791015625;0.0017889404296875;4.56999998846186;458;100 mA
15.7244259602996;0.399810791015625;0.00179107666015625;4.57999998843661;459;100 mA
15.7344259602744;0.399749755859375;0.00179046630859375;4.58999998841136;460;100 mA
15.7444259602491;0.39971923828125;0.001793212890625;4.59999998838612;461;100 mA
15.7544259602239;0.399810791015625;0.00179107666015625;4.60999998836087;462;100 mA
15.7644259601987;0.399749755859375;0.001800537109375;4.61999998833562;463;100 mA
15.7744259601734;0.399749755859375;0.001788330078125;4.62999998831037;464;100 mA
15.7844259601482;0.39971923828125;0.0017901611328125;4.63999998828513;465;100 mA
15.7944259601229;0.399810791015625;0.00178863525390625;4.64999998825988;466;100 mA
15.8044259600977;0.3997802734375;0.00180511474609375;4.65999998823463;467;100 mA
15.8144259600724;0.39971923828125;0.001793212890625;4.66999998820938;468;100 mA
15.8244259600472;0.399810791015625;0.00180206298828125;4.67999998818414;469;100 mA
15.8344259600219;0.399749755859375;0.00178619384765625;4.68999998815889;470;100 mA
15.8444259599967;0.3997802734375;0.0017889404296875;4.69999998813364;471;100 mA
15.8544259599714;0.3997802734375;0.001785888671875;4.70999998810839;472;100 mA
15.8644259599462;0.399749755859375;0.0017950439453125;4.71999998808315;473;100 mA
15.8744259599209;0.3997802734375;0.0017901611328125;4.7299999880579;474;100 mA
15.8844259598957;0.39971923828125;0.001795654296875;4.73999998803265;475;100 mA
15.8944259598704;0.3997802734375;0.001785888671875;4.7499999880074;476;100 mA
15.9044259598452;0.39971923828125;0.00179229736328125;4.75999998798216;477;100 mA
15.9144259598199;0.3997802734375;0.00179443359375;4.76999998795691;478;100 mA
15.9244259597947;0.39971923828125;0.00180328369140625;4.77999998793166;479;100 mA
15.9344259597694;0.3997802734375;0.00179229736328125;4.78999998790641;480;100 mA
15.9444259597442;0.3997802734375;0.00180694580078125;4.79999998788116;481;100 mA
15.9544259597189;0.39971923828125;0.00179168701171875;4.80999998785592;482;100 mA
15.9644259596937;0.3997802734375;0.0017901611328125;4.81999998783067;483;100 mA
15.9744259596685;0.3997802734375;0.001781005859375;4.82999998780542;484;100 mA
15.9844259596432;0.39971923828125;0.00179779052734375;4.83999998778017;485;100 mA
15.994425959618;0.39971923828125;0.0017877197265625;4.84999998775493;486;100 mA
16.0044259595927;0.399749755859375;0.0017889404296875;4.85999998772968;487;100 mA
16.0144259595675;0.399749755859375;0.00177154541015625;4.86999998770443;488;100 mA
16.0244259595422;0.399810791015625;0.00177490234375;4.87999998767918;489;100 mA
16.034425959517;0.399749755859375;0.001771240234375;4.88999998765394;490;100 mA
16.0444259594917;0.399810791015625;0.0017724609375;4.89999998762869;491;100 mA
16.0544259594665;0.399810791015625;0.001767578125;4.90999998760344;492;100 mA
16.0644259594412;0.3997802734375;0.00177642822265625;4.91999998757819;493;100 mA
16.074425959416;0.3997802734375;0.0017645263671875;4.92999998755295;494;100 mA
16.0844259593907;0.399688720703125;0.0017669677734375;4.9399999875277;495;100 mA
16.0944259593655;0.399810791015625;0.00176300048828125;4.94999998750245;496;100 mA
16.1044259593402;0.39971923828125;0.001778564453125;4.9599999874772;497;100 mA
16.114425959315;0.399749755859375;0.0017626953125;4.96999998745196;498;100 mA
16.1244259592897;0.399749755859375;0.001771240234375;4.97999998742671;499;100 mA
16.1344259592645;0.399749755859375;0.00175018310546875;4.98999998740146;500;100 mA
16.1444259592392;0.39984130859375;0.001748046875;4.99999998737621;501;100 mA
16.154425959214;0.3997802734375;0.00174560546875;5.00999998735097;502;100 mA
16.1644259591887;0.39971923828125;0.00175201416015625;5.01999998732572;503;100 mA
16.1744259591635;0.39971923828125;0.00174835205078125;5.02999998730047;504;100 mA
16.1844259591383;0.399810791015625;0.00175323486328125;5.03999998727522;505;100 mA
16.194425959113;0.39971923828125;0.00174407958984375;5.04999998724998;506;100 mA
16.2044259590878;0.3997802734375;0.0017498779296875;5.05999998722473;507;100 mA
16.2144259590625;0.3997802734375;0.00175048828125;5.06999998719948;508;100 mA
16.2244259590373;0.3997802734375;0.0017608642578125;5.07999998717423;509;100 mA
16.234425959012;0.3997802734375;0.00174835205078125;5.08999998714899;510;100 mA
16.2444259589868;0.399749755859375;0.00176666259765625;5.09999998712374;511;100 mA
16.2544259589615;0.399749755859375;0.0017578125;5.10999998709849;512;100 mA
16.2644259589363;0.399749755859375;0.0017626953125;5.11999998707324;513;100 mA
16.274425958911;0.399749755859375;0.0017596435546875;5.129999987048;514;100 mA
16.2844259588858;0.3997802734375;0.00177642822265625;5.13999998702275;515;100 mA
16.2944259588605;0.3997802734375;0.00176361083984375;5.1499999869975;516;100 mA
16.3044259588353;0.399749755859375;0.0017633056640625;5.15999998697225;517;100 mA
16.31442595881;0.399749755859375;0.00174163818359375;5.169999986947;518;100 mA
16.3244259587848;0.39971923828125;0.001749267578125;5.17999998692176;519;100 mA
16.3344259587595;0.39971923828125;0.00174407958984375;5.18999998689651;520;100 mA
16.3444259587343;0.399749755859375;0.00175048828125;5.19999998687126;521;100 mA
16.354425958709;0.399810791015625;0.0017474365234375;5.20999998684601;522;100 mA
16.3644259586838;0.39971923828125;0.00176422119140625;5.21999998682077;523;100 mA
16.3744259586585;0.39971923828125;0.00175933837890625;5.22999998679552;524;100 mA
16.3844259586333;0.399749755859375;0.0017669677734375;5.23999998677027;525;100 mA
16.3944259586081;0.399658203125;0.0017669677734375;5.24999998674502;526;100 mA
16.4044259585828;0.3997802734375;0.00178802490234375;5.25999998671978;527;100 mA
16.4144259585576;0.399749755859375;0.0017730712890625;5.26999998669453;528;100 mA
16.4244259585323;0.399810791015625;0.00178375244140625;5.27999998666928;529;100 mA
16.4344259585071;0.399749755859375;0.0017657470703125;5.28999998664403;530;100 mA
16.4444259584818;0.399810791015625;0.00177490234375;5.29999998661879;531;100 mA
16.4544259584566;0.3997802734375;0.0017706298828125;5.30999998659354;532;100 mA
16.4644259584313;0.399810791015625;0.0017822265625;5.31999998656829;533;100 mA
16.4744259584061;0.39971923828125;0.0017779541015625;5.32999998654304;534;100 mA
16.4844259583808;0.3997802734375;0.00178314208984375;5.3399999865178;535;100 mA
16.4944259583556;0.39971923828125;0.001773681640625;5.34999998649255;536;100 mA
16.5044259583303;0.3997802734375;0.00178466796875;5.3599999864673;537;100 mA
16.5144259583051;0.3997802734375;0.00178924560546875;5.36999998644205;538;100 mA
16.5244259582798;0.3997802734375;0.00179718017578125;5.37999998641681;539;100 mA
16.5344259582546;0.399749755859375;0.00178314208984375;5.38999998639156;540;100 mA
16.5444259582293;0.399749755859375;0.00179718017578125;5.39999998636631;541;100 mA
16.5544259582041;0.39971923828125;0.001778564453125;5.40999998634106;542;100 mA
16.5644259581788;0.399810791015625;0.0017840576171875;5.41999998631582;543;100 mA
16.5744259581536;0.3997802734375;0.00177764892578125;5.42999998629057;544;100 mA
16.5844259581283;0.399810791015625;0.00179595947265625;5.43999998626532;545;100 mA
16.5944259581031;0.399749755859375;0.0017828369140625;5.44999998624007;546;100 mA
16.6044259580779;0.399749755859375;0.00178863525390625;5.45999998621483;547;100 mA
16.6144259580526;0.3997802734375;0.0017657470703125;5.46999998618958;548;100 mA
16.6244259580274;0.3997802734375;0.00177032470703125;5.47999998616433;549;100 mA
16.6344259580021;0.39971923828125;0.00175994873046875;5.48999998613908;550;100 mA
16.6444259579769;0.3997802734375;0.00176177978515625;5.49999998611383;551;100 mA
16.6544259579516;0.399749755859375;0.00175018310546875;5.50999998608859;552;100 mA
16.6644259579264;0.3997802734375;0.00176361083984375;5.51999998606334;553;100 mA
16.6744259579011;0.3997802734375;0.0017498779296875;5.52999998603809;554;100 mA
16.6844259578759;0.399810791015625;0.00175872802734375;5.53999998601284;555;100 mA
16.6944259578506;0.3997802734375;0.0017633056640625;5.5499999859876;556;100 mA
16.7044259578254;0.399749755859375;0.0017877197265625;5.55999998596235;557;100 mA
16.7144259578001;0.399749755859375;0.0017742919921875;5.5699999859371;558;100 mA
16.7244259577749;0.399810791015625;0.00179443359375;5.57999998591185;559;100 mA
16.7344259577496;0.39971923828125;0.0017828369140625;5.58999998588661;560;100 mA
16.7444259577244;0.399688720703125;0.0017919921875;5.59999998586136;561;100 mA
16.7544259576991;0.399810791015625;0.0017864990234375;5.60999998583611;562;100 mA
16.7644259576739;0.399810791015625;0.001800537109375;5.61999998581086;563;100 mA
16.7744259576486;0.399810791015625;0.00179901123046875;5.62999998578562;564;100 mA
16.7844259576234;0.3997802734375;0.001806640625;5.63999998576037;565;100 mA
16.7944259575982;0.399749755859375;0.0017987060546875;5.64999998573512;566;100 mA
16.8044259575729;0.39971923828125;0.00180694580078125;5.65999998570987;567;100 mA
16.8144259575477;0.39971923828125;0.00180755615234375;5.66999998568463;568;100 mA
16.8244259575224;0.3997802734375;0.00182037353515625;5.67999998565938;569;100 mA
16.8344259574972;0.399749755859375;0.0018115234375;5.68999998563413;570;100 mA
16.8444259574719;0.399810791015625;0.00182861328125;5.69999998560888;571;100 mA
16.8544259574467;0.399688720703125;0.00181610107421875;5.70999998558364;572;100 mA
16.8644259574214;0.399749755859375;0.001824951171875;5.71999998555839;573;100 mA
16.8744259573962;0.3997802734375;0.0018170166015625;5.72999998553314;574;100 mA
16.8844259573709;0.3997802734375;0.0018359375;5.73999998550789;575;100 mA
16.8944259573457;0.3997802734375;0.001832275390625;5.74999998548265;576;100 mA
16.9044259573204;0.399749755859375;0.00183197021484375;5.7599999854574;577;100 mA
16.9144259572952;0.3997802734375;0.00181976318359375;5.76999998543215;578;100 mA
16.9244259572699;0.399749755859375;0.00182525634765625;5.7799999854069;579;100 mA
16.9344259572447;0.399749755859375;0.001815185546875;5.78999998538166;580;100 mA
16.9444259572194;0.39971923828125;0.00181488037109375;5.79999998535641;581;100 mA
16.9544259571942;0.399749755859375;0.001807861328125;5.80999998533116;582;100 mA
16.9644259571689;0.39971923828125;0.00182708740234375;5.81999998530591;583;100 mA
16.9744259571437;0.399749755859375;0.00180816650390625;5.82999998528066;584;100 mA
16.9844259571184;0.3997802734375;0.00181060791015625;5.83999998525542;585;100 mA
16.9944259570932;0.399810791015625;0.00180999755859375;5.84999998523017;586;100 mA
17.004425957068;0.39971923828125;0.00183013916015625;5.85999998520492;587;100 mA
17.0144259570427;0.39971923828125;0.00181610107421875;5.86999998517967;588;100 mA
17.0244259570175;0.39971923828125;0.00183380126953125;5.87999998515443;589;100 mA
17.0344259569922;0.39971923828125;0.00181488037109375;5.88999998512918;590;100 mA
17.044425956967;0.399749755859375;0.00181884765625;5.89999998510393;591;100 mA
17.0544259569417;0.399810791015625;0.00180908203125;5.90999998507868;592;100 mA
17.0644259569165;0.3997802734375;0.001815185546875;5.91999998505344;593;100 mA
17.0744259568912;0.399749755859375;0.0018072509765625;5.92999998502819;594;100 mA
17.084425956866;0.399749755859375;0.0018084716796875;5.93999998500294;595;100 mA
17.0944259568407;0.399749755859375;0.00179412841796875;5.94999998497769;596;100 mA
17.1044259568155;0.39971923828125;0.00179962158203125;5.95999998495245;597;100 mA
17.1144259567902;0.3997802734375;0.0018023681640625;5.9699999849272;598;100 mA
17.124425956765;0.3997802734375;0.00181060791015625;5.97999998490195;599;100 mA
17.1344259567397;0.399749755859375;0.0018084716796875;5.9899999848767;600;100 mA
17.1444259567145;0.39984130859375;0.00183013916015625;5.99999998485146;601;100 mA
17.1544259566892;0.39984130859375;0.00182037353515625;6.00999998482621;602;100 mA
17.164425956664;0.39971923828125;0.00182525634765625;6.01999998480096;603;100 mA
17.1744259566387;0.399810791015625;0.00181793212890625;6.02999998477571;604;100 mA
17.1844259566135;0.399749755859375;0.0018359375;6.03999998475047;605;100 mA
17.1944259565882;0.399749755859375;0.0018292236328125;6.04999998472522;606;100 mA
17.204425956563;0.39971923828125;0.0018316650390625;6.05999998469997;607;100 mA
17.2144259565378;0.399810791015625;0.0018109130859375;6.06999998467472;608;100 mA
17.2244259565125;0.3997802734375;0.0018133544921875;6.07999998464948;609;100 mA
17.2344259564873;0.399749755859375;0.0018017578125;6.08999998462423;610;100 mA
17.244425956462;0.3997802734375;0.0018035888671875;6.09999998459898;611;100 mA
17.2544259564368;0.399749755859375;0.0017974853515625;6.10999998457373;612;100 mA
17.2644259564115;0.3997802734375;0.00181640625;6.11999998454849;613;100 mA
17.2744259563863;0.399688720703125;0.0018017578125;6.12999998452324;614;100 mA
17.284425956361;0.399810791015625;0.0018011474609375;6.13999998449799;615;100 mA
17.2944259563358;0.399688720703125;0.0018035888671875;6.14999998447274;616;100 mA
17.3044259563105;0.399749755859375;0.00182342529296875;6.1599999844475;617;100 mA
17.3144259562853;0.399749755859375;0.0018084716796875;6.16999998442225;618;100 mA
17.32442595626;0.399688720703125;0.0018255615234375;6.179999984397;619;100 mA
17.3344259562348;0.3997802734375;0.0018145751953125;6.18999998437175;620;100 mA
17.3444259562095;0.399749755859375;0.001822509765625;6.1999999843465;621;100 mA
17.3544259561843;0.399749755859375;0.001817626953125;6.20999998432126;622;100 mA
17.364425956159;0.39971923828125;0.00183746337890625;6.21999998429601;623;100 mA
17.3744259561338;0.3997802734375;0.00183380126953125;6.22999998427076;624;100 mA
17.3844259561085;0.3997802734375;0.0018389892578125;6.23999998424551;625;100 mA
17.3944259560833;0.3997802734375;0.00182952880859375;6.24999998422027;626;100 mA
17.404425956058;0.39971923828125;0.0018426513671875;6.25999998419502;627;100 mA
17.4144259560328;0.399749755859375;0.00184295654296875;6.26999998416977;628;100 mA
17.4244259560076;0.3997802734375;0.0018536376953125;6.27999998414452;629;100 mA
17.4344259559823;0.3997802734375;0.00184844970703125;6.28999998411928;630;100 mA
17.4444259559571;0.399749755859375;0.001866455078125;6.29999998409403;631;100 mA
17.4544259559318;0.39971923828125;0.001861572265625;6.30999998406878;632;100 mA
17.4644259559066;0.3997802734375;0.00186737060546875;6.31999998404353;633;100 mA
17.4744259558813;0.399749755859375;0.0018597412109375;6.32999998401829;634;100 mA
17.4844259558561;0.399749755859375;0.00187591552734375;6.33999998399304;635;100 mA
17.4944259558308;0.399749755859375;0.001864013671875;6.34999998396779;636;100 mA
17.5044259558056;0.399749755859375;0.00186370849609375;6.35999998394254;637;100 mA
17.5144259557803;0.399688720703125;0.0018463134765625;6.3699999839173;638;100 mA
17.5244259557551;0.399810791015625;0.00184722900390625;6.37999998389205;639;100 mA
17.5344259557298;0.3997802734375;0.00183380126953125;6.3899999838668;640;100 mA
17.5444259557046;0.399749755859375;0.001834716796875;6.39999998384155;641;100 mA
17.5544259556793;0.3997802734375;0.0018243408203125;6.40999998381631;642;100 mA
17.5644259556541;0.399749755859375;0.0018408203125;6.41999998379106;643;100 mA
17.5744259556288;0.3997802734375;0.00182891845703125;6.42999998376581;644;100 mA
17.5844259556036;0.39971923828125;0.00183197021484375;6.43999998374056;645;100 mA
17.5944259555783;0.3997802734375;0.001829833984375;6.44999998371532;646;100 mA
17.6044259555531;0.39984130859375;0.00184814453125;6.45999998369007;647;100 mA
17.6144259555278;0.39971923828125;0.00183563232421875;6.46999998366482;648;100 mA
17.6244259555026;0.399749755859375;0.00185089111328125;6.47999998363957;649;100 mA
17.6344259554774;0.3997802734375;0.0018341064453125;6.48999998361433;650;100 mA
17.6444259554521;0.399749755859375;0.0018353271484375;6.49999998358908;651;100 mA
17.6544259554269;0.399749755859375;0.00182464599609375;6.50999998356383;652;100 mA
17.6644259554016;0.3997802734375;0.0018389892578125;6.51999998353858;653;100 mA
17.6744259553764;0.3997802734375;0.00183563232421875;6.52999998351333;654;100 mA
17.6844259553511;0.3997802734375;0.0018450927734375;6.53999998348809;655;100 mA
17.6944259553259;0.399810791015625;0.00183807373046875;6.54999998346284;656;100 mA
17.7044259553006;0.399749755859375;0.00184783935546875;6.55999998343759;657;100 mA
17.7144259552754;0.399810791015625;0.00184661865234375;6.56999998341234;658;100 mA
17.7244259552501;0.399749755859375;0.0018524169921875;6.5799999833871;659;100 mA
17.7344259552249;0.3997802734375;0.00184539794921875;6.58999998336185;660;100 mA
17.7444259551996;0.3997802734375;0.00185546875;6.5999999833366;661;100 mA
17.7544259551744;0.39971923828125;0.00184722900390625;6.60999998331135;662;100 mA
17.7644259551491;0.399810791015625;0.00185455322265625;6.61999998328611;663;100 mA
17.7744259551239;0.399749755859375;0.0018463134765625;6.62999998326086;664;100 mA
17.7844259550986;0.3997802734375;0.001866455078125;6.63999998323561;665;100 mA
17.7944259550734;0.3997802734375;0.00185699462890625;6.64999998321036;666;100 mA
17.8044259550481;0.39971923828125;0.0018609619140625;6.65999998318512;667;100 mA
17.8144259550229;0.3997802734375;0.00184173583984375;6.66999998315987;668;100 mA
17.8244259549977;0.3997802734375;0.00184661865234375;6.67999998313462;669;100 mA
17.8344259549724;0.39971923828125;0.00183837890625;6.68999998310937;670;100 mA
17.8444259549472;0.399810791015625;0.0018414306640625;6.69999998308413;671;100 mA
17.8544259549219;0.39971923828125;0.0018353271484375;6.70999998305888;672;100 mA
17.8644259548967;0.399749755859375;0.001849365234375;6.71999998303363;673;100 mA
17.8744259548714;0.3997802734375;0.00184173583984375;6.72999998300838;674;100 mA
17.8844259548462;0.39984130859375;0.00184356689453125;6.73999998298314;675;100 mA
17.8944259548209;0.399749755859375;0.0018426513671875;6.74999998295789;676;100 mA
17.9044259547957;0.39984130859375;0.001861572265625;6.75999998293264;677;100 mA
17.9144259547704;0.399749755859375;0.00184539794921875;6.76999998290739;678;100 mA
17.9244259547452;0.3997802734375;0.00185882568359375;6.77999998288215;679;100 mA
17.9344259547199;0.3997802734375;0.00184234619140625;6.7899999828569;680;100 mA
17.9444259546947;0.3997802734375;0.001845703125;6.79999998283165;681;100 mA
17.9544259546694;0.39984130859375;0.00182891845703125;6.8099999828064;682;100 mA
17.9644259546442;0.3997802734375;0.001842041015625;6.81999998278116;683;100 mA
17.9744259546189;0.3997802734375;0.00182647705078125;6.82999998275591;684;100 mA
17.9844259545937;0.399810791015625;0.00182342529296875;6.83999998273066;685;100 mA
17.9944259545684;0.399810791015625;0.0018096923828125;6.84999998270541;686;100 mA
18.0044259545432;0.399749755859375;0.00181884765625;6.85999998268016;687;100 mA
18.0144259545179;0.399749755859375;0.00181671142578125;6.86999998265492;688;100 mA
18.0244259544927;0.399810791015625;0.00181976318359375;6.87999998262967;689;100 mA
18.0344259544675;0.39971923828125;0.0018115234375;6.88999998260442;690;100 mA
18.0444259544422;0.399749755859375;0.001826171875;6.89999998257917;691;100 mA
18.054425954417;0.3997802734375;0.0018145751953125;6.90999998255393;692;100 mA
18.0644259543917;0.3997802734375;0.0018218994140625;6.91999998252868;693;100 mA
18.0744259543665;0.399749755859375;0.0018084716796875;6.92999998250343;694;100 mA
18.0844259543412;0.3997802734375;0.00182708740234375;6.93999998247818;695;100 mA
18.094425954316;0.399749755859375;0.0018084716796875;6.94999998245294;696;100 mA
18.1044259542907;0.399749755859375;0.0018145751953125;6.95999998242769;697;100 mA
18.1144259542655;0.3997802734375;0.001796875;6.96999998240244;698;100 mA
18.1244259542402;0.399749755859375;0.00180267333984375;6.97999998237719;699;100 mA
18.134425954215;0.3997802734375;0.0017974853515625;6.98999998235195;700;100 mA
