Time (s);WE(1).Potential (V);WE(1).Current (A);Corrected time (s);Index;Current range
18.6625649528816;0.299835205078125;0.000847473144531249;0;1;100 mA
18.6725649528563;0.299835205078125;0.00113311767578125;0.00999999997475243;2;100 mA
18.6825649528311;0.299896240234375;0.00125885009765625;0.0199999999495049;3;100 mA
18.6925649528058;0.299774169921875;0.00131805419921875;0.0299999999242573;4;100 mA
18.7025649527806;0.29986572265625;0.001361083984375;0.0399999998990097;5;100 mA
18.7125649527553;0.29986572265625;0.00138092041015625;0.0499999998737621;6;100 mA
18.7225649527301;0.29986572265625;0.00141143798828125;0.0599999998485146;7;100 mA
18.7325649527048;0.2998046875;0.00143646240234375;0.069999999823267;8;100 mA
18.7425649526796;0.299835205078125;0.0014617919921875;0.0799999997980194;9;100 mA
18.7525649526543;0.299835205078125;0.0014862060546875;0.0899999997727718;10;100 mA
18.7625649526291;0.29986572265625;0.00150299072265625;0.0999999997475243;11;100 mA
18.7725649526038;0.2999267578125;0.00151031494140625;0.109999999722277;12;100 mA
18.7825649525786;0.299835205078125;0.00152862548828125;0.119999999697029;13;100 mA
18.7925649525533;0.299896240234375;0.00154876708984375;0.129999999671782;14;100 mA
18.8025649525281;0.2998046875;0.0015509033203125;0.139999999646534;15;100 mA
18.8125649525028;0.299957275390625;0.00155792236328125;0.149999999621286;16;100 mA
18.8225649524776;0.299896240234375;0.00155914306640625;0.159999999596039;17;100 mA
18.8325649524523;0.299835205078125;0.001556396484375;0.169999999570791;18;100 mA
18.8425649524271;0.29986572265625;0.00155426025390625;0.179999999545544;19;100 mA
18.8525649524018;0.299835205078125;0.00157135009765625;0.189999999520296;20;100 mA
18.8625649523766;0.29986572265625;0.00158050537109375;0.199999999495049;21;100 mA
18.8725649523514;0.299835205078125;0.001575927734375;0.209999999469801;22;100 mA
18.8825649523261;0.299835205078125;0.00157989501953125;0.219999999444553;23;100 mA
18.8925649523009;0.2998046875;0.00157562255859375;0.229999999419306;24;100 mA
18.9025649522756;0.299835205078125;0.001588134765625;0.239999999394058;25;100 mA
18.9125649522504;0.29986572265625;0.001591796875;0.249999999368811;26;100 mA
18.9225649522251;0.299835205078125;0.0016009521484375;0.259999999343563;27;100 mA
18.9325649521999;0.299835205078125;0.00161102294921875;0.269999999318316;28;100 mA
18.9425649521746;0.299835205078125;0.00161102294921875;0.279999999293068;29;100 mA
18.9525649521494;0.299896240234375;0.0016070556640625;0.28999999926782;30;100 mA
18.9625649521241;0.2999267578125;0.001607666015625;0.299999999242573;31;100 mA
18.9725649520989;0.29986572265625;0.001624755859375;0.309999999217325;32;100 mA
18.9825649520736;0.2999267578125;0.00162841796875;0.319999999192078;33;100 mA
18.9925649520484;0.29986572265625;0.00162384033203125;0.32999999916683;34;100 mA
19.0025649520231;0.299774169921875;0.00163055419921875;0.339999999141583;35;100 mA
19.0125649519979;0.29986572265625;0.0016204833984375;0.349999999116335;36;100 mA
19.0225649519726;0.299835205078125;0.0016265869140625;0.359999999091087;37;100 mA
19.0325649519474;0.2999267578125;0.0016278076171875;0.36999999906584;38;100 mA
19.0425649519221;0.299896240234375;0.0016326904296875;0.379999999040592;39;100 mA
19.0525649518969;0.299957275390625;0.0016339111328125;0.389999999015345;40;100 mA
19.0625649518717;0.29986572265625;0.0016290283203125;0.399999998990097;41;100 mA
19.0725649518464;0.2998046875;0.001619873046875;0.40999999896485;42;100 mA
19.0825649518212;0.2998046875;0.00162445068359375;0.419999998939602;43;100 mA
19.0925649517959;0.2999267578125;0.001629638671875;0.429999998914354;44;100 mA
19.1025649517707;0.29986572265625;0.00162200927734375;0.439999998889107;45;100 mA
19.1125649517454;0.299835205078125;0.00162322998046875;0.449999998863859;46;100 mA
19.1225649517202;0.29986572265625;0.0016168212890625;0.459999998838612;47;100 mA
19.1325649516949;0.299896240234375;0.00161102294921875;0.469999998813364;48;100 mA
19.1425649516697;0.299835205078125;0.00160888671875;0.479999998788116;49;100 mA
19.1525649516444;0.299896240234375;0.00162078857421875;0.489999998762869;50;100 mA
19.1625649516192;0.299774169921875;0.00163299560546875;0.499999998737621;51;100 mA
19.1725649515939;0.29986572265625;0.00162261962890625;0.509999998712374;52;100 mA
19.1825649515687;0.299896240234375;0.00162109375;0.519999998687126;53;100 mA
19.1925649515434;0.299896240234375;0.00160369873046875;0.529999998661879;54;100 mA
19.2025649515182;0.2998046875;0.00161224365234375;0.539999998636631;55;100 mA
19.2125649514929;0.29986572265625;0.00160919189453125;0.549999998611383;56;100 mA
19.2225649514677;0.299835205078125;0.0016180419921875;0.559999998586136;57;100 mA
19.2325649514424;0.299896240234375;0.001627197265625;0.569999998560888;58;100 mA
19.2425649514172;0.2998046875;0.00163055419921875;0.579999998535641;59;100 mA
19.2525649513919;0.299835205078125;0.0016278076171875;0.589999998510393;60;100 mA
19.2625649513667;0.29986572265625;0.00162872314453125;0.599999998485146;61;100 mA
19.2725649513415;0.29986572265625;0.0016473388671875;0.609999998459898;62;100 mA
19.2825649513162;0.299835205078125;0.0016552734375;0.61999999843465;63;100 mA
19.292564951291;0.299835205078125;0.0016473388671875;0.629999998409403;64;100 mA
19.3025649512657;0.299957275390625;0.0016448974609375;0.639999998384155;65;100 mA
19.3125649512405;0.29986572265625;0.0016302490234375;0.649999998358908;66;100 mA
19.3225649512152;0.29986572265625;0.0016314697265625;0.65999999833366;67;100 mA
19.33256495119;0.299835205078125;0.001632080078125;0.669999998308413;68;100 mA
19.3425649511647;0.2998046875;0.0016363525390625;0.679999998283165;69;100 mA
19.3525649511395;0.299896240234375;0.00163909912109375;0.689999998257917;70;100 mA
19.3625649511142;0.29986572265625;0.00163787841796875;0.69999999823267;71;100 mA
19.372564951089;0.299896240234375;0.00162841796875;0.709999998207422;72;100 mA
19.3825649510637;0.299896240234375;0.0016351318359375;0.719999998182175;73;100 mA
19.3925649510385;0.299835205078125;0.0016448974609375;0.729999998156927;74;100 mA
19.4025649510132;0.29986572265625;0.00164398193359375;0.73999999813168;75;100 mA
19.412564950988;0.29986572265625;0.001651611328125;0.749999998106432;76;100 mA
19.4225649509627;0.299835205078125;0.0016522216796875;0.759999998081184;77;100 mA
19.4325649509375;0.2998046875;0.00164703369140625;0.769999998055937;78;100 mA
19.4425649509122;0.29986572265625;0.0016448974609375;0.779999998030689;79;100 mA
19.452564950887;0.299896240234375;0.00165435791015625;0.789999998005442;80;100 mA
19.4625649508617;0.299835205078125;0.00166412353515625;0.799999997980194;81;100 mA
19.4725649508365;0.2998046875;0.00165740966796875;0.809999997954947;82;100 mA
19.4825649508113;0.299835205078125;0.00166046142578125;0.819999997929699;83;100 mA
19.492564950786;0.29986572265625;0.001649169921875;0.829999997904451;84;100 mA
19.5025649507608;0.299896240234375;0.00165618896484375;0.839999997879204;85;100 mA
19.5125649507355;0.2998046875;0.00165283203125;0.849999997853956;86;100 mA
19.5225649507103;0.299896240234375;0.00165618896484375;0.859999997828709;87;100 mA
19.532564950685;0.299835205078125;0.0016644287109375;0.869999997803461;88;100 mA
19.5425649506598;0.299896240234375;0.00166229248046875;0.879999997778214;89;100 mA
19.5525649506345;0.29986572265625;0.00165252685546875;0.889999997752966;90;100 mA
19.5625649506093;0.29986572265625;0.00164886474609375;0.899999997727718;91;100 mA
19.572564950584;0.2998046875;0.001661376953125;0.909999997702471;92;100 mA
19.5825649505588;0.29986572265625;0.001666259765625;0.919999997677223;93;100 mA
19.5925649505335;0.29986572265625;0.00166107177734375;0.929999997651976;94;100 mA
19.6025649505083;0.2998046875;0.00166259765625;0.939999997626728;95;100 mA
19.612564950483;0.299835205078125;0.00164398193359375;0.949999997601481;96;100 mA
19.6225649504578;0.299835205078125;0.0016351318359375;0.959999997576233;97;100 mA
19.6325649504325;0.299835205078125;0.0016302490234375;0.969999997550985;98;100 mA
19.6425649504073;0.29986572265625;0.00162841796875;0.979999997525738;99;100 mA
19.652564950382;0.29986572265625;0.0016259765625;0.98999999750049;100;100 mA
19.6625649503568;0.299835205078125;0.00162445068359375;0.999999997475243;101;100 mA
19.6725649503315;0.29986572265625;0.0016143798828125;1.00999999745;102;100 mA
19.6825649503063;0.29986572265625;0.001619873046875;1.01999999742475;103;100 mA
19.6925649502811;0.29986572265625;0.00162139892578125;1.0299999973995;104;100 mA
19.7025649502558;0.29986572265625;0.00161865234375;1.03999999737425;105;100 mA
19.7125649502306;0.299896240234375;0.00162750244140625;1.049999997349;106;100 mA
19.7225649502053;0.2998046875;0.00162933349609375;1.05999999732376;107;100 mA
19.7325649501801;0.299896240234375;0.0016192626953125;1.06999999729851;108;100 mA
19.7425649501548;0.29986572265625;0.00161346435546875;1.07999999727326;109;100 mA
19.7525649501296;0.29986572265625;0.0016259765625;1.08999999724801;110;100 mA
19.7625649501043;0.299835205078125;0.00163299560546875;1.09999999722277;111;100 mA
19.7725649500791;0.29986572265625;0.0016265869140625;1.10999999719752;112;100 mA
19.7825649500538;0.2999267578125;0.00163055419921875;1.11999999717227;113;100 mA
19.7925649500286;0.29986572265625;0.00161651611328125;1.12999999714702;114;100 mA
19.8025649500033;0.29986572265625;0.00162078857421875;1.13999999712178;115;100 mA
19.8125649499781;0.2998046875;0.001617431640625;1.14999999709653;116;100 mA
19.8225649499528;0.299774169921875;0.0016229248046875;1.15999999707128;117;100 mA
19.8325649499276;0.299835205078125;0.0016339111328125;1.16999999704603;118;100 mA
19.8425649499023;0.299835205078125;0.00163787841796875;1.17999999702079;119;100 mA
19.8525649498771;0.29986572265625;0.00163360595703125;1.18999999699554;120;100 mA
19.8625649498518;0.2998046875;0.00163330078125;1.19999999697029;121;100 mA
19.8725649498266;0.299835205078125;0.00164825439453125;1.20999999694504;122;100 mA
19.8825649498013;0.29986572265625;0.001650390625;1.2199999969198;123;100 mA
19.8925649497761;0.2999267578125;0.00164306640625;1.22999999689455;124;100 mA
19.9025649497509;0.29986572265625;0.00164306640625;1.2399999968693;125;100 mA
19.9125649497256;0.29986572265625;0.001630859375;1.24999999684405;126;100 mA
19.9225649497004;0.29986572265625;0.00163330078125;1.25999999681881;127;100 mA
19.9325649496751;0.299835205078125;0.00163543701171875;1.26999999679356;128;100 mA
19.9425649496499;0.299896240234375;0.00164398193359375;1.27999999676831;129;100 mA
19.9525649496246;0.299835205078125;0.00163848876953125;1.28999999674306;130;100 mA
19.9625649495994;0.29986572265625;0.0016351318359375;1.29999999671782;131;100 mA
19.9725649495741;0.299896240234375;0.0016229248046875;1.30999999669257;132;100 mA
19.9825649495489;0.2998046875;0.00162994384765625;1.31999999666732;133;100 mA
19.9925649495236;0.299896240234375;0.0016357421875;1.32999999664207;134;100 mA
20.0025649494984;0.299896240234375;0.00163604736328125;1.33999999661683;135;100 mA
20.0125649494731;0.299835205078125;0.00164093017578125;1.34999999659158;136;100 mA
20.0225649494479;0.299835205078125;0.0016357421875;1.35999999656633;137;100 mA
20.0325649494226;0.29986572265625;0.0016217041015625;1.36999999654108;138;100 mA
20.0425649493974;0.29986572265625;0.0016143798828125;1.37999999651583;139;100 mA
20.0525649493721;0.29986572265625;0.0016241455078125;1.38999999649059;140;100 mA
20.0625649493469;0.29986572265625;0.001629638671875;1.39999999646534;141;100 mA
20.0725649493216;0.299835205078125;0.00162353515625;1.40999999644009;142;100 mA
20.0825649492964;0.299835205078125;0.001627197265625;1.41999999641484;143;100 mA
20.0925649492711;0.299835205078125;0.0016180419921875;1.4299999963896;144;100 mA
20.1025649492459;0.299835205078125;0.0016259765625;1.43999999636435;145;100 mA
20.1125649492207;0.299896240234375;0.0016229248046875;1.4499999963391;146;100 mA
20.1225649491954;0.29986572265625;0.001630859375;1.45999999631385;147;100 mA
20.1325649491702;0.2998046875;0.00163787841796875;1.46999999628861;148;100 mA
20.1425649491449;0.299835205078125;0.00163726806640625;1.47999999626336;149;100 mA
20.1525649491197;0.299835205078125;0.00162689208984375;1.48999999623811;150;100 mA
20.1625649490944;0.29986572265625;0.0016259765625;1.49999999621286;151;100 mA
20.1725649490692;0.299835205078125;0.00163665771484375;1.50999999618762;152;100 mA
20.1825649490439;0.29986572265625;0.00163970947265625;1.51999999616237;153;100 mA
20.1925649490187;0.29986572265625;0.0016351318359375;1.52999999613712;154;100 mA
20.2025649489934;0.299896240234375;0.00163421630859375;1.53999999611187;155;100 mA
20.2125649489682;0.2998046875;0.00161834716796875;1.54999999608663;156;100 mA
20.2225649489429;0.2998046875;0.00162017822265625;1.55999999606138;157;100 mA
20.2325649489177;0.299896240234375;0.00162353515625;1.56999999603613;158;100 mA
20.2425649488924;0.29986572265625;0.001632080078125;1.57999999601088;159;100 mA
20.2525649488672;0.299896240234375;0.00163177490234375;1.58999999598564;160;100 mA
20.2625649488419;0.299835205078125;0.00163116455078125;1.59999999596039;161;100 mA
20.2725649488167;0.299896240234375;0.001622314453125;1.60999999593514;162;100 mA
20.2825649487914;0.29986572265625;0.0016290283203125;1.61999999590989;163;100 mA
20.2925649487662;0.29986572265625;0.00163177490234375;1.62999999588465;164;100 mA
20.302564948741;0.299896240234375;0.0016290283203125;1.6399999958594;165;100 mA
20.3125649487157;0.299774169921875;0.00163543701171875;1.64999999583415;166;100 mA
20.3225649486905;0.299835205078125;0.00163055419921875;1.6599999958089;167;100 mA
20.3325649486652;0.29986572265625;0.00161895751953125;1.66999999578366;168;100 mA
20.34256494864;0.299835205078125;0.00160980224609375;1.67999999575841;169;100 mA
20.3525649486147;0.299835205078125;0.00162078857421875;1.68999999573316;170;100 mA
20.3625649485895;0.29986572265625;0.0016204833984375;1.69999999570791;171;100 mA
20.3725649485642;0.29974365234375;0.00161041259765625;1.70999999568267;172;100 mA
20.382564948539;0.299835205078125;0.00160919189453125;1.71999999565742;173;100 mA
20.3925649485137;0.29986572265625;0.00159912109375;1.72999999563217;174;100 mA
20.4025649484885;0.2998046875;0.00160980224609375;1.73999999560692;175;100 mA
20.4125649484632;0.299835205078125;0.00161346435546875;1.74999999558167;176;100 mA
20.422564948438;0.299896240234375;0.00162445068359375;1.75999999555643;177;100 mA
20.4325649484127;0.29986572265625;0.00163726806640625;1.76999999553118;178;100 mA
20.4425649483875;0.29986572265625;0.00163726806640625;1.77999999550593;179;100 mA
20.4525649483622;0.29986572265625;0.0016290283203125;1.78999999548068;180;100 mA
20.462564948337;0.29986572265625;0.0016229248046875;1.79999999545544;181;100 mA
20.4725649483117;0.299896240234375;0.00162841796875;1.80999999543019;182;100 mA
20.4825649482865;0.29986572265625;0.00162445068359375;1.81999999540494;183;100 mA
20.4925649482612;0.299835205078125;0.0016229248046875;1.82999999537969;184;100 mA
20.502564948236;0.2998046875;0.0016278076171875;1.83999999535445;185;100 mA
20.5125649482108;0.2998046875;0.001617431640625;1.8499999953292;186;100 mA
20.5225649481855;0.299896240234375;0.00162109375;1.85999999530395;187;100 mA
20.5325649481603;0.29986572265625;0.00162841796875;1.8699999952787;188;100 mA
20.542564948135;0.299835205078125;0.0016436767578125;1.87999999525346;189;100 mA
20.5525649481098;0.299896240234375;0.0016455078125;1.88999999522821;190;100 mA
20.5625649480845;0.299774169921875;0.00164703369140625;1.89999999520296;191;100 mA
20.5725649480593;0.299896240234375;0.0016339111328125;1.90999999517771;192;100 mA
20.582564948034;0.299835205078125;0.0016400146484375;1.91999999515247;193;100 mA
20.5925649480088;0.29986572265625;0.00164337158203125;1.92999999512722;194;100 mA
20.6025649479835;0.299896240234375;0.0016424560546875;1.93999999510197;195;100 mA
20.6125649479583;0.299835205078125;0.001650390625;1.94999999507672;196;100 mA
20.622564947933;0.29986572265625;0.00164947509765625;1.95999999505148;197;100 mA
20.6325649479078;0.29986572265625;0.00164093017578125;1.96999999502623;198;100 mA
20.6425649478825;0.299835205078125;0.0016314697265625;1.97999999500098;199;100 mA
20.6525649478573;0.29986572265625;0.0016387939453125;1.98999999497573;200;100 mA
20.662564947832;0.299896240234375;0.00164093017578125;1.99999999495049;201;100 mA
20.6725649478068;0.299835205078125;0.00163116455078125;2.00999999492524;202;100 mA
20.6825649477815;0.299835205078125;0.00163360595703125;2.01999999489999;203;100 mA
20.6925649477563;0.299835205078125;0.00162139892578125;2.02999999487474;204;100 mA
20.702564947731;0.29986572265625;0.0016265869140625;2.0399999948495;205;100 mA
20.7125649477058;0.2998046875;0.00162139892578125;2.04999999482425;206;100 mA
20.7225649476806;0.29986572265625;0.0016217041015625;2.059999994799;207;100 mA
20.7325649476553;0.29986572265625;0.00163055419921875;2.06999999477375;208;100 mA
20.7425649476301;0.2998046875;0.00163177490234375;2.0799999947485;209;100 mA
20.7525649476048;0.299835205078125;0.001630859375;2.08999999472326;210;100 mA
20.7625649475796;0.29986572265625;0.0016314697265625;2.09999999469801;211;100 mA
20.7725649475543;0.299896240234375;0.0016387939453125;2.10999999467276;212;100 mA
20.7825649475291;0.299896240234375;0.001632080078125;2.11999999464751;213;100 mA
20.7925649475038;0.299896240234375;0.001630859375;2.12999999462227;214;100 mA
20.8025649474786;0.299835205078125;0.00163055419921875;2.13999999459702;215;100 mA
20.8125649474533;0.299835205078125;0.001617431640625;2.14999999457177;216;100 mA
20.8225649474281;0.29986572265625;0.0016156005859375;2.15999999454652;217;100 mA
20.8325649474028;0.299835205078125;0.001619873046875;2.16999999452128;218;100 mA
20.8425649473776;0.29986572265625;0.001622314453125;2.17999999449603;219;100 mA
20.8525649473523;0.29986572265625;0.001612548828125;2.18999999447078;220;100 mA
20.8625649473271;0.29986572265625;0.0016082763671875;2.19999999444553;221;100 mA
20.8725649473018;0.299835205078125;0.00159637451171875;2.20999999442029;222;100 mA
20.8825649472766;0.299835205078125;0.001600341796875;2.21999999439504;223;100 mA
20.8925649472513;0.29986572265625;0.0016009521484375;2.22999999436979;224;100 mA
20.9025649472261;0.299835205078125;0.00160125732421875;2.23999999434454;225;100 mA
20.9125649472008;0.299896240234375;0.00160980224609375;2.2499999943193;226;100 mA
20.9225649471756;0.2998046875;0.00160919189453125;2.25999999429405;227;100 mA
20.9325649471504;0.29986572265625;0.0016046142578125;2.2699999942688;228;100 mA
20.9425649471251;0.29986572265625;0.0015997314453125;2.27999999424355;229;100 mA
20.9525649470999;0.29986572265625;0.0016107177734375;2.28999999421831;230;100 mA
20.9625649470746;0.29986572265625;0.00161376953125;2.29999999419306;231;100 mA
20.9725649470494;0.2998046875;0.0016058349609375;2.30999999416781;232;100 mA
20.9825649470241;0.299835205078125;0.001605224609375;2.31999999414256;233;100 mA
20.9925649469989;0.299835205078125;0.00159393310546875;2.32999999411732;234;100 mA
21.0025649469736;0.299835205078125;0.00160064697265625;2.33999999409207;235;100 mA
21.0125649469484;0.2998046875;0.0016009521484375;2.34999999406682;236;100 mA
21.0225649469231;0.2999267578125;0.00160614013671875;2.35999999404157;237;100 mA
21.0325649468979;0.29986572265625;0.0016131591796875;2.36999999401633;238;100 mA
21.0425649468726;0.29986572265625;0.001611328125;2.37999999399108;239;100 mA
21.0525649468474;0.29986572265625;0.00160675048828125;2.38999999396583;240;100 mA
21.0625649468221;0.299835205078125;0.001610107421875;2.39999999394058;241;100 mA
21.0725649467969;0.2998046875;0.00161865234375;2.40999999391533;242;100 mA
21.0825649467716;0.299896240234375;0.00161590576171875;2.41999999389009;243;100 mA
21.0925649467464;0.29986572265625;0.0016131591796875;2.42999999386484;244;100 mA
21.1025649467211;0.2998046875;0.00160888671875;2.43999999383959;245;100 mA
21.1125649466959;0.299896240234375;0.00159454345703125;2.44999999381434;246;100 mA
21.1225649466706;0.29986572265625;0.00158905029296875;2.4599999937891;247;100 mA
21.1325649466454;0.29986572265625;0.00159210205078125;2.46999999376385;248;100 mA
21.1425649466202;0.299835205078125;0.0015960693359375;2.4799999937386;249;100 mA
21.1525649465949;0.299896240234375;0.00159332275390625;2.48999999371335;250;100 mA
21.1625649465697;0.299896240234375;0.00159820556640625;2.49999999368811;251;100 mA
21.1725649465444;0.299896240234375;0.0015966796875;2.50999999366286;252;100 mA
21.1825649465192;0.29986572265625;0.00160980224609375;2.51999999363761;253;100 mA
21.1925649464939;0.299835205078125;0.0016168212890625;2.52999999361236;254;100 mA
21.2025649464687;0.299774169921875;0.001622314453125;2.53999999358712;255;100 mA
21.2125649464434;0.29986572265625;0.00163330078125;2.54999999356187;256;100 mA
21.2225649464182;0.29986572265625;0.0016357421875;2.55999999353662;257;100 mA
21.2325649463929;0.29986572265625;0.00163421630859375;2.56999999351137;258;100 mA
21.2425649463677;0.29986572265625;0.0016339111328125;2.57999999348613;259;100 mA
21.2525649463424;0.299835205078125;0.001650390625;2.58999999346088;260;100 mA
21.2625649463172;0.299835205078125;0.0016546630859375;2.59999999343563;261;100 mA
21.2725649462919;0.299835205078125;0.00164581298828125;2.60999999341038;262;100 mA
21.2825649462667;0.299835205078125;0.00164581298828125;2.61999999338514;263;100 mA
21.2925649462414;0.299835205078125;0.00163665771484375;2.62999999335989;264;100 mA
21.3025649462162;0.29986572265625;0.00164398193359375;2.63999999333464;265;100 mA
21.3125649461909;0.2998046875;0.00164337158203125;2.64999999330939;266;100 mA
21.3225649461657;0.29986572265625;0.0016461181640625;2.65999999328415;267;100 mA
21.3325649461405;0.2998046875;0.00165435791015625;2.6699999932589;268;100 mA
21.3425649461152;0.29986572265625;0.00165191650390625;2.67999999323365;269;100 mA
21.35256494609;0.2998046875;0.001646728515625;2.6899999932084;270;100 mA
21.3625649460647;0.299835205078125;0.001649169921875;2.69999999318316;271;100 mA
21.3725649460395;0.29986572265625;0.00166107177734375;2.70999999315791;272;100 mA
21.3825649460142;0.299896240234375;0.00166259765625;2.71999999313266;273;100 mA
21.392564945989;0.299896240234375;0.0016656494140625;2.72999999310741;274;100 mA
21.4025649459637;0.299835205078125;0.00166473388671875;2.73999999308217;275;100 mA
21.4125649459385;0.29986572265625;0.0016534423828125;2.74999999305692;276;100 mA
21.4225649459132;0.299835205078125;0.00165069580078125;2.75999999303167;277;100 mA
21.432564945888;0.29986572265625;0.00165802001953125;2.76999999300642;278;100 mA
21.4425649458627;0.29986572265625;0.00166473388671875;2.77999999298117;279;100 mA
21.4525649458375;0.299835205078125;0.00165435791015625;2.78999999295593;280;100 mA
21.4625649458122;0.299835205078125;0.001651611328125;2.79999999293068;281;100 mA
21.472564945787;0.299835205078125;0.0016375732421875;2.80999999290543;282;100 mA
21.4825649457617;0.299835205078125;0.00164306640625;2.81999999288018;283;100 mA
21.4925649457365;0.299896240234375;0.001641845703125;2.82999999285494;284;100 mA
21.5025649457112;0.2998046875;0.00164520263671875;2.83999999282969;285;100 mA
21.512564945686;0.299835205078125;0.00165252685546875;2.84999999280444;286;100 mA
21.5225649456607;0.299896240234375;0.001649169921875;2.85999999277919;287;100 mA
21.5325649456355;0.29986572265625;0.0016387939453125;2.86999999275395;288;100 mA
21.5425649456103;0.2998046875;0.0016314697265625;2.8799999927287;289;100 mA
21.552564945585;0.29986572265625;0.00164337158203125;2.88999999270345;290;100 mA
21.5625649455598;0.29986572265625;0.00164337158203125;2.8999999926782;291;100 mA
21.5725649455345;0.299835205078125;0.001634521484375;2.90999999265296;292;100 mA
21.5825649455093;0.299835205078125;0.0016302490234375;2.91999999262771;293;100 mA
21.592564945484;0.299835205078125;0.00161163330078125;2.92999999260246;294;100 mA
21.6025649454588;0.2998046875;0.00161407470703125;2.93999999257721;295;100 mA
21.6125649454335;0.29986572265625;0.001610107421875;2.94999999255197;296;100 mA
21.6225649454083;0.299896240234375;0.00160797119140625;2.95999999252672;297;100 mA
21.632564945383;0.29986572265625;0.00161376953125;2.96999999250147;298;100 mA
21.6425649453578;0.299835205078125;0.00160888671875;2.97999999247622;299;100 mA
21.6525649453325;0.29986572265625;0.00160247802734375;2.98999999245098;300;100 mA
21.6625649453073;0.299835205078125;0.00160247802734375;2.99999999242573;301;100 mA
21.672564945282;0.2999267578125;0.0016119384765625;3.00999999240048;302;100 mA
21.6825649452568;0.299835205078125;0.0016046142578125;3.01999999237523;303;100 mA
21.6925649452315;0.2998046875;0.001605224609375;3.02999999234999;304;100 mA
21.7025649452063;0.29986572265625;0.0015966796875;3.03999999232474;305;100 mA
21.712564945181;0.299896240234375;0.00158172607421875;3.04999999229949;306;100 mA
21.7225649451558;0.29986572265625;0.00157440185546875;3.05999999227424;307;100 mA
21.7325649451305;0.29986572265625;0.0015869140625;3.069999992249;308;100 mA
21.7425649451053;0.2998046875;0.00158966064453125;3.07999999222375;309;100 mA
21.7525649450801;0.29986572265625;0.001583251953125;3.0899999921985;310;100 mA
21.7625649450548;0.29986572265625;0.00158111572265625;3.09999999217325;311;100 mA
21.7725649450296;0.29986572265625;0.00157012939453125;3.109999992148;312;100 mA
21.7825649450043;0.29986572265625;0.00158050537109375;3.11999999212276;313;100 mA
21.7925649449791;0.29986572265625;0.0015838623046875;3.12999999209751;314;100 mA
21.8025649449538;0.299896240234375;0.0015887451171875;3.13999999207226;315;100 mA
21.8125649449286;0.29986572265625;0.0016009521484375;3.14999999204701;316;100 mA
21.8225649449033;0.299835205078125;0.0016046142578125;3.15999999202177;317;100 mA
21.8325649448781;0.299835205078125;0.001600341796875;3.16999999199652;318;100 mA
21.8425649448528;0.299896240234375;0.001595458984375;3.17999999197127;319;100 mA
21.8525649448276;0.2998046875;0.0016094970703125;3.18999999194602;320;100 mA
21.8625649448023;0.299835205078125;0.00161102294921875;3.19999999192078;321;100 mA
21.8725649447771;0.299835205078125;0.00160430908203125;3.20999999189553;322;100 mA
21.8825649447518;0.299835205078125;0.001605224609375;3.21999999187028;323;100 mA
21.8925649447266;0.29986572265625;0.00158935546875;3.22999999184503;324;100 mA
21.9025649447013;0.299896240234375;0.00159454345703125;3.23999999181979;325;100 mA
21.9125649446761;0.2998046875;0.0015997314453125;3.24999999179454;326;100 mA
21.9225649446508;0.29986572265625;0.00160186767578125;3.25999999176929;327;100 mA
21.9325649446256;0.299896240234375;0.0016107177734375;3.26999999174404;328;100 mA
21.9425649446003;0.29986572265625;0.001611328125;3.2799999917188;329;100 mA
21.9525649445751;0.299896240234375;0.001617431640625;3.28999999169355;330;100 mA
21.9625649445499;0.299835205078125;0.001627197265625;3.2999999916683;331;100 mA
21.9725649445246;0.299835205078125;0.00164306640625;3.30999999164305;332;100 mA
21.9825649444994;0.299896240234375;0.0016455078125;3.31999999161781;333;100 mA
21.9925649444741;0.29986572265625;0.0016546630859375;3.32999999159256;334;100 mA
22.0025649444489;0.299835205078125;0.0016558837890625;3.33999999156731;335;100 mA
22.0125649444236;0.29986572265625;0.00164703369140625;3.34999999154206;336;100 mA
22.0225649443984;0.2999267578125;0.0016436767578125;3.35999999151682;337;100 mA
22.0325649443731;0.299896240234375;0.0016546630859375;3.36999999149157;338;100 mA
22.0425649443479;0.299835205078125;0.00166534423828125;3.37999999146632;339;100 mA
22.0525649443226;0.299835205078125;0.00166290283203125;3.38999999144107;340;100 mA
22.0625649442974;0.29986572265625;0.001663818359375;3.39999999141583;341;100 mA
22.0725649442721;0.299835205078125;0.00165252685546875;3.40999999139058;342;100 mA
22.0825649442469;0.2998046875;0.00166046142578125;3.41999999136533;343;100 mA
22.0925649442216;0.299896240234375;0.0016595458984375;3.42999999134008;344;100 mA
22.1025649441964;0.299774169921875;0.00166412353515625;3.43999999131483;345;100 mA
22.1125649441711;0.2999267578125;0.00167083740234375;3.44999999128959;346;100 mA
22.1225649441459;0.2998046875;0.00166900634765625;3.45999999126434;347;100 mA
22.1325649441206;0.2999267578125;0.001661376953125;3.46999999123909;348;100 mA
22.1425649440954;0.299896240234375;0.00165557861328125;3.47999999121384;349;100 mA
22.1525649440701;0.299896240234375;0.0016650390625;3.4899999911886;350;100 mA
22.1625649440449;0.2999267578125;0.00166717529296875;3.49999999116335;351;100 mA
22.1725649440197;0.299835205078125;0.00165802001953125;3.5099999911381;352;100 mA
22.1825649439944;0.299835205078125;0.00165985107421875;3.51999999111285;353;100 mA
22.1925649439692;0.299835205078125;0.0016400146484375;3.52999999108761;354;100 mA
22.2025649439439;0.299835205078125;0.00163787841796875;3.53999999106236;355;100 mA
22.2125649439187;0.29986572265625;0.00163360595703125;3.54999999103711;356;100 mA
22.2225649438934;0.299835205078125;0.0016363525390625;3.55999999101186;357;100 mA
22.2325649438682;0.299896240234375;0.00164459228515625;3.56999999098662;358;100 mA
22.2425649438429;0.299835205078125;0.0016424560546875;3.57999999096137;359;100 mA
22.2525649438177;0.29986572265625;0.00163421630859375;3.58999999093612;360;100 mA
22.2625649437924;0.2998046875;0.001639404296875;3.59999999091087;361;100 mA
22.2725649437672;0.2998046875;0.00165069580078125;3.60999999088563;362;100 mA
22.2825649437419;0.29986572265625;0.00165802001953125;3.61999999086038;363;100 mA
22.2925649437167;0.29986572265625;0.00166595458984375;3.62999999083513;364;100 mA
22.3025649436914;0.29986572265625;0.00166412353515625;3.63999999080988;365;100 mA
22.3125649436662;0.299835205078125;0.00164520263671875;3.64999999078464;366;100 mA
22.3225649436409;0.29986572265625;0.001630859375;3.65999999075939;367;100 mA
22.3325649436157;0.299896240234375;0.00163421630859375;3.66999999073414;368;100 mA
22.3425649435904;0.29986572265625;0.001640625;3.67999999070889;369;100 mA
22.3525649435652;0.299896240234375;0.00163848876953125;3.68999999068365;370;100 mA
22.36256494354;0.29986572265625;0.0016400146484375;3.6999999906584;371;100 mA
22.3725649435147;0.299896240234375;0.001627197265625;3.70999999063315;372;100 mA
22.3825649434895;0.299896240234375;0.00163055419921875;3.7199999906079;373;100 mA
22.3925649434642;0.29986572265625;0.00162628173828125;3.72999999058266;374;100 mA
22.402564943439;0.299835205078125;0.0016314697265625;3.73999999055741;375;100 mA
22.4125649434137;0.299835205078125;0.001639404296875;3.74999999053216;376;100 mA
22.4225649433885;0.2999267578125;0.001639404296875;3.75999999050691;377;100 mA
22.4325649433632;0.2998046875;0.0016339111328125;3.76999999048167;378;100 mA
22.442564943338;0.299835205078125;0.001630859375;3.77999999045642;379;100 mA
22.4525649433127;0.2998046875;0.0016455078125;3.78999999043117;380;100 mA
22.4625649432875;0.29986572265625;0.0016485595703125;3.79999999040592;381;100 mA
22.4725649432622;0.299835205078125;0.0016455078125;3.80999999038067;382;100 mA
22.482564943237;0.299835205078125;0.00165283203125;3.81999999035543;383;100 mA
22.4925649432117;0.299957275390625;0.001641845703125;3.82999999033018;384;100 mA
22.5025649431865;0.299835205078125;0.0016461181640625;3.83999999030493;385;100 mA
22.5125649431612;0.2998046875;0.00164398193359375;3.84999999027968;386;100 mA
22.522564943136;0.299835205078125;0.00164703369140625;3.85999999025444;387;100 mA
22.5325649431107;0.2999267578125;0.001650390625;3.86999999022919;388;100 mA
22.5425649430855;0.29986572265625;0.00164398193359375;3.87999999020394;389;100 mA
22.5525649430602;0.29986572265625;0.00163726806640625;3.88999999017869;390;100 mA
22.562564943035;0.299835205078125;0.00163970947265625;3.89999999015345;391;100 mA
22.5725649430098;0.299835205078125;0.001650390625;3.9099999901282;392;100 mA
22.5825649429845;0.29986572265625;0.00165557861328125;3.91999999010295;393;100 mA
22.5925649429593;0.29986572265625;0.00166717529296875;3.9299999900777;394;100 mA
22.602564942934;0.29986572265625;0.0016705322265625;3.93999999005246;395;100 mA
22.6125649429088;0.29986572265625;0.00166412353515625;3.94999999002721;396;100 mA
22.6225649428835;0.29986572265625;0.001658935546875;3.95999999000196;397;100 mA
22.6325649428583;0.2998046875;0.0016632080078125;3.96999998997671;398;100 mA
22.642564942833;0.29986572265625;0.0016650390625;3.97999998995147;399;100 mA
22.6525649428078;0.299835205078125;0.0016546630859375;3.98999998992622;400;100 mA
22.6625649427825;0.299835205078125;0.00165557861328125;3.99999998990097;401;100 mA
22.6725649427573;0.2998046875;0.00164794921875;4.00999998987572;402;100 mA
22.682564942732;0.29986572265625;0.00165924072265625;4.01999998985048;403;100 mA
22.6925649427068;0.29986572265625;0.00165679931640625;4.02999998982523;404;100 mA
22.7025649426815;0.29986572265625;0.00166290283203125;4.03999998979998;405;100 mA
22.7125649426563;0.299835205078125;0.00166717529296875;4.04999998977473;406;100 mA
22.722564942631;0.299835205078125;0.0016656494140625;4.05999998974949;407;100 mA
22.7325649426058;0.29986572265625;0.0016619873046875;4.06999998972424;408;100 mA
22.7425649425805;0.2998046875;0.00165313720703125;4.07999998969899;409;100 mA
22.7525649425553;0.299896240234375;0.00166259765625;4.08999998967374;410;100 mA
22.76256494253;0.299774169921875;0.0016644287109375;4.0999999896485;411;100 mA
22.7725649425048;0.29986572265625;0.0016558837890625;4.10999998962325;412;100 mA
22.7825649424796;0.2998046875;0.0016552734375;4.119999989598;413;100 mA
22.7925649424543;0.29986572265625;0.00163787841796875;4.12999998957275;414;100 mA
22.8025649424291;0.29986572265625;0.0016436767578125;4.1399999895475;415;100 mA
22.8125649424038;0.29986572265625;0.00164337158203125;4.14999998952226;416;100 mA
22.8225649423786;0.29986572265625;0.00165130615234375;4.15999998949701;417;100 mA
22.8325649423533;0.299896240234375;0.00165740966796875;4.16999998947176;418;100 mA
22.8425649423281;0.29986572265625;0.0016552734375;4.17999998944651;419;100 mA
22.8525649423028;0.299896240234375;0.00164459228515625;4.18999998942127;420;100 mA
22.8625649422776;0.299896240234375;0.001651611328125;4.19999998939602;421;100 mA
22.8725649422523;0.29986572265625;0.00166046142578125;4.20999998937077;422;100 mA
22.8825649422271;0.29986572265625;0.0016619873046875;4.21999998934552;423;100 mA
22.8925649422018;0.299835205078125;0.001668701171875;4.22999998932028;424;100 mA
22.9025649421766;0.29986572265625;0.00166656494140625;4.23999998929503;425;100 mA
22.9125649421513;0.299835205078125;0.0016534423828125;4.24999998926978;426;100 mA
22.9225649421261;0.299835205078125;0.0016448974609375;4.25999998924453;427;100 mA
22.9325649421008;0.299835205078125;0.00165191650390625;4.26999998921929;428;100 mA
22.9425649420756;0.299835205078125;0.00165557861328125;4.27999998919404;429;100 mA
22.9525649420503;0.299835205078125;0.00164764404296875;4.28999998916879;430;100 mA
22.9625649420251;0.29986572265625;0.00164642333984375;4.29999998914354;431;100 mA
22.9725649419998;0.29986572265625;0.00163818359375;4.3099999891183;432;100 mA
22.9825649419746;0.299835205078125;0.001651611328125;4.31999998909305;433;100 mA
22.9925649419494;0.299896240234375;0.00165191650390625;4.3299999890678;434;100 mA
23.0025649419241;0.29986572265625;0.0016595458984375;4.33999998904255;435;100 mA
23.0125649418989;0.29986572265625;0.0016680908203125;4.34999998901731;436;100 mA
23.0225649418736;0.2998046875;0.00166778564453125;4.35999998899206;437;100 mA
23.0325649418484;0.299896240234375;0.001663818359375;4.36999998896681;438;100 mA
23.0425649418231;0.2999267578125;0.00166168212890625;4.37999998894156;439;100 mA
23.0525649417979;0.29986572265625;0.0016754150390625;4.38999998891632;440;100 mA
23.0625649417726;0.299774169921875;0.00167633056640625;4.39999998889107;441;100 mA
23.0725649417474;0.2998046875;0.0016717529296875;4.40999998886582;442;100 mA
23.0825649417221;0.29986572265625;0.00167266845703125;4.41999998884057;443;100 mA
23.0925649416969;0.299835205078125;0.0016571044921875;4.42999998881533;444;100 mA
23.1025649416716;0.2999267578125;0.0016583251953125;4.43999998879008;445;100 mA
23.1125649416464;0.299835205078125;0.0016595458984375;4.44999998876483;446;100 mA
23.1225649416211;0.299896240234375;0.001663818359375;4.45999998873958;447;100 mA
23.1325649415959;0.2999267578125;0.0016693115234375;4.46999998871433;448;100 mA
23.1425649415706;0.29986572265625;0.001668701171875;4.47999998868909;449;100 mA
23.1525649415454;0.299835205078125;0.00165924072265625;4.48999998866384;450;100 mA
23.1625649415201;0.299896240234375;0.00166259765625;4.49999998863859;451;100 mA
23.1725649414949;0.29986572265625;0.00166595458984375;4.50999998861334;452;100 mA
23.1825649414696;0.299896240234375;0.0016650390625;4.5199999885881;453;100 mA
23.1925649414444;0.299835205078125;0.001673583984375;4.52999998856285;454;100 mA
23.2025649414192;0.2998046875;0.00166961669921875;4.5399999885376;455;100 mA
23.2125649413939;0.299896240234375;0.00165924072265625;4.54999998851235;456;100 mA
23.2225649413687;0.2998046875;0.0016522216796875;4.55999998848711;457;100 mA
23.2325649413434;0.299896240234375;0.00166290283203125;4.56999998846186;458;100 mA
23.2425649413182;0.299835205078125;0.00166839599609375;4.57999998843661;459;100 mA
23.2525649412929;0.2998046875;0.00165802001953125;4.58999998841136;460;100 mA
23.2625649412677;0.29986572265625;0.00165557861328125;4.59999998838612;461;100 mA
23.2725649412424;0.299835205078125;0.00164093017578125;4.60999998836087;462;100 mA
23.2825649412172;0.299896240234375;0.00164886474609375;4.61999998833562;463;100 mA
23.2925649411919;0.29986572265625;0.00165008544921875;4.62999998831037;464;100 mA
23.3025649411667;0.2999267578125;0.00166259765625;4.63999998828513;465;100 mA
23.3125649411414;0.299835205078125;0.00167572021484375;4.64999998825988;466;100 mA
23.3225649411162;0.299835205078125;0.00167572021484375;4.65999998823463;467;100 mA
23.3325649410909;0.299896240234375;0.00166839599609375;4.66999998820938;468;100 mA
23.3425649410657;0.2998046875;0.0016632080078125;4.67999998818414;469;100 mA
23.3525649410404;0.299835205078125;0.00167205810546875;4.68999998815889;470;100 mA
23.3625649410152;0.29986572265625;0.00166473388671875;4.69999998813364;471;100 mA
23.3725649409899;0.2998046875;0.00165557861328125;4.70999998810839;472;100 mA
23.3825649409647;0.29986572265625;0.00165435791015625;4.71999998808315;473;100 mA
23.3925649409395;0.299835205078125;0.0016375732421875;4.7299999880579;474;100 mA
23.4025649409142;0.2999267578125;0.0016351318359375;4.73999998803265;475;100 mA
23.412564940889;0.299896240234375;0.00163909912109375;4.7499999880074;476;100 mA
23.4225649408637;0.29986572265625;0.001641845703125;4.75999998798216;477;100 mA
23.4325649408385;0.299835205078125;0.0016412353515625;4.76999998795691;478;100 mA
23.4425649408132;0.299835205078125;0.00163787841796875;4.77999998793166;479;100 mA
23.452564940788;0.29986572265625;0.0016290283203125;4.78999998790641;480;100 mA
23.4625649407627;0.29986572265625;0.0016326904296875;4.79999998788116;481;100 mA
23.4725649407375;0.29986572265625;0.0016363525390625;4.80999998785592;482;100 mA
23.4825649407122;0.29986572265625;0.0016326904296875;4.81999998783067;483;100 mA
23.492564940687;0.299835205078125;0.001641845703125;4.82999998780542;484;100 mA
23.5025649406617;0.299896240234375;0.00163848876953125;4.83999998778017;485;100 mA
23.5125649406365;0.2999267578125;0.00162841796875;4.84999998775493;486;100 mA
23.5225649406112;0.299835205078125;0.00162139892578125;4.85999998772968;487;100 mA
23.532564940586;0.29986572265625;0.0016290283203125;4.86999998770443;488;100 mA
23.5425649405607;0.29986572265625;0.00163238525390625;4.87999998767918;489;100 mA
23.5525649405355;0.2998046875;0.001627197265625;4.88999998765394;490;100 mA
23.5625649405102;0.299896240234375;0.00162841796875;4.89999998762869;491;100 mA
23.572564940485;0.29986572265625;0.0016192626953125;4.90999998760344;492;100 mA
23.5825649404597;0.299896240234375;0.00162628173828125;4.91999998757819;493;100 mA
23.5925649404345;0.299835205078125;0.00162384033203125;4.92999998755295;494;100 mA
23.6025649404093;0.29986572265625;0.00162689208984375;4.9399999875277;495;100 mA
23.612564940384;0.29986572265625;0.0016339111328125;4.94999998750245;496;100 mA
23.6225649403588;0.29986572265625;0.00162933349609375;4.9599999874772;497;100 mA
23.6325649403335;0.29986572265625;0.00162200927734375;4.96999998745196;498;100 mA
23.6425649403083;0.29986572265625;0.00161865234375;4.97999998742671;499;100 mA
23.652564940283;0.299896240234375;0.001629638671875;4.98999998740146;500;100 mA
23.6625649402578;0.299835205078125;0.001627197265625;4.99999998737621;501;100 mA
23.6725649402325;0.299896240234375;0.0016278076171875;5.00999998735097;502;100 mA
23.6825649402073;0.299835205078125;0.0016339111328125;5.01999998732572;503;100 mA
23.692564940182;0.2998046875;0.00162445068359375;5.02999998730047;504;100 mA
23.7025649401568;0.299835205078125;0.001627197265625;5.03999998727522;505;100 mA
23.7125649401315;0.299835205078125;0.00162689208984375;5.04999998724998;506;100 mA
23.7225649401063;0.29986572265625;0.00162933349609375;5.05999998722473;507;100 mA
23.732564940081;0.299835205078125;0.00162841796875;5.06999998719948;508;100 mA
23.7425649400558;0.2998046875;0.00162872314453125;5.07999998717423;509;100 mA
23.7525649400305;0.299835205078125;0.00162109375;5.08999998714899;510;100 mA
23.7625649400053;0.299896240234375;0.0016259765625;5.09999998712374;511;100 mA
23.77256493998;0.299835205078125;0.0016351318359375;5.10999998709849;512;100 mA
23.7825649399548;0.29986572265625;0.00163970947265625;5.11999998707324;513;100 mA
23.7925649399295;0.29986572265625;0.00165313720703125;5.129999987048;514;100 mA
23.8025649399043;0.299896240234375;0.0016558837890625;5.13999998702275;515;100 mA
23.8125649398791;0.2998046875;0.00165313720703125;5.1499999869975;516;100 mA
23.8225649398538;0.299896240234375;0.00164703369140625;5.15999998697225;517;100 mA
23.8325649398286;0.29986572265625;0.001658935546875;5.169999986947;518;100 mA
23.8425649398033;0.299896240234375;0.00165618896484375;5.17999998692176;519;100 mA
23.8525649397781;0.29986572265625;0.00164886474609375;5.18999998689651;520;100 mA
23.8625649397528;0.29986572265625;0.00164886474609375;5.19999998687126;521;100 mA
23.8725649397276;0.299835205078125;0.00164154052734375;5.20999998684601;522;100 mA
23.8825649397023;0.29986572265625;0.00165191650390625;5.21999998682077;523;100 mA
23.8925649396771;0.299896240234375;0.0016455078125;5.22999998679552;524;100 mA
23.9025649396518;0.2998046875;0.00164825439453125;5.23999998677027;525;100 mA
23.9125649396266;0.299835205078125;0.00165557861328125;5.24999998674502;526;100 mA
23.9225649396013;0.299896240234375;0.0016571044921875;5.25999998671978;527;100 mA
23.9325649395761;0.2998046875;0.0016546630859375;5.26999998669453;528;100 mA
23.9425649395508;0.299835205078125;0.00165283203125;5.27999998666928;529;100 mA
23.9525649395256;0.299896240234375;0.00166259765625;5.28999998664403;530;100 mA
23.9625649395003;0.29986572265625;0.0016583251953125;5.29999998661879;531;100 mA
23.9725649394751;0.29986572265625;0.00165496826171875;5.30999998659354;532;100 mA
23.9825649394498;0.29986572265625;0.0016558837890625;5.31999998656829;533;100 mA
23.9925649394246;0.29986572265625;0.0016387939453125;5.32999998654304;534;100 mA
24.0025649393993;0.299896240234375;0.0016351318359375;5.3399999865178;535;100 mA
24.0125649393741;0.2998046875;0.0016351318359375;5.34999998649255;536;100 mA
24.0225649393489;0.299896240234375;0.00164031982421875;5.3599999864673;537;100 mA
24.0325649393236;0.299896240234375;0.00163818359375;5.36999998644205;538;100 mA
24.0425649392984;0.299896240234375;0.001634521484375;5.37999998641681;539;100 mA
24.0525649392731;0.2999267578125;0.00162445068359375;5.38999998639156;540;100 mA
24.0625649392479;0.299835205078125;0.00162567138671875;5.39999998636631;541;100 mA
24.0725649392226;0.299835205078125;0.00162322998046875;5.40999998634106;542;100 mA
24.0825649391974;0.299896240234375;0.00161895751953125;5.41999998631582;543;100 mA
24.0925649391721;0.299835205078125;0.00162689208984375;5.42999998629057;544;100 mA
24.1025649391469;0.299835205078125;0.0016290283203125;5.43999998626532;545;100 mA
24.1125649391216;0.299896240234375;0.00162994384765625;5.44999998624007;546;100 mA
24.1225649390964;0.2998046875;0.001627197265625;5.45999998621483;547;100 mA
24.1325649390711;0.299835205078125;0.00164093017578125;5.46999998618958;548;100 mA
24.1425649390459;0.299835205078125;0.0016424560546875;5.47999998616433;549;100 mA
24.1525649390206;0.299835205078125;0.00163177490234375;5.48999998613908;550;100 mA
24.1625649389954;0.2998046875;0.001630859375;5.49999998611383;551;100 mA
24.1725649389701;0.29986572265625;0.0016204833984375;5.50999998608859;552;100 mA
24.1825649389449;0.299835205078125;0.0016278076171875;5.51999998606334;553;100 mA
24.1925649389196;0.29986572265625;0.00162322998046875;5.52999998603809;554;100 mA
24.2025649388944;0.2998046875;0.0016265869140625;5.53999998601284;555;100 mA
24.2125649388691;0.2998046875;0.0016351318359375;5.5499999859876;556;100 mA
24.2225649388439;0.2998046875;0.00163238525390625;5.55999998596235;557;100 mA
24.2325649388187;0.2999267578125;0.00163421630859375;5.5699999859371;558;100 mA
24.2425649387934;0.299896240234375;0.0016339111328125;5.57999998591185;559;100 mA
24.2525649387682;0.29986572265625;0.001644287109375;5.58999998588661;560;100 mA
24.2625649387429;0.29986572265625;0.0016387939453125;5.59999998586136;561;100 mA
24.2725649387177;0.29986572265625;0.00163604736328125;5.60999998583611;562;100 mA
24.2825649386924;0.299896240234375;0.0016363525390625;5.61999998581086;563;100 mA
24.2925649386672;0.2998046875;0.0016229248046875;5.62999998578562;564;100 mA
24.3025649386419;0.2998046875;0.0016180419921875;5.63999998576037;565;100 mA
24.3125649386167;0.299896240234375;0.001619873046875;5.64999998573512;566;100 mA
24.3225649385914;0.299896240234375;0.001619873046875;5.65999998570987;567;100 mA
24.3325649385662;0.29986572265625;0.001614990234375;5.66999998568463;568;100 mA
24.3425649385409;0.29974365234375;0.0016107177734375;5.67999998565938;569;100 mA
24.3525649385157;0.2998046875;0.0016046142578125;5.68999998563413;570;100 mA
24.3625649384904;0.29986572265625;0.001612548828125;5.69999998560888;571;100 mA
24.3725649384652;0.29986572265625;0.0016143798828125;5.70999998558364;572;100 mA
24.3825649384399;0.299835205078125;0.001614990234375;5.71999998555839;573;100 mA
24.3925649384147;0.299896240234375;0.001617431640625;5.72999998553314;574;100 mA
24.4025649383894;0.29986572265625;0.00161590576171875;5.73999998550789;575;100 mA
24.4125649383642;0.29986572265625;0.001612548828125;5.74999998548265;576;100 mA
24.422564938339;0.299835205078125;0.00160797119140625;5.7599999854574;577;100 mA
24.4325649383137;0.29986572265625;0.00162841796875;5.76999998543215;578;100 mA
24.4425649382885;0.29986572265625;0.0016339111328125;5.7799999854069;579;100 mA
24.4525649382632;0.29986572265625;0.00162994384765625;5.78999998538166;580;100 mA
24.462564938238;0.299774169921875;0.0016314697265625;5.79999998535641;581;100 mA
24.4725649382127;0.2998046875;0.00162353515625;5.80999998533116;582;100 mA
24.4825649381875;0.29986572265625;0.00163055419921875;5.81999998530591;583;100 mA
24.4925649381622;0.299835205078125;0.001630859375;5.82999998528066;584;100 mA
24.502564938137;0.29986572265625;0.00163055419921875;5.83999998525542;585;100 mA
24.5125649381117;0.299896240234375;0.00163330078125;5.84999998523017;586;100 mA
24.5225649380865;0.299896240234375;0.00162200927734375;5.85999998520492;587;100 mA
24.5325649380612;0.299835205078125;0.0016180419921875;5.86999998517967;588;100 mA
24.542564938036;0.299835205078125;0.00161865234375;5.87999998515443;589;100 mA
24.5525649380107;0.299835205078125;0.00163482666015625;5.88999998512918;590;100 mA
24.5625649379855;0.299896240234375;0.00163421630859375;5.89999998510393;591;100 mA
24.5725649379602;0.299896240234375;0.00163055419921875;5.90999998507868;592;100 mA
24.582564937935;0.299896240234375;0.0016241455078125;5.91999998505344;593;100 mA
24.5925649379097;0.299896240234375;0.00160552978515625;5.92999998502819;594;100 mA
24.6025649378845;0.2998046875;0.00159759521484375;5.93999998500294;595;100 mA
24.6125649378592;0.299896240234375;0.0016033935546875;5.94999998497769;596;100 mA
24.622564937834;0.2998046875;0.00161376953125;5.95999998495245;597;100 mA
24.6325649378088;0.29986572265625;0.0016143798828125;5.9699999849272;598;100 mA
24.6425649377835;0.29986572265625;0.00161834716796875;5.97999998490195;599;100 mA
24.6525649377583;0.299896240234375;0.00161376953125;5.9899999848767;600;100 mA
24.662564937733;0.299835205078125;0.00162109375;5.99999998485146;601;100 mA
24.6725649377078;0.29986572265625;0.00162445068359375;6.00999998482621;602;100 mA
24.6825649376825;0.29986572265625;0.00162994384765625;6.01999998480096;603;100 mA
24.6925649376573;0.29986572265625;0.0016357421875;6.02999998477571;604;100 mA
24.702564937632;0.29986572265625;0.00163604736328125;6.03999998475047;605;100 mA
24.7125649376068;0.299774169921875;0.00163055419921875;6.04999998472522;606;100 mA
24.7225649375815;0.2999267578125;0.001624755859375;6.05999998469997;607;100 mA
24.7325649375563;0.299835205078125;0.00164459228515625;6.06999998467472;608;100 mA
24.742564937531;0.299835205078125;0.00165130615234375;6.07999998464948;609;100 mA
24.7525649375058;0.299835205078125;0.0016473388671875;6.08999998462423;610;100 mA
24.7625649374805;0.29986572265625;0.00164520263671875;6.09999998459898;611;100 mA
24.7725649374553;0.29986572265625;0.00163360595703125;6.10999998457373;612;100 mA
24.78256493743;0.29986572265625;0.00163970947265625;6.11999998454849;613;100 mA
24.7925649374048;0.2998046875;0.001641845703125;6.12999998452324;614;100 mA
24.8025649373795;0.299896240234375;0.0016510009765625;6.13999998449799;615;100 mA
24.8125649373543;0.29986572265625;0.00166015625;6.14999998447274;616;100 mA
24.822564937329;0.299896240234375;0.00165771484375;6.1599999844475;617;100 mA
24.8325649373038;0.299896240234375;0.001654052734375;6.16999998442225;618;100 mA
24.8425649372786;0.29986572265625;0.0016558837890625;6.179999984397;619;100 mA
24.8525649372533;0.29986572265625;0.0016680908203125;6.18999998437175;620;100 mA
24.8625649372281;0.29986572265625;0.00166473388671875;6.1999999843465;621;100 mA
24.8725649372028;0.299896240234375;0.0016619873046875;6.20999998432126;622;100 mA
24.8825649371776;0.299835205078125;0.00166107177734375;6.21999998429601;623;100 mA
24.8925649371523;0.2998046875;0.00165252685546875;6.22999998427076;624;100 mA
24.9025649371271;0.299774169921875;0.00165008544921875;6.23999998424551;625;100 mA
24.9125649371018;0.2998046875;0.00166046142578125;6.24999998422027;626;100 mA
24.9225649370766;0.29986572265625;0.001668701171875;6.25999998419502;627;100 mA
24.9325649370513;0.299835205078125;0.00166412353515625;6.26999998416977;628;100 mA
24.9425649370261;0.29986572265625;0.0016619873046875;6.27999998414452;629;100 mA
24.9525649370008;0.29986572265625;0.0016510009765625;6.28999998411928;630;100 mA
24.9625649369756;0.299835205078125;0.0016552734375;6.29999998409403;631;100 mA
24.9725649369503;0.299896240234375;0.00165252685546875;6.30999998406878;632;100 mA
24.9825649369251;0.2998046875;0.001658935546875;6.31999998404353;633;100 mA
24.9925649368998;0.299835205078125;0.00166290283203125;6.32999998401829;634;100 mA
25.0025649368746;0.299835205078125;0.00165771484375;6.33999998399304;635;100 mA
25.0125649368493;0.29986572265625;0.00164764404296875;6.34999998396779;636;100 mA
25.0225649368241;0.29986572265625;0.00164337158203125;6.35999998394254;637;100 mA
25.0325649367988;0.299835205078125;0.00166015625;6.3699999839173;638;100 mA
25.0425649367736;0.2998046875;0.001668701171875;6.37999998389205;639;100 mA
25.0525649367484;0.299835205078125;0.00166351318359375;6.3899999838668;640;100 mA
25.0625649367231;0.299835205078125;0.0016656494140625;6.39999998384155;641;100 mA
25.0725649366979;0.29986572265625;0.00165191650390625;6.40999998381631;642;100 mA
25.0825649366726;0.29986572265625;0.00165496826171875;6.41999998379106;643;100 mA
25.0925649366474;0.299835205078125;0.00165069580078125;6.42999998376581;644;100 mA
25.1025649366221;0.29986572265625;0.001654052734375;6.43999998374056;645;100 mA
25.1125649365969;0.2998046875;0.00165863037109375;6.44999998371532;646;100 mA
25.1225649365716;0.2998046875;0.0016552734375;6.45999998369007;647;100 mA
25.1325649365464;0.299835205078125;0.00165496826171875;6.46999998366482;648;100 mA
25.1425649365211;0.299896240234375;0.00165802001953125;6.47999998363957;649;100 mA
25.1525649364959;0.2999267578125;0.00167144775390625;6.48999998361433;650;100 mA
25.1625649364706;0.299835205078125;0.00166595458984375;6.49999998358908;651;100 mA
25.1725649364454;0.29986572265625;0.0016632080078125;6.50999998356383;652;100 mA
25.1825649364201;0.29986572265625;0.0016534423828125;6.51999998353858;653;100 mA
25.1925649363949;0.299835205078125;0.00163604736328125;6.52999998351333;654;100 mA
25.2025649363696;0.299835205078125;0.0016290283203125;6.53999998348809;655;100 mA
25.2125649363444;0.2998046875;0.001640625;6.54999998346284;656;100 mA
25.2225649363191;0.29986572265625;0.00165130615234375;6.55999998343759;657;100 mA
25.2325649362939;0.2998046875;0.001651611328125;6.56999998341234;658;100 mA
25.2425649362686;0.299835205078125;0.001650390625;6.5799999833871;659;100 mA
25.2525649362434;0.299835205078125;0.001639404296875;6.58999998336185;660;100 mA
25.2625649362182;0.2999267578125;0.0016436767578125;6.5999999833366;661;100 mA
25.2725649361929;0.299835205078125;0.0016424560546875;6.60999998331135;662;100 mA
25.2825649361677;0.2998046875;0.00165313720703125;6.61999998328611;663;100 mA
25.2925649361424;0.29986572265625;0.00166046142578125;6.62999998326086;664;100 mA
25.3025649361172;0.299896240234375;0.00165496826171875;6.63999998323561;665;100 mA
25.3125649360919;0.29986572265625;0.00164703369140625;6.64999998321036;666;100 mA
25.3225649360667;0.299835205078125;0.00163970947265625;6.65999998318512;667;100 mA
25.3325649360414;0.299896240234375;0.00165496826171875;6.66999998315987;668;100 mA
25.3425649360162;0.29986572265625;0.0016558837890625;6.67999998313462;669;100 mA
25.3525649359909;0.299835205078125;0.00164764404296875;6.68999998310937;670;100 mA
25.3625649359657;0.299896240234375;0.001649169921875;6.69999998308413;671;100 mA
25.3725649359404;0.29986572265625;0.0016375732421875;6.70999998305888;672;100 mA
25.3825649359152;0.299835205078125;0.00164337158203125;6.71999998303363;673;100 mA
25.3925649358899;0.299835205078125;0.00164459228515625;6.72999998300838;674;100 mA
25.4025649358647;0.299835205078125;0.00164947509765625;6.73999998298314;675;100 mA
25.4125649358394;0.299835205078125;0.00165374755859375;6.74999998295789;676;100 mA
25.4225649358142;0.29986572265625;0.00164825439453125;6.75999998293264;677;100 mA
25.4325649357889;0.2998046875;0.0016455078125;6.76999998290739;678;100 mA
25.4425649357637;0.299835205078125;0.0016473388671875;6.77999998288215;679;100 mA
25.4525649357385;0.299835205078125;0.0016583251953125;6.7899999828569;680;100 mA
25.4625649357132;0.29986572265625;0.001656494140625;6.79999998283165;681;100 mA
25.472564935688;0.299774169921875;0.0016595458984375;6.8099999828064;682;100 mA
25.4825649356627;0.2998046875;0.001654052734375;6.81999998278116;683;100 mA
25.4925649356375;0.299835205078125;0.00164154052734375;6.82999998275591;684;100 mA
25.5025649356122;0.29986572265625;0.0016314697265625;6.83999998273066;685;100 mA
25.512564935587;0.299835205078125;0.00164031982421875;6.84999998270541;686;100 mA
25.5225649355617;0.2998046875;0.0016473388671875;6.85999998268016;687;100 mA
25.5325649355365;0.299835205078125;0.00164642333984375;6.86999998265492;688;100 mA
25.5425649355112;0.299835205078125;0.00164825439453125;6.87999998262967;689;100 mA
25.552564935486;0.2999267578125;0.0016448974609375;6.88999998260442;690;100 mA
25.5625649354607;0.299835205078125;0.00165557861328125;6.89999998257917;691;100 mA
25.5725649354355;0.29986572265625;0.00165557861328125;6.90999998255393;692;100 mA
25.5825649354102;0.2998046875;0.001663818359375;6.91999998252868;693;100 mA
25.592564935385;0.299835205078125;0.0016717529296875;6.92999998250343;694;100 mA
25.6025649353597;0.299896240234375;0.001676025390625;6.93999998247818;695;100 mA
25.6125649353345;0.2998046875;0.001676025390625;6.94999998245294;696;100 mA
25.6225649353092;0.29986572265625;0.001671142578125;6.95999998242769;697;100 mA
25.632564935284;0.299835205078125;0.0016839599609375;6.96999998240244;698;100 mA
25.6425649352587;0.299835205078125;0.00167816162109375;6.97999998237719;699;100 mA
25.6525649352335;0.29986572265625;0.00166412353515625;6.98999998235195;700;100 mA
