Time (s);WE(1).Potential (V);WE(1).Current (A);Corrected time (s);Index;Current range
33.6740249149813;-0.699798583984375;-0.32989501953125;0;1;100 mA
33.684024914956;-0.699462890625;-0.243743896484375;0.00999999997475243;2;100 mA
33.6940249149308;-0.6995849609375;-0.20184326171875;0.0199999999495049;3;100 mA
33.7040249149055;-0.69952392578125;-0.176361083984375;0.0299999999242573;4;100 mA
33.7140249148803;-0.6995849609375;-0.158843994140625;0.0399999998990097;5;100 mA
33.724024914855;-0.69964599609375;-0.1458740234375;0.0499999998737621;6;100 mA
33.7340249148298;-0.6995849609375;-0.137176513671875;0.0599999998485146;7;100 mA
33.7440249148045;-0.69964599609375;-0.13031005859375;0.069999999823267;8;100 mA
33.7540249147793;-0.699615478515625;-0.12451171875;0.0799999997980194;9;100 mA
33.764024914754;-0.69952392578125;-0.119720458984375;0.0899999997727718;10;100 mA
33.7740249147288;-0.699676513671875;-0.1158447265625;0.0999999997475243;11;100 mA
33.7840249147035;-0.69970703125;-0.112060546875;0.109999999722277;12;100 mA
33.7940249146783;-0.699615478515625;-0.109710693359375;0.119999999697029;13;100 mA
33.804024914653;-0.699615478515625;-0.10809326171875;0.129999999671782;14;100 mA
33.8140249146278;-0.699615478515625;-0.10589599609375;0.139999999646534;15;100 mA
33.8240249146025;-0.69970703125;-0.104248046875;0.149999999621286;16;100 mA
33.8340249145773;-0.699615478515625;-0.102752685546875;0.159999999596039;17;100 mA
33.8440249145521;-0.69964599609375;-0.101776123046875;0.169999999570791;18;100 mA
33.8540249145268;-0.69964599609375;-0.100372314453125;0.179999999545544;19;100 mA
33.8640249145016;-0.699676513671875;-0.0997314453125;0.189999999520296;20;100 mA
33.8740249144763;-0.69970703125;-0.098175048828125;0.199999999495049;21;100 mA
33.8840249144511;-0.69970703125;-0.09747314453125;0.209999999469801;22;100 mA
33.8940249144258;-0.69970703125;-0.0963134765625;0.219999999444553;23;100 mA
33.9040249144006;-0.69964599609375;-0.095367431640625;0.229999999419306;24;100 mA
33.9140249143753;-0.69964599609375;-0.0950927734375;0.239999999394058;25;100 mA
33.9240249143501;-0.69964599609375;-0.094818115234375;0.249999999368811;26;100 mA
33.9340249143248;-0.699676513671875;-0.0938720703125;0.259999999343563;27;100 mA
33.9440249142996;-0.69964599609375;-0.0933837890625;0.269999999318316;28;100 mA
33.9540249142743;-0.69964599609375;-0.0938720703125;0.279999999293068;29;100 mA
33.9640249142491;-0.699676513671875;-0.09429931640625;0.28999999926782;30;100 mA
33.9740249142238;-0.69976806640625;-0.094085693359375;0.299999999242573;31;100 mA
33.9840249141986;-0.699676513671875;-0.094390869140625;0.309999999217325;32;100 mA
33.9940249141733;-0.69970703125;-0.093414306640625;0.319999999192078;33;100 mA
34.0040249141481;-0.699676513671875;-0.09344482421875;0.32999999916683;34;100 mA
34.0140249141228;-0.699676513671875;-0.092864990234375;0.339999999141583;35;100 mA
34.0240249140976;-0.699676513671875;-0.09295654296875;0.349999999116335;36;100 mA
34.0340249140723;-0.69964599609375;-0.09307861328125;0.359999999091087;37;100 mA
34.0440249140471;-0.699737548828125;-0.093017578125;0.36999999906584;38;100 mA
34.0540249140219;-0.69964599609375;-0.09234619140625;0.379999999040592;39;100 mA
34.0640249139966;-0.69964599609375;-0.09210205078125;0.389999999015345;40;100 mA
34.0740249139714;-0.699615478515625;-0.092376708984375;0.399999998990097;41;100 mA
34.0840249139461;-0.69970703125;-0.092315673828125;0.40999999896485;42;100 mA
34.0940249139209;-0.699676513671875;-0.0927734375;0.419999998939602;43;100 mA
34.1040249138956;-0.69964599609375;-0.09344482421875;0.429999998914354;44;100 mA
34.1140249138704;-0.69970703125;-0.09283447265625;0.439999998889107;45;100 mA
34.1240249138451;-0.699676513671875;-0.09234619140625;0.449999998863859;46;100 mA
34.1340249138199;-0.699676513671875;-0.092041015625;0.459999998838612;47;100 mA
34.1440249137946;-0.699676513671875;-0.0921630859375;0.469999998813364;48;100 mA
34.1540249137694;-0.69964599609375;-0.09130859375;0.479999998788116;49;100 mA
34.1640249137441;-0.69964599609375;-0.0914306640625;0.489999998762869;50;100 mA
34.1740249137189;-0.699676513671875;-0.0906982421875;0.499999998737621;51;100 mA
34.1840249136936;-0.69976806640625;-0.09112548828125;0.509999998712374;52;100 mA
34.1940249136684;-0.69970703125;-0.09088134765625;0.519999998687126;53;100 mA
34.2040249136431;-0.699615478515625;-0.091094970703125;0.529999998661879;54;100 mA
34.2140249136179;-0.69964599609375;-0.0911865234375;0.539999998636631;55;100 mA
34.2240249135926;-0.699676513671875;-0.091522216796875;0.549999998611383;56;100 mA
34.2340249135674;-0.699798583984375;-0.09100341796875;0.559999998586136;57;100 mA
34.2440249135421;-0.699737548828125;-0.09088134765625;0.569999998560888;58;100 mA
34.2540249135169;-0.69976806640625;-0.09130859375;0.579999998535641;59;100 mA
34.2640249134917;-0.69970703125;-0.09173583984375;0.589999998510393;60;100 mA
34.2740249134664;-0.69970703125;-0.091094970703125;0.599999998485146;61;100 mA
34.2840249134412;-0.699615478515625;-0.0914306640625;0.609999998459898;62;100 mA
34.2940249134159;-0.699676513671875;-0.090545654296875;0.61999999843465;63;100 mA
34.3040249133907;-0.69964599609375;-0.090850830078125;0.629999998409403;64;100 mA
34.3140249133654;-0.699676513671875;-0.09033203125;0.639999998384155;65;100 mA
34.3240249133402;-0.69964599609375;-0.09063720703125;0.649999998358908;66;100 mA
34.3340249133149;-0.69976806640625;-0.09051513671875;0.65999999833366;67;100 mA
34.3440249132897;-0.69964599609375;-0.090545654296875;0.669999998308413;68;100 mA
34.3540249132644;-0.699676513671875;-0.09002685546875;0.679999998283165;69;100 mA
34.3640249132392;-0.69970703125;-0.09014892578125;0.689999998257917;70;100 mA
34.3740249132139;-0.699615478515625;-0.0904541015625;0.69999999823267;71;100 mA
34.3840249131887;-0.699737548828125;-0.0906982421875;0.709999998207422;72;100 mA
34.3940249131634;-0.699676513671875;-0.09088134765625;0.719999998182175;73;100 mA
34.4040249131382;-0.69970703125;-0.09149169921875;0.729999998156927;74;100 mA
34.4140249131129;-0.69964599609375;-0.09088134765625;0.73999999813168;75;100 mA
34.4240249130877;-0.69964599609375;-0.090545654296875;0.749999998106432;76;100 mA
34.4340249130624;-0.699676513671875;-0.09039306640625;0.759999998081184;77;100 mA
34.4440249130372;-0.6995849609375;-0.090850830078125;0.769999998055937;78;100 mA
34.4540249130119;-0.699676513671875;-0.090057373046875;0.779999998030689;79;100 mA
34.4640249129867;-0.69964599609375;-0.090240478515625;0.789999998005442;80;100 mA
34.4740249129615;-0.699676513671875;-0.08935546875;0.799999997980194;81;100 mA
34.4840249129362;-0.69970703125;-0.089447021484375;0.809999997954947;82;100 mA
34.494024912911;-0.69964599609375;-0.088836669921875;0.819999997929699;83;100 mA
34.5040249128857;-0.699676513671875;-0.08905029296875;0.829999997904451;84;100 mA
34.5140249128605;-0.69964599609375;-0.08917236328125;0.839999997879204;85;100 mA
34.5240249128352;-0.699676513671875;-0.089813232421875;0.849999997853956;86;100 mA
34.53402491281;-0.69970703125;-0.089569091796875;0.859999997828709;87;100 mA
34.5440249127847;-0.69964599609375;-0.089447021484375;0.869999997803461;88;100 mA
34.5540249127595;-0.69964599609375;-0.08984375;0.879999997778214;89;100 mA
34.5640249127342;-0.699676513671875;-0.0902099609375;0.889999997752966;90;100 mA
34.574024912709;-0.699676513671875;-0.08953857421875;0.899999997727718;91;100 mA
34.5840249126837;-0.69964599609375;-0.089874267578125;0.909999997702471;92;100 mA
34.5940249126585;-0.699676513671875;-0.089141845703125;0.919999997677223;93;100 mA
34.6040249126332;-0.69964599609375;-0.089385986328125;0.929999997651976;94;100 mA
34.614024912608;-0.699676513671875;-0.088714599609375;0.939999997626728;95;100 mA
34.6240249125827;-0.699676513671875;-0.089202880859375;0.949999997601481;96;100 mA
34.6340249125575;-0.699615478515625;-0.089141845703125;0.959999997576233;97;100 mA
34.6440249125322;-0.6995849609375;-0.089691162109375;0.969999997550985;98;100 mA
34.654024912507;-0.699676513671875;-0.08929443359375;0.979999997525738;99;100 mA
34.6640249124818;-0.69964599609375;-0.08953857421875;0.98999999750049;100;100 mA
34.6740249124565;-0.699737548828125;-0.089508056640625;0.999999997475243;101;100 mA
34.6840249124313;-0.69964599609375;-0.0892333984375;1.00999999745;102;100 mA
34.694024912406;-0.699676513671875;-0.0889892578125;1.01999999742475;103;100 mA
34.7040249123808;-0.69970703125;-0.089019775390625;1.0299999973995;104;100 mA
34.7140249123555;-0.69970703125;-0.08831787109375;1.03999999737425;105;100 mA
34.7240249123303;-0.699676513671875;-0.088043212890625;1.049999997349;106;100 mA
34.734024912305;-0.69964599609375;-0.087982177734375;1.05999999732376;107;100 mA
34.7440249122798;-0.69970703125;-0.088348388671875;1.06999999729851;108;100 mA
34.7540249122545;-0.69970703125;-0.087432861328125;1.07999999727326;109;100 mA
34.7640249122293;-0.699676513671875;-0.087615966796875;1.08999999724801;110;100 mA
34.774024912204;-0.699737548828125;-0.08685302734375;1.09999999722277;111;100 mA
34.7840249121788;-0.69970703125;-0.08721923828125;1.10999999719752;112;100 mA
34.7940249121535;-0.699737548828125;-0.08685302734375;1.11999999717227;113;100 mA
34.8040249121283;-0.699615478515625;-0.08734130859375;1.12999999714702;114;100 mA
34.814024912103;-0.69964599609375;-0.0877685546875;1.13999999712178;115;100 mA
34.8240249120778;-0.699615478515625;-0.088623046875;1.14999999709653;116;100 mA
34.8340249120525;-0.699737548828125;-0.088409423828125;1.15999999707128;117;100 mA
34.8440249120273;-0.699676513671875;-0.088592529296875;1.16999999704603;118;100 mA
34.854024912002;-0.699615478515625;-0.0889892578125;1.17999999702079;119;100 mA
34.8640249119768;-0.699676513671875;-0.08953857421875;1.18999999699554;120;100 mA
34.8740249119516;-0.69964599609375;-0.0888671875;1.19999999697029;121;100 mA
34.8840249119263;-0.699676513671875;-0.0892333984375;1.20999999694504;122;100 mA
34.8940249119011;-0.699676513671875;-0.08837890625;1.2199999969198;123;100 mA
34.9040249118758;-0.69970703125;-0.08843994140625;1.22999999689455;124;100 mA
34.9140249118506;-0.699676513671875;-0.08770751953125;1.2399999968693;125;100 mA
34.9240249118253;-0.69970703125;-0.088165283203125;1.24999999684405;126;100 mA
34.9340249118001;-0.699676513671875;-0.087677001953125;1.25999999681881;127;100 mA
34.9440249117748;-0.699676513671875;-0.087921142578125;1.26999999679356;128;100 mA
34.9540249117496;-0.69970703125;-0.087493896484375;1.27999999676831;129;100 mA
34.9640249117243;-0.699615478515625;-0.08795166015625;1.28999999674306;130;100 mA
34.9740249116991;-0.69970703125;-0.088165283203125;1.29999999671782;131;100 mA
34.9840249116738;-0.699676513671875;-0.088134765625;1.30999999669257;132;100 mA
34.9940249116486;-0.699737548828125;-0.087921142578125;1.31999999666732;133;100 mA
35.0040249116233;-0.69964599609375;-0.088104248046875;1.32999999664207;134;100 mA
35.0140249115981;-0.69970703125;-0.087310791015625;1.33999999661683;135;100 mA
35.0240249115728;-0.699676513671875;-0.0870361328125;1.34999999659158;136;100 mA
35.0340249115476;-0.69970703125;-0.087005615234375;1.35999999656633;137;100 mA
35.0440249115223;-0.69964599609375;-0.08758544921875;1.36999999654108;138;100 mA
35.0540249114971;-0.69964599609375;-0.08685302734375;1.37999999651583;139;100 mA
35.0640249114718;-0.69970703125;-0.087310791015625;1.38999999649059;140;100 mA
35.0740249114466;-0.69970703125;-0.086700439453125;1.39999999646534;141;100 mA
35.0840249114214;-0.699615478515625;-0.087188720703125;1.40999999644009;142;100 mA
35.0940249113961;-0.699676513671875;-0.086944580078125;1.41999999641484;143;100 mA
35.1040249113709;-0.699676513671875;-0.08758544921875;1.4299999963896;144;100 mA
35.1140249113456;-0.699676513671875;-0.08782958984375;1.43999999636435;145;100 mA
35.1240249113204;-0.699676513671875;-0.088623046875;1.4499999963391;146;100 mA
35.1340249112951;-0.699676513671875;-0.088409423828125;1.45999999631385;147;100 mA
35.1440249112699;-0.69964599609375;-0.088470458984375;1.46999999628861;148;100 mA
35.1540249112446;-0.699676513671875;-0.0887451171875;1.47999999626336;149;100 mA
35.1640249112194;-0.69970703125;-0.08929443359375;1.48999999623811;150;100 mA
35.1740249111941;-0.69970703125;-0.088775634765625;1.49999999621286;151;100 mA
35.1840249111689;-0.699676513671875;-0.08941650390625;1.50999999618762;152;100 mA
35.1940249111436;-0.699737548828125;-0.088653564453125;1.51999999616237;153;100 mA
35.2040249111184;-0.699676513671875;-0.088775634765625;1.52999999613712;154;100 mA
35.2140249110931;-0.69970703125;-0.087890625;1.53999999611187;155;100 mA
35.2240249110679;-0.69970703125;-0.088470458984375;1.54999999608663;156;100 mA
35.2340249110426;-0.699676513671875;-0.087921142578125;1.55999999606138;157;100 mA
35.2440249110174;-0.69970703125;-0.08837890625;1.56999999603613;158;100 mA
35.2540249109921;-0.699676513671875;-0.087890625;1.57999999601088;159;100 mA
35.2640249109669;-0.699615478515625;-0.0882568359375;1.58999999598564;160;100 mA
35.2740249109416;-0.699676513671875;-0.088287353515625;1.59999999596039;161;100 mA
35.2840249109164;-0.699676513671875;-0.0885009765625;1.60999999593514;162;100 mA
35.2940249108912;-0.699676513671875;-0.0885009765625;1.61999999590989;163;100 mA
35.3040249108659;-0.69970703125;-0.089111328125;1.62999999588465;164;100 mA
35.3140249108407;-0.69970703125;-0.088470458984375;1.6399999958594;165;100 mA
35.3240249108154;-0.699676513671875;-0.088226318359375;1.64999999583415;166;100 mA
35.3340249107902;-0.699737548828125;-0.088165283203125;1.6599999958089;167;100 mA
35.3440249107649;-0.69970703125;-0.088897705078125;1.66999999578366;168;100 mA
35.3540249107397;-0.699676513671875;-0.0882568359375;1.67999999575841;169;100 mA
35.3640249107144;-0.699615478515625;-0.0888671875;1.68999999573316;170;100 mA
35.3740249106892;-0.699737548828125;-0.088226318359375;1.69999999570791;171;100 mA
35.3840249106639;-0.69964599609375;-0.088592529296875;1.70999999568267;172;100 mA
35.3940249106387;-0.69964599609375;-0.0880126953125;1.71999999565742;173;100 mA
35.4040249106134;-0.699676513671875;-0.08856201171875;1.72999999563217;174;100 mA
35.4140249105882;-0.699676513671875;-0.088531494140625;1.73999999560692;175;100 mA
35.4240249105629;-0.699615478515625;-0.089080810546875;1.74999999558167;176;100 mA
35.4340249105377;-0.69964599609375;-0.088592529296875;1.75999999555643;177;100 mA
35.4440249105124;-0.69964599609375;-0.088653564453125;1.76999999553118;178;100 mA
35.4540249104872;-0.69964599609375;-0.088653564453125;1.77999999550593;179;100 mA
35.4640249104619;-0.699676513671875;-0.088897705078125;1.78999999548068;180;100 mA
35.4740249104367;-0.699676513671875;-0.08807373046875;1.79999999545544;181;100 mA
35.4840249104114;-0.69970703125;-0.088592529296875;1.80999999543019;182;100 mA
35.4940249103862;-0.699676513671875;-0.08770751953125;1.81999999540494;183;100 mA
35.504024910361;-0.699676513671875;-0.087738037109375;1.82999999537969;184;100 mA
35.5140249103357;-0.69970703125;-0.0867919921875;1.83999999535445;185;100 mA
35.5240249103105;-0.699676513671875;-0.08740234375;1.8499999953292;186;100 mA
35.5340249102852;-0.69970703125;-0.0870361328125;1.85999999530395;187;100 mA
35.54402491026;-0.699676513671875;-0.08758544921875;1.8699999952787;188;100 mA
35.5540249102347;-0.69970703125;-0.087158203125;1.87999999525346;189;100 mA
35.5640249102095;-0.699676513671875;-0.08746337890625;1.88999999522821;190;100 mA
35.5740249101842;-0.699676513671875;-0.0872802734375;1.89999999520296;191;100 mA
35.584024910159;-0.699737548828125;-0.087493896484375;1.90999999517771;192;100 mA
35.5940249101337;-0.699676513671875;-0.08734130859375;1.91999999515247;193;100 mA
35.6040249101085;-0.69976806640625;-0.087890625;1.92999999512722;194;100 mA
35.6140249100832;-0.69964599609375;-0.087371826171875;1.93999999510197;195;100 mA
35.624024910058;-0.69964599609375;-0.087371826171875;1.94999999507672;196;100 mA
35.6340249100327;-0.69970703125;-0.0875244140625;1.95999999505148;197;100 mA
35.6440249100075;-0.699737548828125;-0.088653564453125;1.96999999502623;198;100 mA
35.6540249099822;-0.69970703125;-0.088134765625;1.97999999500098;199;100 mA
35.664024909957;-0.699676513671875;-0.088897705078125;1.98999999497573;200;100 mA
35.6740249099317;-0.69970703125;-0.088470458984375;1.99999999495049;201;100 mA
35.6840249099065;-0.69970703125;-0.08892822265625;2.00999999492524;202;100 mA
35.6940249098813;-0.69970703125;-0.0880126953125;2.01999999489999;203;100 mA
35.704024909856;-0.699676513671875;-0.0882568359375;2.02999999487474;204;100 mA
35.7140249098308;-0.69970703125;-0.087890625;2.0399999948495;205;100 mA
35.7240249098055;-0.699676513671875;-0.088226318359375;2.04999999482425;206;100 mA
35.7340249097803;-0.69976806640625;-0.0877685546875;2.059999994799;207;100 mA
35.744024909755;-0.699737548828125;-0.08782958984375;2.06999999477375;208;100 mA
35.7540249097298;-0.69964599609375;-0.08795166015625;2.0799999947485;209;100 mA
35.7640249097045;-0.699676513671875;-0.088226318359375;2.08999999472326;210;100 mA
35.7740249096793;-0.69964599609375;-0.08746337890625;2.09999999469801;211;100 mA
35.784024909654;-0.69964599609375;-0.087860107421875;2.10999999467276;212;100 mA
35.7940249096288;-0.69976806640625;-0.087188720703125;2.11999999464751;213;100 mA
35.8040249096035;-0.699676513671875;-0.08740234375;2.12999999462227;214;100 mA
35.8140249095783;-0.69964599609375;-0.086883544921875;2.13999999459702;215;100 mA
35.824024909553;-0.699676513671875;-0.0875244140625;2.14999999457177;216;100 mA
35.8340249095278;-0.69976806640625;-0.0869140625;2.15999999454652;217;100 mA
35.8440249095025;-0.699676513671875;-0.08734130859375;2.16999999452128;218;100 mA
35.8540249094773;-0.69970703125;-0.086822509765625;2.17999999449603;219;100 mA
35.864024909452;-0.69970703125;-0.08709716796875;2.18999999447078;220;100 mA
35.8740249094268;-0.69970703125;-0.086761474609375;2.19999999444553;221;100 mA
35.8840249094015;-0.69964599609375;-0.0867919921875;2.20999999442029;222;100 mA
35.8940249093763;-0.69976806640625;-0.08660888671875;2.21999999439504;223;100 mA
35.9040249093511;-0.69964599609375;-0.087127685546875;2.22999999436979;224;100 mA
35.9140249093258;-0.69970703125;-0.0867919921875;2.23999999434454;225;100 mA
35.9240249093006;-0.69970703125;-0.086822509765625;2.2499999943193;226;100 mA
35.9340249092753;-0.699676513671875;-0.0870361328125;2.25999999429405;227;100 mA
35.9440249092501;-0.699737548828125;-0.08782958984375;2.2699999942688;228;100 mA
35.9540249092248;-0.69964599609375;-0.08697509765625;2.27999999424355;229;100 mA
35.9640249091996;-0.699676513671875;-0.087310791015625;2.28999999421831;230;100 mA
35.9740249091743;-0.699737548828125;-0.0865478515625;2.29999999419306;231;100 mA
35.9840249091491;-0.69970703125;-0.086883544921875;2.30999999416781;232;100 mA
35.9940249091238;-0.69970703125;-0.08624267578125;2.31999999414256;233;100 mA
36.0040249090986;-0.69964599609375;-0.086822509765625;2.32999999411732;234;100 mA
36.0140249090733;-0.69964599609375;-0.08673095703125;2.33999999409207;235;100 mA
36.0240249090481;-0.69964599609375;-0.087066650390625;2.34999999406682;236;100 mA
36.0340249090228;-0.699737548828125;-0.086639404296875;2.35999999404157;237;100 mA
36.0440249089976;-0.699676513671875;-0.086700439453125;2.36999999401633;238;100 mA
36.0540249089723;-0.699737548828125;-0.08685302734375;2.37999999399108;239;100 mA
36.0640249089471;-0.699676513671875;-0.0870361328125;2.38999999396583;240;100 mA
36.0740249089218;-0.69970703125;-0.086334228515625;2.39999999394058;241;100 mA
36.0840249088966;-0.699676513671875;-0.086578369140625;2.40999999391533;242;100 mA
36.0940249088713;-0.69970703125;-0.085845947265625;2.41999999389009;243;100 mA
36.1040249088461;-0.699676513671875;-0.085906982421875;2.42999999386484;244;100 mA
36.1140249088209;-0.699676513671875;-0.08551025390625;2.43999999383959;245;100 mA
36.1240249087956;-0.699615478515625;-0.08636474609375;2.44999999381434;246;100 mA
36.1340249087704;-0.69970703125;-0.08587646484375;2.4599999937891;247;100 mA
36.1440249087451;-0.699615478515625;-0.08636474609375;2.46999999376385;248;100 mA
36.1540249087199;-0.699676513671875;-0.085845947265625;2.4799999937386;249;100 mA
36.1640249086946;-0.69964599609375;-0.086273193359375;2.48999999371335;250;100 mA
36.1740249086694;-0.699676513671875;-0.086090087890625;2.49999999368811;251;100 mA
36.1840249086441;-0.69970703125;-0.086456298828125;2.50999999366286;252;100 mA
36.1940249086189;-0.699676513671875;-0.08642578125;2.51999999363761;253;100 mA
36.2040249085936;-0.69964599609375;-0.0870361328125;2.52999999361236;254;100 mA
36.2140249085684;-0.69964599609375;-0.086578369140625;2.53999999358712;255;100 mA
36.2240249085431;-0.699737548828125;-0.086700439453125;2.54999999356187;256;100 mA
36.2340249085179;-0.69964599609375;-0.087066650390625;2.55999999353662;257;100 mA
36.2440249084926;-0.69970703125;-0.088134765625;2.56999999351137;258;100 mA
36.2540249084674;-0.699737548828125;-0.087493896484375;2.57999999348613;259;100 mA
36.2640249084421;-0.69970703125;-0.087890625;2.58999999346088;260;100 mA
36.2740249084169;-0.69970703125;-0.087188720703125;2.59999999343563;261;100 mA
36.2840249083916;-0.69964599609375;-0.087432861328125;2.60999999341038;262;100 mA
36.2940249083664;-0.699676513671875;-0.08673095703125;2.61999999338514;263;100 mA
36.3040249083411;-0.69976806640625;-0.087127685546875;2.62999999335989;264;100 mA
36.3140249083159;-0.699676513671875;-0.086883544921875;2.63999999333464;265;100 mA
36.3240249082907;-0.699676513671875;-0.087158203125;2.64999999330939;266;100 mA
36.3340249082654;-0.69970703125;-0.08660888671875;2.65999999328415;267;100 mA
36.3440249082402;-0.69970703125;-0.086517333984375;2.6699999932589;268;100 mA
36.3540249082149;-0.699615478515625;-0.08648681640625;2.67999999323365;269;100 mA
36.3640249081897;-0.69964599609375;-0.086639404296875;2.6899999932084;270;100 mA
36.3740249081644;-0.699737548828125;-0.0860595703125;2.69999999318316;271;100 mA
36.3840249081392;-0.699737548828125;-0.08636474609375;2.70999999315791;272;100 mA
36.3940249081139;-0.69970703125;-0.0855712890625;2.71999999313266;273;100 mA
36.4040249080887;-0.699676513671875;-0.085479736328125;2.72999999310741;274;100 mA
36.4140249080634;-0.699676513671875;-0.08502197265625;2.73999999308217;275;100 mA
36.4240249080382;-0.699737548828125;-0.085662841796875;2.74999999305692;276;100 mA
36.4340249080129;-0.699737548828125;-0.0849609375;2.75999999303167;277;100 mA
36.4440249079877;-0.699676513671875;-0.085205078125;2.76999999300642;278;100 mA
36.4540249079624;-0.699737548828125;-0.084625244140625;2.77999999298117;279;100 mA
36.4640249079372;-0.699676513671875;-0.08489990234375;2.78999999295593;280;100 mA
36.4740249079119;-0.699676513671875;-0.084625244140625;2.79999999293068;281;100 mA
36.4840249078867;-0.699676513671875;-0.0849609375;2.80999999290543;282;100 mA
36.4940249078614;-0.699737548828125;-0.084991455078125;2.81999999288018;283;100 mA
36.5040249078362;-0.699615478515625;-0.08563232421875;2.82999999285494;284;100 mA
36.5140249078109;-0.699676513671875;-0.085052490234375;2.83999999282969;285;100 mA
36.5240249077857;-0.699676513671875;-0.084930419921875;2.84999999280444;286;100 mA
36.5340249077605;-0.69970703125;-0.084991455078125;2.85999999277919;287;100 mA
36.5440249077352;-0.699676513671875;-0.08587646484375;2.86999999275395;288;100 mA
36.55402490771;-0.69976806640625;-0.08538818359375;2.8799999927287;289;100 mA
36.5640249076847;-0.69970703125;-0.085845947265625;2.88999999270345;290;100 mA
36.5740249076595;-0.699737548828125;-0.085174560546875;2.8999999926782;291;100 mA
36.5840249076342;-0.699676513671875;-0.085296630859375;2.90999999265296;292;100 mA
36.594024907609;-0.699676513671875;-0.084564208984375;2.91999999262771;293;100 mA
36.6040249075837;-0.699615478515625;-0.085113525390625;2.92999999260246;294;100 mA
36.6140249075585;-0.69970703125;-0.084930419921875;2.93999999257721;295;100 mA
36.6240249075332;-0.699737548828125;-0.08526611328125;2.94999999255197;296;100 mA
36.634024907508;-0.69970703125;-0.084808349609375;2.95999999252672;297;100 mA
36.6440249074827;-0.69976806640625;-0.08477783203125;2.96999999250147;298;100 mA
36.6540249074575;-0.69970703125;-0.08489990234375;2.97999999247622;299;100 mA
36.6640249074322;-0.699676513671875;-0.08514404296875;2.98999999245098;300;100 mA
36.674024907407;-0.699737548828125;-0.0845947265625;2.99999999242573;301;100 mA
36.6840249073817;-0.699676513671875;-0.0848388671875;3.00999999240048;302;100 mA
36.6940249073565;-0.69970703125;-0.084075927734375;3.01999999237523;303;100 mA
36.7040249073312;-0.699676513671875;-0.084075927734375;3.02999999234999;304;100 mA
36.714024907306;-0.69964599609375;-0.08380126953125;3.03999999232474;305;100 mA
36.7240249072808;-0.699676513671875;-0.084686279296875;3.04999999229949;306;100 mA
36.7340249072555;-0.699676513671875;-0.084228515625;3.05999999227424;307;100 mA
36.7440249072303;-0.699676513671875;-0.084747314453125;3.069999992249;308;100 mA
36.754024907205;-0.699676513671875;-0.084259033203125;3.07999999222375;309;100 mA
36.7640249071798;-0.69964599609375;-0.084747314453125;3.0899999921985;310;100 mA
36.7740249071545;-0.699737548828125;-0.084716796875;3.09999999217325;311;100 mA
36.7840249071293;-0.699676513671875;-0.0853271484375;3.109999992148;312;100 mA
36.794024907104;-0.699676513671875;-0.085174560546875;3.11999999212276;313;100 mA
36.8040249070788;-0.699676513671875;-0.085662841796875;3.12999999209751;314;100 mA
36.8140249070535;-0.69970703125;-0.08489990234375;3.13999999207226;315;100 mA
36.8240249070283;-0.699737548828125;-0.08477783203125;3.14999999204701;316;100 mA
36.834024907003;-0.699676513671875;-0.08477783203125;3.15999999202177;317;100 mA
36.8440249069778;-0.699676513671875;-0.085357666015625;3.16999999199652;318;100 mA
36.8540249069525;-0.699676513671875;-0.0845947265625;3.17999999197127;319;100 mA
36.8640249069273;-0.699615478515625;-0.0848388671875;3.18999999194602;320;100 mA
36.874024906902;-0.699676513671875;-0.08404541015625;3.19999999192078;321;100 mA
36.8840249068768;-0.699676513671875;-0.08428955078125;3.20999999189553;322;100 mA
36.8940249068515;-0.69970703125;-0.083648681640625;3.21999999187028;323;100 mA
36.9040249068263;-0.699676513671875;-0.084197998046875;3.22999999184503;324;100 mA
36.914024906801;-0.69964599609375;-0.08404541015625;3.23999999181979;325;100 mA
36.9240249067758;-0.69970703125;-0.0843505859375;3.24999999179454;326;100 mA
36.9340249067506;-0.699676513671875;-0.084014892578125;3.25999999176929;327;100 mA
36.9440249067253;-0.69970703125;-0.084320068359375;3.26999999174404;328;100 mA
36.9540249067001;-0.69970703125;-0.084686279296875;3.2799999917188;329;100 mA
36.9640249066748;-0.69964599609375;-0.085174560546875;3.28999999169355;330;100 mA
36.9740249066496;-0.69976806640625;-0.084808349609375;3.2999999916683;331;100 mA
36.9840249066243;-0.699737548828125;-0.085113525390625;3.30999999164305;332;100 mA
36.9940249065991;-0.699737548828125;-0.084228515625;3.31999999161781;333;100 mA
37.0040249065738;-0.699676513671875;-0.0841064453125;3.32999999159256;334;100 mA
37.0140249065486;-0.699676513671875;-0.08367919921875;3.33999999156731;335;100 mA
37.0240249065233;-0.69970703125;-0.084442138671875;3.34999999154206;336;100 mA
37.0340249064981;-0.69970703125;-0.0838623046875;3.35999999151682;337;100 mA
37.0440249064728;-0.699676513671875;-0.084197998046875;3.36999999149157;338;100 mA
37.0540249064476;-0.699676513671875;-0.08349609375;3.37999999146632;339;100 mA
37.0640249064223;-0.69976806640625;-0.08367919921875;3.38999999144107;340;100 mA
37.0740249063971;-0.699676513671875;-0.083221435546875;3.39999999141583;341;100 mA
37.0840249063718;-0.69964599609375;-0.08343505859375;3.40999999139058;342;100 mA
37.0940249063466;-0.699676513671875;-0.0831298828125;3.41999999136533;343;100 mA
37.1040249063213;-0.699676513671875;-0.083526611328125;3.42999999134008;344;100 mA
37.1140249062961;-0.699676513671875;-0.0828857421875;3.43999999131483;345;100 mA
37.1240249062708;-0.699676513671875;-0.082733154296875;3.44999999128959;346;100 mA
37.1340249062456;-0.69970703125;-0.082794189453125;3.45999999126434;347;100 mA
37.1440249062204;-0.699676513671875;-0.0833740234375;3.46999999123909;348;100 mA
37.1540249061951;-0.69976806640625;-0.0826416015625;3.47999999121384;349;100 mA
37.1640249061699;-0.69970703125;-0.08294677734375;3.4899999911886;350;100 mA
37.1740249061446;-0.69970703125;-0.082366943359375;3.49999999116335;351;100 mA
37.1840249061194;-0.699737548828125;-0.0828857421875;3.5099999911381;352;100 mA
37.1940249060941;-0.699676513671875;-0.08258056640625;3.51999999111285;353;100 mA
37.2040249060689;-0.699676513671875;-0.08343505859375;3.52999999108761;354;100 mA
37.2140249060436;-0.69970703125;-0.083526611328125;3.53999999106236;355;100 mA
37.2240249060184;-0.69970703125;-0.08404541015625;3.54999999103711;356;100 mA
37.2340249059931;-0.699737548828125;-0.083770751953125;3.55999999101186;357;100 mA
37.2440249059679;-0.69970703125;-0.083892822265625;3.56999999098662;358;100 mA
37.2540249059426;-0.69970703125;-0.083953857421875;3.57999999096137;359;100 mA
37.2640249059174;-0.699676513671875;-0.084228515625;3.58999999093612;360;100 mA
37.2740249058921;-0.69970703125;-0.08380126953125;3.59999999091087;361;100 mA
37.2840249058669;-0.699676513671875;-0.084197998046875;3.60999999088563;362;100 mA
37.2940249058416;-0.699676513671875;-0.08349609375;3.61999999086038;363;100 mA
37.3040249058164;-0.69964599609375;-0.0833740234375;3.62999999083513;364;100 mA
37.3140249057911;-0.699676513671875;-0.083099365234375;3.63999999080988;365;100 mA
37.3240249057659;-0.699737548828125;-0.083831787109375;3.64999999078464;366;100 mA
37.3340249057406;-0.699676513671875;-0.083221435546875;3.65999999075939;367;100 mA
37.3440249057154;-0.699676513671875;-0.08355712890625;3.66999999073414;368;100 mA
37.3540249056902;-0.699676513671875;-0.082977294921875;3.67999999070889;369;100 mA
37.3640249056649;-0.69970703125;-0.083343505859375;3.68999999068365;370;100 mA
37.3740249056397;-0.699737548828125;-0.083221435546875;3.6999999906584;371;100 mA
37.3840249056144;-0.699676513671875;-0.08367919921875;3.70999999063315;372;100 mA
37.3940249055892;-0.69970703125;-0.08355712890625;3.7199999906079;373;100 mA
37.4040249055639;-0.69970703125;-0.0841064453125;3.72999999058266;374;100 mA
37.4140249055387;-0.69970703125;-0.083526611328125;3.73999999055741;375;100 mA
37.4240249055134;-0.69964599609375;-0.083465576171875;3.74999999053216;376;100 mA
37.4340249054882;-0.699676513671875;-0.0836181640625;3.75999999050691;377;100 mA
37.4440249054629;-0.699676513671875;-0.084320068359375;3.76999999048167;378;100 mA
37.4540249054377;-0.699737548828125;-0.083648681640625;3.77999999045642;379;100 mA
37.4640249054124;-0.699615478515625;-0.084075927734375;3.78999999043117;380;100 mA
37.4740249053872;-0.69964599609375;-0.08343505859375;3.79999999040592;381;100 mA
37.4840249053619;-0.69964599609375;-0.083587646484375;3.80999999038067;382;100 mA
37.4940249053367;-0.69970703125;-0.082916259765625;3.81999999035543;383;100 mA
37.5040249053114;-0.699676513671875;-0.083251953125;3.82999999033018;384;100 mA
37.5140249052862;-0.69970703125;-0.0830078125;3.83999999030493;385;100 mA
37.5240249052609;-0.699676513671875;-0.083251953125;3.84999999027968;386;100 mA
37.5340249052357;-0.69976806640625;-0.082916259765625;3.85999999025444;387;100 mA
37.5440249052104;-0.699676513671875;-0.08319091796875;3.86999999022919;388;100 mA
37.5540249051852;-0.699676513671875;-0.083404541015625;3.87999999020394;389;100 mA
37.56402490516;-0.69970703125;-0.083770751953125;3.88999999017869;390;100 mA
37.5740249051347;-0.699676513671875;-0.08343505859375;3.89999999015345;391;100 mA
37.5840249051095;-0.69976806640625;-0.08404541015625;3.9099999901282;392;100 mA
37.5940249050842;-0.699737548828125;-0.083648681640625;3.91999999010295;393;100 mA
37.604024905059;-0.699676513671875;-0.083740234375;3.9299999900777;394;100 mA
37.6140249050337;-0.699676513671875;-0.08349609375;3.93999999005246;395;100 mA
37.6240249050085;-0.699676513671875;-0.084228515625;3.94999999002721;396;100 mA
37.6340249049832;-0.69970703125;-0.083587646484375;3.95999999000196;397;100 mA
37.644024904958;-0.69964599609375;-0.083953857421875;3.96999998997671;398;100 mA
37.6540249049327;-0.69976806640625;-0.083343505859375;3.97999998995147;399;100 mA
37.6640249049075;-0.699676513671875;-0.0836181640625;3.98999998992622;400;100 mA
37.6740249048822;-0.699676513671875;-0.083251953125;3.99999998990097;401;100 mA
37.684024904857;-0.69964599609375;-0.08355712890625;4.00999998987572;402;100 mA
37.6940249048317;-0.69970703125;-0.083465576171875;4.01999998985048;403;100 mA
37.7040249048065;-0.69970703125;-0.084075927734375;4.02999998982523;404;100 mA
37.7140249047812;-0.69970703125;-0.08367919921875;4.03999998979998;405;100 mA
37.724024904756;-0.69976806640625;-0.083740234375;4.04999998977473;406;100 mA
37.7340249047307;-0.699676513671875;-0.083892822265625;4.05999998974949;407;100 mA
37.7440249047055;-0.69970703125;-0.084716796875;4.06999998972424;408;100 mA
37.7540249046803;-0.699676513671875;-0.084075927734375;4.07999998969899;409;100 mA
37.764024904655;-0.69970703125;-0.084503173828125;4.08999998967374;410;100 mA
37.7740249046298;-0.699676513671875;-0.08404541015625;4.0999999896485;411;100 mA
37.7840249046045;-0.699676513671875;-0.084228515625;4.10999998962325;412;100 mA
37.7940249045793;-0.699676513671875;-0.08355712890625;4.119999989598;413;100 mA
37.804024904554;-0.699676513671875;-0.084014892578125;4.12999998957275;414;100 mA
37.8140249045288;-0.69964599609375;-0.08367919921875;4.1399999895475;415;100 mA
37.8240249045035;-0.69964599609375;-0.08392333984375;4.14999998952226;416;100 mA
37.8340249044783;-0.699676513671875;-0.083282470703125;4.15999998949701;417;100 mA
37.844024904453;-0.69970703125;-0.0833740234375;4.16999998947176;418;100 mA
37.8540249044278;-0.69970703125;-0.08343505859375;4.17999998944651;419;100 mA
37.8640249044025;-0.699676513671875;-0.083770751953125;4.18999998942127;420;100 mA
37.8740249043773;-0.69964599609375;-0.083465576171875;4.19999998939602;421;100 mA
37.884024904352;-0.699676513671875;-0.083770751953125;4.20999998937077;422;100 mA
37.8940249043268;-0.699676513671875;-0.083038330078125;4.21999998934552;423;100 mA
37.9040249043015;-0.699737548828125;-0.08282470703125;4.22999998932028;424;100 mA
37.9140249042763;-0.699676513671875;-0.082550048828125;4.23999998929503;425;100 mA
37.924024904251;-0.69970703125;-0.083251953125;4.24999998926978;426;100 mA
37.9340249042258;-0.69964599609375;-0.08251953125;4.25999998924453;427;100 mA
37.9440249042005;-0.699615478515625;-0.082855224609375;4.26999998921929;428;100 mA
37.9540249041753;-0.69970703125;-0.0823974609375;4.27999998919404;429;100 mA
37.9640249041501;-0.69970703125;-0.08282470703125;4.28999998916879;430;100 mA
37.9740249041248;-0.699676513671875;-0.08258056640625;4.29999998914354;431;100 mA
37.9840249040996;-0.699676513671875;-0.08306884765625;4.3099999891183;432;100 mA
37.9940249040743;-0.699676513671875;-0.0828857421875;4.31999998909305;433;100 mA
38.0040249040491;-0.69970703125;-0.083404541015625;4.3299999890678;434;100 mA
38.0140249040238;-0.699737548828125;-0.08282470703125;4.33999998904255;435;100 mA
38.0240249039986;-0.699676513671875;-0.0828857421875;4.34999998901731;436;100 mA
38.0340249039733;-0.69970703125;-0.083160400390625;4.35999998899206;437;100 mA
38.0440249039481;-0.69970703125;-0.083953857421875;4.36999998896681;438;100 mA
38.0540249039228;-0.69970703125;-0.0833740234375;4.37999998894156;439;100 mA
38.0640249038976;-0.699676513671875;-0.08367919921875;4.38999998891632;440;100 mA
38.0740249038723;-0.699676513671875;-0.082977294921875;4.39999998889107;441;100 mA
38.0840249038471;-0.699676513671875;-0.083251953125;4.40999998886582;442;100 mA
38.0940249038218;-0.69970703125;-0.082733154296875;4.41999998884057;443;100 mA
38.1040249037966;-0.69976806640625;-0.083343505859375;4.42999998881533;444;100 mA
38.1140249037713;-0.699737548828125;-0.08294677734375;4.43999998879008;445;100 mA
38.1240249037461;-0.699737548828125;-0.08319091796875;4.44999998876483;446;100 mA
38.1340249037208;-0.699676513671875;-0.08270263671875;4.45999998873958;447;100 mA
38.1440249036956;-0.69970703125;-0.0828857421875;4.46999998871433;448;100 mA
38.1540249036703;-0.699737548828125;-0.083038330078125;4.47999998868909;449;100 mA
38.1640249036451;-0.699676513671875;-0.08343505859375;4.48999998866384;450;100 mA
38.1740249036199;-0.699737548828125;-0.083160400390625;4.49999998863859;451;100 mA
38.1840249035946;-0.69970703125;-0.08343505859375;4.50999998861334;452;100 mA
38.1940249035694;-0.699676513671875;-0.08270263671875;4.5199999885881;453;100 mA
38.2040249035441;-0.699676513671875;-0.082550048828125;4.52999998856285;454;100 mA
38.2140249035189;-0.69970703125;-0.0823974609375;4.5399999885376;455;100 mA
38.2240249034936;-0.69964599609375;-0.08319091796875;4.54999998851235;456;100 mA
38.2340249034684;-0.69970703125;-0.082733154296875;4.55999998848711;457;100 mA
38.2440249034431;-0.69970703125;-0.08319091796875;4.56999998846186;458;100 mA
38.2540249034179;-0.69976806640625;-0.08270263671875;4.57999998843661;459;100 mA
38.2640249033926;-0.699676513671875;-0.083038330078125;4.58999998841136;460;100 mA
38.2740249033674;-0.699737548828125;-0.082763671875;4.59999998838612;461;100 mA
38.2840249033421;-0.69970703125;-0.083251953125;4.60999998836087;462;100 mA
38.2940249033169;-0.699676513671875;-0.083099365234375;4.61999998833562;463;100 mA
38.3040249032916;-0.69970703125;-0.08355712890625;4.62999998831037;464;100 mA
38.3140249032664;-0.69970703125;-0.083099365234375;4.63999998828513;465;100 mA
38.3240249032411;-0.699737548828125;-0.083160400390625;4.64999998825988;466;100 mA
38.3340249032159;-0.699676513671875;-0.0833740234375;4.65999998823463;467;100 mA
38.3440249031906;-0.699676513671875;-0.084014892578125;4.66999998820938;468;100 mA
38.3540249031654;-0.699737548828125;-0.083465576171875;4.67999998818414;469;100 mA
38.3640249031401;-0.699676513671875;-0.083831787109375;4.68999998815889;470;100 mA
38.3740249031149;-0.699676513671875;-0.083251953125;4.69999998813364;471;100 mA
38.3840249030897;-0.699676513671875;-0.08343505859375;4.70999998810839;472;100 mA
38.3940249030644;-0.69970703125;-0.082916259765625;4.71999998808315;473;100 mA
38.4040249030392;-0.699676513671875;-0.08349609375;4.7299999880579;474;100 mA
38.4140249030139;-0.699676513671875;-0.083251953125;4.73999998803265;475;100 mA
38.4240249029887;-0.699676513671875;-0.083648681640625;4.7499999880074;476;100 mA
38.4340249029634;-0.69970703125;-0.083221435546875;4.75999998798216;477;100 mA
38.4440249029382;-0.69970703125;-0.08331298828125;4.76999998795691;478;100 mA
38.4540249029129;-0.699737548828125;-0.083160400390625;4.77999998793166;479;100 mA
38.4640249028877;-0.699676513671875;-0.08343505859375;4.78999998790641;480;100 mA
38.4740249028624;-0.699737548828125;-0.083221435546875;4.79999998788116;481;100 mA
38.4840249028372;-0.69970703125;-0.083648681640625;4.80999998785592;482;100 mA
38.4940249028119;-0.699737548828125;-0.08306884765625;4.81999998783067;483;100 mA
38.5040249027867;-0.69970703125;-0.08306884765625;4.82999998780542;484;100 mA
38.5140249027614;-0.699676513671875;-0.082977294921875;4.83999998778017;485;100 mA
38.5240249027362;-0.69976806640625;-0.083740234375;4.84999998775493;486;100 mA
38.5340249027109;-0.69970703125;-0.08306884765625;4.85999998772968;487;100 mA
38.5440249026857;-0.69964599609375;-0.08331298828125;4.86999998770443;488;100 mA
38.5540249026604;-0.69964599609375;-0.082672119140625;4.87999998767918;489;100 mA
38.5640249026352;-0.699676513671875;-0.08282470703125;4.88999998765394;490;100 mA
38.5740249026099;-0.699737548828125;-0.08233642578125;4.89999998762869;491;100 mA
38.5840249025847;-0.69970703125;-0.082763671875;4.90999998760344;492;100 mA
38.5940249025595;-0.69970703125;-0.082611083984375;4.91999998757819;493;100 mA
38.6040249025342;-0.699676513671875;-0.08319091796875;4.92999998755295;494;100 mA
38.614024902509;-0.69976806640625;-0.08282470703125;4.9399999875277;495;100 mA
38.6240249024837;-0.699676513671875;-0.0830078125;4.94999998750245;496;100 mA
38.6340249024585;-0.69970703125;-0.0831298828125;4.9599999874772;497;100 mA
38.6440249024332;-0.69970703125;-0.08380126953125;4.96999998745196;498;100 mA
38.654024902408;-0.69970703125;-0.0831298828125;4.97999998742671;499;100 mA
38.6640249023827;-0.699737548828125;-0.08355712890625;4.98999998740146;500;100 mA
38.6740249023575;-0.699676513671875;-0.0828857421875;4.99999998737621;501;100 mA
38.6840249023322;-0.69970703125;-0.083038330078125;5.00999998735097;502;100 mA
38.694024902307;-0.69964599609375;-0.082427978515625;5.01999998732572;503;100 mA
38.7040249022817;-0.69970703125;-0.082916259765625;5.02999998730047;504;100 mA
38.7140249022565;-0.69970703125;-0.082489013671875;5.03999998727522;505;100 mA
38.7240249022312;-0.699676513671875;-0.082733154296875;5.04999998724998;506;100 mA
38.734024902206;-0.699737548828125;-0.08221435546875;5.05999998722473;507;100 mA
38.7440249021807;-0.699676513671875;-0.082305908203125;5.06999998719948;508;100 mA
38.7540249021555;-0.699676513671875;-0.082183837890625;5.07999998717423;509;100 mA
38.7640249021302;-0.69970703125;-0.0823974609375;5.08999998714899;510;100 mA
38.774024902105;-0.69970703125;-0.08209228515625;5.09999998712374;511;100 mA
38.7840249020798;-0.699615478515625;-0.082427978515625;5.10999998709849;512;100 mA
38.7940249020545;-0.69976806640625;-0.08184814453125;5.11999998707324;513;100 mA
38.8040249020293;-0.69970703125;-0.08172607421875;5.129999987048;514;100 mA
38.814024902004;-0.69970703125;-0.081695556640625;5.13999998702275;515;100 mA
38.8240249019788;-0.699737548828125;-0.082427978515625;5.1499999869975;516;100 mA
38.8340249019535;-0.69970703125;-0.081756591796875;5.15999998697225;517;100 mA
38.8440249019283;-0.699676513671875;-0.0819091796875;5.169999986947;518;100 mA
38.854024901903;-0.699676513671875;-0.081146240234375;5.17999998692176;519;100 mA
38.8640249018778;-0.699737548828125;-0.08123779296875;5.18999998689651;520;100 mA
38.8740249018525;-0.69964599609375;-0.08074951171875;5.19999998687126;521;100 mA
38.8840249018273;-0.699676513671875;-0.0811767578125;5.20999998684601;522;100 mA
38.894024901802;-0.699676513671875;-0.081024169921875;5.21999998682077;523;100 mA
38.9040249017768;-0.69964599609375;-0.081512451171875;5.22999998679552;524;100 mA
38.9140249017515;-0.699615478515625;-0.0810546875;5.23999998677027;525;100 mA
38.9240249017263;-0.699676513671875;-0.081207275390625;5.24999998674502;526;100 mA
38.934024901701;-0.69970703125;-0.081298828125;5.25999998671978;527;100 mA
38.9440249016758;-0.69964599609375;-0.081878662109375;5.26999998669453;528;100 mA
38.9540249016505;-0.69970703125;-0.081329345703125;5.27999998666928;529;100 mA
38.9640249016253;-0.699676513671875;-0.081756591796875;5.28999998664403;530;100 mA
38.9740249016;-0.699676513671875;-0.081146240234375;5.29999998661879;531;100 mA
38.9840249015748;-0.699737548828125;-0.08123779296875;5.30999998659354;532;100 mA
38.9940249015496;-0.69970703125;-0.080780029296875;5.31999998656829;533;100 mA
39.0040249015243;-0.69970703125;-0.081268310546875;5.32999998654304;534;100 mA
39.0140249014991;-0.69970703125;-0.080902099609375;5.3399999865178;535;100 mA
39.0240249014738;-0.699737548828125;-0.081085205078125;5.34999998649255;536;100 mA
39.0340249014486;-0.699676513671875;-0.080474853515625;5.3599999864673;537;100 mA
39.0440249014233;-0.699676513671875;-0.080657958984375;5.36999998644205;538;100 mA
39.0540249013981;-0.69964599609375;-0.080657958984375;5.37999998641681;539;100 mA
39.0640249013728;-0.69970703125;-0.0810546875;5.38999998639156;540;100 mA
39.0740249013476;-0.69970703125;-0.08099365234375;5.39999998636631;541;100 mA
39.0840249013223;-0.699676513671875;-0.081451416015625;5.40999998634106;542;100 mA
39.0940249012971;-0.69970703125;-0.08087158203125;5.41999998631582;543;100 mA
39.1040249012718;-0.699676513671875;-0.080780029296875;5.42999998629057;544;100 mA
39.1140249012466;-0.69970703125;-0.0806884765625;5.43999998626532;545;100 mA
39.1240249012213;-0.699676513671875;-0.081329345703125;5.44999998624007;546;100 mA
39.1340249011961;-0.69970703125;-0.080841064453125;5.45999998621483;547;100 mA
39.1440249011708;-0.699615478515625;-0.08123779296875;5.46999998618958;548;100 mA
39.1540249011456;-0.69970703125;-0.080810546875;5.47999998616433;549;100 mA
39.1640249011203;-0.699737548828125;-0.0810546875;5.48999998613908;550;100 mA
39.1740249010951;-0.699676513671875;-0.08062744140625;5.49999998611383;551;100 mA
39.1840249010698;-0.699676513671875;-0.0809326171875;5.50999998608859;552;100 mA
39.1940249010446;-0.69976806640625;-0.080841064453125;5.51999998606334;553;100 mA
39.2040249010194;-0.699676513671875;-0.08135986328125;5.52999998603809;554;100 mA
39.2140249009941;-0.69964599609375;-0.080963134765625;5.53999998601284;555;100 mA
39.2240249009689;-0.69970703125;-0.081085205078125;5.5499999859876;556;100 mA
39.2340249009436;-0.699737548828125;-0.08111572265625;5.55999998596235;557;100 mA
39.2440249009184;-0.699676513671875;-0.08184814453125;5.5699999859371;558;100 mA
39.2540249008931;-0.699676513671875;-0.08148193359375;5.57999998591185;559;100 mA
39.2640249008679;-0.69970703125;-0.0819091796875;5.58999998588661;560;100 mA
39.2740249008426;-0.69970703125;-0.08135986328125;5.59999998586136;561;100 mA
39.2840249008174;-0.699737548828125;-0.081329345703125;5.60999998583611;562;100 mA
39.2940249007921;-0.69970703125;-0.08074951171875;5.61999998581086;563;100 mA
39.3040249007669;-0.699676513671875;-0.08123779296875;5.62999998578562;564;100 mA
39.3140249007416;-0.69970703125;-0.080780029296875;5.63999998576037;565;100 mA
39.3240249007164;-0.699676513671875;-0.08099365234375;5.64999998573512;566;100 mA
39.3340249006911;-0.69976806640625;-0.0804443359375;5.65999998570987;567;100 mA
39.3440249006659;-0.699676513671875;-0.080596923828125;5.66999998568463;568;100 mA
39.3540249006406;-0.699737548828125;-0.0804443359375;5.67999998565938;569;100 mA
39.3640249006154;-0.69970703125;-0.080780029296875;5.68999998563413;570;100 mA
39.3740249005901;-0.699676513671875;-0.080657958984375;5.69999998560888;571;100 mA
39.3840249005649;-0.69964599609375;-0.081146240234375;5.70999998558364;572;100 mA
39.3940249005396;-0.699737548828125;-0.080718994140625;5.71999998555839;573;100 mA
39.4040249005144;-0.699676513671875;-0.0806884765625;5.72999998553314;574;100 mA
39.4140249004892;-0.699676513671875;-0.080535888671875;5.73999998550789;575;100 mA
39.4240249004639;-0.69964599609375;-0.081146240234375;5.74999998548265;576;100 mA
39.4340249004387;-0.69970703125;-0.080718994140625;5.7599999854574;577;100 mA
39.4440249004134;-0.699737548828125;-0.08123779296875;5.76999998543215;578;100 mA
39.4540249003882;-0.69970703125;-0.081024169921875;5.7799999854069;579;100 mA
39.4640249003629;-0.69970703125;-0.08135986328125;5.78999998538166;580;100 mA
39.4740249003377;-0.699615478515625;-0.080963134765625;5.79999998535641;581;100 mA
39.4840249003124;-0.69970703125;-0.081329345703125;5.80999998533116;582;100 mA
39.4940249002872;-0.699676513671875;-0.0811767578125;5.81999998530591;583;100 mA
39.5040249002619;-0.69970703125;-0.08172607421875;5.82999998528066;584;100 mA
39.5140249002367;-0.699676513671875;-0.081451416015625;5.83999998525542;585;100 mA
39.5240249002114;-0.699676513671875;-0.08154296875;5.84999998523017;586;100 mA
39.5340249001862;-0.699676513671875;-0.08160400390625;5.85999998520492;587;100 mA
39.5440249001609;-0.699676513671875;-0.08209228515625;5.86999998517967;588;100 mA
39.5540249001357;-0.69970703125;-0.0816650390625;5.87999998515443;589;100 mA
39.5640249001104;-0.699676513671875;-0.0821533203125;5.88999998512918;590;100 mA
39.5740249000852;-0.69970703125;-0.081817626953125;5.89999998510393;591;100 mA
39.5840249000599;-0.69970703125;-0.08197021484375;5.90999998507868;592;100 mA
39.5940249000347;-0.69970703125;-0.081573486328125;5.91999998505344;593;100 mA
39.6040249000094;-0.699676513671875;-0.082275390625;5.92999998502819;594;100 mA
39.6140248999842;-0.699737548828125;-0.082061767578125;5.93999998500294;595;100 mA
39.624024899959;-0.69970703125;-0.082550048828125;5.94999998497769;596;100 mA
39.6340248999337;-0.69964599609375;-0.082183837890625;5.95999998495245;597;100 mA
39.6440248999085;-0.699737548828125;-0.082305908203125;5.9699999849272;598;100 mA
39.6540248998832;-0.69970703125;-0.0821533203125;5.97999998490195;599;100 mA
39.664024899858;-0.69964599609375;-0.082366943359375;5.9899999848767;600;100 mA
39.6740248998327;-0.69964599609375;-0.0821533203125;5.99999998485146;601;100 mA
39.6840248998075;-0.699676513671875;-0.082550048828125;6.00999998482621;602;100 mA
39.6940248997822;-0.699676513671875;-0.082000732421875;6.01999998480096;603;100 mA
39.704024899757;-0.69970703125;-0.081817626953125;6.02999998477571;604;100 mA
39.7140248997317;-0.69970703125;-0.08154296875;6.03999998475047;605;100 mA
39.7240248997065;-0.69970703125;-0.08197021484375;6.04999998472522;606;100 mA
39.7340248996812;-0.699676513671875;-0.081298828125;6.05999998469997;607;100 mA
39.744024899656;-0.69964599609375;-0.08154296875;6.06999998467472;608;100 mA
39.7540248996307;-0.699676513671875;-0.081085205078125;6.07999998464948;609;100 mA
39.7640248996055;-0.699676513671875;-0.081298828125;6.08999998462423;610;100 mA
39.7740248995802;-0.69976806640625;-0.080841064453125;6.09999998459898;611;100 mA
39.784024899555;-0.69970703125;-0.081298828125;6.10999998457373;612;100 mA
39.7940248995297;-0.69964599609375;-0.08123779296875;6.11999998454849;613;100 mA
39.8040248995045;-0.69964599609375;-0.081787109375;6.12999998452324;614;100 mA
39.8140248994793;-0.699676513671875;-0.081573486328125;6.13999998449799;615;100 mA
39.824024899454;-0.699676513671875;-0.08172607421875;6.14999998447274;616;100 mA
39.8340248994288;-0.69970703125;-0.081787109375;6.1599999844475;617;100 mA
39.8440248994035;-0.699676513671875;-0.08233642578125;6.16999998442225;618;100 mA
39.8540248993783;-0.699737548828125;-0.081939697265625;6.179999984397;619;100 mA
39.864024899353;-0.69970703125;-0.0823974609375;6.18999998437175;620;100 mA
39.8740248993278;-0.699676513671875;-0.08197021484375;6.1999999843465;621;100 mA
39.8840248993025;-0.699676513671875;-0.08203125;6.20999998432126;622;100 mA
39.8940248992773;-0.699676513671875;-0.081512451171875;6.21999998429601;623;100 mA
39.904024899252;-0.69970703125;-0.08209228515625;6.22999998427076;624;100 mA
39.9140248992268;-0.699676513671875;-0.081695556640625;6.23999998424551;625;100 mA
39.9240248992015;-0.69970703125;-0.08209228515625;6.24999998422027;626;100 mA
39.9340248991763;-0.69970703125;-0.08172607421875;6.25999998419502;627;100 mA
39.944024899151;-0.69970703125;-0.081878662109375;6.26999998416977;628;100 mA
39.9540248991258;-0.699676513671875;-0.0816650390625;6.27999998414452;629;100 mA
39.9640248991005;-0.69970703125;-0.08197021484375;6.28999998411928;630;100 mA
39.9740248990753;-0.699676513671875;-0.081787109375;6.29999998409403;631;100 mA
39.98402489905;-0.699676513671875;-0.08221435546875;6.30999998406878;632;100 mA
39.9940248990248;-0.69970703125;-0.0816650390625;6.31999998404353;633;100 mA
40.0040248989995;-0.69970703125;-0.08148193359375;6.32999998401829;634;100 mA
40.0140248989743;-0.69976806640625;-0.081298828125;6.33999998399304;635;100 mA
40.0240248989491;-0.699737548828125;-0.081787109375;6.34999998396779;636;100 mA
40.0340248989238;-0.699737548828125;-0.081146240234375;6.35999998394254;637;100 mA
40.0440248988986;-0.699737548828125;-0.08135986328125;6.3699999839173;638;100 mA
40.0540248988733;-0.699676513671875;-0.08087158203125;6.37999998389205;639;100 mA
40.0640248988481;-0.699676513671875;-0.081024169921875;6.3899999838668;640;100 mA
40.0740248988228;-0.69970703125;-0.08056640625;6.39999998384155;641;100 mA
40.0840248987976;-0.699737548828125;-0.080902099609375;6.40999998381631;642;100 mA
40.0940248987723;-0.699737548828125;-0.080780029296875;6.41999998379106;643;100 mA
40.1040248987471;-0.69970703125;-0.08123779296875;6.42999998376581;644;100 mA
40.1140248987218;-0.699737548828125;-0.08087158203125;6.43999998374056;645;100 mA
40.1240248986966;-0.699676513671875;-0.0809326171875;6.44999998371532;646;100 mA
40.1340248986713;-0.69970703125;-0.08087158203125;6.45999998369007;647;100 mA
40.1440248986461;-0.699737548828125;-0.081268310546875;6.46999998366482;648;100 mA
40.1540248986208;-0.69976806640625;-0.0809326171875;6.47999998363957;649;100 mA
40.1640248985956;-0.69964599609375;-0.081451416015625;6.48999998361433;650;100 mA
40.1740248985703;-0.69970703125;-0.0809326171875;6.49999998358908;651;100 mA
40.1840248985451;-0.69970703125;-0.080902099609375;6.50999998356383;652;100 mA
40.1940248985198;-0.69970703125;-0.08038330078125;6.51999998353858;653;100 mA
40.2040248984946;-0.699676513671875;-0.080841064453125;6.52999998351333;654;100 mA
40.2140248984693;-0.699737548828125;-0.08050537109375;6.53999998348809;655;100 mA
40.2240248984441;-0.69964599609375;-0.0809326171875;6.54999998346284;656;100 mA
40.2340248984189;-0.699676513671875;-0.08050537109375;6.55999998343759;657;100 mA
40.2440248983936;-0.69970703125;-0.08074951171875;6.56999998341234;658;100 mA
40.2540248983684;-0.699737548828125;-0.080535888671875;6.5799999833871;659;100 mA
40.2640248983431;-0.69970703125;-0.080841064453125;6.58999998336185;660;100 mA
40.2740248983179;-0.699676513671875;-0.080810546875;6.5999999833366;661;100 mA
40.2840248982926;-0.699737548828125;-0.081451416015625;6.60999998331135;662;100 mA
40.2940248982674;-0.699676513671875;-0.08111572265625;6.61999998328611;663;100 mA
40.3040248982421;-0.69970703125;-0.0810546875;6.62999998326086;664;100 mA
40.3140248982169;-0.69976806640625;-0.0809326171875;6.63999998323561;665;100 mA
40.3240248981916;-0.699676513671875;-0.081451416015625;6.64999998321036;666;100 mA
40.3340248981664;-0.699737548828125;-0.080902099609375;6.65999998318512;667;100 mA
40.3440248981411;-0.69964599609375;-0.081207275390625;6.66999998315987;668;100 mA
40.3540248981159;-0.69970703125;-0.080718994140625;6.67999998313462;669;100 mA
40.3640248980906;-0.69976806640625;-0.0809326171875;6.68999998310937;670;100 mA
40.3740248980654;-0.699737548828125;-0.080535888671875;6.69999998308413;671;100 mA
40.3840248980401;-0.69970703125;-0.0811767578125;6.70999998305888;672;100 mA
40.3940248980149;-0.69970703125;-0.081329345703125;6.71999998303363;673;100 mA
40.4040248979896;-0.69970703125;-0.08197021484375;6.72999998300838;674;100 mA
40.4140248979644;-0.69964599609375;-0.081756591796875;6.73999998298314;675;100 mA
40.4240248979391;-0.699676513671875;-0.081817626953125;6.74999998295789;676;100 mA
40.4340248979139;-0.699676513671875;-0.081787109375;6.75999998293264;677;100 mA
40.4440248978887;-0.69970703125;-0.08221435546875;6.76999998290739;678;100 mA
40.4540248978634;-0.69970703125;-0.082000732421875;6.77999998288215;679;100 mA
40.4640248978382;-0.69970703125;-0.082550048828125;6.7899999828569;680;100 mA
40.4740248978129;-0.69970703125;-0.082122802734375;6.79999998283165;681;100 mA
40.4840248977877;-0.699676513671875;-0.08203125;6.8099999828064;682;100 mA
40.4940248977624;-0.699676513671875;-0.081634521484375;6.81999998278116;683;100 mA
40.5040248977372;-0.699737548828125;-0.082183837890625;6.82999998275591;684;100 mA
40.5140248977119;-0.699737548828125;-0.08184814453125;6.83999998273066;685;100 mA
40.5240248976867;-0.69964599609375;-0.082275390625;6.84999998270541;686;100 mA
40.5340248976614;-0.69970703125;-0.081878662109375;6.85999998268016;687;100 mA
40.5440248976362;-0.699676513671875;-0.082061767578125;6.86999998265492;688;100 mA
40.5540248976109;-0.699737548828125;-0.08184814453125;6.87999998262967;689;100 mA
40.5640248975857;-0.699676513671875;-0.082122802734375;6.88999998260442;690;100 mA
40.5740248975604;-0.699737548828125;-0.082000732421875;6.89999998257917;691;100 mA
40.5840248975352;-0.699676513671875;-0.082489013671875;6.90999998255393;692;100 mA
40.5940248975099;-0.69964599609375;-0.0821533203125;6.91999998252868;693;100 mA
40.6040248974847;-0.69970703125;-0.082122802734375;6.92999998250343;694;100 mA
40.6140248974594;-0.699676513671875;-0.082000732421875;6.93999998247818;695;100 mA
40.6240248974342;-0.69970703125;-0.08258056640625;6.94999998245294;696;100 mA
40.6340248974089;-0.699737548828125;-0.082122802734375;6.95999998242769;697;100 mA
40.6440248973837;-0.699676513671875;-0.082427978515625;6.96999998240244;698;100 mA
40.6540248973585;-0.69970703125;-0.081817626953125;6.97999998237719;699;100 mA
40.6640248973332;-0.69970703125;-0.08172607421875;6.98999998235195;700;100 mA
