Time (s);WE(1).Potential (V);WE(1).Current (A);Corrected time (s);Index;Current range
56.3002958578554;-0.80047607421875;-0.333740234375;0;1;100 mA
56.3102958578302;-0.799560546875;-0.245697021484375;0.00999999997475243;2;100 mA
56.3202958578049;-0.799560546875;-0.203094482421875;0.0199999999495049;3;100 mA
56.3302958577797;-0.79986572265625;-0.17779541015625;0.0299999999242573;4;100 mA
56.3402958577544;-0.79925537109375;-0.162078857421875;0.0399999998990097;5;100 mA
56.3502958577292;-0.8001708984375;-0.149200439453125;0.0499999998737621;6;100 mA
56.3602958577039;-0.7989501953125;-0.139678955078125;0.0599999998485146;7;100 mA
56.3702958576787;-0.79986572265625;-0.131805419921875;0.069999999823267;8;100 mA
56.3802958576534;-0.79925537109375;-0.125701904296875;0.0799999997980194;9;100 mA
56.3902958576282;-0.79925537109375;-0.120330810546875;0.0899999997727718;10;100 mA
56.4002958576029;-0.799560546875;-0.116973876953125;0.0999999997475243;11;100 mA
56.4102958575777;-0.8001708984375;-0.113128662109375;0.109999999722277;12;100 mA
56.4202958575524;-0.79986572265625;-0.110687255859375;0.119999999697029;13;100 mA
56.4302958575272;-0.799560546875;-0.10797119140625;0.129999999671782;14;100 mA
56.440295857502;-0.79986572265625;-0.105712890625;0.139999999646534;15;100 mA
56.4502958574767;-0.79986572265625;-0.103729248046875;0.149999999621286;16;100 mA
56.4602958574515;-0.799560546875;-0.10333251953125;0.159999999596039;17;100 mA
56.4702958574262;-0.799560546875;-0.101776123046875;0.169999999570791;18;100 mA
56.480295857401;-0.79925537109375;-0.101226806640625;0.179999999545544;19;100 mA
56.4902958573757;-0.79986572265625;-0.0999755859375;0.189999999520296;20;100 mA
56.5002958573505;-0.79986572265625;-0.099853515625;0.199999999495049;21;100 mA
56.5102958573252;-0.79986572265625;-0.09783935546875;0.209999999469801;22;100 mA
56.5202958573;-0.79925537109375;-0.09783935546875;0.219999999444553;23;100 mA
56.5302958572747;-0.799560546875;-0.09661865234375;0.229999999419306;24;100 mA
56.5402958572495;-0.799560546875;-0.096588134765625;0.239999999394058;25;100 mA
56.5502958572242;-0.79925537109375;-0.095123291015625;0.249999999368811;26;100 mA
56.560295857199;-0.799560546875;-0.094818115234375;0.259999999343563;27;100 mA
56.5702958571737;-0.79925537109375;-0.093780517578125;0.269999999318316;28;100 mA
56.5802958571485;-0.799560546875;-0.094146728515625;0.279999999293068;29;100 mA
56.5902958571232;-0.799560546875;-0.093597412109375;0.28999999926782;30;100 mA
56.600295857098;-0.799560546875;-0.094024658203125;0.299999999242573;31;100 mA
56.6102958570727;-0.79925537109375;-0.093841552734375;0.309999999217325;32;100 mA
56.6202958570475;-0.79986572265625;-0.09405517578125;0.319999999192078;33;100 mA
56.6302958570222;-0.799560546875;-0.092987060546875;0.32999999916683;34;100 mA
56.640295856997;-0.79986572265625;-0.093780517578125;0.339999999141583;35;100 mA
56.6502958569718;-0.799560546875;-0.09295654296875;0.349999999116335;36;100 mA
56.6602958569465;-0.79925537109375;-0.09326171875;0.359999999091087;37;100 mA
56.6702958569213;-0.79925537109375;-0.0921630859375;0.36999999906584;38;100 mA
56.680295856896;-0.79986572265625;-0.093109130859375;0.379999999040592;39;100 mA
56.6902958568708;-0.79925537109375;-0.091949462890625;0.389999999015345;40;100 mA
56.7002958568455;-0.79986572265625;-0.092254638671875;0.399999998990097;41;100 mA
56.7102958568203;-0.79925537109375;-0.09149169921875;0.40999999896485;42;100 mA
56.720295856795;-0.79986572265625;-0.092041015625;0.419999998939602;43;100 mA
56.7302958567698;-0.79925537109375;-0.091400146484375;0.429999998914354;44;100 mA
56.7402958567445;-0.79925537109375;-0.091339111328125;0.439999998889107;45;100 mA
56.7502958567193;-0.79925537109375;-0.09039306640625;0.449999998863859;46;100 mA
56.760295856694;-0.799560546875;-0.091064453125;0.459999998838612;47;100 mA
56.7702958566688;-0.8001708984375;-0.090484619140625;0.469999998813364;48;100 mA
56.7802958566435;-0.79925537109375;-0.091094970703125;0.479999998788116;49;100 mA
56.7902958566183;-0.799560546875;-0.090545654296875;0.489999998762869;50;100 mA
56.800295856593;-0.799560546875;-0.0914306640625;0.499999998737621;51;100 mA
56.8102958565678;-0.799560546875;-0.08978271484375;0.509999998712374;52;100 mA
56.8202958565425;-0.799560546875;-0.09027099609375;0.519999998687126;53;100 mA
56.8302958565173;-0.79925537109375;-0.08953857421875;0.529999998661879;54;100 mA
56.840295856492;-0.799560546875;-0.090240478515625;0.539999998636631;55;100 mA
56.8502958564668;-0.799560546875;-0.0894775390625;0.549999998611383;56;100 mA
56.8602958564416;-0.79925537109375;-0.090484619140625;0.559999998586136;57;100 mA
56.8702958564163;-0.799560546875;-0.090301513671875;0.569999998560888;58;100 mA
56.8802958563911;-0.799560546875;-0.091156005859375;0.579999998535641;59;100 mA
56.8902958563658;-0.79925537109375;-0.09100341796875;0.589999998510393;60;100 mA
56.9002958563406;-0.79925537109375;-0.0916748046875;0.599999998485146;61;100 mA
56.9102958563153;-0.79986572265625;-0.091461181640625;0.609999998459898;62;100 mA
56.9202958562901;-0.79986572265625;-0.091644287109375;0.61999999843465;63;100 mA
56.9302958562648;-0.799560546875;-0.09051513671875;0.629999998409403;64;100 mA
56.9402958562396;-0.799560546875;-0.0911865234375;0.639999998384155;65;100 mA
56.9502958562143;-0.79925537109375;-0.0906982421875;0.649999998358908;66;100 mA
56.9602958561891;-0.799560546875;-0.091217041015625;0.65999999833366;67;100 mA
56.9702958561638;-0.7989501953125;-0.090240478515625;0.669999998308413;68;100 mA
56.9802958561386;-0.799560546875;-0.09112548828125;0.679999998283165;69;100 mA
56.9902958561133;-0.799560546875;-0.089935302734375;0.689999998257917;70;100 mA
57.0002958560881;-0.799560546875;-0.0899658203125;0.69999999823267;71;100 mA
57.0102958560628;-0.79925537109375;-0.089019775390625;0.709999998207422;72;100 mA
57.0202958560376;-0.799560546875;-0.08941650390625;0.719999998182175;73;100 mA
57.0302958560123;-0.799560546875;-0.088714599609375;0.729999998156927;74;100 mA
57.0402958559871;-0.79986572265625;-0.0887451171875;0.73999999813168;75;100 mA
57.0502958559618;-0.799560546875;-0.0880126953125;0.749999998106432;76;100 mA
57.0602958559366;-0.79986572265625;-0.088714599609375;0.759999998081184;77;100 mA
57.0702958559114;-0.79925537109375;-0.088226318359375;0.769999998055937;78;100 mA
57.0802958558861;-0.79925537109375;-0.088897705078125;0.779999998030689;79;100 mA
57.0902958558609;-0.7989501953125;-0.088623046875;0.789999998005442;80;100 mA
57.1002958558356;-0.79925537109375;-0.089599609375;0.799999997980194;81;100 mA
57.1102958558104;-0.799560546875;-0.088043212890625;0.809999997954947;82;100 mA
57.1202958557851;-0.79986572265625;-0.088348388671875;0.819999997929699;83;100 mA
57.1302958557599;-0.799560546875;-0.08758544921875;0.829999997904451;84;100 mA
57.1402958557346;-0.79986572265625;-0.088165283203125;0.839999997879204;85;100 mA
57.1502958557094;-0.79986572265625;-0.087371826171875;0.849999997853956;86;100 mA
57.1602958556841;-0.79925537109375;-0.088134765625;0.859999997828709;87;100 mA
57.1702958556589;-0.79986572265625;-0.087890625;0.869999997803461;88;100 mA
57.1802958556336;-0.79986572265625;-0.08837890625;0.879999997778214;89;100 mA
57.1902958556084;-0.79925537109375;-0.08819580078125;0.889999997752966;90;100 mA
57.2002958555831;-0.79986572265625;-0.089141845703125;0.899999997727718;91;100 mA
57.2102958555579;-0.79925537109375;-0.089508056640625;0.909999997702471;92;100 mA
57.2202958555326;-0.79925537109375;-0.0899658203125;0.919999997677223;93;100 mA
57.2302958555074;-0.799560546875;-0.08905029296875;0.929999997651976;94;100 mA
57.2402958554821;-0.799560546875;-0.089447021484375;0.939999997626728;95;100 mA
57.2502958554569;-0.79986572265625;-0.0887451171875;0.949999997601481;96;100 mA
57.2602958554317;-0.7989501953125;-0.089202880859375;0.959999997576233;97;100 mA
57.2702958554064;-0.79925537109375;-0.088287353515625;0.969999997550985;98;100 mA
57.2802958553812;-0.79925537109375;-0.089324951171875;0.979999997525738;99;100 mA
57.2902958553559;-0.79925537109375;-0.088592529296875;0.98999999750049;100;100 mA
57.3002958553307;-0.79986572265625;-0.089141845703125;0.999999997475243;101;100 mA
57.3102958553054;-0.79925537109375;-0.0887451171875;1.00999999745;102;100 mA
57.3202958552802;-0.799560546875;-0.0897216796875;1.01999999742475;103;100 mA
57.3302958552549;-0.79925537109375;-0.0897216796875;1.0299999973995;104;100 mA
57.3402958552297;-0.799560546875;-0.090301513671875;1.03999999737425;105;100 mA
57.3502958552044;-0.79986572265625;-0.08984375;1.049999997349;106;100 mA
57.3602958551792;-0.79925537109375;-0.0902099609375;1.05999999732376;107;100 mA
57.3702958551539;-0.79986572265625;-0.089080810546875;1.06999999729851;108;100 mA
57.3802958551287;-0.79925537109375;-0.08917236328125;1.07999999727326;109;100 mA
57.3902958551034;-0.799560546875;-0.088470458984375;1.08999999724801;110;100 mA
57.4002958550782;-0.799560546875;-0.089324951171875;1.09999999722277;111;100 mA
57.4102958550529;-0.799560546875;-0.088134765625;1.10999999719752;112;100 mA
57.4202958550277;-0.799560546875;-0.088775634765625;1.11999999717227;113;100 mA
57.4302958550024;-0.799560546875;-0.088348388671875;1.12999999714702;114;100 mA
57.4402958549772;-0.79925537109375;-0.0889892578125;1.13999999712178;115;100 mA
57.4502958549519;-0.799560546875;-0.088287353515625;1.14999999709653;116;100 mA
57.4602958549267;-0.79925537109375;-0.089111328125;1.15999999707128;117;100 mA
57.4702958549015;-0.79925537109375;-0.088623046875;1.16999999704603;118;100 mA
57.4802958548762;-0.7989501953125;-0.088775634765625;1.17999999702079;119;100 mA
57.490295854851;-0.799560546875;-0.088226318359375;1.18999999699554;120;100 mA
57.5002958548257;-0.799560546875;-0.08905029296875;1.19999999697029;121;100 mA
57.5102958548005;-0.79925537109375;-0.08935546875;1.20999999694504;122;100 mA
57.5202958547752;-0.799560546875;-0.08990478515625;1.2199999969198;123;100 mA
57.53029585475;-0.79925537109375;-0.089385986328125;1.22999999689455;124;100 mA
57.5402958547247;-0.799560546875;-0.0899658203125;1.2399999968693;125;100 mA
57.5502958546995;-0.8001708984375;-0.089447021484375;1.24999999684405;126;100 mA
57.5602958546742;-0.79925537109375;-0.089874267578125;1.25999999681881;127;100 mA
57.570295854649;-0.79925537109375;-0.0892333984375;1.26999999679356;128;100 mA
57.5802958546237;-0.79925537109375;-0.0904541015625;1.27999999676831;129;100 mA
57.5902958545985;-0.799560546875;-0.089599609375;1.28999999674306;130;100 mA
57.6002958545732;-0.79925537109375;-0.0899658203125;1.29999999671782;131;100 mA
57.610295854548;-0.79986572265625;-0.08935546875;1.30999999669257;132;100 mA
57.6202958545227;-0.79986572265625;-0.0899658203125;1.31999999666732;133;100 mA
57.6302958544975;-0.79925537109375;-0.089813232421875;1.32999999664207;134;100 mA
57.6402958544722;-0.799560546875;-0.090484619140625;1.33999999661683;135;100 mA
57.650295854447;-0.79925537109375;-0.090362548828125;1.34999999659158;136;100 mA
57.6602958544217;-0.79986572265625;-0.091094970703125;1.35999999656633;137;100 mA
57.6702958543965;-0.79986572265625;-0.09063720703125;1.36999999654108;138;100 mA
57.6802958543713;-0.799560546875;-0.09130859375;1.37999999651583;139;100 mA
57.690295854346;-0.79986572265625;-0.09100341796875;1.38999999649059;140;100 mA
57.7002958543208;-0.7989501953125;-0.09197998046875;1.39999999646534;141;100 mA
57.7102958542955;-0.799560546875;-0.09088134765625;1.40999999644009;142;100 mA
57.7202958542703;-0.799560546875;-0.0911865234375;1.41999999641484;143;100 mA
57.730295854245;-0.7989501953125;-0.0904541015625;1.4299999963896;144;100 mA
57.7402958542198;-0.799560546875;-0.090789794921875;1.43999999636435;145;100 mA
57.7502958541945;-0.79925537109375;-0.089813232421875;1.4499999963391;146;100 mA
57.7602958541693;-0.799560546875;-0.09051513671875;1.45999999631385;147;100 mA
57.770295854144;-0.799560546875;-0.090362548828125;1.46999999628861;148;100 mA
57.7802958541188;-0.79925537109375;-0.0904541015625;1.47999999626336;149;100 mA
57.7902958540935;-0.79986572265625;-0.089599609375;1.48999999623811;150;100 mA
57.8002958540683;-0.79925537109375;-0.089447021484375;1.49999999621286;151;100 mA
57.810295854043;-0.79925537109375;-0.08917236328125;1.50999999618762;152;100 mA
57.8202958540178;-0.79986572265625;-0.0894775390625;1.51999999616237;153;100 mA
57.8302958539925;-0.799560546875;-0.08917236328125;1.52999999613712;154;100 mA
57.8402958539673;-0.79925537109375;-0.08978271484375;1.53999999611187;155;100 mA
57.850295853942;-0.79925537109375;-0.08905029296875;1.54999999608663;156;100 mA
57.8602958539168;-0.79925537109375;-0.089111328125;1.55999999606138;157;100 mA
57.8702958538915;-0.799560546875;-0.0880126953125;1.56999999603613;158;100 mA
57.8802958538663;-0.79925537109375;-0.088958740234375;1.57999999601088;159;100 mA
57.8902958538411;-0.79925537109375;-0.088134765625;1.58999999598564;160;100 mA
57.9002958538158;-0.79986572265625;-0.088653564453125;1.59999999596039;161;100 mA
57.9102958537906;-0.799560546875;-0.087982177734375;1.60999999593514;162;100 mA
57.9202958537653;-0.799560546875;-0.088226318359375;1.61999999590989;163;100 mA
57.9302958537401;-0.79925537109375;-0.08758544921875;1.62999999588465;164;100 mA
57.9402958537148;-0.8001708984375;-0.087982177734375;1.6399999958594;165;100 mA
57.9502958536896;-0.799560546875;-0.0880126953125;1.64999999583415;166;100 mA
57.9602958536643;-0.79925537109375;-0.088836669921875;1.6599999958089;167;100 mA
57.9702958536391;-0.79986572265625;-0.088348388671875;1.66999999578366;168;100 mA
57.9802958536138;-0.799560546875;-0.088897705078125;1.67999999575841;169;100 mA
57.9902958535886;-0.79925537109375;-0.088623046875;1.68999999573316;170;100 mA
58.0002958535633;-0.79986572265625;-0.089630126953125;1.69999999570791;171;100 mA
58.0102958535381;-0.799560546875;-0.088897705078125;1.70999999568267;172;100 mA
58.0202958535128;-0.79925537109375;-0.0894775390625;1.71999999565742;173;100 mA
58.0302958534876;-0.79986572265625;-0.088775634765625;1.72999999563217;174;100 mA
58.0402958534623;-0.799560546875;-0.08880615234375;1.73999999560692;175;100 mA
58.0502958534371;-0.79986572265625;-0.087615966796875;1.74999999558167;176;100 mA
58.0602958534118;-0.79925537109375;-0.08843994140625;1.75999999555643;177;100 mA
58.0702958533866;-0.799560546875;-0.088287353515625;1.76999999553118;178;100 mA
58.0802958533613;-0.79986572265625;-0.08868408203125;1.77999999550593;179;100 mA
58.0902958533361;-0.7989501953125;-0.088226318359375;1.78999999548068;180;100 mA
58.1002958533109;-0.79925537109375;-0.08843994140625;1.79999999545544;181;100 mA
58.1102958532856;-0.79925537109375;-0.088348388671875;1.80999999543019;182;100 mA
58.1202958532604;-0.8001708984375;-0.088653564453125;1.81999999540494;183;100 mA
58.1302958532351;-0.79986572265625;-0.088134765625;1.82999999537969;184;100 mA
58.1402958532099;-0.79925537109375;-0.088623046875;1.83999999535445;185;100 mA
58.1502958531846;-0.79864501953125;-0.087982177734375;1.8499999953292;186;100 mA
58.1602958531594;-0.79925537109375;-0.088226318359375;1.85999999530395;187;100 mA
58.1702958531341;-0.7989501953125;-0.087432861328125;1.8699999952787;188;100 mA
58.1802958531089;-0.79986572265625;-0.08837890625;1.87999999525346;189;100 mA
58.1902958530836;-0.79925537109375;-0.087493896484375;1.88999999522821;190;100 mA
58.2002958530584;-0.799560546875;-0.0877685546875;1.89999999520296;191;100 mA
58.2102958530331;-0.8001708984375;-0.087158203125;1.90999999517771;192;100 mA
58.2202958530079;-0.79925537109375;-0.087371826171875;1.91999999515247;193;100 mA
58.2302958529826;-0.799560546875;-0.08673095703125;1.92999999512722;194;100 mA
58.2402958529574;-0.79925537109375;-0.087005615234375;1.93999999510197;195;100 mA
58.2502958529321;-0.79925537109375;-0.086822509765625;1.94999999507672;196;100 mA
58.2602958529069;-0.799560546875;-0.087493896484375;1.95999999505148;197;100 mA
58.2702958528816;-0.79925537109375;-0.087127685546875;1.96999999502623;198;100 mA
58.2802958528564;-0.79925537109375;-0.087554931640625;1.97999999500098;199;100 mA
58.2902958528312;-0.799560546875;-0.08734130859375;1.98999999497573;200;100 mA
58.3002958528059;-0.79925537109375;-0.08807373046875;1.99999999495049;201;100 mA
58.3102958527807;-0.799560546875;-0.087249755859375;2.00999999492524;202;100 mA
58.3202958527554;-0.79986572265625;-0.087799072265625;2.01999999489999;203;100 mA
58.3302958527302;-0.799560546875;-0.087371826171875;2.02999999487474;204;100 mA
58.3402958527049;-0.799560546875;-0.087677001953125;2.0399999948495;205;100 mA
58.3502958526797;-0.799560546875;-0.0867919921875;2.04999999482425;206;100 mA
58.3602958526544;-0.79925537109375;-0.087493896484375;2.059999994799;207;100 mA
58.3702958526292;-0.799560546875;-0.086822509765625;2.06999999477375;208;100 mA
58.3802958526039;-0.79986572265625;-0.0869140625;2.0799999947485;209;100 mA
58.3902958525787;-0.799560546875;-0.0865478515625;2.08999999472326;210;100 mA
58.4002958525534;-0.799560546875;-0.086944580078125;2.09999999469801;211;100 mA
58.4102958525282;-0.79986572265625;-0.0870361328125;2.10999999467276;212;100 mA
58.4202958525029;-0.7989501953125;-0.087371826171875;2.11999999464751;213;100 mA
58.4302958524777;-0.79925537109375;-0.087127685546875;2.12999999462227;214;100 mA
58.4402958524524;-0.799560546875;-0.087738037109375;2.13999999459702;215;100 mA
58.4502958524272;-0.799560546875;-0.0872802734375;2.14999999457177;216;100 mA
58.4602958524019;-0.799560546875;-0.087432861328125;2.15999999454652;217;100 mA
58.4702958523767;-0.799560546875;-0.08673095703125;2.16999999452128;218;100 mA
58.4802958523514;-0.799560546875;-0.087646484375;2.17999999449603;219;100 mA
58.4902958523262;-0.79986572265625;-0.08685302734375;2.18999999447078;220;100 mA
58.500295852301;-0.8001708984375;-0.087158203125;2.19999999444553;221;100 mA
58.5102958522757;-0.799560546875;-0.086883544921875;2.20999999442029;222;100 mA
58.5202958522505;-0.79925537109375;-0.087310791015625;2.21999999439504;223;100 mA
58.5302958522252;-0.79986572265625;-0.087005615234375;2.22999999436979;224;100 mA
58.5402958522;-0.79925537109375;-0.087493896484375;2.23999999434454;225;100 mA
58.5502958521747;-0.79925537109375;-0.0872802734375;2.2499999943193;226;100 mA
58.5602958521495;-0.799560546875;-0.087799072265625;2.25999999429405;227;100 mA
58.5702958521242;-0.79925537109375;-0.08740234375;2.2699999942688;228;100 mA
58.580295852099;-0.79986572265625;-0.087615966796875;2.27999999424355;229;100 mA
58.5902958520737;-0.79986572265625;-0.08758544921875;2.28999999421831;230;100 mA
58.6002958520485;-0.799560546875;-0.088470458984375;2.29999999419306;231;100 mA
58.6102958520232;-0.7989501953125;-0.08782958984375;2.30999999416781;232;100 mA
58.620295851998;-0.79925537109375;-0.088165283203125;2.31999999414256;233;100 mA
58.6302958519727;-0.79925537109375;-0.087646484375;2.32999999411732;234;100 mA
58.6402958519475;-0.79986572265625;-0.08795166015625;2.33999999409207;235;100 mA
58.6502958519222;-0.79925537109375;-0.087310791015625;2.34999999406682;236;100 mA
58.660295851897;-0.799560546875;-0.088409423828125;2.35999999404157;237;100 mA
58.6702958518717;-0.799560546875;-0.0885009765625;2.36999999401633;238;100 mA
58.6802958518465;-0.7989501953125;-0.088836669921875;2.37999999399108;239;100 mA
58.6902958518212;-0.7989501953125;-0.088653564453125;2.38999999396583;240;100 mA
58.700295851796;-0.79925537109375;-0.089019775390625;2.39999999394058;241;100 mA
58.7102958517708;-0.799560546875;-0.08929443359375;2.40999999391533;242;100 mA
58.7202958517455;-0.7989501953125;-0.089813232421875;2.41999999389009;243;100 mA
58.7302958517203;-0.8001708984375;-0.089599609375;2.42999999386484;244;100 mA
58.740295851695;-0.79925537109375;-0.08990478515625;2.43999999383959;245;100 mA
58.7502958516698;-0.799560546875;-0.088958740234375;2.44999999381434;246;100 mA
58.7602958516445;-0.8001708984375;-0.0889892578125;2.4599999937891;247;100 mA
58.7702958516193;-0.8001708984375;-0.0882568359375;2.46999999376385;248;100 mA
58.780295851594;-0.79986572265625;-0.08917236328125;2.4799999937386;249;100 mA
58.7902958515688;-0.799560546875;-0.0882568359375;2.48999999371335;250;100 mA
58.8002958515435;-0.79925537109375;-0.08837890625;2.49999999368811;251;100 mA
58.8102958515183;-0.79986572265625;-0.08770751953125;2.50999999366286;252;100 mA
58.820295851493;-0.79986572265625;-0.087921142578125;2.51999999363761;253;100 mA
58.8302958514678;-0.79925537109375;-0.087432861328125;2.52999999361236;254;100 mA
58.8402958514425;-0.79986572265625;-0.087677001953125;2.53999999358712;255;100 mA
58.8502958514173;-0.79986572265625;-0.08740234375;2.54999999356187;256;100 mA
58.860295851392;-0.799560546875;-0.087677001953125;2.55999999353662;257;100 mA
58.8702958513668;-0.799560546875;-0.087249755859375;2.56999999351137;258;100 mA
58.8802958513415;-0.799560546875;-0.08758544921875;2.57999999348613;259;100 mA
58.8902958513163;-0.79986572265625;-0.087615966796875;2.58999999346088;260;100 mA
58.900295851291;-0.799560546875;-0.0882568359375;2.59999999343563;261;100 mA
58.9102958512658;-0.799560546875;-0.087493896484375;2.60999999341038;262;100 mA
58.9202958512406;-0.799560546875;-0.087982177734375;2.61999999338514;263;100 mA
58.9302958512153;-0.79925537109375;-0.0875244140625;2.62999999335989;264;100 mA
58.9402958511901;-0.79925537109375;-0.08782958984375;2.63999999333464;265;100 mA
58.9502958511648;-0.79986572265625;-0.0872802734375;2.64999999330939;266;100 mA
58.9602958511396;-0.7989501953125;-0.088409423828125;2.65999999328415;267;100 mA
58.9702958511143;-0.79925537109375;-0.088348388671875;2.6699999932589;268;100 mA
58.9802958510891;-0.79925537109375;-0.088470458984375;2.67999999323365;269;100 mA
58.9902958510638;-0.79925537109375;-0.087860107421875;2.6899999932084;270;100 mA
59.0002958510386;-0.799560546875;-0.0877685546875;2.69999999318316;271;100 mA
59.0102958510133;-0.79986572265625;-0.087432861328125;2.70999999315791;272;100 mA
59.0202958509881;-0.7989501953125;-0.087554931640625;2.71999999313266;273;100 mA
59.0302958509628;-0.79925537109375;-0.087158203125;2.72999999310741;274;100 mA
59.0402958509376;-0.79925537109375;-0.08782958984375;2.73999999308217;275;100 mA
59.0502958509123;-0.799560546875;-0.08758544921875;2.74999999305692;276;100 mA
59.0602958508871;-0.79925537109375;-0.08807373046875;2.75999999303167;277;100 mA
59.0702958508618;-0.799560546875;-0.08770751953125;2.76999999300642;278;100 mA
59.0802958508366;-0.799560546875;-0.088653564453125;2.77999999298117;279;100 mA
59.0902958508113;-0.799560546875;-0.087615966796875;2.78999999295593;280;100 mA
59.1002958507861;-0.799560546875;-0.0875244140625;2.79999999293068;281;100 mA
59.1102958507608;-0.799560546875;-0.086761474609375;2.80999999290543;282;100 mA
59.1202958507356;-0.799560546875;-0.086639404296875;2.81999999288018;283;100 mA
59.1302958507104;-0.79925537109375;-0.08587646484375;2.82999999285494;284;100 mA
59.1402958506851;-0.799560546875;-0.086212158203125;2.83999999282969;285;100 mA
59.1502958506599;-0.799560546875;-0.086181640625;2.84999999280444;286;100 mA
59.1602958506346;-0.79986572265625;-0.086700439453125;2.85999999277919;287;100 mA
59.1702958506094;-0.79925537109375;-0.08648681640625;2.86999999275395;288;100 mA
59.1802958505841;-0.79925537109375;-0.086883544921875;2.8799999927287;289;100 mA
59.1902958505589;-0.799560546875;-0.086883544921875;2.88999999270345;290;100 mA
59.2002958505336;-0.799560546875;-0.087554931640625;2.8999999926782;291;100 mA
59.2102958505084;-0.79925537109375;-0.0869140625;2.90999999265296;292;100 mA
59.2202958504831;-0.799560546875;-0.08746337890625;2.91999999262771;293;100 mA
59.2302958504579;-0.79986572265625;-0.087005615234375;2.92999999260246;294;100 mA
59.2402958504326;-0.79986572265625;-0.0870361328125;2.93999999257721;295;100 mA
59.2502958504074;-0.799560546875;-0.086090087890625;2.94999999255197;296;100 mA
59.2602958503821;-0.79925537109375;-0.08697509765625;2.95999999252672;297;100 mA
59.2702958503569;-0.79986572265625;-0.0865478515625;2.96999999250147;298;100 mA
59.2802958503316;-0.79986572265625;-0.086578369140625;2.97999999247622;299;100 mA
59.2902958503064;-0.799560546875;-0.08599853515625;2.98999999245098;300;100 mA
59.3002958502811;-0.799560546875;-0.086151123046875;2.99999999242573;301;100 mA
59.3102958502559;-0.79986572265625;-0.086029052734375;3.00999999240048;302;100 mA
59.3202958502307;-0.799560546875;-0.086334228515625;3.01999999237523;303;100 mA
59.3302958502054;-0.799560546875;-0.086273193359375;3.02999999234999;304;100 mA
59.3402958501802;-0.8001708984375;-0.087005615234375;3.03999999232474;305;100 mA
59.3502958501549;-0.79925537109375;-0.08685302734375;3.04999999229949;306;100 mA
59.3602958501297;-0.7989501953125;-0.087249755859375;3.05999999227424;307;100 mA
59.3702958501044;-0.799560546875;-0.08697509765625;3.069999992249;308;100 mA
59.3802958500792;-0.799560546875;-0.087890625;3.07999999222375;309;100 mA
59.3902958500539;-0.799560546875;-0.087188720703125;3.0899999921985;310;100 mA
59.4002958500287;-0.799560546875;-0.087249755859375;3.09999999217325;311;100 mA
59.4102958500034;-0.799560546875;-0.086669921875;3.109999992148;312;100 mA
59.4202958499782;-0.80047607421875;-0.086669921875;3.11999999212276;313;100 mA
59.4302958499529;-0.799560546875;-0.08599853515625;3.12999999209751;314;100 mA
59.4402958499277;-0.79925537109375;-0.08624267578125;3.13999999207226;315;100 mA
59.4502958499024;-0.79986572265625;-0.086090087890625;3.14999999204701;316;100 mA
59.4602958498772;-0.79986572265625;-0.08636474609375;3.15999999202177;317;100 mA
59.4702958498519;-0.7989501953125;-0.0860595703125;3.16999999199652;318;100 mA
59.4802958498267;-0.799560546875;-0.086090087890625;3.17999999197127;319;100 mA
59.4902958498014;-0.79986572265625;-0.085906982421875;3.18999999194602;320;100 mA
59.5002958497762;-0.79986572265625;-0.08642578125;3.19999999192078;321;100 mA
59.5102958497509;-0.79986572265625;-0.0860595703125;3.20999999189553;322;100 mA
59.5202958497257;-0.79986572265625;-0.086822509765625;3.21999999187028;323;100 mA
59.5302958497005;-0.799560546875;-0.08673095703125;3.22999999184503;324;100 mA
59.5402958496752;-0.79986572265625;-0.087066650390625;3.23999999181979;325;100 mA
59.55029584965;-0.79925537109375;-0.086517333984375;3.24999999179454;326;100 mA
59.5602958496247;-0.8001708984375;-0.087493896484375;3.25999999176929;327;100 mA
59.5702958495995;-0.7989501953125;-0.087188720703125;3.26999999174404;328;100 mA
59.5802958495742;-0.79986572265625;-0.087188720703125;3.2799999917188;329;100 mA
59.590295849549;-0.799560546875;-0.086700439453125;3.28999999169355;330;100 mA
59.6002958495237;-0.79986572265625;-0.086761474609375;3.2999999916683;331;100 mA
59.6102958494985;-0.79986572265625;-0.08648681640625;3.30999999164305;332;100 mA
59.6202958494732;-0.799560546875;-0.086578369140625;3.31999999161781;333;100 mA
59.630295849448;-0.79925537109375;-0.0863037109375;3.32999999159256;334;100 mA
59.6402958494227;-0.799560546875;-0.086700439453125;3.33999999156731;335;100 mA
59.6502958493975;-0.799560546875;-0.0863037109375;3.34999999154206;336;100 mA
59.6602958493722;-0.799560546875;-0.0865478515625;3.35999999151682;337;100 mA
59.670295849347;-0.799560546875;-0.0860595703125;3.36999999149157;338;100 mA
59.6802958493217;-0.8001708984375;-0.086822509765625;3.37999999146632;339;100 mA
59.6902958492965;-0.79925537109375;-0.08624267578125;3.38999999144107;340;100 mA
59.7002958492712;-0.799560546875;-0.08636474609375;3.39999999141583;341;100 mA
59.710295849246;-0.79925537109375;-0.08599853515625;3.40999999139058;342;100 mA
59.7202958492207;-0.7989501953125;-0.085968017578125;3.41999999136533;343;100 mA
59.7302958491955;-0.799560546875;-0.08538818359375;3.42999999134008;344;100 mA
59.7402958491703;-0.79986572265625;-0.085784912109375;3.43999999131483;345;100 mA
59.750295849145;-0.799560546875;-0.08575439453125;3.44999999128959;346;100 mA
59.7602958491198;-0.79986572265625;-0.085968017578125;3.45999999126434;347;100 mA
59.7702958490945;-0.79986572265625;-0.085662841796875;3.46999999123909;348;100 mA
59.7802958490693;-0.799560546875;-0.08575439453125;3.47999999121384;349;100 mA
59.790295849044;-0.79864501953125;-0.085662841796875;3.4899999911886;350;100 mA
59.8002958490188;-0.79925537109375;-0.086029052734375;3.49999999116335;351;100 mA
59.8102958489935;-0.799560546875;-0.08544921875;3.5099999911381;352;100 mA
59.8202958489683;-0.79925537109375;-0.085784912109375;3.51999999111285;353;100 mA
59.830295848943;-0.79925537109375;-0.08544921875;3.52999999108761;354;100 mA
59.8402958489178;-0.8001708984375;-0.085601806640625;3.53999999106236;355;100 mA
59.8502958488925;-0.799560546875;-0.0849609375;3.54999999103711;356;100 mA
59.8602958488673;-0.799560546875;-0.085845947265625;3.55999999101186;357;100 mA
59.870295848842;-0.7989501953125;-0.085662841796875;3.56999999098662;358;100 mA
59.8802958488168;-0.799560546875;-0.085845947265625;3.57999999096137;359;100 mA
59.8902958487915;-0.799560546875;-0.08544921875;3.58999999093612;360;100 mA
59.9002958487663;-0.799560546875;-0.08538818359375;3.59999999091087;361;100 mA
59.910295848741;-0.7989501953125;-0.0850830078125;3.60999999088563;362;100 mA
59.9202958487158;-0.8001708984375;-0.085052490234375;3.61999999086038;363;100 mA
59.9302958486905;-0.79925537109375;-0.0848388671875;3.62999999083513;364;100 mA
59.9402958486653;-0.79925537109375;-0.08526611328125;3.63999999080988;365;100 mA
59.9502958486401;-0.79925537109375;-0.084991455078125;3.64999999078464;366;100 mA
59.9602958486148;-0.799560546875;-0.0853271484375;3.65999999075939;367;100 mA
59.9702958485896;-0.79925537109375;-0.08502197265625;3.66999999073414;368;100 mA
59.9802958485643;-0.7989501953125;-0.08575439453125;3.67999999070889;369;100 mA
59.9902958485391;-0.79925537109375;-0.0850830078125;3.68999999068365;370;100 mA
60.0002958485138;-0.799560546875;-0.085418701171875;3.6999999906584;371;100 mA
60.0102958484886;-0.79925537109375;-0.085174560546875;3.70999999063315;372;100 mA
60.0202958484633;-0.79986572265625;-0.08526611328125;3.7199999906079;373;100 mA
60.0302958484381;-0.799560546875;-0.084716796875;3.72999999058266;374;100 mA
60.0402958484128;-0.799560546875;-0.085113525390625;3.73999999055741;375;100 mA
60.0502958483876;-0.799560546875;-0.084991455078125;3.74999999053216;376;100 mA
60.0602958483623;-0.799560546875;-0.085235595703125;3.75999999050691;377;100 mA
60.0702958483371;-0.79925537109375;-0.084930419921875;3.76999999048167;378;100 mA
60.0802958483118;-0.79925537109375;-0.084991455078125;3.77999999045642;379;100 mA
60.0902958482866;-0.80047607421875;-0.084869384765625;3.78999999043117;380;100 mA
60.1002958482613;-0.79925537109375;-0.085052490234375;3.79999999040592;381;100 mA
60.1102958482361;-0.79986572265625;-0.08453369140625;3.80999999038067;382;100 mA
60.1202958482108;-0.799560546875;-0.0848388671875;3.81999999035543;383;100 mA
60.1302958481856;-0.79986572265625;-0.084381103515625;3.82999999033018;384;100 mA
60.1402958481603;-0.7989501953125;-0.084320068359375;3.83999999030493;385;100 mA
60.1502958481351;-0.79925537109375;-0.083587646484375;3.84999999027968;386;100 mA
60.1602958481099;-0.799560546875;-0.08428955078125;3.85999999025444;387;100 mA
60.1702958480846;-0.79925537109375;-0.083831787109375;3.86999999022919;388;100 mA
60.1802958480594;-0.79925537109375;-0.083892822265625;3.87999999020394;389;100 mA
60.1902958480341;-0.79986572265625;-0.08349609375;3.88999999017869;390;100 mA
60.2002958480089;-0.799560546875;-0.083526611328125;3.89999999015345;391;100 mA
60.2102958479836;-0.79925537109375;-0.083221435546875;3.9099999901282;392;100 mA
60.2202958479584;-0.79986572265625;-0.0833740234375;3.91999999010295;393;100 mA
60.2302958479331;-0.799560546875;-0.08331298828125;3.9299999900777;394;100 mA
60.2402958479079;-0.79925537109375;-0.083953857421875;3.93999999005246;395;100 mA
60.2502958478826;-0.799560546875;-0.083709716796875;3.94999999002721;396;100 mA
60.2602958478574;-0.79925537109375;-0.083892822265625;3.95999999000196;397;100 mA
60.2702958478321;-0.79925537109375;-0.083587646484375;3.96999998997671;398;100 mA
60.2802958478069;-0.79925537109375;-0.0843505859375;3.97999998995147;399;100 mA
60.2902958477816;-0.7989501953125;-0.08404541015625;3.98999998992622;400;100 mA
60.3002958477564;-0.79925537109375;-0.0845947265625;3.99999998990097;401;100 mA
60.3102958477311;-0.799560546875;-0.08465576171875;4.00999998987572;402;100 mA
60.3202958477059;-0.799560546875;-0.0848388671875;4.01999998985048;403;100 mA
60.3302958476806;-0.799560546875;-0.084197998046875;4.02999998982523;404;100 mA
60.3402958476554;-0.7989501953125;-0.08453369140625;4.03999998979998;405;100 mA
60.3502958476302;-0.79986572265625;-0.084503173828125;4.04999998977473;406;100 mA
60.3602958476049;-0.79925537109375;-0.08489990234375;4.05999998974949;407;100 mA
60.3702958475797;-0.79925537109375;-0.08502197265625;4.06999998972424;408;100 mA
60.3802958475544;-0.79925537109375;-0.085235595703125;4.07999998969899;409;100 mA
60.3902958475292;-0.79925537109375;-0.0853271484375;4.08999998967374;410;100 mA
60.4002958475039;-0.799560546875;-0.08544921875;4.0999999896485;411;100 mA
60.4102958474787;-0.7989501953125;-0.08502197265625;4.10999998962325;412;100 mA
60.4202958474534;-0.79986572265625;-0.08526611328125;4.119999989598;413;100 mA
60.4302958474282;-0.799560546875;-0.0848388671875;4.12999998957275;414;100 mA
60.4402958474029;-0.799560546875;-0.084747314453125;4.1399999895475;415;100 mA
60.4502958473777;-0.79925537109375;-0.084014892578125;4.14999998952226;416;100 mA
60.4602958473524;-0.799560546875;-0.08465576171875;4.15999998949701;417;100 mA
60.4702958473272;-0.79925537109375;-0.084320068359375;4.16999998947176;418;100 mA
60.4802958473019;-0.79986572265625;-0.084442138671875;4.17999998944651;419;100 mA
60.4902958472767;-0.79925537109375;-0.083984375;4.18999998942127;420;100 mA
60.5002958472514;-0.799560546875;-0.083831787109375;4.19999998939602;421;100 mA
60.5102958472262;-0.79925537109375;-0.0833740234375;4.20999998937077;422;100 mA
60.5202958472009;-0.799560546875;-0.08331298828125;4.21999998934552;423;100 mA
60.5302958471757;-0.79864501953125;-0.08306884765625;4.22999998932028;424;100 mA
60.5402958471504;-0.79925537109375;-0.083526611328125;4.23999998929503;425;100 mA
60.5502958471252;-0.799560546875;-0.083160400390625;4.24999998926978;426;100 mA
60.5602958471;-0.79925537109375;-0.0833740234375;4.25999998924453;427;100 mA
60.5702958470747;-0.799560546875;-0.083282470703125;4.26999998921929;428;100 mA
60.5802958470495;-0.799560546875;-0.084075927734375;4.27999998919404;429;100 mA
60.5902958470242;-0.79925537109375;-0.083892822265625;4.28999998916879;430;100 mA
60.600295846999;-0.8001708984375;-0.08441162109375;4.29999998914354;431;100 mA
60.6102958469737;-0.799560546875;-0.084259033203125;4.3099999891183;432;100 mA
60.6202958469485;-0.799560546875;-0.0843505859375;4.31999998909305;433;100 mA
60.6302958469232;-0.799560546875;-0.0836181640625;4.3299999890678;434;100 mA
60.640295846898;-0.79925537109375;-0.083984375;4.33999998904255;435;100 mA
60.6502958468727;-0.79925537109375;-0.0838623046875;4.34999998901731;436;100 mA
60.6602958468475;-0.8001708984375;-0.084075927734375;4.35999998899206;437;100 mA
60.6702958468222;-0.79986572265625;-0.084014892578125;4.36999998896681;438;100 mA
60.680295846797;-0.799560546875;-0.084228515625;4.37999998894156;439;100 mA
60.6902958467717;-0.799560546875;-0.084320068359375;4.38999998891632;440;100 mA
60.7002958467465;-0.7989501953125;-0.08453369140625;4.39999998889107;441;100 mA
60.7102958467212;-0.79925537109375;-0.08428955078125;4.40999998886582;442;100 mA
60.720295846696;-0.79925537109375;-0.084716796875;4.41999998884057;443;100 mA
60.7302958466707;-0.79925537109375;-0.08441162109375;4.42999998881533;444;100 mA
60.7402958466455;-0.79986572265625;-0.084381103515625;4.43999998879008;445;100 mA
60.7502958466202;-0.79925537109375;-0.083587646484375;4.44999998876483;446;100 mA
60.760295846595;-0.7989501953125;-0.084075927734375;4.45999998873958;447;100 mA
60.7702958465698;-0.79986572265625;-0.08355712890625;4.46999998871433;448;100 mA
60.7802958465445;-0.799560546875;-0.083709716796875;4.47999998868909;449;100 mA
60.7902958465193;-0.8001708984375;-0.083465576171875;4.48999998866384;450;100 mA
60.800295846494;-0.79925537109375;-0.0836181640625;4.49999998863859;451;100 mA
60.8102958464688;-0.7989501953125;-0.083404541015625;4.50999998861334;452;100 mA
60.8202958464435;-0.79986572265625;-0.08355712890625;4.5199999885881;453;100 mA
60.8302958464183;-0.799560546875;-0.0833740234375;4.52999998856285;454;100 mA
60.840295846393;-0.7989501953125;-0.083831787109375;4.5399999885376;455;100 mA
60.8502958463678;-0.79925537109375;-0.0836181640625;4.54999998851235;456;100 mA
60.8602958463425;-0.79925537109375;-0.083740234375;4.55999998848711;457;100 mA
60.8702958463173;-0.799560546875;-0.083526611328125;4.56999998846186;458;100 mA
60.880295846292;-0.799560546875;-0.084075927734375;4.57999998843661;459;100 mA
60.8902958462668;-0.79925537109375;-0.0836181640625;4.58999998841136;460;100 mA
60.9002958462415;-0.79925537109375;-0.084014892578125;4.59999998838612;461;100 mA
60.9102958462163;-0.799560546875;-0.08367919921875;4.60999998836087;462;100 mA
60.920295846191;-0.79925537109375;-0.08367919921875;4.61999998833562;463;100 mA
60.9302958461658;-0.799560546875;-0.0830078125;4.62999998831037;464;100 mA
60.9402958461405;-0.79925537109375;-0.08343505859375;4.63999998828513;465;100 mA
60.9502958461153;-0.799560546875;-0.08331298828125;4.64999998825988;466;100 mA
60.96029584609;-0.79986572265625;-0.08343505859375;4.65999998823463;467;100 mA
60.9702958460648;-0.799560546875;-0.083099365234375;4.66999998820938;468;100 mA
60.9802958460396;-0.8001708984375;-0.08306884765625;4.67999998818414;469;100 mA
60.9902958460143;-0.799560546875;-0.082977294921875;4.68999998815889;470;100 mA
61.0002958459891;-0.7989501953125;-0.083099365234375;4.69999998813364;471;100 mA
61.0102958459638;-0.79986572265625;-0.0828857421875;4.70999998810839;472;100 mA
61.0202958459386;-0.799560546875;-0.08331298828125;4.71999998808315;473;100 mA
61.0302958459133;-0.79925537109375;-0.08306884765625;4.7299999880579;474;100 mA
61.0402958458881;-0.79986572265625;-0.08306884765625;4.73999998803265;475;100 mA
61.0502958458628;-0.799560546875;-0.082489013671875;4.7499999880074;476;100 mA
61.0602958458376;-0.799560546875;-0.0831298828125;4.75999998798216;477;100 mA
61.0702958458123;-0.799560546875;-0.082916259765625;4.76999998795691;478;100 mA
61.0802958457871;-0.79986572265625;-0.083251953125;4.77999998793166;479;100 mA
61.0902958457618;-0.799560546875;-0.083160400390625;4.78999998790641;480;100 mA
61.1002958457366;-0.799560546875;-0.08331298828125;4.79999998788116;481;100 mA
61.1102958457113;-0.799560546875;-0.082855224609375;4.80999998785592;482;100 mA
61.1202958456861;-0.799560546875;-0.082794189453125;4.81999998783067;483;100 mA
61.1302958456608;-0.79986572265625;-0.08258056640625;4.82999998780542;484;100 mA
61.1402958456356;-0.799560546875;-0.083038330078125;4.83999998778017;485;100 mA
61.1502958456103;-0.799560546875;-0.082855224609375;4.84999998775493;486;100 mA
61.1602958455851;-0.79925537109375;-0.083038330078125;4.85999998772968;487;100 mA
61.1702958455598;-0.79986572265625;-0.0828857421875;4.86999998770443;488;100 mA
61.1802958455346;-0.799560546875;-0.083526611328125;4.87999998767918;489;100 mA
61.1902958455094;-0.79986572265625;-0.083221435546875;4.88999998765394;490;100 mA
61.2002958454841;-0.7989501953125;-0.083709716796875;4.89999998762869;491;100 mA
61.2102958454589;-0.79925537109375;-0.083465576171875;4.90999998760344;492;100 mA
61.2202958454336;-0.79986572265625;-0.083343505859375;4.91999998757819;493;100 mA
61.2302958454084;-0.79925537109375;-0.08251953125;4.92999998755295;494;100 mA
61.2402958453831;-0.79925537109375;-0.08270263671875;4.9399999875277;495;100 mA
61.2502958453579;-0.799560546875;-0.08251953125;4.94999998750245;496;100 mA
61.2602958453326;-0.799560546875;-0.0826416015625;4.9599999874772;497;100 mA
61.2702958453074;-0.79925537109375;-0.082427978515625;4.96999998745196;498;100 mA
61.2802958452821;-0.799560546875;-0.082427978515625;4.97999998742671;499;100 mA
61.2902958452569;-0.7989501953125;-0.082305908203125;4.98999998740146;500;100 mA
61.3002958452316;-0.799560546875;-0.0823974609375;4.99999998737621;501;100 mA
61.3102958452064;-0.799560546875;-0.082244873046875;5.00999998735097;502;100 mA
61.3202958451811;-0.79925537109375;-0.082763671875;5.01999998732572;503;100 mA
61.3302958451559;-0.79925537109375;-0.082733154296875;5.02999998730047;504;100 mA
61.3402958451306;-0.799560546875;-0.082977294921875;5.03999998727522;505;100 mA
61.3502958451054;-0.79925537109375;-0.082611083984375;5.04999998724998;506;100 mA
61.3602958450801;-0.79986572265625;-0.083251953125;5.05999998722473;507;100 mA
61.3702958450549;-0.799560546875;-0.082855224609375;5.06999998719948;508;100 mA
61.3802958450297;-0.79925537109375;-0.082855224609375;5.07999998717423;509;100 mA
61.3902958450044;-0.799560546875;-0.082489013671875;5.08999998714899;510;100 mA
61.4002958449792;-0.799560546875;-0.0823974609375;5.09999998712374;511;100 mA
61.4102958449539;-0.8001708984375;-0.08184814453125;5.10999998709849;512;100 mA
61.4202958449287;-0.799560546875;-0.081695556640625;5.11999998707324;513;100 mA
61.4302958449034;-0.799560546875;-0.08135986328125;5.129999987048;514;100 mA
61.4402958448782;-0.799560546875;-0.08154296875;5.13999998702275;515;100 mA
61.4502958448529;-0.79925537109375;-0.081268310546875;5.1499999869975;516;100 mA
61.4602958448277;-0.799560546875;-0.081329345703125;5.15999998697225;517;100 mA
61.4702958448024;-0.799560546875;-0.081024169921875;5.169999986947;518;100 mA
61.4802958447772;-0.79925537109375;-0.081390380859375;5.17999998692176;519;100 mA
61.4902958447519;-0.799560546875;-0.08087158203125;5.18999998689651;520;100 mA
61.5002958447267;-0.79925537109375;-0.0811767578125;5.19999998687126;521;100 mA
61.5102958447014;-0.799560546875;-0.081024169921875;5.20999998684601;522;100 mA
61.5202958446762;-0.79925537109375;-0.08099365234375;5.21999998682077;523;100 mA
61.5302958446509;-0.79925537109375;-0.080413818359375;5.22999998679552;524;100 mA
61.5402958446257;-0.79986572265625;-0.080810546875;5.23999998677027;525;100 mA
61.5502958446004;-0.799560546875;-0.080657958984375;5.24999998674502;526;100 mA
61.5602958445752;-0.79925537109375;-0.08056640625;5.25999998671978;527;100 mA
61.5702958445499;-0.79925537109375;-0.080230712890625;5.26999998669453;528;100 mA
61.5802958445247;-0.799560546875;-0.0802001953125;5.27999998666928;529;100 mA
61.5902958444995;-0.79925537109375;-0.08013916015625;5.28999998664403;530;100 mA
61.6002958444742;-0.79986572265625;-0.08013916015625;5.29999998661879;531;100 mA
61.610295844449;-0.799560546875;-0.079864501953125;5.30999998659354;532;100 mA
61.6202958444237;-0.79925537109375;-0.0802001953125;5.31999998656829;533;100 mA
61.6302958443985;-0.79925537109375;-0.0799560546875;5.32999998654304;534;100 mA
61.6402958443732;-0.79986572265625;-0.08001708984375;5.3399999865178;535;100 mA
61.650295844348;-0.79986572265625;-0.07958984375;5.34999998649255;536;100 mA
61.6602958443227;-0.79986572265625;-0.080230712890625;5.3599999864673;537;100 mA
61.6702958442975;-0.799560546875;-0.0799560546875;5.36999998644205;538;100 mA
61.6802958442722;-0.79925537109375;-0.080108642578125;5.37999998641681;539;100 mA
61.690295844247;-0.79925537109375;-0.0799560546875;5.38999998639156;540;100 mA
61.7002958442217;-0.799560546875;-0.08001708984375;5.39999998636631;541;100 mA
61.7102958441965;-0.8001708984375;-0.079742431640625;5.40999998634106;542;100 mA
61.7202958441712;-0.79986572265625;-0.07977294921875;5.41999998631582;543;100 mA
61.730295844146;-0.799560546875;-0.079559326171875;5.42999998629057;544;100 mA
61.7402958441207;-0.79986572265625;-0.079833984375;5.43999998626532;545;100 mA
61.7502958440955;-0.799560546875;-0.0797119140625;5.44999998624007;546;100 mA
61.7602958440702;-0.79925537109375;-0.0799560546875;5.45999998621483;547;100 mA
61.770295844045;-0.7989501953125;-0.0799560546875;5.46999998618958;548;100 mA
61.7802958440197;-0.799560546875;-0.080535888671875;5.47999998616433;549;100 mA
61.7902958439945;-0.799560546875;-0.0802001953125;5.48999998613908;550;100 mA
61.8002958439693;-0.7989501953125;-0.080596923828125;5.49999998611383;551;100 mA
61.810295843944;-0.79986572265625;-0.0804443359375;5.50999998608859;552;100 mA
61.8202958439188;-0.7989501953125;-0.080413818359375;5.51999998606334;553;100 mA
61.8302958438935;-0.799560546875;-0.079833984375;5.52999998603809;554;100 mA
61.8402958438683;-0.79925537109375;-0.080230712890625;5.53999998601284;555;100 mA
61.850295843843;-0.79986572265625;-0.0799560546875;5.5499999859876;556;100 mA
61.8602958438178;-0.7989501953125;-0.079864501953125;5.55999998596235;557;100 mA
61.8702958437925;-0.799560546875;-0.079559326171875;5.5699999859371;558;100 mA
61.8802958437673;-0.7989501953125;-0.07952880859375;5.57999998591185;559;100 mA
61.890295843742;-0.79925537109375;-0.079498291015625;5.58999998588661;560;100 mA
61.9002958437168;-0.79925537109375;-0.07958984375;5.59999998586136;561;100 mA
61.9102958436915;-0.79925537109375;-0.07940673828125;5.60999998583611;562;100 mA
61.9202958436663;-0.79925537109375;-0.079833984375;5.61999998581086;563;100 mA
61.930295843641;-0.79925537109375;-0.079833984375;5.62999998578562;564;100 mA
61.9402958436158;-0.799560546875;-0.0802001953125;5.63999998576037;565;100 mA
61.9502958435905;-0.7989501953125;-0.07989501953125;5.64999998573512;566;100 mA
61.9602958435653;-0.79925537109375;-0.080413818359375;5.65999998570987;567;100 mA
61.97029584354;-0.79925537109375;-0.079925537109375;5.66999998568463;568;100 mA
61.9802958435148;-0.79925537109375;-0.079833984375;5.67999998565938;569;100 mA
61.9902958434895;-0.799560546875;-0.079559326171875;5.68999998563413;570;100 mA
62.0002958434643;-0.79986572265625;-0.0794677734375;5.69999998560888;571;100 mA
62.0102958434391;-0.79925537109375;-0.07904052734375;5.70999998558364;572;100 mA
62.0202958434138;-0.79986572265625;-0.07904052734375;5.71999998555839;573;100 mA
62.0302958433886;-0.79925537109375;-0.078826904296875;5.72999998553314;574;100 mA
62.0402958433633;-0.799560546875;-0.07904052734375;5.73999998550789;575;100 mA
62.0502958433381;-0.79925537109375;-0.078857421875;5.74999998548265;576;100 mA
62.0602958433128;-0.79925537109375;-0.078887939453125;5.7599999854574;577;100 mA
62.0702958432876;-0.799560546875;-0.07879638671875;5.76999998543215;578;100 mA
62.0802958432623;-0.79925537109375;-0.0791015625;5.7799999854069;579;100 mA
62.0902958432371;-0.799560546875;-0.07879638671875;5.78999998538166;580;100 mA
62.1002958432118;-0.79925537109375;-0.079193115234375;5.79999998535641;581;100 mA
62.1102958431866;-0.79925537109375;-0.07916259765625;5.80999998533116;582;100 mA
62.1202958431613;-0.79925537109375;-0.079315185546875;5.81999998530591;583;100 mA
62.1302958431361;-0.799560546875;-0.078826904296875;5.82999998528066;584;100 mA
62.1402958431108;-0.799560546875;-0.07940673828125;5.83999998525542;585;100 mA
62.1502958430856;-0.79925537109375;-0.079376220703125;5.84999998523017;586;100 mA
62.1602958430603;-0.79986572265625;-0.079498291015625;5.85999998520492;587;100 mA
62.1702958430351;-0.79986572265625;-0.079345703125;5.86999998517967;588;100 mA
62.1802958430098;-0.79986572265625;-0.079345703125;5.87999998515443;589;100 mA
62.1902958429846;-0.799560546875;-0.079254150390625;5.88999998512918;590;100 mA
62.2002958429593;-0.79986572265625;-0.07928466796875;5.89999998510393;591;100 mA
62.2102958429341;-0.799560546875;-0.07916259765625;5.90999998507868;592;100 mA
62.2202958429089;-0.799560546875;-0.079498291015625;5.91999998505344;593;100 mA
62.2302958428836;-0.79925537109375;-0.079345703125;5.92999998502819;594;100 mA
62.2402958428584;-0.79925537109375;-0.079620361328125;5.93999998500294;595;100 mA
62.2502958428331;-0.799560546875;-0.0794677734375;5.94999998497769;596;100 mA
62.2602958428079;-0.799560546875;-0.0802001953125;5.95999998495245;597;100 mA
62.2702958427826;-0.79925537109375;-0.0799560546875;5.9699999849272;598;100 mA
62.2802958427574;-0.799560546875;-0.08001708984375;5.97999998490195;599;100 mA
62.2902958427321;-0.8001708984375;-0.079681396484375;5.9899999848767;600;100 mA
62.3002958427069;-0.79986572265625;-0.0794677734375;5.99999998485146;601;100 mA
62.3102958426816;-0.79986572265625;-0.079010009765625;6.00999998482621;602;100 mA
62.3202958426564;-0.799560546875;-0.079071044921875;6.01999998480096;603;100 mA
62.3302958426311;-0.7989501953125;-0.07891845703125;6.02999998477571;604;100 mA
62.3402958426059;-0.79925537109375;-0.079010009765625;6.03999998475047;605;100 mA
62.3502958425806;-0.79986572265625;-0.078857421875;6.04999998472522;606;100 mA
62.3602958425554;-0.799560546875;-0.078826904296875;6.05999998469997;607;100 mA
62.3702958425301;-0.79925537109375;-0.07867431640625;6.06999998467472;608;100 mA
62.3802958425049;-0.79925537109375;-0.078826904296875;6.07999998464948;609;100 mA
62.3902958424796;-0.799560546875;-0.07843017578125;6.08999998462423;610;100 mA
62.4002958424544;-0.799560546875;-0.078765869140625;6.09999998459898;611;100 mA
62.4102958424292;-0.799560546875;-0.07861328125;6.10999998457373;612;100 mA
62.4202958424039;-0.79986572265625;-0.078643798828125;6.11999998454849;613;100 mA
62.4302958423787;-0.799560546875;-0.078094482421875;6.12999998452324;614;100 mA
62.4402958423534;-0.79925537109375;-0.078521728515625;6.13999998449799;615;100 mA
62.4502958423282;-0.79986572265625;-0.07830810546875;6.14999998447274;616;100 mA
62.4602958423029;-0.79986572265625;-0.07830810546875;6.1599999844475;617;100 mA
62.4702958422777;-0.7989501953125;-0.078033447265625;6.16999998442225;618;100 mA
62.4802958422524;-0.79925537109375;-0.077972412109375;6.179999984397;619;100 mA
62.4902958422272;-0.799560546875;-0.077850341796875;6.18999998437175;620;100 mA
62.5002958422019;-0.79925537109375;-0.077880859375;6.1999999843465;621;100 mA
62.5102958421767;-0.799560546875;-0.07781982421875;6.20999998432126;622;100 mA
62.5202958421514;-0.79925537109375;-0.07830810546875;6.21999998429601;623;100 mA
62.5302958421262;-0.799560546875;-0.07830810546875;6.22999998427076;624;100 mA
62.5402958421009;-0.79925537109375;-0.078582763671875;6.23999998424551;625;100 mA
62.5502958420757;-0.799560546875;-0.078399658203125;6.24999998422027;626;100 mA
62.5602958420504;-0.799560546875;-0.0789794921875;6.25999998419502;627;100 mA
62.5702958420252;-0.79986572265625;-0.07867431640625;6.26999998416977;628;100 mA
62.5802958419999;-0.799560546875;-0.07879638671875;6.27999998414452;629;100 mA
62.5902958419747;-0.799560546875;-0.07867431640625;6.28999998411928;630;100 mA
62.6002958419494;-0.79925537109375;-0.0787353515625;6.29999998409403;631;100 mA
62.6102958419242;-0.799560546875;-0.078369140625;6.30999998406878;632;100 mA
62.620295841899;-0.79925537109375;-0.07843017578125;6.31999998404353;633;100 mA
62.6302958418737;-0.799560546875;-0.078216552734375;6.32999998401829;634;100 mA
62.6402958418485;-0.79925537109375;-0.07830810546875;6.33999998399304;635;100 mA
62.6502958418232;-0.799560546875;-0.078216552734375;6.34999998396779;636;100 mA
62.660295841798;-0.799560546875;-0.07830810546875;6.35999998394254;637;100 mA
62.6702958417727;-0.8001708984375;-0.078399658203125;6.3699999839173;638;100 mA
62.6802958417475;-0.79986572265625;-0.078765869140625;6.37999998389205;639;100 mA
62.6902958417222;-0.799560546875;-0.078643798828125;6.3899999838668;640;100 mA
62.700295841697;-0.7989501953125;-0.079132080078125;6.39999998384155;641;100 mA
62.7102958416717;-0.8001708984375;-0.079193115234375;6.40999998381631;642;100 mA
62.7202958416465;-0.799560546875;-0.079315185546875;6.41999998379106;643;100 mA
62.7302958416212;-0.79986572265625;-0.078887939453125;6.42999998376581;644;100 mA
62.740295841596;-0.7989501953125;-0.079376220703125;6.43999998374056;645;100 mA
62.7502958415707;-0.799560546875;-0.0792236328125;6.44999998371532;646;100 mA
62.7602958415455;-0.79925537109375;-0.079193115234375;6.45999998369007;647;100 mA
62.7702958415202;-0.79925537109375;-0.079010009765625;6.46999998366482;648;100 mA
62.780295841495;-0.79925537109375;-0.0789794921875;6.47999998363957;649;100 mA
62.7902958414697;-0.799560546875;-0.078887939453125;6.48999998361433;650;100 mA
62.8002958414445;-0.79986572265625;-0.078826904296875;6.49999998358908;651;100 mA
62.8102958414192;-0.79986572265625;-0.078582763671875;6.50999998356383;652;100 mA
62.820295841394;-0.799560546875;-0.0789794921875;6.51999998353858;653;100 mA
62.8302958413688;-0.79986572265625;-0.07904052734375;6.52999998351333;654;100 mA
62.8402958413435;-0.799560546875;-0.07952880859375;6.53999998348809;655;100 mA
62.8502958413183;-0.79925537109375;-0.07958984375;6.54999998346284;656;100 mA
62.860295841293;-0.79925537109375;-0.080291748046875;6.55999998343759;657;100 mA
62.8702958412678;-0.79925537109375;-0.08001708984375;6.56999998341234;658;100 mA
62.8802958412425;-0.79986572265625;-0.080108642578125;6.5799999833871;659;100 mA
62.8902958412173;-0.799560546875;-0.080047607421875;6.58999998336185;660;100 mA
62.900295841192;-0.79925537109375;-0.080108642578125;6.5999999833366;661;100 mA
62.9102958411668;-0.799560546875;-0.07977294921875;6.60999998331135;662;100 mA
62.9202958411415;-0.79986572265625;-0.079833984375;6.61999998328611;663;100 mA
62.9302958411163;-0.79986572265625;-0.079559326171875;6.62999998326086;664;100 mA
62.940295841091;-0.799560546875;-0.0794677734375;6.63999998323561;665;100 mA
62.9502958410658;-0.799560546875;-0.079376220703125;6.64999998321036;666;100 mA
62.9602958410405;-0.79986572265625;-0.0794677734375;6.65999998318512;667;100 mA
62.9702958410153;-0.79986572265625;-0.079559326171875;6.66999998315987;668;100 mA
62.98029584099;-0.79925537109375;-0.079803466796875;6.67999998313462;669;100 mA
62.9902958409648;-0.799560546875;-0.079620361328125;6.68999998310937;670;100 mA
63.0002958409395;-0.79986572265625;-0.079986572265625;6.69999998308413;671;100 mA
63.0102958409143;-0.79986572265625;-0.080047607421875;6.70999998305888;672;100 mA
63.020295840889;-0.799560546875;-0.080169677734375;6.71999998303363;673;100 mA
63.0302958408638;-0.799560546875;-0.079742431640625;6.72999998300838;674;100 mA
63.0402958408386;-0.79986572265625;-0.080169677734375;6.73999998298314;675;100 mA
63.0502958408133;-0.79986572265625;-0.08001708984375;6.74999998295789;676;100 mA
63.0602958407881;-0.7989501953125;-0.080047607421875;6.75999998293264;677;100 mA
63.0702958407628;-0.799560546875;-0.08001708984375;6.76999998290739;678;100 mA
63.0802958407376;-0.79925537109375;-0.080047607421875;6.77999998288215;679;100 mA
63.0902958407123;-0.79986572265625;-0.079925537109375;6.7899999828569;680;100 mA
63.1002958406871;-0.799560546875;-0.079803466796875;6.79999998283165;681;100 mA
63.1102958406618;-0.79925537109375;-0.079559326171875;6.8099999828064;682;100 mA
63.1202958406366;-0.799560546875;-0.079833984375;6.81999998278116;683;100 mA
63.1302958406113;-0.79925537109375;-0.079803466796875;6.82999998275591;684;100 mA
63.1402958405861;-0.7989501953125;-0.079986572265625;6.83999998273066;685;100 mA
63.1502958405608;-0.7989501953125;-0.079742431640625;6.84999998270541;686;100 mA
63.1602958405356;-0.799560546875;-0.080169677734375;6.85999998268016;687;100 mA
63.1702958405103;-0.79986572265625;-0.07977294921875;6.86999998265492;688;100 mA
63.1802958404851;-0.79986572265625;-0.07977294921875;6.87999998262967;689;100 mA
63.1902958404598;-0.799560546875;-0.079559326171875;6.88999998260442;690;100 mA
63.2002958404346;-0.79925537109375;-0.079345703125;6.89999998257917;691;100 mA
63.2102958404093;-0.79925537109375;-0.07879638671875;6.90999998255393;692;100 mA
63.2202958403841;-0.79986572265625;-0.078887939453125;6.91999998252868;693;100 mA
63.2302958403588;-0.79986572265625;-0.078826904296875;6.92999998250343;694;100 mA
63.2402958403336;-0.799560546875;-0.078948974609375;6.93999998247818;695;100 mA
63.2502958403084;-0.79986572265625;-0.079071044921875;6.94999998245294;696;100 mA
63.2602958402831;-0.79986572265625;-0.079315185546875;6.95999998242769;697;100 mA
63.2702958402579;-0.79925537109375;-0.07952880859375;6.96999998240244;698;100 mA
63.2802958402326;-0.799560546875;-0.079803466796875;6.97999998237719;699;100 mA
63.2902958402074;-0.79925537109375;-0.079620361328125;6.98999998235195;700;100 mA
