Time (s);WE(1).Potential (V);WE(1).Current (A);Corrected time (s);Index;Current range
79.1198598002416;-0.89996337890625;-0.331390380859375;0;1;100 mA
79.1298598002163;-0.89996337890625;-0.2462158203125;0.00999999997475243;2;100 mA
79.1398598001911;-0.899658203125;-0.204925537109375;0.0199999999495049;3;100 mA
79.1498598001658;-0.899658203125;-0.178802490234375;0.0299999999242573;4;100 mA
79.1598598001406;-0.899658203125;-0.160980224609375;0.0399999998990097;5;100 mA
79.1698598001153;-0.89935302734375;-0.14862060546875;0.0499999998737621;6;100 mA
79.1798598000901;-0.89935302734375;-0.140380859375;0.0599999998485146;7;100 mA
79.1898598000648;-0.8990478515625;-0.13323974609375;0.069999999823267;8;100 mA
79.1998598000396;-0.89935302734375;-0.127227783203125;0.0799999997980194;9;100 mA
79.2098598000143;-0.8990478515625;-0.121826171875;0.0899999997727718;10;100 mA
79.2198597999891;-0.899658203125;-0.11785888671875;0.0999999997475243;11;100 mA
79.2298597999638;-0.89996337890625;-0.114288330078125;0.109999999722277;12;100 mA
79.2398597999386;-0.8990478515625;-0.11199951171875;0.119999999697029;13;100 mA
79.2498597999133;-0.89935302734375;-0.109405517578125;0.129999999671782;14;100 mA
79.2598597998881;-0.899658203125;-0.1072998046875;0.139999999646534;15;100 mA
79.2698597998628;-0.899658203125;-0.105194091796875;0.149999999621286;16;100 mA
79.2798597998376;-0.89874267578125;-0.103302001953125;0.159999999596039;17;100 mA
79.2898597998123;-0.89935302734375;-0.101654052734375;0.169999999570791;18;100 mA
79.2998597997871;-0.89935302734375;-0.101104736328125;0.179999999545544;19;100 mA
79.3098597997619;-0.89935302734375;-0.09967041015625;0.189999999520296;20;100 mA
79.3198597997366;-0.89935302734375;-0.0987548828125;0.199999999495049;21;100 mA
79.3298597997114;-0.899658203125;-0.09735107421875;0.209999999469801;22;100 mA
79.3398597996861;-0.89996337890625;-0.096710205078125;0.219999999444553;23;100 mA
79.3498597996609;-0.899658203125;-0.09503173828125;0.229999999419306;24;100 mA
79.3598597996356;-0.899658203125;-0.095367431640625;0.239999999394058;25;100 mA
79.3698597996104;-0.899658203125;-0.094512939453125;0.249999999368811;26;100 mA
79.3798597995851;-0.89996337890625;-0.09423828125;0.259999999343563;27;100 mA
79.3898597995599;-0.899658203125;-0.093109130859375;0.269999999318316;28;100 mA
79.3998597995346;-0.899658203125;-0.093414306640625;0.279999999293068;29;100 mA
79.4098597995094;-0.899658203125;-0.09295654296875;0.28999999926782;30;100 mA
79.4198597994841;-0.89935302734375;-0.09320068359375;0.299999999242573;31;100 mA
79.4298597994589;-0.899658203125;-0.0927734375;0.309999999217325;32;100 mA
79.4398597994336;-0.89935302734375;-0.092803955078125;0.319999999192078;33;100 mA
79.4498597994084;-0.89874267578125;-0.092376708984375;0.32999999916683;34;100 mA
79.4598597993831;-0.899658203125;-0.092041015625;0.339999999141583;35;100 mA
79.4698597993579;-0.89935302734375;-0.091461181640625;0.349999999116335;36;100 mA
79.4798597993326;-0.8990478515625;-0.09228515625;0.359999999091087;37;100 mA
79.4898597993074;-0.899658203125;-0.092071533203125;0.36999999906584;38;100 mA
79.4998597992821;-0.89935302734375;-0.092315673828125;0.379999999040592;39;100 mA
79.5098597992569;-0.89935302734375;-0.091461181640625;0.389999999015345;40;100 mA
79.5198597992317;-0.89935302734375;-0.092071533203125;0.399999998990097;41;100 mA
79.5298597992064;-0.899658203125;-0.091064453125;0.40999999896485;42;100 mA
79.5398597991812;-0.8990478515625;-0.09124755859375;0.419999998939602;43;100 mA
79.5498597991559;-0.89935302734375;-0.0906982421875;0.429999998914354;44;100 mA
79.5598597991307;-0.899658203125;-0.090911865234375;0.439999998889107;45;100 mA
79.5698597991054;-0.899658203125;-0.090240478515625;0.449999998863859;46;100 mA
79.5798597990802;-0.8990478515625;-0.09027099609375;0.459999998838612;47;100 mA
79.5898597990549;-0.89935302734375;-0.08978271484375;0.469999998813364;48;100 mA
79.5998597990297;-0.899658203125;-0.090362548828125;0.479999998788116;49;100 mA
79.6098597990044;-0.89935302734375;-0.08984375;0.489999998762869;50;100 mA
79.6198597989792;-0.8990478515625;-0.09027099609375;0.499999998737621;51;100 mA
79.6298597989539;-0.89996337890625;-0.09002685546875;0.509999998712374;52;100 mA
79.6398597989287;-0.89935302734375;-0.09075927734375;0.519999998687126;53;100 mA
79.6498597989034;-0.899658203125;-0.090087890625;0.529999998661879;54;100 mA
79.6598597988782;-0.8990478515625;-0.090911865234375;0.539999998636631;55;100 mA
79.6698597988529;-0.89874267578125;-0.090606689453125;0.549999998611383;56;100 mA
79.6798597988277;-0.89996337890625;-0.0909423828125;0.559999998586136;57;100 mA
79.6898597988024;-0.899658203125;-0.0902099609375;0.569999998560888;58;100 mA
79.6998597987772;-0.899658203125;-0.0909423828125;0.579999998535641;59;100 mA
79.7098597987519;-0.899658203125;-0.09075927734375;0.589999998510393;60;100 mA
79.7198597987267;-0.89935302734375;-0.09075927734375;0.599999998485146;61;100 mA
79.7298597987015;-0.89935302734375;-0.090087890625;0.609999998459898;62;100 mA
79.7398597986762;-0.899658203125;-0.0902099609375;0.61999999843465;63;100 mA
79.749859798651;-0.89996337890625;-0.089874267578125;0.629999998409403;64;100 mA
79.7598597986257;-0.89935302734375;-0.08966064453125;0.639999998384155;65;100 mA
79.7698597986005;-0.89935302734375;-0.089111328125;0.649999998358908;66;100 mA
79.7798597985752;-0.89935302734375;-0.089813232421875;0.65999999833366;67;100 mA
79.78985979855;-0.89935302734375;-0.0894775390625;0.669999998308413;68;100 mA
79.7998597985247;-0.89935302734375;-0.089752197265625;0.679999998283165;69;100 mA
79.8098597984995;-0.89935302734375;-0.08905029296875;0.689999998257917;70;100 mA
79.8198597984742;-0.899658203125;-0.089996337890625;0.69999999823267;71;100 mA
79.829859798449;-0.89996337890625;-0.08935546875;0.709999998207422;72;100 mA
79.8398597984237;-0.89996337890625;-0.089630126953125;0.719999998182175;73;100 mA
79.8498597983985;-0.899658203125;-0.089202880859375;0.729999998156927;74;100 mA
79.8598597983732;-0.89935302734375;-0.0894775390625;0.73999999813168;75;100 mA
79.869859798348;-0.89996337890625;-0.089080810546875;0.749999998106432;76;100 mA
79.8798597983227;-0.8990478515625;-0.08929443359375;0.759999998081184;77;100 mA
79.8898597982975;-0.899658203125;-0.089141845703125;0.769999998055937;78;100 mA
79.8998597982722;-0.89935302734375;-0.089691162109375;0.779999998030689;79;100 mA
79.909859798247;-0.89935302734375;-0.089141845703125;0.789999998005442;80;100 mA
79.9198597982218;-0.89935302734375;-0.089324951171875;0.799999997980194;81;100 mA
79.9298597981965;-0.899658203125;-0.08905029296875;0.809999997954947;82;100 mA
79.9398597981713;-0.899658203125;-0.089508056640625;0.819999997929699;83;100 mA
79.949859798146;-0.8990478515625;-0.0885009765625;0.829999997904451;84;100 mA
79.9598597981208;-0.899658203125;-0.088958740234375;0.839999997879204;85;100 mA
79.9698597980955;-0.89935302734375;-0.0882568359375;0.849999997853956;86;100 mA
79.9798597980703;-0.89935302734375;-0.0885009765625;0.859999997828709;87;100 mA
79.989859798045;-0.8990478515625;-0.08782958984375;0.869999997803461;88;100 mA
79.9998597980198;-0.899658203125;-0.088958740234375;0.879999997778214;89;100 mA
80.0098597979945;-0.89996337890625;-0.088958740234375;0.889999997752966;90;100 mA
80.0198597979693;-0.89874267578125;-0.089447021484375;0.899999997727718;91;100 mA
80.029859797944;-0.89996337890625;-0.089324951171875;0.909999997702471;92;100 mA
80.0398597979188;-0.89996337890625;-0.08978271484375;0.919999997677223;93;100 mA
80.0498597978935;-0.89996337890625;-0.089752197265625;0.929999997651976;94;100 mA
80.0598597978683;-0.8990478515625;-0.0897216796875;0.939999997626728;95;100 mA
80.069859797843;-0.899658203125;-0.089447021484375;0.949999997601481;96;100 mA
80.0798597978178;-0.899658203125;-0.090118408203125;0.959999997576233;97;100 mA
80.0898597977925;-0.899658203125;-0.08990478515625;0.969999997550985;98;100 mA
80.0998597977673;-0.8990478515625;-0.090301513671875;0.979999997525738;99;100 mA
80.109859797742;-0.89935302734375;-0.0897216796875;0.98999999750049;100;100 mA
80.1198597977168;-0.89935302734375;-0.09075927734375;0.999999997475243;101;100 mA
80.1298597976916;-0.899658203125;-0.09014892578125;1.00999999745;102;100 mA
80.1398597976663;-0.89935302734375;-0.09039306640625;1.01999999742475;103;100 mA
80.1498597976411;-0.899658203125;-0.089996337890625;1.0299999973995;104;100 mA
80.1598597976158;-0.89996337890625;-0.090118408203125;1.03999999737425;105;100 mA
80.1698597975906;-0.89935302734375;-0.089324951171875;1.049999997349;106;100 mA
80.1798597975653;-0.899658203125;-0.0892333984375;1.05999999732376;107;100 mA
80.1898597975401;-0.89935302734375;-0.088897705078125;1.06999999729851;108;100 mA
80.1998597975148;-0.89935302734375;-0.089141845703125;1.07999999727326;109;100 mA
80.2098597974896;-0.8990478515625;-0.088836669921875;1.08999999724801;110;100 mA
80.2198597974643;-0.89935302734375;-0.08935546875;1.09999999722277;111;100 mA
80.2298597974391;-0.89996337890625;-0.089752197265625;1.10999999719752;112;100 mA
80.2398597974138;-0.899658203125;-0.0906982421875;1.11999999717227;113;100 mA
80.2498597973886;-0.8990478515625;-0.090301513671875;1.12999999714702;114;100 mA
80.2598597973633;-0.89935302734375;-0.090911865234375;1.13999999712178;115;100 mA
80.2698597973381;-0.89935302734375;-0.090484619140625;1.14999999709653;116;100 mA
80.2798597973128;-0.9002685546875;-0.090362548828125;1.15999999707128;117;100 mA
80.2898597972876;-0.89935302734375;-0.089080810546875;1.16999999704603;118;100 mA
80.2998597972623;-0.89935302734375;-0.089569091796875;1.17999999702079;119;100 mA
80.3098597972371;-0.899658203125;-0.088958740234375;1.18999999699554;120;100 mA
80.3198597972118;-0.89935302734375;-0.088897705078125;1.19999999697029;121;100 mA
80.3298597971866;-0.899658203125;-0.08837890625;1.20999999694504;122;100 mA
80.3398597971614;-0.8990478515625;-0.08843994140625;1.2199999969198;123;100 mA
80.3498597971361;-0.899658203125;-0.088287353515625;1.22999999689455;124;100 mA
80.3598597971109;-0.89935302734375;-0.08819580078125;1.2399999968693;125;100 mA
80.3698597970856;-0.89874267578125;-0.08807373046875;1.24999999684405;126;100 mA
80.3798597970604;-0.899658203125;-0.0887451171875;1.25999999681881;127;100 mA
80.3898597970351;-0.8990478515625;-0.08843994140625;1.26999999679356;128;100 mA
80.3998597970099;-0.899658203125;-0.088653564453125;1.27999999676831;129;100 mA
80.4098597969846;-0.89996337890625;-0.0882568359375;1.28999999674306;130;100 mA
80.4198597969594;-0.8990478515625;-0.089324951171875;1.29999999671782;131;100 mA
80.4298597969341;-0.899658203125;-0.088958740234375;1.30999999669257;132;100 mA
80.4398597969089;-0.9002685546875;-0.089508056640625;1.31999999666732;133;100 mA
80.4498597968836;-0.89935302734375;-0.089385986328125;1.32999999664207;134;100 mA
80.4598597968584;-0.899658203125;-0.08929443359375;1.33999999661683;135;100 mA
80.4698597968331;-0.89996337890625;-0.08843994140625;1.34999999659158;136;100 mA
80.4798597968079;-0.89935302734375;-0.08843994140625;1.35999999656633;137;100 mA
80.4898597967826;-0.899658203125;-0.08831787109375;1.36999999654108;138;100 mA
80.4998597967574;-0.899658203125;-0.0887451171875;1.37999999651583;139;100 mA
80.5098597967321;-0.89996337890625;-0.08868408203125;1.38999999649059;140;100 mA
80.5198597967069;-0.89996337890625;-0.088897705078125;1.39999999646534;141;100 mA
80.5298597966816;-0.899658203125;-0.0889892578125;1.40999999644009;142;100 mA
80.5398597966564;-0.89935302734375;-0.089599609375;1.41999999641484;143;100 mA
80.5498597966312;-0.8990478515625;-0.089324951171875;1.4299999963896;144;100 mA
80.5598597966059;-0.89935302734375;-0.08990478515625;1.43999999636435;145;100 mA
80.5698597965807;-0.9002685546875;-0.089691162109375;1.4499999963391;146;100 mA
80.5798597965554;-0.899658203125;-0.0899658203125;1.45999999631385;147;100 mA
80.5898597965302;-0.89996337890625;-0.08935546875;1.46999999628861;148;100 mA
80.5998597965049;-0.89935302734375;-0.090362548828125;1.47999999626336;149;100 mA
80.6098597964797;-0.89935302734375;-0.090362548828125;1.48999999623811;150;100 mA
80.6198597964544;-0.899658203125;-0.090576171875;1.49999999621286;151;100 mA
80.6298597964292;-0.899658203125;-0.09039306640625;1.50999999618762;152;100 mA
80.6398597964039;-0.899658203125;-0.090301513671875;1.51999999616237;153;100 mA
80.6498597963787;-0.89874267578125;-0.089935302734375;1.52999999613712;154;100 mA
80.6598597963534;-0.8990478515625;-0.08953857421875;1.53999999611187;155;100 mA
80.6698597963282;-0.89935302734375;-0.089324951171875;1.54999999608663;156;100 mA
80.6798597963029;-0.89874267578125;-0.0902099609375;1.55999999606138;157;100 mA
80.6898597962777;-0.899658203125;-0.09039306640625;1.56999999603613;158;100 mA
80.6998597962524;-0.9002685546875;-0.09112548828125;1.57999999601088;159;100 mA
80.7098597962272;-0.89935302734375;-0.090789794921875;1.58999999598564;160;100 mA
80.7198597962019;-0.899658203125;-0.0914306640625;1.59999999596039;161;100 mA
80.7298597961767;-0.899658203125;-0.0904541015625;1.60999999593514;162;100 mA
80.7398597961514;-0.899658203125;-0.09027099609375;1.61999999590989;163;100 mA
80.7498597961262;-0.899658203125;-0.089935302734375;1.62999999588465;164;100 mA
80.759859796101;-0.899658203125;-0.08984375;1.6399999958594;165;100 mA
80.7698597960757;-0.8990478515625;-0.089141845703125;1.64999999583415;166;100 mA
80.7798597960505;-0.89935302734375;-0.08935546875;1.6599999958089;167;100 mA
80.7898597960252;-0.899658203125;-0.089447021484375;1.66999999578366;168;100 mA
80.799859796;-0.89935302734375;-0.08984375;1.67999999575841;169;100 mA
80.8098597959747;-0.899658203125;-0.08990478515625;1.68999999573316;170;100 mA
80.8198597959495;-0.899658203125;-0.09014892578125;1.69999999570791;171;100 mA
80.8298597959242;-0.899658203125;-0.090179443359375;1.70999999568267;172;100 mA
80.839859795899;-0.89935302734375;-0.09039306640625;1.71999999565742;173;100 mA
80.8498597958737;-0.89935302734375;-0.089752197265625;1.72999999563217;174;100 mA
80.8598597958485;-0.89996337890625;-0.09002685546875;1.73999999560692;175;100 mA
80.8698597958232;-0.899658203125;-0.089569091796875;1.74999999558167;176;100 mA
80.879859795798;-0.899658203125;-0.08953857421875;1.75999999555643;177;100 mA
80.8898597957727;-0.89935302734375;-0.088470458984375;1.76999999553118;178;100 mA
80.8998597957475;-0.899658203125;-0.089019775390625;1.77999999550593;179;100 mA
80.9098597957222;-0.89996337890625;-0.08843994140625;1.78999999548068;180;100 mA
80.919859795697;-0.899658203125;-0.088226318359375;1.79999999545544;181;100 mA
80.9298597956717;-0.899658203125;-0.087799072265625;1.80999999543019;182;100 mA
80.9398597956465;-0.89935302734375;-0.087921142578125;1.81999999540494;183;100 mA
80.9498597956213;-0.89996337890625;-0.087860107421875;1.82999999537969;184;100 mA
80.959859795596;-0.899658203125;-0.0877685546875;1.83999999535445;185;100 mA
80.9698597955708;-0.899658203125;-0.08746337890625;1.8499999953292;186;100 mA
80.9798597955455;-0.899658203125;-0.088104248046875;1.85999999530395;187;100 mA
80.9898597955203;-0.8990478515625;-0.088043212890625;1.8699999952787;188;100 mA
80.999859795495;-0.89935302734375;-0.088531494140625;1.87999999525346;189;100 mA
81.0098597954698;-0.8990478515625;-0.0882568359375;1.88999999522821;190;100 mA
81.0198597954445;-0.8990478515625;-0.088958740234375;1.89999999520296;191;100 mA
81.0298597954193;-0.89935302734375;-0.08837890625;1.90999999517771;192;100 mA
81.039859795394;-0.899658203125;-0.088623046875;1.91999999515247;193;100 mA
81.0498597953688;-0.89935302734375;-0.088653564453125;1.92999999512722;194;100 mA
81.0598597953435;-0.899658203125;-0.088775634765625;1.93999999510197;195;100 mA
81.0698597953183;-0.89996337890625;-0.088226318359375;1.94999999507672;196;100 mA
81.079859795293;-0.899658203125;-0.088348388671875;1.95999999505148;197;100 mA
81.0898597952678;-0.89996337890625;-0.08807373046875;1.96999999502623;198;100 mA
81.0998597952425;-0.899658203125;-0.087890625;1.97999999500098;199;100 mA
81.1098597952173;-0.89874267578125;-0.087554931640625;1.98999999497573;200;100 mA
81.119859795192;-0.899658203125;-0.0875244140625;1.99999999495049;201;100 mA
81.1298597951668;-0.89935302734375;-0.087677001953125;2.00999999492524;202;100 mA
81.1398597951415;-0.89935302734375;-0.087890625;2.01999999489999;203;100 mA
81.1498597951163;-0.899658203125;-0.087677001953125;2.02999999487474;204;100 mA
81.1598597950911;-0.89935302734375;-0.088348388671875;2.0399999948495;205;100 mA
81.1698597950658;-0.8990478515625;-0.088470458984375;2.04999999482425;206;100 mA
81.1798597950406;-0.89935302734375;-0.088653564453125;2.059999994799;207;100 mA
81.1898597950153;-0.899658203125;-0.088043212890625;2.06999999477375;208;100 mA
81.1998597949901;-0.89935302734375;-0.088653564453125;2.0799999947485;209;100 mA
81.2098597949648;-0.899658203125;-0.0880126953125;2.08999999472326;210;100 mA
81.2198597949396;-0.89935302734375;-0.087860107421875;2.09999999469801;211;100 mA
81.2298597949143;-0.899658203125;-0.08758544921875;2.10999999467276;212;100 mA
81.2398597948891;-0.8990478515625;-0.087799072265625;2.11999999464751;213;100 mA
81.2498597948638;-0.899658203125;-0.087799072265625;2.12999999462227;214;100 mA
81.2598597948386;-0.89996337890625;-0.087646484375;2.13999999459702;215;100 mA
81.2698597948133;-0.8990478515625;-0.087615966796875;2.14999999457177;216;100 mA
81.2798597947881;-0.899658203125;-0.088165283203125;2.15999999454652;217;100 mA
81.2898597947628;-0.89935302734375;-0.08819580078125;2.16999999452128;218;100 mA
81.2998597947376;-0.89935302734375;-0.088592529296875;2.17999999449603;219;100 mA
81.3098597947123;-0.89935302734375;-0.088165283203125;2.18999999447078;220;100 mA
81.3198597946871;-0.899658203125;-0.088592529296875;2.19999999444553;221;100 mA
81.3298597946618;-0.89935302734375;-0.087890625;2.20999999442029;222;100 mA
81.3398597946366;-0.89935302734375;-0.087890625;2.21999999439504;223;100 mA
81.3498597946113;-0.899658203125;-0.087371826171875;2.22999999436979;224;100 mA
81.3598597945861;-0.89935302734375;-0.08697509765625;2.23999999434454;225;100 mA
81.3698597945609;-0.899658203125;-0.08599853515625;2.2499999943193;226;100 mA
81.3798597945356;-0.89935302734375;-0.0860595703125;2.25999999429405;227;100 mA
81.3898597945104;-0.899658203125;-0.085968017578125;2.2699999942688;228;100 mA
81.3998597944851;-0.89935302734375;-0.08599853515625;2.27999999424355;229;100 mA
81.4098597944599;-0.89996337890625;-0.085968017578125;2.28999999421831;230;100 mA
81.4198597944346;-0.8990478515625;-0.086090087890625;2.29999999419306;231;100 mA
81.4298597944094;-0.899658203125;-0.08624267578125;2.30999999416781;232;100 mA
81.4398597943841;-0.8990478515625;-0.0863037109375;2.31999999414256;233;100 mA
81.4498597943589;-0.899658203125;-0.08587646484375;2.32999999411732;234;100 mA
81.4598597943336;-0.8990478515625;-0.08612060546875;2.33999999409207;235;100 mA
81.4698597943084;-0.899658203125;-0.085693359375;2.34999999406682;236;100 mA
81.4798597942831;-0.89874267578125;-0.085601806640625;2.35999999404157;237;100 mA
81.4898597942579;-0.899658203125;-0.084930419921875;2.36999999401633;238;100 mA
81.4998597942326;-0.89874267578125;-0.085662841796875;2.37999999399108;239;100 mA
81.5098597942074;-0.8990478515625;-0.085113525390625;2.38999999396583;240;100 mA
81.5198597941821;-0.8990478515625;-0.085052490234375;2.39999999394058;241;100 mA
81.5298597941569;-0.89935302734375;-0.084747314453125;2.40999999391533;242;100 mA
81.5398597941316;-0.89935302734375;-0.08489990234375;2.41999999389009;243;100 mA
81.5498597941064;-0.89935302734375;-0.084991455078125;2.42999999386484;244;100 mA
81.5598597940811;-0.89935302734375;-0.085052490234375;2.43999999383959;245;100 mA
81.5698597940559;-0.899658203125;-0.0849609375;2.44999999381434;246;100 mA
81.5798597940307;-0.899658203125;-0.0855712890625;2.4599999937891;247;100 mA
81.5898597940054;-0.89996337890625;-0.085479736328125;2.46999999376385;248;100 mA
81.5998597939802;-0.89996337890625;-0.085906982421875;2.4799999937386;249;100 mA
81.6098597939549;-0.8990478515625;-0.085784912109375;2.48999999371335;250;100 mA
81.6198597939297;-0.89935302734375;-0.086456298828125;2.49999999368811;251;100 mA
81.6298597939044;-0.89935302734375;-0.085845947265625;2.50999999366286;252;100 mA
81.6398597938792;-0.8990478515625;-0.08624267578125;2.51999999363761;253;100 mA
81.6498597938539;-0.8990478515625;-0.086181640625;2.52999999361236;254;100 mA
81.6598597938287;-0.89935302734375;-0.086181640625;2.53999999358712;255;100 mA
81.6698597938034;-0.89935302734375;-0.08544921875;2.54999999356187;256;100 mA
81.6798597937782;-0.89935302734375;-0.085662841796875;2.55999999353662;257;100 mA
81.6898597937529;-0.89935302734375;-0.085479736328125;2.56999999351137;258;100 mA
81.6998597937277;-0.8990478515625;-0.08526611328125;2.57999999348613;259;100 mA
81.7098597937024;-0.899658203125;-0.084869384765625;2.58999999346088;260;100 mA
81.7198597936772;-0.89996337890625;-0.084716796875;2.59999999343563;261;100 mA
81.7298597936519;-0.89996337890625;-0.08477783203125;2.60999999341038;262;100 mA
81.7398597936267;-0.8990478515625;-0.084930419921875;2.61999999338514;263;100 mA
81.7498597936014;-0.8990478515625;-0.084930419921875;2.62999999335989;264;100 mA
81.7598597935762;-0.899658203125;-0.085662841796875;2.63999999333464;265;100 mA
81.7698597935509;-0.899658203125;-0.0858154296875;2.64999999330939;266;100 mA
81.7798597935257;-0.8990478515625;-0.08612060546875;2.65999999328415;267;100 mA
81.7898597935005;-0.899658203125;-0.08544921875;2.6699999932589;268;100 mA
81.7998597934752;-0.899658203125;-0.08612060546875;2.67999999323365;269;100 mA
81.80985979345;-0.89996337890625;-0.085662841796875;2.6899999932084;270;100 mA
81.8198597934247;-0.89935302734375;-0.085479736328125;2.69999999318316;271;100 mA
81.8298597933995;-0.89935302734375;-0.085205078125;2.70999999315791;272;100 mA
81.8398597933742;-0.89935302734375;-0.08514404296875;2.71999999313266;273;100 mA
81.849859793349;-0.8990478515625;-0.0849609375;2.72999999310741;274;100 mA
81.8598597933237;-0.8990478515625;-0.08465576171875;2.73999999308217;275;100 mA
81.8698597932985;-0.899658203125;-0.08416748046875;2.74999999305692;276;100 mA
81.8798597932732;-0.899658203125;-0.0843505859375;2.75999999303167;277;100 mA
81.889859793248;-0.89935302734375;-0.08416748046875;2.76999999300642;278;100 mA
81.8998597932227;-0.8990478515625;-0.084564208984375;2.77999999298117;279;100 mA
81.9098597931975;-0.899658203125;-0.0843505859375;2.78999999295593;280;100 mA
81.9198597931722;-0.899658203125;-0.084747314453125;2.79999999293068;281;100 mA
81.929859793147;-0.8990478515625;-0.08404541015625;2.80999999290543;282;100 mA
81.9398597931217;-0.89935302734375;-0.084197998046875;2.81999999288018;283;100 mA
81.9498597930965;-0.89935302734375;-0.08404541015625;2.82999999285494;284;100 mA
81.9598597930712;-0.89935302734375;-0.083984375;2.83999999282969;285;100 mA
81.969859793046;-0.89935302734375;-0.08331298828125;2.84999999280444;286;100 mA
81.9798597930208;-0.89996337890625;-0.083709716796875;2.85999999277919;287;100 mA
81.9898597929955;-0.899658203125;-0.083526611328125;2.86999999275395;288;100 mA
81.9998597929703;-0.899658203125;-0.083404541015625;2.8799999927287;289;100 mA
82.009859792945;-0.8990478515625;-0.083343505859375;2.88999999270345;290;100 mA
82.0198597929198;-0.89935302734375;-0.08349609375;2.8999999926782;291;100 mA
82.0298597928945;-0.89935302734375;-0.08380126953125;2.90999999265296;292;100 mA
82.0398597928693;-0.899658203125;-0.083892822265625;2.91999999262771;293;100 mA
82.049859792844;-0.8990478515625;-0.083770751953125;2.92999999260246;294;100 mA
82.0598597928188;-0.89935302734375;-0.084259033203125;2.93999999257721;295;100 mA
82.0698597927935;-0.8990478515625;-0.08428955078125;2.94999999255197;296;100 mA
82.0798597927683;-0.899658203125;-0.084686279296875;2.95999999252672;297;100 mA
82.089859792743;-0.89935302734375;-0.084381103515625;2.96999999250147;298;100 mA
82.0998597927178;-0.89935302734375;-0.0853271484375;2.97999999247622;299;100 mA
82.1098597926925;-0.89935302734375;-0.085052490234375;2.98999999245098;300;100 mA
82.1198597926673;-0.899658203125;-0.085052490234375;2.99999999242573;301;100 mA
82.129859792642;-0.8990478515625;-0.084930419921875;3.00999999240048;302;100 mA
82.1398597926168;-0.89935302734375;-0.085174560546875;3.01999999237523;303;100 mA
82.1498597925915;-0.899658203125;-0.085296630859375;3.02999999234999;304;100 mA
82.1598597925663;-0.89935302734375;-0.085418701171875;3.03999999232474;305;100 mA
82.169859792541;-0.89935302734375;-0.0853271484375;3.04999999229949;306;100 mA
82.1798597925158;-0.899658203125;-0.08551025390625;3.05999999227424;307;100 mA
82.1898597924906;-0.899658203125;-0.085357666015625;3.069999992249;308;100 mA
82.1998597924653;-0.89935302734375;-0.085601806640625;3.07999999222375;309;100 mA
82.2098597924401;-0.899658203125;-0.085479736328125;3.0899999921985;310;100 mA
82.2198597924148;-0.899658203125;-0.085845947265625;3.09999999217325;311;100 mA
82.2298597923896;-0.8990478515625;-0.08526611328125;3.109999992148;312;100 mA
82.2398597923643;-0.899658203125;-0.08544921875;3.11999999212276;313;100 mA
82.2498597923391;-0.899658203125;-0.08526611328125;3.12999999209751;314;100 mA
82.2598597923138;-0.89874267578125;-0.08526611328125;3.13999999207226;315;100 mA
82.2698597922886;-0.89935302734375;-0.08453369140625;3.14999999204701;316;100 mA
82.2798597922633;-0.899658203125;-0.0848388671875;3.15999999202177;317;100 mA
82.2898597922381;-0.89996337890625;-0.0845947265625;3.16999999199652;318;100 mA
82.2998597922128;-0.89935302734375;-0.08441162109375;3.17999999197127;319;100 mA
82.3098597921876;-0.89996337890625;-0.084442138671875;3.18999999194602;320;100 mA
82.3198597921623;-0.899658203125;-0.084747314453125;3.19999999192078;321;100 mA
82.3298597921371;-0.89996337890625;-0.085296630859375;3.20999999189553;322;100 mA
82.3398597921118;-0.899658203125;-0.085601806640625;3.21999999187028;323;100 mA
82.3498597920866;-0.899658203125;-0.085601806640625;3.22999999184503;324;100 mA
82.3598597920613;-0.89935302734375;-0.086029052734375;3.23999999181979;325;100 mA
82.3698597920361;-0.89935302734375;-0.0860595703125;3.24999999179454;326;100 mA
82.3798597920108;-0.899658203125;-0.08636474609375;3.25999999176929;327;100 mA
82.3898597919856;-0.89996337890625;-0.086090087890625;3.26999999174404;328;100 mA
82.3998597919604;-0.899658203125;-0.08673095703125;3.2799999917188;329;100 mA
82.4098597919351;-0.8990478515625;-0.086181640625;3.28999999169355;330;100 mA
82.4198597919099;-0.89935302734375;-0.085693359375;3.2999999916683;331;100 mA
82.4298597918846;-0.89935302734375;-0.085174560546875;3.30999999164305;332;100 mA
82.4398597918594;-0.8990478515625;-0.085052490234375;3.31999999161781;333;100 mA
82.4498597918341;-0.89935302734375;-0.08489990234375;3.32999999159256;334;100 mA
82.4598597918089;-0.8990478515625;-0.08502197265625;3.33999999156731;335;100 mA
82.4698597917836;-0.89935302734375;-0.084930419921875;3.34999999154206;336;100 mA
82.4798597917584;-0.89996337890625;-0.085174560546875;3.35999999151682;337;100 mA
82.4898597917331;-0.899658203125;-0.08514404296875;3.36999999149157;338;100 mA
82.4998597917079;-0.89874267578125;-0.085418701171875;3.37999999146632;339;100 mA
82.5098597916826;-0.899658203125;-0.085418701171875;3.38999999144107;340;100 mA
82.5198597916574;-0.89996337890625;-0.085784912109375;3.39999999141583;341;100 mA
82.5298597916321;-0.89874267578125;-0.085113525390625;3.40999999139058;342;100 mA
82.5398597916069;-0.89935302734375;-0.0850830078125;3.41999999136533;343;100 mA
82.5498597915816;-0.89935302734375;-0.084686279296875;3.42999999134008;344;100 mA
82.5598597915564;-0.8990478515625;-0.08441162109375;3.43999999131483;345;100 mA
82.5698597915311;-0.89935302734375;-0.083709716796875;3.44999999128959;346;100 mA
82.5798597915059;-0.8990478515625;-0.0841064453125;3.45999999126434;347;100 mA
82.5898597914806;-0.899658203125;-0.083953857421875;3.46999999123909;348;100 mA
82.5998597914554;-0.899658203125;-0.08380126953125;3.47999999121384;349;100 mA
82.6098597914302;-0.89935302734375;-0.08367919921875;3.4899999911886;350;100 mA
82.6198597914049;-0.89935302734375;-0.083648681640625;3.49999999116335;351;100 mA
82.6298597913797;-0.89935302734375;-0.08367919921875;3.5099999911381;352;100 mA
82.6398597913544;-0.89935302734375;-0.08367919921875;3.51999999111285;353;100 mA
82.6498597913292;-0.899658203125;-0.08355712890625;3.52999999108761;354;100 mA
82.6598597913039;-0.89935302734375;-0.0838623046875;3.53999999106236;355;100 mA
82.6698597912787;-0.899658203125;-0.083648681640625;3.54999999103711;356;100 mA
82.6798597912534;-0.89996337890625;-0.083740234375;3.55999999101186;357;100 mA
82.6898597912282;-0.899658203125;-0.0833740234375;3.56999999098662;358;100 mA
82.6998597912029;-0.8990478515625;-0.084014892578125;3.57999999096137;359;100 mA
82.7098597911777;-0.8990478515625;-0.083709716796875;3.58999999093612;360;100 mA
82.7198597911524;-0.8990478515625;-0.083465576171875;3.59999999091087;361;100 mA
82.7298597911272;-0.899658203125;-0.083221435546875;3.60999999088563;362;100 mA
82.7398597911019;-0.8990478515625;-0.0831298828125;3.61999999086038;363;100 mA
82.7498597910767;-0.89874267578125;-0.082977294921875;3.62999999083513;364;100 mA
82.7598597910514;-0.89935302734375;-0.083038330078125;3.63999999080988;365;100 mA
82.7698597910262;-0.89996337890625;-0.08306884765625;3.64999999078464;366;100 mA
82.7798597910009;-0.89935302734375;-0.083160400390625;3.65999999075939;367;100 mA
82.7898597909757;-0.89935302734375;-0.083160400390625;3.66999999073414;368;100 mA
82.7998597909504;-0.899658203125;-0.0833740234375;3.67999999070889;369;100 mA
82.8098597909252;-0.89935302734375;-0.083587646484375;3.68999999068365;370;100 mA
82.8198597909;-0.899658203125;-0.084136962890625;3.6999999906584;371;100 mA
82.8298597908747;-0.899658203125;-0.083831787109375;3.70999999063315;372;100 mA
82.8398597908495;-0.899658203125;-0.084075927734375;3.7199999906079;373;100 mA
82.8498597908242;-0.899658203125;-0.083984375;3.72999999058266;374;100 mA
82.859859790799;-0.8990478515625;-0.08404541015625;3.73999999055741;375;100 mA
82.8698597907737;-0.899658203125;-0.083587646484375;3.74999999053216;376;100 mA
82.8798597907485;-0.89935302734375;-0.084259033203125;3.75999999050691;377;100 mA
82.8898597907232;-0.89935302734375;-0.084228515625;3.76999999048167;378;100 mA
82.899859790698;-0.899658203125;-0.083953857421875;3.77999999045642;379;100 mA
82.9098597906727;-0.899658203125;-0.083740234375;3.78999999043117;380;100 mA
82.9198597906475;-0.89935302734375;-0.083740234375;3.79999999040592;381;100 mA
82.9298597906222;-0.8990478515625;-0.0838623046875;3.80999999038067;382;100 mA
82.939859790597;-0.89935302734375;-0.084014892578125;3.81999999035543;383;100 mA
82.9498597905717;-0.899658203125;-0.08404541015625;3.82999999033018;384;100 mA
82.9598597905465;-0.899658203125;-0.084381103515625;3.83999999030493;385;100 mA
82.9698597905212;-0.89874267578125;-0.084197998046875;3.84999999027968;386;100 mA
82.979859790496;-0.8990478515625;-0.08416748046875;3.85999999025444;387;100 mA
82.9898597904707;-0.899658203125;-0.083953857421875;3.86999999022919;388;100 mA
82.9998597904455;-0.8990478515625;-0.08477783203125;3.87999999020394;389;100 mA
83.0098597904203;-0.89935302734375;-0.08441162109375;3.88999999017869;390;100 mA
83.019859790395;-0.9002685546875;-0.084197998046875;3.89999999015345;391;100 mA
83.0298597903698;-0.89935302734375;-0.084075927734375;3.9099999901282;392;100 mA
83.0398597903445;-0.89935302734375;-0.084014892578125;3.91999999010295;393;100 mA
83.0498597903193;-0.89996337890625;-0.083770751953125;3.9299999900777;394;100 mA
83.059859790294;-0.89996337890625;-0.083770751953125;3.93999999005246;395;100 mA
83.0698597902688;-0.899658203125;-0.0836181640625;3.94999999002721;396;100 mA
83.0798597902435;-0.89935302734375;-0.08349609375;3.95999999000196;397;100 mA
83.0898597902183;-0.89935302734375;-0.083251953125;3.96999998997671;398;100 mA
83.099859790193;-0.899658203125;-0.08319091796875;3.97999998995147;399;100 mA
83.1098597901678;-0.89935302734375;-0.083160400390625;3.98999998992622;400;100 mA
83.1198597901425;-0.89935302734375;-0.08343505859375;3.99999998990097;401;100 mA
83.1298597901173;-0.899658203125;-0.08306884765625;4.00999998987572;402;100 mA
83.139859790092;-0.89996337890625;-0.083221435546875;4.01999998985048;403;100 mA
83.1498597900668;-0.89874267578125;-0.08306884765625;4.02999998982523;404;100 mA
83.1598597900415;-0.899658203125;-0.082916259765625;4.03999998979998;405;100 mA
83.1698597900163;-0.89935302734375;-0.082427978515625;4.04999998977473;406;100 mA
83.179859789991;-0.899658203125;-0.0831298828125;4.05999998974949;407;100 mA
83.1898597899658;-0.89935302734375;-0.083038330078125;4.06999998972424;408;100 mA
83.1998597899405;-0.89935302734375;-0.08282470703125;4.07999998969899;409;100 mA
83.2098597899153;-0.899658203125;-0.082611083984375;4.08999998967374;410;100 mA
83.2198597898901;-0.89996337890625;-0.082550048828125;4.0999999896485;411;100 mA
83.2298597898648;-0.89996337890625;-0.082672119140625;4.10999998962325;412;100 mA
83.2398597898396;-0.8990478515625;-0.082672119140625;4.119999989598;413;100 mA
83.2498597898143;-0.89935302734375;-0.08282470703125;4.12999998957275;414;100 mA
83.2598597897891;-0.89935302734375;-0.083221435546875;4.1399999895475;415;100 mA
83.2698597897638;-0.89935302734375;-0.083160400390625;4.14999998952226;416;100 mA
83.2798597897386;-0.89935302734375;-0.083251953125;4.15999998949701;417;100 mA
83.2898597897133;-0.899658203125;-0.082916259765625;4.16999998947176;418;100 mA
83.2998597896881;-0.89935302734375;-0.08367919921875;4.17999998944651;419;100 mA
83.3098597896628;-0.89935302734375;-0.083343505859375;4.18999998942127;420;100 mA
83.3198597896376;-0.899658203125;-0.083251953125;4.19999998939602;421;100 mA
83.3298597896123;-0.89996337890625;-0.082977294921875;4.20999998937077;422;100 mA
83.3398597895871;-0.899658203125;-0.082855224609375;4.21999998934552;423;100 mA
83.3498597895618;-0.899658203125;-0.08258056640625;4.22999998932028;424;100 mA
83.3598597895366;-0.8990478515625;-0.0828857421875;4.23999998929503;425;100 mA
83.3698597895113;-0.89935302734375;-0.0831298828125;4.24999998926978;426;100 mA
83.3798597894861;-0.89935302734375;-0.0833740234375;4.25999998924453;427;100 mA
83.3898597894608;-0.89935302734375;-0.08349609375;4.26999998921929;428;100 mA
83.3998597894356;-0.899658203125;-0.0836181640625;4.27999998919404;429;100 mA
83.4098597894103;-0.89935302734375;-0.083740234375;4.28999998916879;430;100 mA
83.4198597893851;-0.8990478515625;-0.083953857421875;4.29999998914354;431;100 mA
83.4298597893599;-0.89935302734375;-0.083709716796875;4.3099999891183;432;100 mA
83.4398597893346;-0.89935302734375;-0.083953857421875;4.31999998909305;433;100 mA
83.4498597893094;-0.89935302734375;-0.083892822265625;4.3299999890678;434;100 mA
83.4598597892841;-0.89996337890625;-0.083770751953125;4.33999998904255;435;100 mA
83.4698597892589;-0.899658203125;-0.08319091796875;4.34999998901731;436;100 mA
83.4798597892336;-0.89935302734375;-0.083831787109375;4.35999998899206;437;100 mA
83.4898597892084;-0.89935302734375;-0.083770751953125;4.36999998896681;438;100 mA
83.4998597891831;-0.899658203125;-0.0836181640625;4.37999998894156;439;100 mA
83.5098597891579;-0.89935302734375;-0.083343505859375;4.38999998891632;440;100 mA
83.5198597891326;-0.899658203125;-0.0831298828125;4.39999998889107;441;100 mA
83.5298597891074;-0.89935302734375;-0.083221435546875;4.40999998886582;442;100 mA
83.5398597890821;-0.89935302734375;-0.08343505859375;4.41999998884057;443;100 mA
83.5498597890569;-0.89935302734375;-0.083831787109375;4.42999998881533;444;100 mA
83.5598597890316;-0.899658203125;-0.084503173828125;4.43999998879008;445;100 mA
83.5698597890064;-0.899658203125;-0.0845947265625;4.44999998876483;446;100 mA
83.5798597889811;-0.9002685546875;-0.084686279296875;4.45999998873958;447;100 mA
83.5898597889559;-0.899658203125;-0.084228515625;4.46999998871433;448;100 mA
83.5998597889306;-0.89935302734375;-0.0848388671875;4.47999998868909;449;100 mA
83.6098597889054;-0.899658203125;-0.08477783203125;4.48999998866384;450;100 mA
83.6198597888801;-0.89935302734375;-0.084808349609375;4.49999998863859;451;100 mA
83.6298597888549;-0.899658203125;-0.084716796875;4.50999998861334;452;100 mA
83.6398597888297;-0.899658203125;-0.084381103515625;4.5199999885881;453;100 mA
83.6498597888044;-0.899658203125;-0.083831787109375;4.52999998856285;454;100 mA
83.6598597887792;-0.899658203125;-0.0838623046875;4.5399999885376;455;100 mA
83.6698597887539;-0.89935302734375;-0.083984375;4.54999998851235;456;100 mA
83.6798597887287;-0.8990478515625;-0.08404541015625;4.55999998848711;457;100 mA
83.6898597887034;-0.899658203125;-0.083892822265625;4.56999998846186;458;100 mA
83.6998597886782;-0.8990478515625;-0.0836181640625;4.57999998843661;459;100 mA
83.7098597886529;-0.89996337890625;-0.08355712890625;4.58999998841136;460;100 mA
83.7198597886277;-0.89935302734375;-0.083709716796875;4.59999998838612;461;100 mA
83.7298597886024;-0.89935302734375;-0.08355712890625;4.60999998836087;462;100 mA
83.7398597885772;-0.8990478515625;-0.083984375;4.61999998833562;463;100 mA
83.7498597885519;-0.899658203125;-0.084075927734375;4.62999998831037;464;100 mA
83.7598597885267;-0.89935302734375;-0.084014892578125;4.63999998828513;465;100 mA
83.7698597885014;-0.89935302734375;-0.083404541015625;4.64999998825988;466;100 mA
83.7798597884762;-0.899658203125;-0.08392333984375;4.65999998823463;467;100 mA
83.7898597884509;-0.899658203125;-0.083892822265625;4.66999998820938;468;100 mA
83.7998597884257;-0.899658203125;-0.083892822265625;4.67999998818414;469;100 mA
83.8098597884004;-0.89935302734375;-0.083770751953125;4.68999998815889;470;100 mA
83.8198597883752;-0.89935302734375;-0.0836181640625;4.69999998813364;471;100 mA
83.8298597883499;-0.899658203125;-0.083526611328125;4.70999998810839;472;100 mA
83.8398597883247;-0.89935302734375;-0.0833740234375;4.71999998808315;473;100 mA
83.8498597882995;-0.899658203125;-0.083282470703125;4.7299999880579;474;100 mA
83.8598597882742;-0.89935302734375;-0.083648681640625;4.73999998803265;475;100 mA
83.869859788249;-0.89996337890625;-0.08355712890625;4.7499999880074;476;100 mA
83.8798597882237;-0.899658203125;-0.0836181640625;4.75999998798216;477;100 mA
83.8898597881985;-0.899658203125;-0.0833740234375;4.76999998795691;478;100 mA
83.8998597881732;-0.89935302734375;-0.08404541015625;4.77999998793166;479;100 mA
83.909859788148;-0.89935302734375;-0.0838623046875;4.78999998790641;480;100 mA
83.9198597881227;-0.8990478515625;-0.0838623046875;4.79999998788116;481;100 mA
83.9298597880975;-0.89935302734375;-0.0836181640625;4.80999998785592;482;100 mA
83.9398597880722;-0.89935302734375;-0.08331298828125;4.81999998783067;483;100 mA
83.949859788047;-0.899658203125;-0.082763671875;4.82999998780542;484;100 mA
83.9598597880217;-0.899658203125;-0.082855224609375;4.83999998778017;485;100 mA
83.9698597879965;-0.8990478515625;-0.0828857421875;4.84999998775493;486;100 mA
83.9798597879712;-0.899658203125;-0.082763671875;4.85999998772968;487;100 mA
83.989859787946;-0.89935302734375;-0.08251953125;4.86999998770443;488;100 mA
83.9998597879207;-0.899658203125;-0.082244873046875;4.87999998767918;489;100 mA
84.0098597878955;-0.899658203125;-0.08209228515625;4.88999998765394;490;100 mA
84.0198597878702;-0.89996337890625;-0.0821533203125;4.89999998762869;491;100 mA
84.029859787845;-0.89935302734375;-0.08197021484375;4.90999998760344;492;100 mA
84.0398597878198;-0.8990478515625;-0.08245849609375;4.91999998757819;493;100 mA
84.0498597877945;-0.899658203125;-0.08251953125;4.92999998755295;494;100 mA
84.0598597877693;-0.89935302734375;-0.082489013671875;4.9399999875277;495;100 mA
84.069859787744;-0.89996337890625;-0.0819091796875;4.94999998750245;496;100 mA
84.0798597877188;-0.899658203125;-0.08245849609375;4.9599999874772;497;100 mA
84.0898597876935;-0.89935302734375;-0.082366943359375;4.96999998745196;498;100 mA
84.0998597876683;-0.899658203125;-0.08233642578125;4.97999998742671;499;100 mA
84.109859787643;-0.899658203125;-0.082122802734375;4.98999998740146;500;100 mA
84.1198597876178;-0.89935302734375;-0.082000732421875;4.99999998737621;501;100 mA
84.1298597875925;-0.899658203125;-0.08197021484375;5.00999998735097;502;100 mA
84.1398597875673;-0.89935302734375;-0.0821533203125;5.01999998732572;503;100 mA
84.149859787542;-0.89935302734375;-0.082427978515625;5.02999998730047;504;100 mA
84.1598597875168;-0.899658203125;-0.083099365234375;5.03999998727522;505;100 mA
84.1698597874915;-0.899658203125;-0.083038330078125;5.04999998724998;506;100 mA
84.1798597874663;-0.899658203125;-0.0830078125;5.05999998722473;507;100 mA
84.189859787441;-0.89935302734375;-0.082763671875;5.06999998719948;508;100 mA
84.1998597874158;-0.89935302734375;-0.083251953125;5.07999998717423;509;100 mA
84.2098597873905;-0.899658203125;-0.082916259765625;5.08999998714899;510;100 mA
84.2198597873653;-0.899658203125;-0.083038330078125;5.09999998712374;511;100 mA
84.22985978734;-0.899658203125;-0.083038330078125;5.10999998709849;512;100 mA
84.2398597873148;-0.89935302734375;-0.08294677734375;5.11999998707324;513;100 mA
84.2498597872896;-0.89935302734375;-0.082550048828125;5.129999987048;514;100 mA
84.2598597872643;-0.89996337890625;-0.08270263671875;5.13999998702275;515;100 mA
84.2698597872391;-0.89935302734375;-0.08282470703125;5.1499999869975;516;100 mA
84.2798597872138;-0.899658203125;-0.082855224609375;5.15999998697225;517;100 mA
84.2898597871886;-0.89935302734375;-0.082855224609375;5.169999986947;518;100 mA
84.2998597871633;-0.89935302734375;-0.0828857421875;5.17999998692176;519;100 mA
84.3098597871381;-0.8990478515625;-0.082916259765625;5.18999998689651;520;100 mA
84.3198597871128;-0.89996337890625;-0.082916259765625;5.19999998687126;521;100 mA
84.3298597870876;-0.899658203125;-0.0826416015625;5.20999998684601;522;100 mA
84.3398597870623;-0.8990478515625;-0.082855224609375;5.21999998682077;523;100 mA
84.3498597870371;-0.899658203125;-0.082733154296875;5.22999998679552;524;100 mA
84.3598597870118;-0.89935302734375;-0.082489013671875;5.23999998677027;525;100 mA
84.3698597869866;-0.89935302734375;-0.081939697265625;5.24999998674502;526;100 mA
84.3798597869613;-0.89935302734375;-0.082489013671875;5.25999998671978;527;100 mA
84.3898597869361;-0.8990478515625;-0.082427978515625;5.26999998669453;528;100 mA
84.3998597869108;-0.899658203125;-0.082427978515625;5.27999998666928;529;100 mA
84.4098597868856;-0.89935302734375;-0.082305908203125;5.28999998664403;530;100 mA
84.4198597868603;-0.89935302734375;-0.0821533203125;5.29999998661879;531;100 mA
84.4298597868351;-0.899658203125;-0.082000732421875;5.30999998659354;532;100 mA
84.4398597868098;-0.89935302734375;-0.08197021484375;5.31999998656829;533;100 mA
84.4498597867846;-0.899658203125;-0.082183837890625;5.32999998654304;534;100 mA
84.4598597867594;-0.89874267578125;-0.082855224609375;5.3399999865178;535;100 mA
84.4698597867341;-0.899658203125;-0.082977294921875;5.34999998649255;536;100 mA
84.4798597867089;-0.899658203125;-0.083160400390625;5.3599999864673;537;100 mA
84.4898597866836;-0.89935302734375;-0.08294677734375;5.36999998644205;538;100 mA
84.4998597866584;-0.89935302734375;-0.08355712890625;5.37999998641681;539;100 mA
84.5098597866331;-0.8990478515625;-0.083465576171875;5.38999998639156;540;100 mA
84.5198597866079;-0.89935302734375;-0.083740234375;5.39999998636631;541;100 mA
84.5298597865826;-0.899658203125;-0.083740234375;5.40999998634106;542;100 mA
84.5398597865574;-0.8990478515625;-0.083526611328125;5.41999998631582;543;100 mA
84.5498597865321;-0.89935302734375;-0.083160400390625;5.42999998629057;544;100 mA
84.5598597865069;-0.899658203125;-0.083465576171875;5.43999998626532;545;100 mA
84.5698597864816;-0.8990478515625;-0.083770751953125;5.44999998624007;546;100 mA
84.5798597864564;-0.89996337890625;-0.08380126953125;5.45999998621483;547;100 mA
84.5898597864311;-0.899658203125;-0.08392333984375;5.46999998618958;548;100 mA
84.5998597864059;-0.89935302734375;-0.08404541015625;5.47999998616433;549;100 mA
84.6098597863806;-0.8990478515625;-0.084320068359375;5.48999998613908;550;100 mA
84.6198597863554;-0.89935302734375;-0.084625244140625;5.49999998611383;551;100 mA
84.6298597863301;-0.89935302734375;-0.084808349609375;5.50999998608859;552;100 mA
84.6398597863049;-0.89996337890625;-0.0853271484375;5.51999998606334;553;100 mA
84.6498597862796;-0.899658203125;-0.08544921875;5.52999998603809;554;100 mA
84.6598597862544;-0.899658203125;-0.085479736328125;5.53999998601284;555;100 mA
84.6698597862292;-0.899658203125;-0.084869384765625;5.5499999859876;556;100 mA
84.6798597862039;-0.89935302734375;-0.08538818359375;5.55999998596235;557;100 mA
84.6898597861787;-0.899658203125;-0.085296630859375;5.5699999859371;558;100 mA
84.6998597861534;-0.89935302734375;-0.085113525390625;5.57999998591185;559;100 mA
84.7098597861282;-0.89935302734375;-0.084930419921875;5.58999998588661;560;100 mA
84.7198597861029;-0.89996337890625;-0.084747314453125;5.59999998586136;561;100 mA
84.7298597860777;-0.899658203125;-0.084625244140625;5.60999998583611;562;100 mA
84.7398597860524;-0.89996337890625;-0.08447265625;5.61999998581086;563;100 mA
84.7498597860272;-0.89996337890625;-0.084625244140625;5.62999998578562;564;100 mA
84.7598597860019;-0.89935302734375;-0.085174560546875;5.63999998576037;565;100 mA
84.7698597859767;-0.89935302734375;-0.085296630859375;5.64999998573512;566;100 mA
84.7798597859514;-0.89996337890625;-0.0853271484375;5.65999998570987;567;100 mA
84.7898597859262;-0.89935302734375;-0.0849609375;5.66999998568463;568;100 mA
84.7998597859009;-0.89935302734375;-0.085296630859375;5.67999998565938;569;100 mA
84.8098597858757;-0.89935302734375;-0.0848388671875;5.68999998563413;570;100 mA
84.8198597858504;-0.89996337890625;-0.084716796875;5.69999998560888;571;100 mA
84.8298597858252;-0.8990478515625;-0.084503173828125;5.70999998558364;572;100 mA
84.8398597857999;-0.89996337890625;-0.08416748046875;5.71999998555839;573;100 mA
84.8498597857747;-0.89996337890625;-0.08355712890625;5.72999998553314;574;100 mA
84.8598597857494;-0.899658203125;-0.083770751953125;5.73999998550789;575;100 mA
84.8698597857242;-0.89996337890625;-0.083953857421875;5.74999998548265;576;100 mA
84.879859785699;-0.89935302734375;-0.083984375;5.7599999854574;577;100 mA
84.8898597856737;-0.899658203125;-0.084014892578125;5.76999998543215;578;100 mA
84.8998597856485;-0.89935302734375;-0.083984375;5.7799999854069;579;100 mA
84.9098597856232;-0.8990478515625;-0.084136962890625;5.78999998538166;580;100 mA
84.919859785598;-0.89935302734375;-0.084320068359375;5.79999998535641;581;100 mA
84.9298597855727;-0.89935302734375;-0.084442138671875;5.80999998533116;582;100 mA
84.9398597855475;-0.899658203125;-0.08489990234375;5.81999998530591;583;100 mA
84.9498597855222;-0.8990478515625;-0.085205078125;5.82999998528066;584;100 mA
84.959859785497;-0.89935302734375;-0.085296630859375;5.83999998525542;585;100 mA
84.9698597854717;-0.899658203125;-0.084808349609375;5.84999998523017;586;100 mA
84.9798597854465;-0.89935302734375;-0.085113525390625;5.85999998520492;587;100 mA
84.9898597854212;-0.899658203125;-0.084991455078125;5.86999998517967;588;100 mA
84.999859785396;-0.89935302734375;-0.084808349609375;5.87999998515443;589;100 mA
85.0098597853707;-0.899658203125;-0.084747314453125;5.88999998512918;590;100 mA
85.0198597853455;-0.899658203125;-0.08453369140625;5.89999998510393;591;100 mA
85.0298597853202;-0.899658203125;-0.084197998046875;5.90999998507868;592;100 mA
85.039859785295;-0.899658203125;-0.083892822265625;5.91999998505344;593;100 mA
85.0498597852697;-0.89935302734375;-0.083770751953125;5.92999998502819;594;100 mA
85.0598597852445;-0.89935302734375;-0.08404541015625;5.93999998500294;595;100 mA
85.0698597852193;-0.899658203125;-0.084075927734375;5.94999998497769;596;100 mA
85.079859785194;-0.8990478515625;-0.084197998046875;5.95999998495245;597;100 mA
85.0898597851688;-0.899658203125;-0.08404541015625;5.9699999849272;598;100 mA
85.0998597851435;-0.89935302734375;-0.084442138671875;5.97999998490195;599;100 mA
85.1098597851183;-0.89935302734375;-0.08428955078125;5.9899999848767;600;100 mA
85.119859785093;-0.89935302734375;-0.084442138671875;5.99999998485146;601;100 mA
85.1298597850678;-0.89935302734375;-0.084503173828125;6.00999998482621;602;100 mA
85.1398597850425;-0.89935302734375;-0.0843505859375;6.01999998480096;603;100 mA
85.1498597850173;-0.89935302734375;-0.083892822265625;6.02999998477571;604;100 mA
85.159859784992;-0.899658203125;-0.084197998046875;6.03999998475047;605;100 mA
85.1698597849668;-0.89935302734375;-0.084442138671875;6.04999998472522;606;100 mA
85.1798597849415;-0.89935302734375;-0.084503173828125;6.05999998469997;607;100 mA
85.1898597849163;-0.89996337890625;-0.084625244140625;6.06999998467472;608;100 mA
85.199859784891;-0.89935302734375;-0.084442138671875;6.07999998464948;609;100 mA
85.2098597848658;-0.899658203125;-0.08428955078125;6.08999998462423;610;100 mA
85.2198597848405;-0.89996337890625;-0.084014892578125;6.09999998459898;611;100 mA
85.2298597848153;-0.899658203125;-0.083709716796875;6.10999998457373;612;100 mA
85.23985978479;-0.899658203125;-0.0838623046875;6.11999998454849;613;100 mA
85.2498597847648;-0.89996337890625;-0.083831787109375;6.12999998452324;614;100 mA
85.2598597847395;-0.89935302734375;-0.083984375;6.13999998449799;615;100 mA
85.2698597847143;-0.89935302734375;-0.083648681640625;6.14999998447274;616;100 mA
85.2798597846891;-0.89996337890625;-0.0841064453125;6.1599999844475;617;100 mA
85.2898597846638;-0.899658203125;-0.084228515625;6.16999998442225;618;100 mA
85.2998597846386;-0.89935302734375;-0.084259033203125;6.179999984397;619;100 mA
85.3098597846133;-0.899658203125;-0.08441162109375;6.18999998437175;620;100 mA
85.3198597845881;-0.8990478515625;-0.084320068359375;6.1999999843465;621;100 mA
85.3298597845628;-0.899658203125;-0.084136962890625;6.20999998432126;622;100 mA
85.3398597845376;-0.899658203125;-0.0838623046875;6.21999998429601;623;100 mA
85.3498597845123;-0.899658203125;-0.08367919921875;6.22999998427076;624;100 mA
85.3598597844871;-0.899658203125;-0.0838623046875;6.23999998424551;625;100 mA
85.3698597844618;-0.89935302734375;-0.084014892578125;6.24999998422027;626;100 mA
85.3798597844366;-0.899658203125;-0.084197998046875;6.25999998419502;627;100 mA
85.3898597844113;-0.8990478515625;-0.084259033203125;6.26999998416977;628;100 mA
85.3998597843861;-0.899658203125;-0.08465576171875;6.27999998414452;629;100 mA
85.4098597843608;-0.89935302734375;-0.08453369140625;6.28999998411928;630;100 mA
85.4198597843356;-0.89935302734375;-0.08477783203125;6.29999998409403;631;100 mA
85.4298597843103;-0.89935302734375;-0.08477783203125;6.30999998406878;632;100 mA
85.4398597842851;-0.899658203125;-0.084564208984375;6.31999998404353;633;100 mA
85.4498597842598;-0.8990478515625;-0.08392333984375;6.32999998401829;634;100 mA
85.4598597842346;-0.89935302734375;-0.08416748046875;6.33999998399304;635;100 mA
85.4698597842093;-0.899658203125;-0.084228515625;6.34999998396779;636;100 mA
85.4798597841841;-0.89996337890625;-0.084197998046875;6.35999998394254;637;100 mA
85.4898597841589;-0.89996337890625;-0.08416748046875;6.3699999839173;638;100 mA
85.4998597841336;-0.89935302734375;-0.084075927734375;6.37999998389205;639;100 mA
85.5098597841084;-0.899658203125;-0.084075927734375;6.3899999838668;640;100 mA
85.5198597840831;-0.89935302734375;-0.083984375;6.39999998384155;641;100 mA
85.5298597840579;-0.8990478515625;-0.083984375;6.40999998381631;642;100 mA
85.5398597840326;-0.899658203125;-0.08441162109375;6.41999998379106;643;100 mA
85.5498597840074;-0.899658203125;-0.084625244140625;6.42999998376581;644;100 mA
85.5598597839821;-0.89996337890625;-0.08477783203125;6.43999998374056;645;100 mA
85.5698597839569;-0.899658203125;-0.084442138671875;6.44999998371532;646;100 mA
85.5798597839316;-0.89935302734375;-0.084808349609375;6.45999998369007;647;100 mA
85.5898597839064;-0.89935302734375;-0.084625244140625;6.46999998366482;648;100 mA
85.5998597838811;-0.899658203125;-0.084320068359375;6.47999998363957;649;100 mA
85.6098597838559;-0.89935302734375;-0.0841064453125;6.48999998361433;650;100 mA
85.6198597838306;-0.89935302734375;-0.083740234375;6.49999998358908;651;100 mA
85.6298597838054;-0.899658203125;-0.083282470703125;6.50999998356383;652;100 mA
85.6398597837801;-0.89996337890625;-0.0830078125;6.51999998353858;653;100 mA
85.6498597837549;-0.899658203125;-0.082855224609375;6.52999998351333;654;100 mA
85.6598597837296;-0.89935302734375;-0.082794189453125;6.53999998348809;655;100 mA
85.6698597837044;-0.89935302734375;-0.08258056640625;6.54999998346284;656;100 mA
85.6798597836791;-0.89935302734375;-0.08233642578125;6.55999998343759;657;100 mA
85.6898597836539;-0.899658203125;-0.082183837890625;6.56999998341234;658;100 mA
85.6998597836287;-0.899658203125;-0.0823974609375;6.5799999833871;659;100 mA
85.7098597836034;-0.8990478515625;-0.08209228515625;6.58999998336185;660;100 mA
85.7198597835782;-0.89996337890625;-0.082122802734375;6.5999999833366;661;100 mA
85.7298597835529;-0.89935302734375;-0.08203125;6.60999998331135;662;100 mA
85.7398597835277;-0.89935302734375;-0.08172607421875;6.61999998328611;663;100 mA
85.7498597835024;-0.89996337890625;-0.081207275390625;6.62999998326086;664;100 mA
85.7598597834772;-0.899658203125;-0.081451416015625;6.63999998323561;665;100 mA
85.7698597834519;-0.8990478515625;-0.08148193359375;6.64999998321036;666;100 mA
85.7798597834267;-0.89935302734375;-0.08135986328125;6.65999998318512;667;100 mA
85.7898597834014;-0.89935302734375;-0.081298828125;6.66999998315987;668;100 mA
85.7998597833762;-0.899658203125;-0.08123779296875;6.67999998313462;669;100 mA
85.8098597833509;-0.89935302734375;-0.081298828125;6.68999998310937;670;100 mA
85.8198597833257;-0.899658203125;-0.08123779296875;6.69999998308413;671;100 mA
85.8298597833004;-0.89935302734375;-0.08135986328125;6.70999998305888;672;100 mA
85.8398597832752;-0.89935302734375;-0.081787109375;6.71999998303363;673;100 mA
85.8498597832499;-0.89935302734375;-0.081939697265625;6.72999998300838;674;100 mA
85.8598597832247;-0.89935302734375;-0.08197021484375;6.73999998298314;675;100 mA
85.8698597831994;-0.89935302734375;-0.081756591796875;6.74999998295789;676;100 mA
85.8798597831742;-0.89996337890625;-0.082183837890625;6.75999998293264;677;100 mA
85.8898597831489;-0.899658203125;-0.08209228515625;6.76999998290739;678;100 mA
85.8998597831237;-0.89935302734375;-0.08197021484375;6.77999998288215;679;100 mA
85.9098597830985;-0.89996337890625;-0.08197021484375;6.7899999828569;680;100 mA
85.9198597830732;-0.8990478515625;-0.081695556640625;6.79999998283165;681;100 mA
85.929859783048;-0.899658203125;-0.08135986328125;6.8099999828064;682;100 mA
85.9398597830227;-0.899658203125;-0.081207275390625;6.81999998278116;683;100 mA
85.9498597829975;-0.899658203125;-0.08123779296875;6.82999998275591;684;100 mA
85.9598597829722;-0.8990478515625;-0.081329345703125;6.83999998273066;685;100 mA
85.969859782947;-0.89935302734375;-0.0814208984375;6.84999998270541;686;100 mA
85.9798597829217;-0.89935302734375;-0.08135986328125;6.85999998268016;687;100 mA
85.9898597828965;-0.899658203125;-0.081390380859375;6.86999998265492;688;100 mA
85.9998597828712;-0.89935302734375;-0.0816650390625;6.87999998262967;689;100 mA
86.009859782846;-0.89935302734375;-0.08160400390625;6.88999998260442;690;100 mA
86.0198597828207;-0.89935302734375;-0.081817626953125;6.89999998257917;691;100 mA
86.0298597827955;-0.8990478515625;-0.081878662109375;6.90999998255393;692;100 mA
86.0398597827702;-0.89935302734375;-0.081634521484375;6.91999998252868;693;100 mA
86.049859782745;-0.89935302734375;-0.081146240234375;6.92999998250343;694;100 mA
86.0598597827197;-0.89935302734375;-0.08135986328125;6.93999998247818;695;100 mA
86.0698597826945;-0.899658203125;-0.081329345703125;6.94999998245294;696;100 mA
86.0798597826692;-0.899658203125;-0.081146240234375;6.95999998242769;697;100 mA
86.089859782644;-0.899658203125;-0.081085205078125;6.96999998240244;698;100 mA
86.0998597826188;-0.89996337890625;-0.08099365234375;6.97999998237719;699;100 mA
86.1098597825935;-0.89935302734375;-0.08099365234375;6.98999998235195;700;100 mA
