Time (s);WE(1).Potential (V);WE(1).Current (A);Corrected time (s);Index;Current range;Overload
50.5143328724636;-0.7000732421875;-0.373779296875;0;1;100 mA;Current overload
50.5243328724383;-0.69952392578125;-0.261322021484375;0.00999999997475243;2;100 mA;
50.5343328724131;-0.69952392578125;-0.21002197265625;0.0199999999495049;3;100 mA;
50.5443328723878;-0.69952392578125;-0.179718017578125;0.0299999999242573;4;100 mA;
50.5543328723626;-0.6995849609375;-0.159332275390625;0.0399999998990097;5;100 mA;
50.5643328723373;-0.699615478515625;-0.144561767578125;0.0499999998737621;6;100 mA;
50.5743328723121;-0.699615478515625;-0.133209228515625;0.0599999998485146;7;100 mA;
50.5843328722868;-0.69964599609375;-0.1241455078125;0.069999999823267;8;100 mA;
50.5943328722616;-0.69964599609375;-0.11669921875;0.0799999997980194;9;100 mA;
50.6043328722363;-0.69970703125;-0.110443115234375;0.0899999997727718;10;100 mA;
50.6143328722111;-0.69964599609375;-0.1051025390625;0.0999999997475243;11;100 mA;
50.6243328721858;-0.69964599609375;-0.1004638671875;0.109999999722277;12;100 mA;
50.6343328721606;-0.699676513671875;-0.09637451171875;0.119999999697029;13;100 mA;
50.6443328721354;-0.699615478515625;-0.092742919921875;0.129999999671782;14;100 mA;
50.6543328721101;-0.699676513671875;-0.0894775390625;0.139999999646534;15;100 mA;
50.6643328720849;-0.69970703125;-0.0865478515625;0.149999999621286;16;100 mA;
50.6743328720596;-0.69970703125;-0.083892822265625;0.159999999596039;17;100 mA;
50.6843328720344;-0.69976806640625;-0.081451416015625;0.169999999570791;18;100 mA;
50.6943328720091;-0.699737548828125;-0.079193115234375;0.179999999545544;19;100 mA;
50.7043328719839;-0.699676513671875;-0.0771484375;0.189999999520296;20;100 mA;
50.7143328719586;-0.699676513671875;-0.07525634765625;0.199999999495049;21;100 mA;
50.7243328719334;-0.69964599609375;-0.073455810546875;0.209999999469801;22;100 mA;
50.7343328719081;-0.699676513671875;-0.071807861328125;0.219999999444553;23;100 mA;
50.7443328718829;-0.69970703125;-0.07025146484375;0.229999999419306;24;100 mA;
50.7543328718576;-0.69964599609375;-0.068817138671875;0.239999999394058;25;100 mA;
50.7643328718324;-0.699676513671875;-0.06744384765625;0.249999999368811;26;100 mA;
50.7743328718071;-0.69970703125;-0.066131591796875;0.259999999343563;27;100 mA;
50.7843328717819;-0.699737548828125;-0.06494140625;0.269999999318316;28;100 mA;
50.7943328717566;-0.699737548828125;-0.063751220703125;0.279999999293068;29;100 mA;
50.8043328717314;-0.69970703125;-0.06268310546875;0.28999999926782;30;100 mA;
50.8143328717061;-0.699737548828125;-0.0616455078125;0.299999999242573;31;100 mA;
50.8243328716809;-0.69976806640625;-0.0606689453125;0.309999999217325;32;100 mA;
50.8343328716556;-0.699676513671875;-0.059722900390625;0.319999999192078;33;100 mA;
50.8443328716304;-0.69976806640625;-0.058807373046875;0.32999999916683;34;100 mA;
50.8543328716052;-0.69976806640625;-0.057952880859375;0.339999999141583;35;100 mA;
50.8643328715799;-0.69970703125;-0.05712890625;0.349999999116335;36;100 mA;
50.8743328715547;-0.69970703125;-0.05633544921875;0.359999999091087;37;100 mA;
50.8843328715294;-0.69976806640625;-0.05560302734375;0.36999999906584;38;100 mA;
50.8943328715042;-0.699798583984375;-0.05487060546875;0.379999999040592;39;100 mA;
50.9043328714789;-0.69970703125;-0.054168701171875;0.389999999015345;40;100 mA;
50.9143328714537;-0.699737548828125;-0.053497314453125;0.399999998990097;41;100 mA;
50.9243328714284;-0.69976806640625;-0.0528564453125;0.40999999896485;42;100 mA;
50.9343328714032;-0.699737548828125;-0.05224609375;0.419999998939602;43;100 mA;
50.9443328713779;-0.699737548828125;-0.0516357421875;0.429999998914354;44;100 mA;
50.9543328713527;-0.699676513671875;-0.051055908203125;0.439999998889107;45;100 mA;
50.9643328713274;-0.69976806640625;-0.050506591796875;0.449999998863859;46;100 mA;
50.9743328713022;-0.699676513671875;-0.049957275390625;0.459999998838612;47;100 mA;
50.9843328712769;-0.699798583984375;-0.0494354248046875;0.469999998813364;48;100 mA;
50.9943328712517;-0.699737548828125;-0.0489288330078125;0.479999998788116;49;100 mA;
51.0043328712264;-0.69976806640625;-0.048443603515625;0.489999998762869;50;100 mA;
51.0143328712012;-0.69970703125;-0.04796142578125;0.499999998737621;51;100 mA;
51.0243328711759;-0.699676513671875;-0.047515869140625;0.509999998712374;52;100 mA;
51.0343328711507;-0.699737548828125;-0.0470550537109375;0.519999998687126;53;100 mA;
51.0443328711254;-0.69976806640625;-0.04661865234375;0.529999998661879;54;100 mA;
51.0543328711002;-0.69970703125;-0.04620361328125;0.539999998636631;55;100 mA;
51.064332871075;-0.69976806640625;-0.04578857421875;0.549999998611383;56;100 mA;
51.0743328710497;-0.699676513671875;-0.0454010009765625;0.559999998586136;57;100 mA;
51.0843328710245;-0.699737548828125;-0.0450042724609375;0.569999998560888;58;100 mA;
51.0943328709992;-0.699798583984375;-0.0446258544921875;0.579999998535641;59;100 mA;
51.104332870974;-0.699737548828125;-0.0442657470703125;0.589999998510393;60;100 mA;
51.1143328709487;-0.699676513671875;-0.043902587890625;0.599999998485146;61;100 mA;
51.1243328709235;-0.69970703125;-0.04356689453125;0.609999998459898;62;100 mA;
51.1343328708982;-0.69976806640625;-0.043218994140625;0.61999999843465;63;100 mA;
51.144332870873;-0.699737548828125;-0.0428924560546875;0.629999998409403;64;100 mA;
51.1543328708477;-0.699737548828125;-0.0425689697265625;0.639999998384155;65;100 mA;
51.1643328708225;-0.699737548828125;-0.0422454833984375;0.649999998358908;66;100 mA;
51.1743328707972;-0.699737548828125;-0.041949462890625;0.65999999833366;67;100 mA;
51.184332870772;-0.699737548828125;-0.04163818359375;0.669999998308413;68;100 mA;
51.1943328707467;-0.699737548828125;-0.041351318359375;0.679999998283165;69;100 mA;
51.2043328707215;-0.69976806640625;-0.041070556640625;0.689999998257917;70;100 mA;
51.2143328706962;-0.699676513671875;-0.04078369140625;0.69999999823267;71;100 mA;
51.224332870671;-0.69976806640625;-0.0405242919921875;0.709999998207422;72;100 mA;
51.2343328706457;-0.699798583984375;-0.04024658203125;0.719999998182175;73;100 mA;
51.2443328706205;-0.69970703125;-0.039990234375;0.729999998156927;74;100 mA;
51.2543328705952;-0.699737548828125;-0.039739990234375;0.73999999813168;75;100 mA;
51.26433287057;-0.69970703125;-0.03948974609375;0.749999998106432;76;100 mA;
51.2743328705448;-0.699737548828125;-0.0392486572265625;0.759999998081184;77;100 mA;
51.2843328705195;-0.699737548828125;-0.03900146484375;0.769999998055937;78;100 mA;
51.2943328704943;-0.699737548828125;-0.038775634765625;0.779999998030689;79;100 mA;
51.304332870469;-0.699737548828125;-0.0385467529296875;0.789999998005442;80;100 mA;
51.3143328704438;-0.69970703125;-0.03831787109375;0.799999997980194;81;100 mA;
51.3243328704185;-0.69976806640625;-0.0381134033203125;0.809999997954947;82;100 mA;
51.3343328703933;-0.69970703125;-0.037884521484375;0.819999997929699;83;100 mA;
51.344332870368;-0.699737548828125;-0.03768310546875;0.829999997904451;84;100 mA;
51.3543328703428;-0.69970703125;-0.0374847412109375;0.839999997879204;85;100 mA;
51.3643328703175;-0.69976806640625;-0.0372802734375;0.849999997853956;86;100 mA;
51.3743328702923;-0.699737548828125;-0.0370880126953125;0.859999997828709;87;100 mA;
51.384332870267;-0.699737548828125;-0.0368896484375;0.869999997803461;88;100 mA;
51.3943328702418;-0.69976806640625;-0.0367034912109375;0.879999997778214;89;100 mA;
51.4043328702165;-0.69970703125;-0.0365264892578125;0.889999997752966;90;100 mA;
51.4143328701913;-0.69976806640625;-0.0363372802734375;0.899999997727718;91;100 mA;
51.424332870166;-0.69970703125;-0.03616943359375;0.909999997702471;92;100 mA;
51.4343328701408;-0.699798583984375;-0.035986328125;0.919999997677223;93;100 mA;
51.4443328701155;-0.69976806640625;-0.035821533203125;0.929999997651976;94;100 mA;
51.4543328700903;-0.699737548828125;-0.03565673828125;0.939999997626728;95;100 mA;
51.464332870065;-0.699737548828125;-0.0354888916015625;0.949999997601481;96;100 mA;
51.4743328700398;-0.699737548828125;-0.0353424072265625;0.959999997576233;97;100 mA;
51.4843328700146;-0.6998291015625;-0.0351715087890625;0.969999997550985;98;100 mA;
51.4943328699893;-0.69976806640625;-0.03502197265625;0.979999997525738;99;100 mA;
51.5043328699641;-0.699737548828125;-0.0348724365234375;0.98999999750049;100;100 mA;
51.5143328699388;-0.699737548828125;-0.034716796875;0.999999997475243;101;100 mA;
51.5243328699136;-0.69976806640625;-0.03458251953125;1.00999999745;102;100 mA;
51.5343328698883;-0.699737548828125;-0.034429931640625;1.01999999742475;103;100 mA;
51.5443328698631;-0.699798583984375;-0.0342864990234375;1.0299999973995;104;100 mA;
51.5543328698378;-0.699676513671875;-0.03414306640625;1.03999999737425;105;100 mA;
51.5643328698126;-0.699737548828125;-0.0339996337890625;1.049999997349;106;100 mA;
51.5743328697873;-0.69976806640625;-0.0338714599609375;1.05999999732376;107;100 mA;
51.5843328697621;-0.699737548828125;-0.033721923828125;1.06999999729851;108;100 mA;
51.5943328697368;-0.69976806640625;-0.0335906982421875;1.07999999727326;109;100 mA;
51.6043328697116;-0.69976806640625;-0.03345947265625;1.08999999724801;110;100 mA;
51.6143328696863;-0.69970703125;-0.0333251953125;1.09999999722277;111;100 mA;
51.6243328696611;-0.69976806640625;-0.0332000732421875;1.10999999719752;112;100 mA;
51.6343328696358;-0.699737548828125;-0.0330657958984375;1.11999999717227;113;100 mA;
51.6443328696106;-0.6998291015625;-0.0329437255859375;1.12999999714702;114;100 mA;
51.6543328695853;-0.69976806640625;-0.0328155517578125;1.13999999712178;115;100 mA;
51.6643328695601;-0.699737548828125;-0.0326934814453125;1.14999999709653;116;100 mA;
51.6743328695349;-0.699737548828125;-0.03258056640625;1.15999999707128;117;100 mA;
51.6843328695096;-0.69976806640625;-0.0324462890625;1.16999999704603;118;100 mA;
51.6943328694844;-0.69976806640625;-0.032330322265625;1.17999999702079;119;100 mA;
51.7043328694591;-0.699737548828125;-0.032208251953125;1.18999999699554;120;100 mA;
51.7143328694339;-0.69970703125;-0.0320892333984375;1.19999999697029;121;100 mA;
51.7243328694086;-0.699737548828125;-0.0319793701171875;1.20999999694504;122;100 mA;
51.7343328693834;-0.69976806640625;-0.031854248046875;1.2199999969198;123;100 mA;
51.7443328693581;-0.699798583984375;-0.031744384765625;1.22999999689455;124;100 mA;
51.7543328693329;-0.69970703125;-0.0316314697265625;1.2399999968693;125;100 mA;
51.7643328693076;-0.69976806640625;-0.0315185546875;1.24999999684405;126;100 mA;
51.7743328692824;-0.699798583984375;-0.031414794921875;1.25999999681881;127;100 mA;
51.7843328692571;-0.69970703125;-0.0312957763671875;1.26999999679356;128;100 mA;
51.7943328692319;-0.699737548828125;-0.03118896484375;1.27999999676831;129;100 mA;
51.8043328692066;-0.699798583984375;-0.0310821533203125;1.28999999674306;130;100 mA;
51.8143328691814;-0.69976806640625;-0.030975341796875;1.29999999671782;131;100 mA;
51.8243328691561;-0.699737548828125;-0.0308746337890625;1.30999999669257;132;100 mA;
51.8343328691309;-0.699798583984375;-0.03076171875;1.31999999666732;133;100 mA;
51.8443328691056;-0.699798583984375;-0.0306610107421875;1.32999999664207;134;100 mA;
51.8543328690804;-0.699798583984375;-0.0305572509765625;1.33999999661683;135;100 mA;
51.8643328690551;-0.699737548828125;-0.0304534912109375;1.34999999659158;136;100 mA;
51.8743328690299;-0.69976806640625;-0.0303497314453125;1.35999999656633;137;100 mA;
51.8843328690047;-0.69976806640625;-0.0302490234375;1.36999999654108;138;100 mA;
51.8943328689794;-0.69970703125;-0.0301483154296875;1.37999999651583;139;100 mA;
51.9043328689542;-0.699798583984375;-0.0300506591796875;1.38999999649059;140;100 mA;
51.9143328689289;-0.69976806640625;-0.029949951171875;1.39999999646534;141;100 mA;
51.9243328689037;-0.699798583984375;-0.0298583984375;1.40999999644009;142;100 mA;
51.9343328688784;-0.69976806640625;-0.0297576904296875;1.41999999641484;143;100 mA;
51.9443328688532;-0.69976806640625;-0.0296661376953125;1.4299999963896;144;100 mA;
51.9543328688279;-0.699798583984375;-0.0295745849609375;1.43999999636435;145;100 mA;
51.9643328688027;-0.69976806640625;-0.02947998046875;1.4499999963391;146;100 mA;
51.9743328687774;-0.69976806640625;-0.0293914794921875;1.45999999631385;147;100 mA;
51.9843328687522;-0.699798583984375;-0.0292938232421875;1.46999999628861;148;100 mA;
51.9943328687269;-0.699737548828125;-0.02919921875;1.47999999626336;149;100 mA;
52.0043328687017;-0.699737548828125;-0.0291107177734375;1.48999999623811;150;100 mA;
52.0143328686764;-0.69976806640625;-0.0290191650390625;1.49999999621286;151;100 mA;
52.0243328686512;-0.69976806640625;-0.0289337158203125;1.50999999618762;152;100 mA;
52.0343328686259;-0.69976806640625;-0.0288421630859375;1.51999999616237;153;100 mA;
52.0443328686007;-0.699798583984375;-0.028753662109375;1.52999999613712;154;100 mA;
52.0543328685754;-0.699798583984375;-0.02867431640625;1.53999999611187;155;100 mA;
52.0643328685502;-0.69976806640625;-0.0285858154296875;1.54999999608663;156;100 mA;
52.0743328685249;-0.699737548828125;-0.028509521484375;1.55999999606138;157;100 mA;
52.0843328684997;-0.699798583984375;-0.0284210205078125;1.56999999603613;158;100 mA;
52.0943328684745;-0.69976806640625;-0.028338623046875;1.57999999601088;159;100 mA;
52.1043328684492;-0.69976806640625;-0.0282623291015625;1.58999999598564;160;100 mA;
52.114332868424;-0.699798583984375;-0.0281768798828125;1.59999999596039;161;100 mA;
52.1243328683987;-0.69970703125;-0.028106689453125;1.60999999593514;162;100 mA;
52.1343328683735;-0.69976806640625;-0.028021240234375;1.61999999590989;163;100 mA;
52.1443328683482;-0.69976806640625;-0.0279388427734375;1.62999999588465;164;100 mA;
52.154332868323;-0.699737548828125;-0.02786865234375;1.6399999958594;165;100 mA;
52.1643328682977;-0.69970703125;-0.0277862548828125;1.64999999583415;166;100 mA;
52.1743328682725;-0.699798583984375;-0.027716064453125;1.6599999958089;167;100 mA;
52.1843328682472;-0.69976806640625;-0.02763671875;1.66999999578366;168;100 mA;
52.194332868222;-0.699737548828125;-0.0275604248046875;1.67999999575841;169;100 mA;
52.2043328681967;-0.699798583984375;-0.027490234375;1.68999999573316;170;100 mA;
52.2143328681715;-0.699737548828125;-0.0274139404296875;1.69999999570791;171;100 mA;
52.2243328681462;-0.699798583984375;-0.0273529052734375;1.70999999568267;172;100 mA;
52.234332868121;-0.699737548828125;-0.0272796630859375;1.71999999565742;173;100 mA;
52.2443328680957;-0.699737548828125;-0.02720947265625;1.72999999563217;174;100 mA;
52.2543328680705;-0.699798583984375;-0.0271484375;1.73999999560692;175;100 mA;
52.2643328680452;-0.699859619140625;-0.0270721435546875;1.74999999558167;176;100 mA;
52.27433286802;-0.699737548828125;-0.02701416015625;1.75999999555643;177;100 mA;
52.2843328679947;-0.69976806640625;-0.02694091796875;1.76999999553118;178;100 mA;
52.2943328679695;-0.69976806640625;-0.026873779296875;1.77999999550593;179;100 mA;
52.3043328679443;-0.69970703125;-0.026812744140625;1.78999999548068;180;100 mA;
52.314332867919;-0.699737548828125;-0.0267425537109375;1.79999999545544;181;100 mA;
52.3243328678938;-0.699737548828125;-0.0266876220703125;1.80999999543019;182;100 mA;
52.3343328678685;-0.69976806640625;-0.0266143798828125;1.81999999540494;183;100 mA;
52.3443328678433;-0.699798583984375;-0.0265533447265625;1.82999999537969;184;100 mA;
52.354332867818;-0.699737548828125;-0.026495361328125;1.83999999535445;185;100 mA;
52.3643328677928;-0.69976806640625;-0.026434326171875;1.8499999953292;186;100 mA;
52.3743328677675;-0.69976806640625;-0.0263824462890625;1.85999999530395;187;100 mA;
52.3843328677423;-0.69976806640625;-0.0263153076171875;1.8699999952787;188;100 mA;
52.394332867717;-0.699737548828125;-0.026263427734375;1.87999999525346;189;100 mA;
52.4043328676918;-0.699737548828125;-0.0262115478515625;1.88999999522821;190;100 mA;
52.4143328676665;-0.699737548828125;-0.0261474609375;1.89999999520296;191;100 mA;
52.4243328676413;-0.6998291015625;-0.0260986328125;1.90999999517771;192;100 mA;
52.434332867616;-0.699737548828125;-0.0260345458984375;1.91999999515247;193;100 mA;
52.4443328675908;-0.69970703125;-0.025982666015625;1.92999999512722;194;100 mA;
52.4543328675655;-0.69970703125;-0.0259307861328125;1.93999999510197;195;100 mA;
52.4643328675403;-0.699798583984375;-0.0258697509765625;1.94999999507672;196;100 mA;
52.474332867515;-0.699798583984375;-0.0258270263671875;1.95999999505148;197;100 mA;
52.4843328674898;-0.699737548828125;-0.0257659912109375;1.96999999502623;198;100 mA;
52.4943328674645;-0.699737548828125;-0.0257171630859375;1.97999999500098;199;100 mA;
52.5043328674393;-0.69970703125;-0.0256744384765625;1.98999999497573;200;100 mA;
52.5143328674141;-0.699737548828125;-0.0256195068359375;1.99999999495049;201;100 mA;
52.5243328673888;-0.69976806640625;-0.0255828857421875;2.00999999492524;202;100 mA;
52.5343328673636;-0.69976806640625;-0.025531005859375;2.01999999489999;203;100 mA;
52.5443328673383;-0.6998291015625;-0.02548828125;2.02999999487474;204;100 mA;
52.5543328673131;-0.699798583984375;-0.0254486083984375;2.0399999948495;205;100 mA;
52.5643328672878;-0.69976806640625;-0.02540283203125;2.04999999482425;206;100 mA;
52.5743328672626;-0.699737548828125;-0.0253692626953125;2.059999994799;207;100 mA;
52.5843328672373;-0.69976806640625;-0.0253204345703125;2.06999999477375;208;100 mA;
52.5943328672121;-0.699737548828125;-0.0252838134765625;2.0799999947485;209;100 mA;
52.6043328671868;-0.699737548828125;-0.025250244140625;2.08999999472326;210;100 mA;
52.6143328671616;-0.699798583984375;-0.025201416015625;2.09999999469801;211;100 mA;
52.6243328671363;-0.699798583984375;-0.025177001953125;2.10999999467276;212;100 mA;
52.6343328671111;-0.699798583984375;-0.02513427734375;2.11999999464751;213;100 mA;
52.6443328670858;-0.69976806640625;-0.0251068115234375;2.12999999462227;214;100 mA;
52.6543328670606;-0.69976806640625;-0.0250762939453125;2.13999999459702;215;100 mA;
52.6643328670353;-0.699737548828125;-0.0250457763671875;2.14999999457177;216;100 mA;
52.6743328670101;-0.69976806640625;-0.025030517578125;2.15999999454652;217;100 mA;
52.6843328669848;-0.699737548828125;-0.0249969482421875;2.16999999452128;218;100 mA;
52.6943328669596;-0.69976806640625;-0.0249786376953125;2.17999999449603;219;100 mA;
52.7043328669344;-0.699737548828125;-0.024957275390625;2.18999999447078;220;100 mA;
52.7143328669091;-0.69976806640625;-0.0249298095703125;2.19999999444553;221;100 mA;
52.7243328668839;-0.69976806640625;-0.024920654296875;2.20999999442029;222;100 mA;
52.7343328668586;-0.699737548828125;-0.02489013671875;2.21999999439504;223;100 mA;
52.7443328668334;-0.699798583984375;-0.0248748779296875;2.22999999436979;224;100 mA;
52.7543328668081;-0.699798583984375;-0.0248504638671875;2.23999999434454;225;100 mA;
52.7643328667829;-0.699737548828125;-0.0248260498046875;2.2499999943193;226;100 mA;
52.7743328667576;-0.69976806640625;-0.0248138427734375;2.25999999429405;227;100 mA;
52.7843328667324;-0.699737548828125;-0.0247833251953125;2.2699999942688;228;100 mA;
52.7943328667071;-0.699737548828125;-0.024761962890625;2.27999999424355;229;100 mA;
52.8043328666819;-0.699737548828125;-0.0247467041015625;2.28999999421831;230;100 mA;
52.8143328666566;-0.69976806640625;-0.0247222900390625;2.29999999419306;231;100 mA;
52.8243328666314;-0.699737548828125;-0.02470703125;2.30999999416781;232;100 mA;
52.8343328666061;-0.699798583984375;-0.0246795654296875;2.31999999414256;233;100 mA;
52.8443328665809;-0.69976806640625;-0.024658203125;2.32999999411732;234;100 mA;
52.8543328665556;-0.699798583984375;-0.0246337890625;2.33999999409207;235;100 mA;
52.8643328665304;-0.69976806640625;-0.0246063232421875;2.34999999406682;236;100 mA;
52.8743328665051;-0.69976806640625;-0.0245880126953125;2.35999999404157;237;100 mA;
52.8843328664799;-0.69976806640625;-0.02454833984375;2.36999999401633;238;100 mA;
52.8943328664546;-0.69976806640625;-0.0245208740234375;2.37999999399108;239;100 mA;
52.9043328664294;-0.699737548828125;-0.024493408203125;2.38999999396583;240;100 mA;
52.9143328664042;-0.69976806640625;-0.0244598388671875;2.39999999394058;241;100 mA;
52.9243328663789;-0.69976806640625;-0.024432373046875;2.40999999391533;242;100 mA;
52.9343328663537;-0.69976806640625;-0.0243896484375;2.41999999389009;243;100 mA;
52.9443328663284;-0.699737548828125;-0.024365234375;2.42999999386484;244;100 mA;
52.9543328663032;-0.69976806640625;-0.0243316650390625;2.43999999383959;245;100 mA;
52.9643328662779;-0.69976806640625;-0.024298095703125;2.44999999381434;246;100 mA;
52.9743328662527;-0.69976806640625;-0.024273681640625;2.4599999937891;247;100 mA;
52.9843328662274;-0.69976806640625;-0.024237060546875;2.46999999376385;248;100 mA;
52.9943328662022;-0.69976806640625;-0.02420654296875;2.4799999937386;249;100 mA;
53.0043328661769;-0.699798583984375;-0.0241729736328125;2.48999999371335;250;100 mA;
53.0143328661517;-0.699798583984375;-0.024139404296875;2.49999999368811;251;100 mA;
53.0243328661264;-0.699798583984375;-0.0241058349609375;2.50999999366286;252;100 mA;
53.0343328661012;-0.699798583984375;-0.0240631103515625;2.51999999363761;253;100 mA;
53.0443328660759;-0.6998291015625;-0.0240234375;2.52999999361236;254;100 mA;
53.0543328660507;-0.69976806640625;-0.023992919921875;2.53999999358712;255;100 mA;
53.0643328660254;-0.699737548828125;-0.0239532470703125;2.54999999356187;256;100 mA;
53.0743328660002;-0.69976806640625;-0.0239166259765625;2.55999999353662;257;100 mA;
53.0843328659749;-0.69976806640625;-0.023876953125;2.56999999351137;258;100 mA;
53.0943328659497;-0.699737548828125;-0.02384033203125;2.57999999348613;259;100 mA;
53.1043328659244;-0.699798583984375;-0.0238067626953125;2.58999999346088;260;100 mA;
53.1143328658992;-0.699737548828125;-0.02376708984375;2.59999999343563;261;100 mA;
53.124332865874;-0.699798583984375;-0.0237396240234375;2.60999999341038;262;100 mA;
53.1343328658487;-0.699737548828125;-0.023699951171875;2.61999999338514;263;100 mA;
53.1443328658235;-0.699798583984375;-0.0236663818359375;2.62999999335989;264;100 mA;
53.1543328657982;-0.699798583984375;-0.0236328125;2.63999999333464;265;100 mA;
53.164332865773;-0.69976806640625;-0.0235931396484375;2.64999999330939;266;100 mA;
53.1743328657477;-0.69970703125;-0.023565673828125;2.65999999328415;267;100 mA;
53.1843328657225;-0.699798583984375;-0.0235260009765625;2.6699999932589;268;100 mA;
53.1943328656972;-0.699798583984375;-0.0234893798828125;2.67999999323365;269;100 mA;
53.204332865672;-0.699737548828125;-0.0234588623046875;2.6899999932084;270;100 mA;
53.2143328656467;-0.699798583984375;-0.023419189453125;2.69999999318316;271;100 mA;
53.2243328656215;-0.69976806640625;-0.0233917236328125;2.70999999315791;272;100 mA;
53.2343328655962;-0.69976806640625;-0.0233551025390625;2.71999999313266;273;100 mA;
53.244332865571;-0.69976806640625;-0.0233184814453125;2.72999999310741;274;100 mA;
53.2543328655457;-0.699798583984375;-0.0232879638671875;2.73999999308217;275;100 mA;
53.2643328655205;-0.69970703125;-0.0232574462890625;2.74999999305692;276;100 mA;
53.2743328654952;-0.69976806640625;-0.02322998046875;2.75999999303167;277;100 mA;
53.28433286547;-0.69976806640625;-0.0231964111328125;2.76999999300642;278;100 mA;
53.2943328654447;-0.69976806640625;-0.023162841796875;2.77999999298117;279;100 mA;
53.3043328654195;-0.69976806640625;-0.023138427734375;2.78999999295593;280;100 mA;
53.3143328653942;-0.699737548828125;-0.023101806640625;2.79999999293068;281;100 mA;
53.324332865369;-0.69976806640625;-0.0230743408203125;2.80999999290543;282;100 mA;
53.3343328653438;-0.699798583984375;-0.0230377197265625;2.81999999288018;283;100 mA;
53.3443328653185;-0.69976806640625;-0.023004150390625;2.82999999285494;284;100 mA;
53.3543328652933;-0.699737548828125;-0.0229766845703125;2.83999999282969;285;100 mA;
53.364332865268;-0.69970703125;-0.0229400634765625;2.84999999280444;286;100 mA;
53.3743328652428;-0.69976806640625;-0.022918701171875;2.85999999277919;287;100 mA;
53.3843328652175;-0.69976806640625;-0.022882080078125;2.86999999275395;288;100 mA;
53.3943328651923;-0.69976806640625;-0.0228515625;2.8799999927287;289;100 mA;
53.404332865167;-0.69976806640625;-0.0228302001953125;2.88999999270345;290;100 mA;
53.4143328651418;-0.69976806640625;-0.0227935791015625;2.8999999926782;291;100 mA;
53.4243328651165;-0.699798583984375;-0.0227752685546875;2.90999999265296;292;100 mA;
53.4343328650913;-0.69976806640625;-0.0227386474609375;2.91999999262771;293;100 mA;
53.444332865066;-0.699737548828125;-0.0227142333984375;2.92999999260246;294;100 mA;
53.4543328650408;-0.69976806640625;-0.0226898193359375;2.93999999257721;295;100 mA;
53.4643328650155;-0.69976806640625;-0.0226531982421875;2.94999999255197;296;100 mA;
53.4743328649903;-0.699737548828125;-0.022637939453125;2.95999999252672;297;100 mA;
53.484332864965;-0.69976806640625;-0.022601318359375;2.96999999250147;298;100 mA;
53.4943328649398;-0.699737548828125;-0.0225738525390625;2.97999999247622;299;100 mA;
53.5043328649145;-0.69976806640625;-0.0225555419921875;2.98999999245098;300;100 mA;
53.5143328648893;-0.699737548828125;-0.02252197265625;2.99999999242573;301;100 mA;
53.524332864864;-0.699798583984375;-0.022503662109375;3.00999999240048;302;100 mA;
53.5343328648388;-0.699798583984375;-0.0224700927734375;3.01999999237523;303;100 mA;
53.5443328648136;-0.699798583984375;-0.0224517822265625;3.02999999234999;304;100 mA;
53.5543328647883;-0.699798583984375;-0.022430419921875;3.03999999232474;305;100 mA;
53.5643328647631;-0.69976806640625;-0.022406005859375;3.04999999229949;306;100 mA;
53.5743328647378;-0.699798583984375;-0.022393798828125;3.05999999227424;307;100 mA;
53.5843328647126;-0.6998291015625;-0.02236328125;3.069999992249;308;100 mA;
53.5943328646873;-0.69970703125;-0.022344970703125;3.07999999222375;309;100 mA;
53.6043328646621;-0.69976806640625;-0.0223297119140625;3.0899999921985;310;100 mA;
53.6143328646368;-0.699798583984375;-0.02230224609375;3.09999999217325;311;100 mA;
53.6243328646116;-0.699798583984375;-0.0222930908203125;3.109999992148;312;100 mA;
53.6343328645863;-0.699737548828125;-0.022265625;3.11999999212276;313;100 mA;
53.6443328645611;-0.69976806640625;-0.0222442626953125;3.12999999209751;314;100 mA;
53.6543328645358;-0.699798583984375;-0.02222900390625;3.13999999207226;315;100 mA;
53.6643328645106;-0.69976806640625;-0.022210693359375;3.14999999204701;316;100 mA;
53.6743328644853;-0.699737548828125;-0.0222015380859375;3.15999999202177;317;100 mA;
53.6843328644601;-0.69976806640625;-0.02218017578125;3.16999999199652;318;100 mA;
53.6943328644348;-0.699737548828125;-0.02216796875;3.17999999197127;319;100 mA;
53.7043328644096;-0.699737548828125;-0.022161865234375;3.18999999194602;320;100 mA;
53.7143328643843;-0.699798583984375;-0.0221435546875;3.19999999192078;321;100 mA;
53.7243328643591;-0.69976806640625;-0.0221466064453125;3.20999999189553;322;100 mA;
53.7343328643339;-0.699798583984375;-0.022125244140625;3.21999999187028;323;100 mA;
53.7443328643086;-0.6998291015625;-0.0221160888671875;3.22999999184503;324;100 mA;
53.7543328642834;-0.699798583984375;-0.02210693359375;3.23999999181979;325;100 mA;
53.7643328642581;-0.69976806640625;-0.0220916748046875;3.24999999179454;326;100 mA;
53.7743328642329;-0.699798583984375;-0.022088623046875;3.25999999176929;327;100 mA;
53.7843328642076;-0.69970703125;-0.0220733642578125;3.26999999174404;328;100 mA;
53.7943328641824;-0.69976806640625;-0.022064208984375;3.2799999917188;329;100 mA;
53.8043328641571;-0.699737548828125;-0.0220611572265625;3.28999999169355;330;100 mA;
53.8143328641319;-0.69976806640625;-0.0220489501953125;3.2999999916683;331;100 mA;
53.8243328641066;-0.699798583984375;-0.0220550537109375;3.30999999164305;332;100 mA;
53.8343328640814;-0.6998291015625;-0.022039794921875;3.31999999161781;333;100 mA;
53.8443328640561;-0.699798583984375;-0.022039794921875;3.32999999159256;334;100 mA;
53.8543328640309;-0.699798583984375;-0.022039794921875;3.33999999156731;335;100 mA;
53.8643328640056;-0.69976806640625;-0.02203369140625;3.34999999154206;336;100 mA;
53.8743328639804;-0.69976806640625;-0.02203369140625;3.35999999151682;337;100 mA;
53.8843328639551;-0.699798583984375;-0.022021484375;3.36999999149157;338;100 mA;
53.8943328639299;-0.699798583984375;-0.022021484375;3.37999999146632;339;100 mA;
53.9043328639046;-0.69976806640625;-0.0220184326171875;3.38999999144107;340;100 mA;
53.9143328638794;-0.69976806640625;-0.02200927734375;3.39999999141583;341;100 mA;
53.9243328638541;-0.69976806640625;-0.02200927734375;3.40999999139058;342;100 mA;
53.9343328638289;-0.69976806640625;-0.0219940185546875;3.41999999136533;343;100 mA;
53.9443328638037;-0.69976806640625;-0.0219879150390625;3.42999999134008;344;100 mA;
53.9543328637784;-0.69976806640625;-0.02198486328125;3.43999999131483;345;100 mA;
53.9643328637532;-0.6998291015625;-0.0219757080078125;3.44999999128959;346;100 mA;
53.9743328637279;-0.699798583984375;-0.0219818115234375;3.45999999126434;347;100 mA;
53.9843328637027;-0.699676513671875;-0.0219696044921875;3.46999999123909;348;100 mA;
53.9943328636774;-0.699798583984375;-0.0219696044921875;3.47999999121384;349;100 mA;
54.0043328636522;-0.69976806640625;-0.021966552734375;3.4899999911886;350;100 mA;
54.0143328636269;-0.699737548828125;-0.0219635009765625;3.49999999116335;351;100 mA;
54.0243328636017;-0.699737548828125;-0.0219696044921875;3.5099999911381;352;100 mA;
54.0343328635764;-0.699737548828125;-0.0219573974609375;3.51999999111285;353;100 mA;
54.0443328635512;-0.6998291015625;-0.0219512939453125;3.52999999108761;354;100 mA;
54.0543328635259;-0.6998291015625;-0.0219482421875;3.53999999106236;355;100 mA;
54.0643328635007;-0.699737548828125;-0.0219451904296875;3.54999999103711;356;100 mA;
54.0743328634754;-0.69970703125;-0.021942138671875;3.55999999101186;357;100 mA;
54.0843328634502;-0.6998291015625;-0.0219268798828125;3.56999999098662;358;100 mA;
54.0943328634249;-0.69976806640625;-0.0219207763671875;3.57999999096137;359;100 mA;
54.1043328633997;-0.69976806640625;-0.0219146728515625;3.58999999093612;360;100 mA;
54.1143328633744;-0.699798583984375;-0.021905517578125;3.59999999091087;361;100 mA;
54.1243328633492;-0.699737548828125;-0.021905517578125;3.60999999088563;362;100 mA;
54.1343328633239;-0.69976806640625;-0.021893310546875;3.61999999086038;363;100 mA;
54.1443328632987;-0.699798583984375;-0.021893310546875;3.62999999083513;364;100 mA;
54.1543328632735;-0.69976806640625;-0.02188720703125;3.63999999080988;365;100 mA;
54.1643328632482;-0.69976806640625;-0.0218841552734375;3.64999999078464;366;100 mA;
54.174332863223;-0.69976806640625;-0.021881103515625;3.65999999075939;367;100 mA;
54.1843328631977;-0.69976806640625;-0.0218719482421875;3.66999999073414;368;100 mA;
54.1943328631725;-0.699737548828125;-0.021868896484375;3.67999999070889;369;100 mA;
54.2043328631472;-0.6998291015625;-0.0218597412109375;3.68999999068365;370;100 mA;
54.214332863122;-0.69976806640625;-0.0218505859375;3.6999999906584;371;100 mA;
54.2243328630967;-0.69976806640625;-0.0218475341796875;3.70999999063315;372;100 mA;
54.2343328630715;-0.69976806640625;-0.0218353271484375;3.7199999906079;373;100 mA;
54.2443328630462;-0.699737548828125;-0.0218292236328125;3.72999999058266;374;100 mA;
54.254332863021;-0.699737548828125;-0.0218231201171875;3.73999999055741;375;100 mA;
54.2643328629957;-0.69976806640625;-0.0218170166015625;3.74999999053216;376;100 mA;
54.2743328629705;-0.699798583984375;-0.021820068359375;3.75999999050691;377;100 mA;
54.2843328629452;-0.6998291015625;-0.02181396484375;3.76999999048167;378;100 mA;
54.29433286292;-0.699737548828125;-0.0218109130859375;3.77999999045642;379;100 mA;
54.3043328628947;-0.69976806640625;-0.02181396484375;3.78999999043117;380;100 mA;
54.3143328628695;-0.69976806640625;-0.0218048095703125;3.79999999040592;381;100 mA;
54.3243328628442;-0.69976806640625;-0.0218017578125;3.80999999038067;382;100 mA;
54.334332862819;-0.699798583984375;-0.0217987060546875;3.81999999035543;383;100 mA;
54.3443328627937;-0.699737548828125;-0.0217926025390625;3.82999999033018;384;100 mA;
54.3543328627685;-0.69976806640625;-0.02178955078125;3.83999999030493;385;100 mA;
54.3643328627433;-0.6998291015625;-0.0217864990234375;3.84999999027968;386;100 mA;
54.374332862718;-0.69976806640625;-0.021783447265625;3.85999999025444;387;100 mA;
54.3843328626928;-0.699737548828125;-0.02177734375;3.86999999022919;388;100 mA;
54.3943328626675;-0.69976806640625;-0.021771240234375;3.87999999020394;389;100 mA;
54.4043328626423;-0.699737548828125;-0.0217742919921875;3.88999999017869;390;100 mA;
54.414332862617;-0.699798583984375;-0.02176513671875;3.89999999015345;391;100 mA;
54.4243328625918;-0.699737548828125;-0.02177734375;3.9099999901282;392;100 mA;
54.4343328625665;-0.69976806640625;-0.0217681884765625;3.91999999010295;393;100 mA;
54.4443328625413;-0.699798583984375;-0.021771240234375;3.9299999900777;394;100 mA;
54.454332862516;-0.699798583984375;-0.0217803955078125;3.93999999005246;395;100 mA;
54.4643328624908;-0.699798583984375;-0.02177734375;3.94999999002721;396;100 mA;
54.4743328624655;-0.699798583984375;-0.0217864990234375;3.95999999000196;397;100 mA;
54.4843328624403;-0.699798583984375;-0.021783447265625;3.96999998997671;398;100 mA;
54.494332862415;-0.69976806640625;-0.02177734375;3.97999998995147;399;100 mA;
54.5043328623898;-0.69976806640625;-0.021783447265625;3.98999998992622;400;100 mA;
54.5143328623645;-0.69976806640625;-0.0217742919921875;3.99999998990097;401;100 mA;
54.5243328623393;-0.699737548828125;-0.0217803955078125;4.00999998987572;402;100 mA;
54.534332862314;-0.69976806640625;-0.021771240234375;4.01999998985048;403;100 mA;
54.5443328622888;-0.699737548828125;-0.02176513671875;4.02999998982523;404;100 mA;
54.5543328622635;-0.699798583984375;-0.021771240234375;4.03999998979998;405;100 mA;
54.5643328622383;-0.699798583984375;-0.0217620849609375;4.04999998977473;406;100 mA;
54.5743328622131;-0.69976806640625;-0.02176513671875;4.05999998974949;407;100 mA;
54.5843328621878;-0.699798583984375;-0.0217620849609375;4.06999998972424;408;100 mA;
54.5943328621626;-0.699798583984375;-0.0217620849609375;4.07999998969899;409;100 mA;
54.6043328621373;-0.699798583984375;-0.0217681884765625;4.08999998967374;410;100 mA;
54.6143328621121;-0.699859619140625;-0.0217620849609375;4.0999999896485;411;100 mA;
54.6243328620868;-0.699798583984375;-0.021771240234375;4.10999998962325;412;100 mA;
54.6343328620616;-0.699798583984375;-0.0217620849609375;4.119999989598;413;100 mA;
54.6443328620363;-0.699798583984375;-0.021759033203125;4.12999998957275;414;100 mA;
54.6543328620111;-0.69976806640625;-0.0217620849609375;4.1399999895475;415;100 mA;
54.6643328619858;-0.69976806640625;-0.0217498779296875;4.14999998952226;416;100 mA;
54.6743328619606;-0.69976806640625;-0.0217559814453125;4.15999998949701;417;100 mA;
54.6843328619353;-0.699859619140625;-0.0217437744140625;4.16999998947176;418;100 mA;
54.6943328619101;-0.6998291015625;-0.0217437744140625;4.17999998944651;419;100 mA;
54.7043328618848;-0.699737548828125;-0.021746826171875;4.18999998942127;420;100 mA;
54.7143328618596;-0.699737548828125;-0.0217376708984375;4.19999998939602;421;100 mA;
54.7243328618343;-0.699798583984375;-0.021746826171875;4.20999998937077;422;100 mA;
54.7343328618091;-0.699798583984375;-0.0217376708984375;4.21999998934552;423;100 mA;
54.7443328617838;-0.699798583984375;-0.0217376708984375;4.22999998932028;424;100 mA;
54.7543328617586;-0.699798583984375;-0.021746826171875;4.23999998929503;425;100 mA;
54.7643328617334;-0.69976806640625;-0.021734619140625;4.24999998926978;426;100 mA;
54.7743328617081;-0.699737548828125;-0.0217437744140625;4.25999998924453;427;100 mA;
54.7843328616829;-0.6998291015625;-0.021734619140625;4.26999998921929;428;100 mA;
54.7943328616576;-0.699737548828125;-0.0217315673828125;4.27999998919404;429;100 mA;
54.8043328616324;-0.699737548828125;-0.0217376708984375;4.28999998916879;430;100 mA;
54.8143328616071;-0.6998291015625;-0.0217254638671875;4.29999998914354;431;100 mA;
54.8243328615819;-0.69976806640625;-0.02174072265625;4.3099999891183;432;100 mA;
54.8343328615566;-0.69976806640625;-0.0217254638671875;4.31999998909305;433;100 mA;
54.8443328615314;-0.699798583984375;-0.021728515625;4.3299999890678;434;100 mA;
54.8543328615061;-0.699798583984375;-0.021734619140625;4.33999998904255;435;100 mA;
54.8643328614809;-0.69976806640625;-0.021728515625;4.34999998901731;436;100 mA;
54.8743328614556;-0.69976806640625;-0.02174072265625;4.35999998899206;437;100 mA;
54.8843328614304;-0.699798583984375;-0.02174072265625;4.36999998896681;438;100 mA;
54.8943328614051;-0.699798583984375;-0.0217437744140625;4.37999998894156;439;100 mA;
54.9043328613799;-0.699737548828125;-0.0217529296875;4.38999998891632;440;100 mA;
54.9143328613546;-0.699798583984375;-0.0217529296875;4.39999998889107;441;100 mA;
54.9243328613294;-0.699737548828125;-0.0217681884765625;4.40999998886582;442;100 mA;
54.9343328613041;-0.699798583984375;-0.0217620849609375;4.41999998884057;443;100 mA;
54.9443328612789;-0.69976806640625;-0.02176513671875;4.42999998881533;444;100 mA;
54.9543328612536;-0.699737548828125;-0.02177734375;4.43999998879008;445;100 mA;
54.9643328612284;-0.699798583984375;-0.0217742919921875;4.44999998876483;446;100 mA;
54.9743328612032;-0.699798583984375;-0.02178955078125;4.45999998873958;447;100 mA;
54.9843328611779;-0.699798583984375;-0.021783447265625;4.46999998871433;448;100 mA;
54.9943328611527;-0.69976806640625;-0.0217864990234375;4.47999998868909;449;100 mA;
55.0043328611274;-0.69970703125;-0.0217987060546875;4.48999998866384;450;100 mA;
55.0143328611022;-0.69976806640625;-0.0218017578125;4.49999998863859;451;100 mA;
55.0243328610769;-0.69976806640625;-0.0218231201171875;4.50999998861334;452;100 mA;
55.0343328610517;-0.699737548828125;-0.021820068359375;4.5199999885881;453;100 mA;
55.0443328610264;-0.69976806640625;-0.0218292236328125;4.52999998856285;454;100 mA;
55.0543328610012;-0.69976806640625;-0.0218414306640625;4.5399999885376;455;100 mA;
55.0643328609759;-0.699798583984375;-0.0218414306640625;4.54999998851235;456;100 mA;
55.0743328609507;-0.699798583984375;-0.02186279296875;4.55999998848711;457;100 mA;
55.0843328609254;-0.69976806640625;-0.0218597412109375;4.56999998846186;458;100 mA;
55.0943328609002;-0.699798583984375;-0.0218658447265625;4.57999998843661;459;100 mA;
55.1043328608749;-0.6998291015625;-0.021875;4.58999998841136;460;100 mA;
55.1143328608497;-0.699798583984375;-0.0218719482421875;4.59999998838612;461;100 mA;
55.1243328608244;-0.69976806640625;-0.02188720703125;4.60999998836087;462;100 mA;
55.1343328607992;-0.69976806640625;-0.021875;4.61999998833562;463;100 mA;
55.1443328607739;-0.699798583984375;-0.021881103515625;4.62999998831037;464;100 mA;
55.1543328607487;-0.69976806640625;-0.0218841552734375;4.63999998828513;465;100 mA;
55.1643328607234;-0.69976806640625;-0.021881103515625;4.64999998825988;466;100 mA;
55.1743328606982;-0.69976806640625;-0.0218902587890625;4.65999998823463;467;100 mA;
55.184332860673;-0.69976806640625;-0.0218841552734375;4.66999998820938;468;100 mA;
55.1943328606477;-0.69976806640625;-0.021881103515625;4.67999998818414;469;100 mA;
55.2043328606225;-0.699737548828125;-0.021881103515625;4.68999998815889;470;100 mA;
55.2143328605972;-0.69976806640625;-0.0218719482421875;4.69999998813364;471;100 mA;
55.224332860572;-0.699798583984375;-0.0218780517578125;4.70999998810839;472;100 mA;
55.2343328605467;-0.69976806640625;-0.0218658447265625;4.71999998808315;473;100 mA;
55.2443328605215;-0.699798583984375;-0.02186279296875;4.7299999880579;474;100 mA;
55.2543328604962;-0.69976806640625;-0.0218505859375;4.73999998803265;475;100 mA;
55.264332860471;-0.699798583984375;-0.02183837890625;4.7499999880074;476;100 mA;
55.2743328604457;-0.699798583984375;-0.02183837890625;4.75999998798216;477;100 mA;
55.2843328604205;-0.699798583984375;-0.021820068359375;4.76999998795691;478;100 mA;
55.2943328603952;-0.69976806640625;-0.0218170166015625;4.77999998793166;479;100 mA;
55.30433286037;-0.69976806640625;-0.021807861328125;4.78999998790641;480;100 mA;
55.3143328603447;-0.699737548828125;-0.021795654296875;4.79999998788116;481;100 mA;
55.3243328603195;-0.699798583984375;-0.0217926025390625;4.80999998785592;482;100 mA;
55.3343328602942;-0.699737548828125;-0.02177734375;4.81999998783067;483;100 mA;
55.344332860269;-0.6998291015625;-0.021771240234375;4.82999998780542;484;100 mA;
55.3543328602437;-0.699798583984375;-0.02176513671875;4.83999998778017;485;100 mA;
55.3643328602185;-0.69976806640625;-0.0217498779296875;4.84999998775493;486;100 mA;
55.3743328601932;-0.69976806640625;-0.0217498779296875;4.85999998772968;487;100 mA;
55.384332860168;-0.699798583984375;-0.0217315673828125;4.86999998770443;488;100 mA;
55.3943328601428;-0.69976806640625;-0.0217254638671875;4.87999998767918;489;100 mA;
55.4043328601175;-0.69976806640625;-0.021710205078125;4.88999998765394;490;100 mA;
55.4143328600923;-0.699737548828125;-0.0217010498046875;4.89999998762869;491;100 mA;
55.424332860067;-0.699798583984375;-0.0216949462890625;4.90999998760344;492;100 mA;
55.4343328600418;-0.699798583984375;-0.0216766357421875;4.91999998757819;493;100 mA;
55.4443328600165;-0.69976806640625;-0.0216705322265625;4.92999998755295;494;100 mA;
55.4543328599913;-0.699798583984375;-0.021661376953125;4.9399999875277;495;100 mA;
55.464332859966;-0.699798583984375;-0.0216522216796875;4.94999998750245;496;100 mA;
55.4743328599408;-0.69976806640625;-0.0216522216796875;4.9599999874772;497;100 mA;
55.4843328599155;-0.699798583984375;-0.0216339111328125;4.96999998745196;498;100 mA;
55.4943328598903;-0.699737548828125;-0.0216339111328125;4.97999998742671;499;100 mA;
55.504332859865;-0.699798583984375;-0.0216278076171875;4.98999998740146;500;100 mA;
55.5143328598398;-0.69976806640625;-0.02161865234375;4.99999998737621;501;100 mA;
55.5243328598145;-0.69976806640625;-0.0216156005859375;5.00999998735097;502;100 mA;
55.5343328597893;-0.6998291015625;-0.0216033935546875;5.01999998732572;503;100 mA;
55.544332859764;-0.69976806640625;-0.0215972900390625;5.02999998730047;504;100 mA;
55.5543328597388;-0.699798583984375;-0.0215850830078125;5.03999998727522;505;100 mA;
55.5643328597135;-0.699798583984375;-0.021575927734375;5.04999998724998;506;100 mA;
55.5743328596883;-0.699798583984375;-0.021575927734375;5.05999998722473;507;100 mA;
55.584332859663;-0.699798583984375;-0.021563720703125;5.06999998719948;508;100 mA;
55.5943328596378;-0.69976806640625;-0.0215576171875;5.07999998717423;509;100 mA;
55.6043328596126;-0.69976806640625;-0.0215545654296875;5.08999998714899;510;100 mA;
55.6143328595873;-0.699798583984375;-0.0215484619140625;5.09999998712374;511;100 mA;
55.6243328595621;-0.699798583984375;-0.0215484619140625;5.10999998709849;512;100 mA;
55.6343328595368;-0.69976806640625;-0.021539306640625;5.11999998707324;513;100 mA;
55.6443328595116;-0.699737548828125;-0.021539306640625;5.129999987048;514;100 mA;
55.6543328594863;-0.6998291015625;-0.0215362548828125;5.13999998702275;515;100 mA;
55.6643328594611;-0.69976806640625;-0.021527099609375;5.1499999869975;516;100 mA;
55.6743328594358;-0.699798583984375;-0.0215240478515625;5.15999998697225;517;100 mA;
55.6843328594106;-0.699737548828125;-0.021514892578125;5.169999986947;518;100 mA;
55.6943328593853;-0.699737548828125;-0.0215057373046875;5.17999998692176;519;100 mA;
55.7043328593601;-0.69976806640625;-0.021502685546875;5.18999998689651;520;100 mA;
55.7143328593348;-0.699737548828125;-0.0214935302734375;5.19999998687126;521;100 mA;
55.7243328593096;-0.699737548828125;-0.0214935302734375;5.20999998684601;522;100 mA;
55.7343328592843;-0.69976806640625;-0.021484375;5.21999998682077;523;100 mA;
55.7443328592591;-0.699737548828125;-0.021478271484375;5.22999998679552;524;100 mA;
55.7543328592338;-0.699798583984375;-0.0214813232421875;5.23999998677027;525;100 mA;
55.7643328592086;-0.69976806640625;-0.021478271484375;5.24999998674502;526;100 mA;
55.7743328591833;-0.69976806640625;-0.0214813232421875;5.25999998671978;527;100 mA;
55.7843328591581;-0.69976806640625;-0.021478271484375;5.26999998669453;528;100 mA;
55.7943328591329;-0.699737548828125;-0.0214752197265625;5.27999998666928;529;100 mA;
55.8043328591076;-0.699737548828125;-0.0214813232421875;5.28999998664403;530;100 mA;
55.8143328590824;-0.699798583984375;-0.02147216796875;5.29999998661879;531;100 mA;
55.8243328590571;-0.699737548828125;-0.0214813232421875;5.30999998659354;532;100 mA;
55.8343328590319;-0.69976806640625;-0.0214752197265625;5.31999998656829;533;100 mA;
55.8443328590066;-0.699737548828125;-0.021478271484375;5.32999998654304;534;100 mA;
55.8543328589814;-0.699737548828125;-0.0214874267578125;5.3399999865178;535;100 mA;
55.8643328589561;-0.69976806640625;-0.021490478515625;5.34999998649255;536;100 mA;
55.8743328589309;-0.699798583984375;-0.0215087890625;5.3599999864673;537;100 mA;
55.8843328589056;-0.69976806640625;-0.0215087890625;5.36999998644205;538;100 mA;
55.8943328588804;-0.6998291015625;-0.0215179443359375;5.37999998641681;539;100 mA;
55.9043328588551;-0.69976806640625;-0.0215362548828125;5.38999998639156;540;100 mA;
55.9143328588299;-0.699798583984375;-0.0215301513671875;5.39999998636631;541;100 mA;
55.9243328588046;-0.699737548828125;-0.0215484619140625;5.40999998634106;542;100 mA;
55.9343328587794;-0.69976806640625;-0.0215484619140625;5.41999998631582;543;100 mA;
55.9443328587541;-0.699798583984375;-0.0215484619140625;5.42999998629057;544;100 mA;
55.9543328587289;-0.6998291015625;-0.0215545654296875;5.43999998626532;545;100 mA;
55.9643328587036;-0.69976806640625;-0.0215423583984375;5.44999998624007;546;100 mA;
55.9743328586784;-0.6998291015625;-0.0215423583984375;5.45999998621483;547;100 mA;
55.9843328586531;-0.69976806640625;-0.0215301513671875;5.46999998618958;548;100 mA;
55.9943328586279;-0.6998291015625;-0.0215240478515625;5.47999998616433;549;100 mA;
56.0043328586027;-0.6998291015625;-0.021514892578125;5.48999998613908;550;100 mA;
56.0143328585774;-0.699798583984375;-0.0215057373046875;5.49999998611383;551;100 mA;
56.0243328585522;-0.69976806640625;-0.0215057373046875;5.50999998608859;552;100 mA;
56.0343328585269;-0.69976806640625;-0.02149658203125;5.51999998606334;553;100 mA;
56.0443328585017;-0.69976806640625;-0.02149658203125;5.52999998603809;554;100 mA;
56.0543328584764;-0.6998291015625;-0.02149658203125;5.53999998601284;555;100 mA;
56.0643328584512;-0.699798583984375;-0.021484375;5.5499999859876;556;100 mA;
56.0743328584259;-0.69976806640625;-0.021490478515625;5.55999998596235;557;100 mA;
56.0843328584007;-0.69976806640625;-0.0214752197265625;5.5699999859371;558;100 mA;
56.0943328583754;-0.69976806640625;-0.02147216796875;5.57999998591185;559;100 mA;
56.1043328583502;-0.699676513671875;-0.0214599609375;5.58999998588661;560;100 mA;
56.1143328583249;-0.699737548828125;-0.0214447021484375;5.59999998586136;561;100 mA;
56.1243328582997;-0.699737548828125;-0.0214385986328125;5.60999998583611;562;100 mA;
56.1343328582744;-0.699737548828125;-0.0214202880859375;5.61999998581086;563;100 mA;
56.1443328582492;-0.69976806640625;-0.021405029296875;5.62999998578562;564;100 mA;
56.1543328582239;-0.699798583984375;-0.021392822265625;5.63999998576037;565;100 mA;
56.1643328581987;-0.69976806640625;-0.021368408203125;5.64999998573512;566;100 mA;
56.1743328581734;-0.699798583984375;-0.0213653564453125;5.65999998570987;567;100 mA;
56.1843328581482;-0.69976806640625;-0.021343994140625;5.66999998568463;568;100 mA;
56.1943328581229;-0.69976806640625;-0.0213348388671875;5.67999998565938;569;100 mA;
56.2043328580977;-0.699676513671875;-0.0213226318359375;5.68999998563413;570;100 mA;
56.2143328580725;-0.6998291015625;-0.0213043212890625;5.69999998560888;571;100 mA;
56.2243328580472;-0.69976806640625;-0.0212982177734375;5.70999998558364;572;100 mA;
56.234332858022;-0.69976806640625;-0.021270751953125;5.71999998555839;573;100 mA;
56.2443328579967;-0.699737548828125;-0.021258544921875;5.72999998553314;574;100 mA;
56.2543328579715;-0.699798583984375;-0.021240234375;5.73999998550789;575;100 mA;
56.2643328579462;-0.69976806640625;-0.0212188720703125;5.74999998548265;576;100 mA;
56.274332857921;-0.69976806640625;-0.02120361328125;5.7599999854574;577;100 mA;
56.2843328578957;-0.699798583984375;-0.021173095703125;5.76999998543215;578;100 mA;
56.2943328578705;-0.69976806640625;-0.0211517333984375;5.7799999854069;579;100 mA;
56.3043328578452;-0.6998291015625;-0.021136474609375;5.78999998538166;580;100 mA;
56.31433285782;-0.699798583984375;-0.0211090087890625;5.79999998535641;581;100 mA;
56.3243328577947;-0.69976806640625;-0.021099853515625;5.80999998533116;582;100 mA;
56.3343328577695;-0.69976806640625;-0.021075439453125;5.81999998530591;583;100 mA;
56.3443328577442;-0.699798583984375;-0.0210601806640625;5.82999998528066;584;100 mA;
56.354332857719;-0.699798583984375;-0.021044921875;5.83999998525542;585;100 mA;
56.3643328576937;-0.699798583984375;-0.021026611328125;5.84999998523017;586;100 mA;
56.3743328576685;-0.6998291015625;-0.0210174560546875;5.85999998520492;587;100 mA;
56.3843328576432;-0.699737548828125;-0.020989990234375;5.86999998517967;588;100 mA;
56.394332857618;-0.699737548828125;-0.0209747314453125;5.87999998515443;589;100 mA;
56.4043328575927;-0.69976806640625;-0.0209564208984375;5.88999998512918;590;100 mA;
56.4143328575675;-0.699737548828125;-0.0209320068359375;5.89999998510393;591;100 mA;
56.4243328575423;-0.699737548828125;-0.020916748046875;5.90999998507868;592;100 mA;
56.434332857517;-0.69976806640625;-0.020892333984375;5.91999998505344;593;100 mA;
56.4443328574918;-0.699737548828125;-0.0208740234375;5.92999998502819;594;100 mA;
56.4543328574665;-0.699737548828125;-0.02086181640625;5.93999998500294;595;100 mA;
56.4643328574413;-0.69976806640625;-0.0208404541015625;5.94999998497769;596;100 mA;
56.474332857416;-0.699798583984375;-0.020831298828125;5.95999998495245;597;100 mA;
56.4843328573908;-0.69976806640625;-0.020806884765625;5.9699999849272;598;100 mA;
56.4943328573655;-0.699737548828125;-0.02080078125;5.97999998490195;599;100 mA;
56.5043328573403;-0.699737548828125;-0.020782470703125;5.9899999848767;600;100 mA;
56.514332857315;-0.69976806640625;-0.020770263671875;5.99999998485146;601;100 mA;
56.5243328572898;-0.69976806640625;-0.02076416015625;6.00999998482621;602;100 mA;
56.5343328572645;-0.699798583984375;-0.02073974609375;6.01999998480096;603;100 mA;
56.5443328572393;-0.69976806640625;-0.0207305908203125;6.02999998477571;604;100 mA;
56.554332857214;-0.699737548828125;-0.02071533203125;6.03999998475047;605;100 mA;
56.5643328571888;-0.699737548828125;-0.020697021484375;6.04999998472522;606;100 mA;
56.5743328571635;-0.699798583984375;-0.0206878662109375;6.05999998469997;607;100 mA;
56.5843328571383;-0.699798583984375;-0.02066650390625;6.06999998467472;608;100 mA;
56.594332857113;-0.6998291015625;-0.020654296875;6.07999998464948;609;100 mA;
56.6043328570878;-0.699737548828125;-0.02064208984375;6.08999998462423;610;100 mA;
56.6143328570625;-0.69976806640625;-0.0206298828125;6.09999998459898;611;100 mA;
56.6243328570373;-0.699798583984375;-0.0206207275390625;6.10999998457373;612;100 mA;
56.6343328570121;-0.699798583984375;-0.02060546875;6.11999998454849;613;100 mA;
56.6443328569868;-0.69970703125;-0.020599365234375;6.12999998452324;614;100 mA;
56.6543328569616;-0.69976806640625;-0.0205902099609375;6.13999998449799;615;100 mA;
56.6643328569363;-0.699737548828125;-0.0205810546875;6.14999998447274;616;100 mA;
56.6743328569111;-0.699798583984375;-0.0205780029296875;6.1599999844475;617;100 mA;
56.6843328568858;-0.69976806640625;-0.0205657958984375;6.16999998442225;618;100 mA;
56.6943328568606;-0.69976806640625;-0.0205596923828125;6.179999984397;619;100 mA;
56.7043328568353;-0.69976806640625;-0.020550537109375;6.18999998437175;620;100 mA;
56.7143328568101;-0.69976806640625;-0.020538330078125;6.1999999843465;621;100 mA;
56.7243328567848;-0.699737548828125;-0.0205352783203125;6.20999998432126;622;100 mA;
56.7343328567596;-0.69976806640625;-0.02052001953125;6.21999998429601;623;100 mA;
56.7443328567343;-0.69976806640625;-0.0205078125;6.22999998427076;624;100 mA;
56.7543328567091;-0.69976806640625;-0.020501708984375;6.23999998424551;625;100 mA;
56.7643328566838;-0.699798583984375;-0.0204925537109375;6.24999998422027;626;100 mA;
56.7743328566586;-0.69976806640625;-0.0204864501953125;6.25999998419502;627;100 mA;
56.7843328566333;-0.699737548828125;-0.0204742431640625;6.26999998416977;628;100 mA;
56.7943328566081;-0.699798583984375;-0.02047119140625;6.27999998414452;629;100 mA;
56.8043328565828;-0.699798583984375;-0.0204681396484375;6.28999998411928;630;100 mA;
56.8143328565576;-0.69989013671875;-0.020465087890625;6.29999998409403;631;100 mA;
56.8243328565324;-0.699798583984375;-0.020465087890625;6.30999998406878;632;100 mA;
56.8343328565071;-0.69976806640625;-0.020458984375;6.31999998404353;633;100 mA;
56.8443328564819;-0.69976806640625;-0.020452880859375;6.32999998401829;634;100 mA;
56.8543328564566;-0.699798583984375;-0.0204498291015625;6.33999998399304;635;100 mA;
56.8643328564314;-0.699737548828125;-0.0204437255859375;6.34999998396779;636;100 mA;
56.8743328564061;-0.699798583984375;-0.020440673828125;6.35999998394254;637;100 mA;
56.8843328563809;-0.69976806640625;-0.0204315185546875;6.3699999839173;638;100 mA;
56.8943328563556;-0.699798583984375;-0.02042236328125;6.37999998389205;639;100 mA;
56.9043328563304;-0.699798583984375;-0.020416259765625;6.3899999838668;640;100 mA;
56.9143328563051;-0.699798583984375;-0.0204132080078125;6.39999998384155;641;100 mA;
56.9243328562799;-0.69976806640625;-0.0204132080078125;6.40999998381631;642;100 mA;
56.9343328562546;-0.69976806640625;-0.0204071044921875;6.41999998379106;643;100 mA;
56.9443328562294;-0.69976806640625;-0.020404052734375;6.42999998376581;644;100 mA;
56.9543328562041;-0.69976806640625;-0.02041015625;6.43999998374056;645;100 mA;
56.9643328561789;-0.69976806640625;-0.0204071044921875;6.44999998371532;646;100 mA;
56.9743328561536;-0.69976806640625;-0.0204132080078125;6.45999998369007;647;100 mA;
56.9843328561284;-0.699798583984375;-0.0204071044921875;6.46999998366482;648;100 mA;
56.9943328561031;-0.699798583984375;-0.0204071044921875;6.47999998363957;649;100 mA;
57.0043328560779;-0.69976806640625;-0.0204071044921875;6.48999998361433;650;100 mA;
57.0143328560526;-0.699798583984375;-0.020404052734375;6.49999998358908;651;100 mA;
57.0243328560274;-0.699798583984375;-0.0204071044921875;6.50999998356383;652;100 mA;
57.0343328560022;-0.699737548828125;-0.02039794921875;6.51999998353858;653;100 mA;
57.0443328559769;-0.699798583984375;-0.02039794921875;6.52999998351333;654;100 mA;
57.0543328559517;-0.69976806640625;-0.020404052734375;6.53999998348809;655;100 mA;
57.0643328559264;-0.699798583984375;-0.02039794921875;6.54999998346284;656;100 mA;
57.0743328559012;-0.69976806640625;-0.0204071044921875;6.55999998343759;657;100 mA;
57.0843328558759;-0.6998291015625;-0.0204010009765625;6.56999998341234;658;100 mA;
57.0943328558507;-0.69976806640625;-0.02041015625;6.5799999833871;659;100 mA;
57.1043328558254;-0.699737548828125;-0.0204193115234375;6.58999998336185;660;100 mA;
57.1143328558002;-0.699798583984375;-0.02042236328125;6.5999999833366;661;100 mA;
57.1243328557749;-0.69976806640625;-0.0204376220703125;6.60999998331135;662;100 mA;
57.1343328557497;-0.699737548828125;-0.0204376220703125;6.61999998328611;663;100 mA;
57.1443328557244;-0.699798583984375;-0.02044677734375;6.62999998326086;664;100 mA;
57.1543328556992;-0.69976806640625;-0.020458984375;6.63999998323561;665;100 mA;
57.1643328556739;-0.699798583984375;-0.0204559326171875;6.64999998321036;666;100 mA;
57.1743328556487;-0.69976806640625;-0.0204742431640625;6.65999998318512;667;100 mA;
57.1843328556234;-0.69976806640625;-0.02047119140625;6.66999998315987;668;100 mA;
57.1943328555982;-0.69976806640625;-0.0204833984375;6.67999998313462;669;100 mA;
57.2043328555729;-0.699798583984375;-0.02049560546875;6.68999998310937;670;100 mA;
57.2143328555477;-0.69976806640625;-0.020501708984375;6.69999998308413;671;100 mA;
57.2243328555224;-0.69976806640625;-0.02052001953125;6.70999998305888;672;100 mA;
57.2343328554972;-0.699737548828125;-0.020526123046875;6.71999998303363;673;100 mA;
57.244332855472;-0.699798583984375;-0.02054443359375;6.72999998300838;674;100 mA;
57.2543328554467;-0.699737548828125;-0.0205657958984375;6.73999998298314;675;100 mA;
57.2643328554215;-0.69976806640625;-0.0205810546875;6.74999998295789;676;100 mA;
57.2743328553962;-0.69976806640625;-0.0206024169921875;6.75999998293264;677;100 mA;
57.284332855371;-0.699737548828125;-0.0206146240234375;6.76999998290739;678;100 mA;
57.2943328553457;-0.69976806640625;-0.0206329345703125;6.77999998288215;679;100 mA;
57.3043328553205;-0.699798583984375;-0.0206573486328125;6.7899999828569;680;100 mA;
57.3143328552952;-0.699737548828125;-0.0206695556640625;6.79999998283165;681;100 mA;
57.32433285527;-0.699737548828125;-0.0207000732421875;6.8099999828064;682;100 mA;
57.3343328552447;-0.699798583984375;-0.0207061767578125;6.81999998278116;683;100 mA;
57.3443328552195;-0.69970703125;-0.0207305908203125;6.82999998275591;684;100 mA;
57.3543328551942;-0.699798583984375;-0.0207550048828125;6.83999998273066;685;100 mA;
57.364332855169;-0.699798583984375;-0.0207733154296875;6.84999998270541;686;100 mA;
57.3743328551437;-0.69976806640625;-0.02080078125;6.85999998268016;687;100 mA;
57.3843328551185;-0.699737548828125;-0.020819091796875;6.86999998265492;688;100 mA;
57.3943328550932;-0.699737548828125;-0.0208465576171875;6.87999998262967;689;100 mA;
57.404332855068;-0.699737548828125;-0.0208740234375;6.88999998260442;690;100 mA;
57.4143328550427;-0.69976806640625;-0.0208953857421875;6.89999998257917;691;100 mA;
57.4243328550175;-0.69976806640625;-0.0209320068359375;6.90999998255393;692;100 mA;
57.4343328549922;-0.69976806640625;-0.020947265625;6.91999998252868;693;100 mA;
57.444332854967;-0.69976806640625;-0.020977783203125;6.92999998250343;694;100 mA;
57.4543328549418;-0.69976806640625;-0.021002197265625;6.93999998247818;695;100 mA;
57.4643328549165;-0.69976806640625;-0.0210235595703125;6.94999998245294;696;100 mA;
57.4743328548913;-0.699798583984375;-0.021051025390625;6.95999998242769;697;100 mA;
57.484332854866;-0.69976806640625;-0.021063232421875;6.96999998240244;698;100 mA;
57.4943328548408;-0.699798583984375;-0.0210906982421875;6.97999998237719;699;100 mA;
57.5043328548155;-0.69976806640625;-0.0211151123046875;6.98999998235195;700;100 mA;
57.5143328547903;-0.699798583984375;-0.0211334228515625;6.9999999823267;701;100 mA;
57.524332854765;-0.699798583984375;-0.0211669921875;7.00999998230145;702;100 mA;
57.5343328547398;-0.699737548828125;-0.0211761474609375;7.0199999822762;703;100 mA;
57.5443328547145;-0.6998291015625;-0.02120361328125;7.02999998225096;704;100 mA;
57.5543328546893;-0.699737548828125;-0.021234130859375;7.03999998222571;705;100 mA;
57.564332854664;-0.69976806640625;-0.021258544921875;7.04999998220046;706;100 mA;
57.5743328546388;-0.69976806640625;-0.0212921142578125;7.05999998217521;707;100 mA;
57.5843328546135;-0.6998291015625;-0.02130126953125;7.06999998214997;708;100 mA;
57.5943328545883;-0.699737548828125;-0.0213287353515625;7.07999998212472;709;100 mA;
57.604332854563;-0.699737548828125;-0.0213531494140625;7.08999998209947;710;100 mA;
57.6143328545378;-0.699737548828125;-0.02137451171875;7.09999998207422;711;100 mA;
57.6243328545125;-0.69976806640625;-0.0213958740234375;7.10999998204898;712;100 mA;
57.6343328544873;-0.699798583984375;-0.021405029296875;7.11999998202373;713;100 mA;
57.644332854462;-0.699798583984375;-0.02142333984375;7.12999998199848;714;100 mA;
57.6543328544368;-0.6998291015625;-0.021441650390625;7.13999998197323;715;100 mA;
57.6643328544116;-0.69976806640625;-0.0214630126953125;7.14999998194799;716;100 mA;
57.6743328543863;-0.699798583984375;-0.0214874267578125;7.15999998192274;717;100 mA;
57.6843328543611;-0.69976806640625;-0.021490478515625;7.16999998189749;718;100 mA;
57.6943328543358;-0.69976806640625;-0.0215179443359375;7.17999998187224;719;100 mA;
57.7043328543106;-0.6998291015625;-0.021533203125;7.189999981847;720;100 mA;
57.7143328542853;-0.699737548828125;-0.02154541015625;7.19999998182175;721;100 mA;
57.7243328542601;-0.6998291015625;-0.021563720703125;7.2099999817965;722;100 mA;
57.7343328542348;-0.69976806640625;-0.021563720703125;7.21999998177125;723;100 mA;
57.7443328542096;-0.69976806640625;-0.021575927734375;7.229999981746;724;100 mA;
57.7543328541843;-0.699737548828125;-0.0215850830078125;7.23999998172076;725;100 mA;
57.7643328541591;-0.69976806640625;-0.02159423828125;7.24999998169551;726;100 mA;
57.7743328541338;-0.699859619140625;-0.021600341796875;7.25999998167026;727;100 mA;
57.7843328541086;-0.69976806640625;-0.02159423828125;7.26999998164501;728;100 mA;
57.7943328540833;-0.699798583984375;-0.021600341796875;7.27999998161977;729;100 mA;
57.8043328540581;-0.699798583984375;-0.0216033935546875;7.28999998159452;730;100 mA;
57.8143328540328;-0.6998291015625;-0.0216064453125;7.29999998156927;731;100 mA;
57.8243328540076;-0.69976806640625;-0.021612548828125;7.30999998154402;732;100 mA;
57.8343328539823;-0.699737548828125;-0.0216033935546875;7.31999998151878;733;100 mA;
57.8443328539571;-0.69976806640625;-0.0216064453125;7.32999998149353;734;100 mA;
57.8543328539319;-0.69976806640625;-0.0216064453125;7.33999998146828;735;100 mA;
57.8643328539066;-0.69976806640625;-0.0216064453125;7.34999998144303;736;100 mA;
57.8743328538814;-0.69976806640625;-0.0216064453125;7.35999998141779;737;100 mA;
57.8843328538561;-0.69976806640625;-0.0215972900390625;7.36999998139254;738;100 mA;
57.8943328538309;-0.699859619140625;-0.02159423828125;7.37999998136729;739;100 mA;
57.9043328538056;-0.69976806640625;-0.0215911865234375;7.38999998134204;740;100 mA;
57.9143328537804;-0.69976806640625;-0.0215789794921875;7.3999999813168;741;100 mA;
57.9243328537551;-0.699737548828125;-0.0215728759765625;7.40999998129155;742;100 mA;
57.9343328537299;-0.6998291015625;-0.0215545654296875;7.4199999812663;743;100 mA;
57.9443328537046;-0.69970703125;-0.0215484619140625;7.42999998124105;744;100 mA;
57.9543328536794;-0.699798583984375;-0.021539306640625;7.43999998121581;745;100 mA;
57.9643328536541;-0.69976806640625;-0.0215301513671875;7.44999998119056;746;100 mA;
57.9743328536289;-0.699737548828125;-0.0215240478515625;7.45999998116531;747;100 mA;
57.9843328536036;-0.69976806640625;-0.0215057373046875;7.46999998114006;748;100 mA;
57.9943328535784;-0.69976806640625;-0.0214996337890625;7.47999998111482;749;100 mA;
58.0043328535531;-0.6998291015625;-0.021490478515625;7.48999998108957;750;100 mA;
58.0143328535279;-0.699798583984375;-0.021478271484375;7.49999998106432;751;100 mA;
58.0243328535026;-0.699737548828125;-0.02147216796875;7.50999998103907;752;100 mA;
58.0343328534774;-0.699737548828125;-0.0214508056640625;7.51999998101383;753;100 mA;
58.0443328534521;-0.699798583984375;-0.0214385986328125;7.52999998098858;754;100 mA;
58.0543328534269;-0.69970703125;-0.02142333984375;7.53999998096333;755;100 mA;
58.0643328534017;-0.69976806640625;-0.0214111328125;7.54999998093808;756;100 mA;
58.0743328533764;-0.699737548828125;-0.0213958740234375;7.55999998091283;757;100 mA;
58.0843328533512;-0.699737548828125;-0.0213775634765625;7.56999998088759;758;100 mA;
58.0943328533259;-0.69976806640625;-0.0213623046875;7.57999998086234;759;100 mA;
58.1043328533007;-0.69976806640625;-0.02135009765625;7.58999998083709;760;100 mA;
58.1143328532754;-0.69976806640625;-0.0213348388671875;7.59999998081184;761;100 mA;
58.1243328532502;-0.69976806640625;-0.0213287353515625;7.6099999807866;762;100 mA;
58.1343328532249;-0.699798583984375;-0.02130126953125;7.61999998076135;763;100 mA;
58.1443328531997;-0.69976806640625;-0.0212921142578125;7.6299999807361;764;100 mA;
58.1543328531744;-0.69970703125;-0.02127685546875;7.63999998071085;765;100 mA;
58.1643328531492;-0.699798583984375;-0.0212615966796875;7.64999998068561;766;100 mA;
58.1743328531239;-0.699737548828125;-0.0212493896484375;7.65999998066036;767;100 mA;
58.1843328530987;-0.69976806640625;-0.0212249755859375;7.66999998063511;768;100 mA;
58.1943328530734;-0.699737548828125;-0.021209716796875;7.67999998060986;769;100 mA;
58.2043328530482;-0.6998291015625;-0.0211944580078125;7.68999998058462;770;100 mA;
58.2143328530229;-0.699737548828125;-0.021173095703125;7.69999998055937;771;100 mA;
58.2243328529977;-0.69976806640625;-0.0211578369140625;7.70999998053412;772;100 mA;
58.2343328529724;-0.699798583984375;-0.0211395263671875;7.71999998050887;773;100 mA;
58.2443328529472;-0.699798583984375;-0.0211212158203125;7.72999998048363;774;100 mA;
58.2543328529219;-0.6998291015625;-0.02110595703125;7.73999998045838;775;100 mA;
58.2643328528967;-0.6998291015625;-0.0210906982421875;7.74999998043313;776;100 mA;
58.2743328528715;-0.699859619140625;-0.0210784912109375;7.75999998040788;777;100 mA;
58.2843328528462;-0.69976806640625;-0.0210540771484375;7.76999998038264;778;100 mA;
58.294332852821;-0.6998291015625;-0.021038818359375;7.77999998035739;779;100 mA;
58.3043328527957;-0.699737548828125;-0.021026611328125;7.78999998033214;780;100 mA;
58.3143328527705;-0.69976806640625;-0.0210052490234375;7.79999998030689;781;100 mA;
58.3243328527452;-0.69976806640625;-0.020989990234375;7.80999998028165;782;100 mA;
58.33433285272;-0.699859619140625;-0.0209625244140625;7.8199999802564;783;100 mA;
58.3443328526947;-0.69976806640625;-0.020947265625;7.82999998023115;784;100 mA;
58.3543328526695;-0.699798583984375;-0.0209320068359375;7.8399999802059;785;100 mA;
58.3643328526442;-0.6998291015625;-0.0209075927734375;7.84999998018066;786;100 mA;
58.374332852619;-0.69976806640625;-0.020892333984375;7.85999998015541;787;100 mA;
58.3843328525937;-0.69976806640625;-0.020867919921875;7.86999998013016;788;100 mA;
58.3943328525685;-0.69976806640625;-0.020849609375;7.87999998010491;789;100 mA;
58.4043328525432;-0.699798583984375;-0.02083740234375;7.88999998007966;790;100 mA;
58.414332852518;-0.69976806640625;-0.02081298828125;7.89999998005442;791;100 mA;
58.4243328524927;-0.69976806640625;-0.02080078125;7.90999998002917;792;100 mA;
58.4343328524675;-0.699798583984375;-0.0207733154296875;7.91999998000392;793;100 mA;
58.4443328524422;-0.699737548828125;-0.020758056640625;7.92999997997867;794;100 mA;
58.454332852417;-0.69976806640625;-0.0207366943359375;7.93999997995343;795;100 mA;
58.4643328523917;-0.69976806640625;-0.0207122802734375;7.94999997992818;796;100 mA;
58.4743328523665;-0.699798583984375;-0.020697021484375;7.95999997990293;797;100 mA;
58.4843328523413;-0.6998291015625;-0.0206695556640625;7.96999997987768;798;100 mA;
58.494332852316;-0.699798583984375;-0.020648193359375;7.97999997985244;799;100 mA;
58.5043328522908;-0.699798583984375;-0.0206298828125;7.98999997982719;800;100 mA;
58.5143328522655;-0.69976806640625;-0.0206024169921875;7.99999997980194;801;100 mA;
58.5243328522403;-0.699798583984375;-0.020587158203125;8.00999997977669;802;100 mA;
58.534332852215;-0.69976806640625;-0.0205596923828125;8.01999997975145;803;100 mA;
58.5443328521898;-0.69976806640625;-0.020538330078125;8.0299999797262;804;100 mA;
58.5543328521645;-0.699798583984375;-0.0205230712890625;8.03999997970095;805;100 mA;
58.5643328521393;-0.69976806640625;-0.02049560546875;8.0499999796757;806;100 mA;
58.574332852114;-0.699737548828125;-0.0204833984375;8.05999997965046;807;100 mA;
58.5843328520888;-0.699798583984375;-0.020452880859375;8.06999997962521;808;100 mA;
58.5943328520635;-0.699737548828125;-0.0204345703125;8.07999997959996;809;100 mA;
58.6043328520383;-0.699859619140625;-0.0204132080078125;8.08999997957471;810;100 mA;
58.614332852013;-0.69970703125;-0.0203857421875;8.09999997954947;811;100 mA;
58.6243328519878;-0.699798583984375;-0.020367431640625;8.10999997952422;812;100 mA;
58.6343328519625;-0.699798583984375;-0.0203369140625;8.11999997949897;813;100 mA;
58.6443328519373;-0.69976806640625;-0.020318603515625;8.12999997947372;814;100 mA;
58.654332851912;-0.69976806640625;-0.02030029296875;8.13999997944848;815;100 mA;
58.6643328518868;-0.699737548828125;-0.0202728271484375;8.14999997942323;816;100 mA;
58.6743328518615;-0.699798583984375;-0.0202545166015625;8.15999997939798;817;100 mA;
58.6843328518363;-0.69970703125;-0.0202239990234375;8.16999997937273;818;100 mA;
58.6943328518111;-0.699737548828125;-0.0202056884765625;8.17999997934749;819;100 mA;
58.7043328517858;-0.6998291015625;-0.0201904296875;8.18999997932224;820;100 mA;
58.7143328517606;-0.699798583984375;-0.020159912109375;8.19999997929699;821;100 mA;
58.7243328517353;-0.69976806640625;-0.0201446533203125;8.20999997927174;822;100 mA;
58.7343328517101;-0.6998291015625;-0.0201171875;8.2199999792465;823;100 mA;
58.7443328516848;-0.69976806640625;-0.0200927734375;8.22999997922125;824;100 mA;
58.7543328516596;-0.699798583984375;-0.020074462890625;8.239999979196;825;100 mA;
58.7643328516343;-0.69976806640625;-0.0200439453125;8.24999997917075;826;100 mA;
58.7743328516091;-0.699798583984375;-0.0200286865234375;8.2599999791455;827;100 mA;
58.7843328515838;-0.699798583984375;-0.0199951171875;8.26999997912026;828;100 mA;
58.7943328515586;-0.699798583984375;-0.0199798583984375;8.27999997909501;829;100 mA;
58.8043328515333;-0.6998291015625;-0.0199554443359375;8.28999997906976;830;100 mA;
58.8143328515081;-0.69976806640625;-0.0199310302734375;8.29999997904451;831;100 mA;
58.8243328514828;-0.69976806640625;-0.0199249267578125;8.30999997901927;832;100 mA;
58.8343328514576;-0.69976806640625;-0.0198883056640625;8.31999997899402;833;100 mA;
58.8443328514323;-0.69976806640625;-0.019873046875;8.32999997896877;834;100 mA;
58.8543328514071;-0.69976806640625;-0.0198577880859375;8.33999997894352;835;100 mA;
58.8643328513818;-0.699798583984375;-0.0198333740234375;8.34999997891828;836;100 mA;
58.8743328513566;-0.699737548828125;-0.019818115234375;8.35999997889303;837;100 mA;
58.8843328513314;-0.699676513671875;-0.01978759765625;8.36999997886778;838;100 mA;
58.8943328513061;-0.69976806640625;-0.0197723388671875;8.37999997884253;839;100 mA;
58.9043328512809;-0.69970703125;-0.0197540283203125;8.38999997881729;840;100 mA;
58.9143328512556;-0.699737548828125;-0.0197265625;8.39999997879204;841;100 mA;
58.9243328512304;-0.699798583984375;-0.0197113037109375;8.40999997876679;842;100 mA;
58.9343328512051;-0.699737548828125;-0.0196807861328125;8.41999997874154;843;100 mA;
58.9443328511799;-0.69976806640625;-0.0196685791015625;8.4299999787163;844;100 mA;
58.9543328511546;-0.699737548828125;-0.0196533203125;8.43999997869105;845;100 mA;
58.9643328511294;-0.699798583984375;-0.0196319580078125;8.4499999786658;846;100 mA;
58.9743328511041;-0.69976806640625;-0.0196197509765625;8.45999997864055;847;100 mA;
58.9843328510789;-0.69976806640625;-0.019598388671875;8.46999997861531;848;100 mA;
58.9943328510536;-0.6998291015625;-0.0195831298828125;8.47999997859006;849;100 mA;
59.0043328510284;-0.699798583984375;-0.01956787109375;8.48999997856481;850;100 mA;
59.0143328510031;-0.69976806640625;-0.0195465087890625;8.49999997853956;851;100 mA;
59.0243328509779;-0.69976806640625;-0.019537353515625;8.50999997851432;852;100 mA;
59.0343328509526;-0.69976806640625;-0.0195098876953125;8.51999997848907;853;100 mA;
59.0443328509274;-0.69976806640625;-0.01949462890625;8.52999997846382;854;100 mA;
59.0543328509021;-0.699737548828125;-0.0194793701171875;8.53999997843857;855;100 mA;
59.0643328508769;-0.699737548828125;-0.0194580078125;8.54999997841333;856;100 mA;
59.0743328508516;-0.69976806640625;-0.019451904296875;8.55999997838808;857;100 mA;
59.0843328508264;-0.699737548828125;-0.0194305419921875;8.56999997836283;858;100 mA;
59.0943328508012;-0.699798583984375;-0.01942138671875;8.57999997833758;859;100 mA;
59.1043328507759;-0.69976806640625;-0.0194091796875;8.58999997831233;860;100 mA;
59.1143328507507;-0.69976806640625;-0.0193939208984375;8.59999997828709;861;100 mA;
59.1243328507254;-0.699798583984375;-0.019390869140625;8.60999997826184;862;100 mA;
59.1343328507002;-0.6998291015625;-0.0193695068359375;8.61999997823659;863;100 mA;
59.1443328506749;-0.699737548828125;-0.0193634033203125;8.62999997821134;864;100 mA;
59.1543328506497;-0.6998291015625;-0.019354248046875;8.6399999781861;865;100 mA;
59.1643328506244;-0.699737548828125;-0.019342041015625;8.64999997816085;866;100 mA;
59.1743328505992;-0.69976806640625;-0.0193359375;8.6599999781356;867;100 mA;
59.1843328505739;-0.699798583984375;-0.0193145751953125;8.66999997811035;868;100 mA;
59.1943328505487;-0.699798583984375;-0.0193084716796875;8.67999997808511;869;100 mA;
59.2043328505234;-0.6998291015625;-0.0192962646484375;8.68999997805986;870;100 mA;
59.2143328504982;-0.699737548828125;-0.0192840576171875;8.69999997803461;871;100 mA;
59.2243328504729;-0.69976806640625;-0.019287109375;8.70999997800936;872;100 mA;
59.2343328504477;-0.699798583984375;-0.0192718505859375;8.71999997798412;873;100 mA;
59.2443328504224;-0.69970703125;-0.0192718505859375;8.72999997795887;874;100 mA;
59.2543328503972;-0.69976806640625;-0.019268798828125;8.73999997793362;875;100 mA;
59.2643328503719;-0.699798583984375;-0.0192657470703125;8.74999997790837;876;100 mA;
59.2743328503467;-0.699737548828125;-0.0192718505859375;8.75999997788313;877;100 mA;
59.2843328503214;-0.69976806640625;-0.0192596435546875;8.76999997785788;878;100 mA;
59.2943328502962;-0.69976806640625;-0.0192626953125;8.77999997783263;879;100 mA;
59.304332850271;-0.699737548828125;-0.0192596435546875;8.78999997780738;880;100 mA;
59.3143328502457;-0.69976806640625;-0.019256591796875;8.79999997778214;881;100 mA;
59.3243328502205;-0.699798583984375;-0.0192596435546875;8.80999997775689;882;100 mA;
59.3343328501952;-0.699798583984375;-0.0192474365234375;8.81999997773164;883;100 mA;
59.34433285017;-0.6998291015625;-0.01925048828125;8.82999997770639;884;100 mA;
59.3543328501447;-0.699798583984375;-0.0192474365234375;8.83999997768115;885;100 mA;
59.3643328501195;-0.69976806640625;-0.0192413330078125;8.8499999776559;886;100 mA;
59.3743328500942;-0.69976806640625;-0.019244384765625;8.85999997763065;887;100 mA;
59.384332850069;-0.699798583984375;-0.01923828125;8.8699999776054;888;100 mA;
59.3943328500437;-0.699737548828125;-0.019244384765625;8.87999997758016;889;100 mA;
59.4043328500185;-0.699798583984375;-0.01925048828125;8.88999997755491;890;100 mA;
59.4143328499932;-0.699798583984375;-0.019256591796875;8.89999997752966;891;100 mA;
59.424332849968;-0.699798583984375;-0.019268798828125;8.90999997750441;892;100 mA;
59.4343328499427;-0.699798583984375;-0.0192657470703125;8.91999997747916;893;100 mA;
59.4443328499175;-0.69976806640625;-0.0192779541015625;8.92999997745392;894;100 mA;
59.4543328498922;-0.699798583984375;-0.019287109375;8.93999997742867;895;100 mA;
59.464332849867;-0.699737548828125;-0.019287109375;8.94999997740342;896;100 mA;
59.4743328498417;-0.69976806640625;-0.019293212890625;8.95999997737817;897;100 mA;
59.4843328498165;-0.699798583984375;-0.0192840576171875;8.96999997735293;898;100 mA;
59.4943328497912;-0.69976806640625;-0.0192840576171875;8.97999997732768;899;100 mA;
59.504332849766;-0.699737548828125;-0.0192840576171875;8.98999997730243;900;100 mA;
59.5143328497408;-0.69976806640625;-0.0192779541015625;8.99999997727718;901;100 mA;
59.5243328497155;-0.6998291015625;-0.0192840576171875;9.00999997725194;902;100 mA;
59.5343328496903;-0.69976806640625;-0.0192779541015625;9.01999997722669;903;100 mA;
59.544332849665;-0.6998291015625;-0.019281005859375;9.02999997720144;904;100 mA;
59.5543328496398;-0.699798583984375;-0.019287109375;9.03999997717619;905;100 mA;
59.5643328496145;-0.699737548828125;-0.019287109375;9.04999997715095;906;100 mA;
59.5743328495893;-0.699737548828125;-0.01929931640625;9.0599999771257;907;100 mA;
59.584332849564;-0.699798583984375;-0.01929931640625;9.06999997710045;908;100 mA;
59.5943328495388;-0.69976806640625;-0.019305419921875;9.0799999770752;909;100 mA;
59.6043328495135;-0.69976806640625;-0.0193115234375;9.08999997704996;910;100 mA;
59.6143328494883;-0.69976806640625;-0.0193084716796875;9.09999997702471;911;100 mA;
59.624332849463;-0.69976806640625;-0.0193206787109375;9.10999997699946;912;100 mA;
59.6343328494378;-0.699737548828125;-0.0193145751953125;9.11999997697421;913;100 mA;
59.6443328494125;-0.699737548828125;-0.0193115234375;9.12999997694897;914;100 mA;
59.6543328493873;-0.6998291015625;-0.0193145751953125;9.13999997692372;915;100 mA;
59.664332849362;-0.699737548828125;-0.0193084716796875;9.14999997689847;916;100 mA;
59.6743328493368;-0.699798583984375;-0.0193115234375;9.15999997687322;917;100 mA;
59.6843328493115;-0.699798583984375;-0.0193023681640625;9.16999997684798;918;100 mA;
59.6943328492863;-0.699798583984375;-0.019305419921875;9.17999997682273;919;100 mA;
59.704332849261;-0.699737548828125;-0.0193115234375;9.18999997679748;920;100 mA;
59.7143328492358;-0.699798583984375;-0.0193115234375;9.19999997677223;921;100 mA;
59.7243328492106;-0.699737548828125;-0.01932373046875;9.20999997674699;922;100 mA;
59.7343328491853;-0.699798583984375;-0.0193206787109375;9.21999997672174;923;100 mA;
59.7443328491601;-0.69976806640625;-0.019329833984375;9.22999997669649;924;100 mA;
59.7543328491348;-0.69976806640625;-0.0193389892578125;9.23999997667124;925;100 mA;
59.7643328491096;-0.69976806640625;-0.0193389892578125;9.249999976646;926;100 mA;
59.7743328490843;-0.699798583984375;-0.0193450927734375;9.25999997662075;927;100 mA;
59.7843328490591;-0.699798583984375;-0.019342041015625;9.2699999765955;928;100 mA;
59.7943328490338;-0.69976806640625;-0.0193450927734375;9.27999997657025;929;100 mA;
59.8043328490086;-0.699737548828125;-0.0193450927734375;9.289999976545;930;100 mA;
59.8143328489833;-0.699798583984375;-0.0193389892578125;9.29999997651976;931;100 mA;
59.8243328489581;-0.69976806640625;-0.0193389892578125;9.30999997649451;932;100 mA;
59.8343328489328;-0.699737548828125;-0.0193359375;9.31999997646926;933;100 mA;
59.8443328489076;-0.699737548828125;-0.0193389892578125;9.32999997644401;934;100 mA;
59.8543328488823;-0.69976806640625;-0.019342041015625;9.33999997641877;935;100 mA;
59.8643328488571;-0.699737548828125;-0.0193389892578125;9.34999997639352;936;100 mA;
59.8743328488318;-0.699798583984375;-0.0193511962890625;9.35999997636827;937;100 mA;
59.8843328488066;-0.69976806640625;-0.01934814453125;9.36999997634302;938;100 mA;
59.8943328487813;-0.699737548828125;-0.0193572998046875;9.37999997631778;939;100 mA;
59.9043328487561;-0.699798583984375;-0.019366455078125;9.38999997629253;940;100 mA;
59.9143328487309;-0.6998291015625;-0.019366455078125;9.39999997626728;941;100 mA;
59.9243328487056;-0.69976806640625;-0.01937255859375;9.40999997624203;942;100 mA;
59.9343328486804;-0.699737548828125;-0.0193572998046875;9.41999997621679;943;100 mA;
59.9443328486551;-0.699798583984375;-0.019354248046875;9.42999997619154;944;100 mA;
59.9543328486299;-0.69976806640625;-0.01934814453125;9.43999997616629;945;100 mA;
59.9643328486046;-0.6998291015625;-0.0193359375;9.44999997614104;946;100 mA;
59.9743328485794;-0.699798583984375;-0.0193389892578125;9.4599999761158;947;100 mA;
59.9843328485541;-0.699798583984375;-0.0193206787109375;9.46999997609055;948;100 mA;
59.9943328485289;-0.699798583984375;-0.019317626953125;9.4799999760653;949;100 mA;
60.0043328485036;-0.699798583984375;-0.019317626953125;9.48999997604005;950;100 mA;
60.0143328484784;-0.699798583984375;-0.0193084716796875;9.49999997601481;951;100 mA;
60.0243328484531;-0.699798583984375;-0.0193115234375;9.50999997598956;952;100 mA;
60.0343328484279;-0.699798583984375;-0.0193023681640625;9.51999997596431;953;100 mA;
60.0443328484026;-0.699798583984375;-0.0192962646484375;9.52999997593906;954;100 mA;
60.0543328483774;-0.69976806640625;-0.0192962646484375;9.53999997591382;955;100 mA;
60.0643328483521;-0.69970703125;-0.019281005859375;9.54999997588857;956;100 mA;
60.0743328483269;-0.699798583984375;-0.019281005859375;9.55999997586332;957;100 mA;
60.0843328483016;-0.699859619140625;-0.0192626953125;9.56999997583807;958;100 mA;
60.0943328482764;-0.699737548828125;-0.0192535400390625;9.57999997581283;959;100 mA;
60.1043328482511;-0.699737548828125;-0.0192413330078125;9.58999997578758;960;100 mA;
60.1143328482259;-0.699798583984375;-0.0192230224609375;9.59999997576233;961;100 mA;
60.1243328482007;-0.699737548828125;-0.0192169189453125;9.60999997573708;962;100 mA;
60.1343328481754;-0.699737548828125;-0.0191925048828125;9.61999997571183;963;100 mA;
60.1443328481502;-0.699798583984375;-0.019183349609375;9.62999997568659;964;100 mA;
60.1543328481249;-0.699798583984375;-0.0191741943359375;9.63999997566134;965;100 mA;
60.1643328480997;-0.699798583984375;-0.0191650390625;9.64999997563609;966;100 mA;
60.1743328480744;-0.69976806640625;-0.019158935546875;9.65999997561084;967;100 mA;
60.1843328480492;-0.699737548828125;-0.0191375732421875;9.6699999755856;968;100 mA;
60.1943328480239;-0.699737548828125;-0.0191314697265625;9.67999997556035;969;100 mA;
60.2043328479987;-0.69976806640625;-0.0191253662109375;9.6899999755351;970;100 mA;
60.2143328479734;-0.699798583984375;-0.0191070556640625;9.69999997550985;971;100 mA;
60.2243328479482;-0.69976806640625;-0.0191009521484375;9.70999997548461;972;100 mA;
60.2343328479229;-0.699737548828125;-0.019073486328125;9.71999997545936;973;100 mA;
60.2443328478977;-0.69976806640625;-0.019061279296875;9.72999997543411;974;100 mA;
60.2543328478724;-0.699737548828125;-0.01904296875;9.73999997540886;975;100 mA;
60.2643328478472;-0.69976806640625;-0.019024658203125;9.74999997538362;976;100 mA;
60.2743328478219;-0.69976806640625;-0.0190155029296875;9.75999997535837;977;100 mA;
60.2843328477967;-0.699798583984375;-0.018988037109375;9.76999997533312;978;100 mA;
60.2943328477714;-0.699737548828125;-0.0189788818359375;9.77999997530787;979;100 mA;
60.3043328477462;-0.699798583984375;-0.0189697265625;9.78999997528263;980;100 mA;
60.3143328477209;-0.699798583984375;-0.018951416015625;9.79999997525738;981;100 mA;
60.3243328476957;-0.69976806640625;-0.0189483642578125;9.80999997523213;982;100 mA;
60.3343328476705;-0.6998291015625;-0.018927001953125;9.81999997520688;983;100 mA;
60.3443328476452;-0.69976806640625;-0.0189208984375;9.82999997518164;984;100 mA;
60.35433284762;-0.69976806640625;-0.0189056396484375;9.83999997515639;985;100 mA;
60.3643328475947;-0.69976806640625;-0.018890380859375;9.84999997513114;986;100 mA;
60.3743328475695;-0.699737548828125;-0.0188812255859375;9.85999997510589;987;100 mA;
60.3843328475442;-0.69976806640625;-0.01885986328125;9.86999997508065;988;100 mA;
60.394332847519;-0.69976806640625;-0.0188446044921875;9.8799999750554;989;100 mA;
60.4043328474937;-0.69976806640625;-0.018829345703125;9.88999997503015;990;100 mA;
60.4143328474685;-0.699798583984375;-0.0188079833984375;9.8999999750049;991;100 mA;
60.4243328474432;-0.69976806640625;-0.018798828125;9.90999997497966;992;100 mA;
60.434332847418;-0.699798583984375;-0.0187713623046875;9.91999997495441;993;100 mA;
60.4443328473927;-0.69976806640625;-0.0187652587890625;9.92999997492916;994;100 mA;
60.4543328473675;-0.699798583984375;-0.0187530517578125;9.93999997490391;995;100 mA;
60.4643328473422;-0.699737548828125;-0.01873779296875;9.94999997487866;996;100 mA;
60.474332847317;-0.69976806640625;-0.018731689453125;9.95999997485342;997;100 mA;
60.4843328472917;-0.699798583984375;-0.01871337890625;9.96999997482817;998;100 mA;
60.4943328472665;-0.69976806640625;-0.018707275390625;9.97999997480292;999;100 mA;
60.5043328472412;-0.699676513671875;-0.018695068359375;9.98999997477767;1000;100 mA;
