Time (s);WE(1).Potential (V);WE(1).Current (A);Corrected time (s);Index;Current range;Overload
121.173661694066;-0.80047607421875;-0.382293701171875;0;1;100 mA;Current overload
121.183661694041;-0.799560546875;-0.259521484375;0.00999999997475243;2;100 mA;
121.193661694015;-0.79986572265625;-0.20867919921875;0.0199999999495049;3;100 mA;
121.20366169399;-0.79986572265625;-0.179718017578125;0.0299999999242573;4;100 mA;
121.213661693965;-0.799560546875;-0.1602783203125;0.0399999998990097;5;100 mA;
121.22366169394;-0.79925537109375;-0.145904541015625;0.0499999998737621;6;100 mA;
121.233661693914;-0.79925537109375;-0.134765625;0.0599999998485146;7;100 mA;
121.243661693889;-0.799560546875;-0.12579345703125;0.069999999823267;8;100 mA;
121.253661693864;-0.799560546875;-0.118377685546875;0.0799999997980194;9;100 mA;
121.263661693839;-0.799560546875;-0.11212158203125;0.0899999997727718;10;100 mA;
121.273661693813;-0.79986572265625;-0.10675048828125;0.0999999997475243;11;100 mA;
121.283661693788;-0.799560546875;-0.102081298828125;0.109999999722277;12;100 mA;
121.293661693763;-0.799560546875;-0.097930908203125;0.119999999697029;13;100 mA;
121.303661693738;-0.79925537109375;-0.094268798828125;0.129999999671782;14;100 mA;
121.313661693712;-0.799560546875;-0.090972900390625;0.139999999646534;15;100 mA;
121.323661693687;-0.799560546875;-0.0880126953125;0.149999999621286;16;100 mA;
121.333661693662;-0.799560546875;-0.0853271484375;0.159999999596039;17;100 mA;
121.343661693637;-0.8001708984375;-0.082855224609375;0.169999999570791;18;100 mA;
121.353661693611;-0.79925537109375;-0.08056640625;0.179999999545544;19;100 mA;
121.363661693586;-0.79986572265625;-0.0784912109375;0.189999999520296;20;100 mA;
121.373661693561;-0.79925537109375;-0.0765380859375;0.199999999495049;21;100 mA;
121.383661693536;-0.8001708984375;-0.074737548828125;0.209999999469801;22;100 mA;
121.39366169351;-0.79925537109375;-0.07305908203125;0.219999999444553;23;100 mA;
121.403661693485;-0.799560546875;-0.07147216796875;0.229999999419306;24;100 mA;
121.41366169346;-0.799560546875;-0.07000732421875;0.239999999394058;25;100 mA;
121.423661693435;-0.799560546875;-0.068603515625;0.249999999368811;26;100 mA;
121.433661693409;-0.799560546875;-0.067291259765625;0.259999999343563;27;100 mA;
121.443661693384;-0.799560546875;-0.0660400390625;0.269999999318316;28;100 mA;
121.453661693359;-0.799560546875;-0.06488037109375;0.279999999293068;29;100 mA;
121.463661693334;-0.79925537109375;-0.063751220703125;0.28999999926782;30;100 mA;
121.473661693308;-0.799560546875;-0.06268310546875;0.299999999242573;31;100 mA;
121.483661693283;-0.799560546875;-0.06170654296875;0.309999999217325;32;100 mA;
121.493661693258;-0.799560546875;-0.06072998046875;0.319999999192078;33;100 mA;
121.503661693233;-0.799560546875;-0.059814453125;0.32999999916683;34;100 mA;
121.513661693207;-0.79925537109375;-0.058929443359375;0.339999999141583;35;100 mA;
121.523661693182;-0.799560546875;-0.05810546875;0.349999999116335;36;100 mA;
121.533661693157;-0.79925537109375;-0.057281494140625;0.359999999091087;37;100 mA;
121.543661693132;-0.79986572265625;-0.0565185546875;0.36999999906584;38;100 mA;
121.553661693107;-0.79925537109375;-0.0557861328125;0.379999999040592;39;100 mA;
121.563661693081;-0.799560546875;-0.055084228515625;0.389999999015345;40;100 mA;
121.573661693056;-0.79925537109375;-0.05438232421875;0.399999998990097;41;100 mA;
121.583661693031;-0.799560546875;-0.053741455078125;0.40999999896485;42;100 mA;
121.593661693006;-0.7989501953125;-0.0531005859375;0.419999998939602;43;100 mA;
121.60366169298;-0.79986572265625;-0.052490234375;0.429999998914354;44;100 mA;
121.613661692955;-0.799560546875;-0.0518798828125;0.439999998889107;45;100 mA;
121.62366169293;-0.79986572265625;-0.05133056640625;0.449999998863859;46;100 mA;
121.633661692905;-0.799560546875;-0.05078125;0.459999998838612;47;100 mA;
121.643661692879;-0.79986572265625;-0.05023193359375;0.469999998813364;48;100 mA;
121.653661692854;-0.79925537109375;-0.04970703125;0.479999998788116;49;100 mA;
121.663661692829;-0.79925537109375;-0.049212646484375;0.489999998762869;50;100 mA;
121.673661692804;-0.79986572265625;-0.048724365234375;0.499999998737621;51;100 mA;
121.683661692778;-0.79925537109375;-0.048260498046875;0.509999998712374;52;100 mA;
121.693661692753;-0.79986572265625;-0.0478057861328125;0.519999998687126;53;100 mA;
121.703661692728;-0.79925537109375;-0.0473663330078125;0.529999998661879;54;100 mA;
121.713661692703;-0.7989501953125;-0.0469390869140625;0.539999998636631;55;100 mA;
121.723661692677;-0.7989501953125;-0.046514892578125;0.549999998611383;56;100 mA;
121.733661692652;-0.79925537109375;-0.0461181640625;0.559999998586136;57;100 mA;
121.743661692627;-0.7989501953125;-0.0457244873046875;0.569999998560888;58;100 mA;
121.753661692602;-0.7989501953125;-0.0453369140625;0.579999998535641;59;100 mA;
121.763661692576;-0.799560546875;-0.0449676513671875;0.589999998510393;60;100 mA;
121.773661692551;-0.79986572265625;-0.0446014404296875;0.599999998485146;61;100 mA;
121.783661692526;-0.799560546875;-0.044256591796875;0.609999998459898;62;100 mA;
121.793661692501;-0.799560546875;-0.0439117431640625;0.61999999843465;63;100 mA;
121.803661692475;-0.799560546875;-0.0435760498046875;0.629999998409403;64;100 mA;
121.81366169245;-0.799560546875;-0.0432525634765625;0.639999998384155;65;100 mA;
121.823661692425;-0.79925537109375;-0.0429290771484375;0.649999998358908;66;100 mA;
121.8336616924;-0.799560546875;-0.0426239013671875;0.65999999833366;67;100 mA;
121.843661692374;-0.799560546875;-0.04232177734375;0.669999998308413;68;100 mA;
121.853661692349;-0.799560546875;-0.042022705078125;0.679999998283165;69;100 mA;
121.863661692324;-0.799560546875;-0.0417388916015625;0.689999998257917;70;100 mA;
121.873661692299;-0.799560546875;-0.0414520263671875;0.69999999823267;71;100 mA;
121.883661692273;-0.79925537109375;-0.0411865234375;0.709999998207422;72;100 mA;
121.893661692248;-0.799560546875;-0.0409149169921875;0.719999998182175;73;100 mA;
121.903661692223;-0.799560546875;-0.0406494140625;0.729999998156927;74;100 mA;
121.913661692198;-0.79925537109375;-0.0403961181640625;0.73999999813168;75;100 mA;
121.923661692172;-0.799560546875;-0.0401397705078125;0.749999998106432;76;100 mA;
121.933661692147;-0.79986572265625;-0.03990478515625;0.759999998081184;77;100 mA;
121.943661692122;-0.79925537109375;-0.039666748046875;0.769999998055937;78;100 mA;
121.953661692097;-0.79925537109375;-0.0394287109375;0.779999998030689;79;100 mA;
121.963661692071;-0.799560546875;-0.039202880859375;0.789999998005442;80;100 mA;
121.973661692046;-0.79925537109375;-0.0389739990234375;0.799999997980194;81;100 mA;
121.983661692021;-0.79925537109375;-0.0387664794921875;0.809999997954947;82;100 mA;
121.993661691996;-0.799560546875;-0.0385498046875;0.819999997929699;83;100 mA;
122.00366169197;-0.79925537109375;-0.0383392333984375;0.829999997904451;84;100 mA;
122.013661691945;-0.79986572265625;-0.0381378173828125;0.839999997879204;85;100 mA;
122.02366169192;-0.799560546875;-0.0379302978515625;0.849999997853956;86;100 mA;
122.033661691895;-0.799560546875;-0.037744140625;0.859999997828709;87;100 mA;
122.043661691869;-0.799560546875;-0.0375518798828125;0.869999997803461;88;100 mA;
122.053661691844;-0.79925537109375;-0.037359619140625;0.879999997778214;89;100 mA;
122.063661691819;-0.799560546875;-0.0371795654296875;0.889999997752966;90;100 mA;
122.073661691794;-0.79925537109375;-0.0369903564453125;0.899999997727718;91;100 mA;
122.083661691768;-0.79925537109375;-0.0368255615234375;0.909999997702471;92;100 mA;
122.093661691743;-0.79925537109375;-0.036651611328125;0.919999997677223;93;100 mA;
122.103661691718;-0.799560546875;-0.036474609375;0.929999997651976;94;100 mA;
122.113661691693;-0.79925537109375;-0.0363128662109375;0.939999997626728;95;100 mA;
122.123661691667;-0.8001708984375;-0.0361419677734375;0.949999997601481;96;100 mA;
122.133661691642;-0.799560546875;-0.0359893798828125;0.959999997576233;97;100 mA;
122.143661691617;-0.79925537109375;-0.035833740234375;0.969999997550985;98;100 mA;
122.153661691592;-0.79925537109375;-0.035675048828125;0.979999997525738;99;100 mA;
122.163661691566;-0.79925537109375;-0.035528564453125;0.98999999750049;100;100 mA;
122.173661691541;-0.7989501953125;-0.0353729248046875;0.999999997475243;101;100 mA;
122.183661691516;-0.799560546875;-0.0352386474609375;1.00999999745;102;100 mA;
122.193661691491;-0.79986572265625;-0.0350921630859375;1.01999999742475;103;100 mA;
122.203661691465;-0.79925537109375;-0.0349517822265625;1.0299999973995;104;100 mA;
122.21366169144;-0.79986572265625;-0.034820556640625;1.03999999737425;105;100 mA;
122.223661691415;-0.799560546875;-0.03468017578125;1.049999997349;106;100 mA;
122.23366169139;-0.799560546875;-0.034552001953125;1.05999999732376;107;100 mA;
122.243661691364;-0.79986572265625;-0.034423828125;1.06999999729851;108;100 mA;
122.253661691339;-0.79925537109375;-0.0342926025390625;1.07999999727326;109;100 mA;
122.263661691314;-0.79925537109375;-0.034173583984375;1.08999999724801;110;100 mA;
122.273661691289;-0.79986572265625;-0.0340545654296875;1.09999999722277;111;100 mA;
122.283661691263;-0.799560546875;-0.0339447021484375;1.10999999719752;112;100 mA;
122.293661691238;-0.799560546875;-0.0338348388671875;1.11999999717227;113;100 mA;
122.303661691213;-0.79925537109375;-0.033721923828125;1.12999999714702;114;100 mA;
122.313661691188;-0.79925537109375;-0.0336151123046875;1.13999999712178;115;100 mA;
122.323661691162;-0.8001708984375;-0.0334991455078125;1.14999999709653;116;100 mA;
122.333661691137;-0.79925537109375;-0.033404541015625;1.15999999707128;117;100 mA;
122.343661691112;-0.79925537109375;-0.0332977294921875;1.16999999704603;118;100 mA;
122.353661691087;-0.8001708984375;-0.03319091796875;1.17999999702079;119;100 mA;
122.363661691061;-0.799560546875;-0.03309326171875;1.18999999699554;120;100 mA;
122.373661691036;-0.79925537109375;-0.032989501953125;1.19999999697029;121;100 mA;
122.383661691011;-0.799560546875;-0.03289794921875;1.20999999694504;122;100 mA;
122.393661690986;-0.799560546875;-0.0328033447265625;1.2199999969198;123;100 mA;
122.40366169096;-0.79925537109375;-0.03270263671875;1.22999999689455;124;100 mA;
122.413661690935;-0.799560546875;-0.0326080322265625;1.2399999968693;125;100 mA;
122.42366169091;-0.799560546875;-0.03250732421875;1.24999999684405;126;100 mA;
122.433661690885;-0.79986572265625;-0.0324188232421875;1.25999999681881;127;100 mA;
122.443661690859;-0.79986572265625;-0.03232421875;1.26999999679356;128;100 mA;
122.453661690834;-0.799560546875;-0.0322265625;1.27999999676831;129;100 mA;
122.463661690809;-0.799560546875;-0.03214111328125;1.28999999674306;130;100 mA;
122.473661690784;-0.79925537109375;-0.03204345703125;1.29999999671782;131;100 mA;
122.483661690758;-0.8001708984375;-0.0319610595703125;1.30999999669257;132;100 mA;
122.493661690733;-0.79986572265625;-0.0318695068359375;1.31999999666732;133;100 mA;
122.503661690708;-0.79986572265625;-0.0317779541015625;1.32999999664207;134;100 mA;
122.513661690683;-0.799560546875;-0.0316925048828125;1.33999999661683;135;100 mA;
122.523661690657;-0.79925537109375;-0.0315948486328125;1.34999999659158;136;100 mA;
122.533661690632;-0.79986572265625;-0.0315185546875;1.35999999656633;137;100 mA;
122.543661690607;-0.799560546875;-0.0314300537109375;1.36999999654108;138;100 mA;
122.553661690582;-0.8001708984375;-0.0313446044921875;1.37999999651583;139;100 mA;
122.563661690557;-0.79925537109375;-0.0312591552734375;1.38999999649059;140;100 mA;
122.573661690531;-0.79925537109375;-0.0311676025390625;1.39999999646534;141;100 mA;
122.583661690506;-0.79925537109375;-0.03109130859375;1.40999999644009;142;100 mA;
122.593661690481;-0.799560546875;-0.030999755859375;1.41999999641484;143;100 mA;
122.603661690456;-0.7989501953125;-0.0309173583984375;1.4299999963896;144;100 mA;
122.61366169043;-0.79925537109375;-0.0308380126953125;1.43999999636435;145;100 mA;
122.623661690405;-0.799560546875;-0.03074951171875;1.4499999963391;146;100 mA;
122.63366169038;-0.799560546875;-0.030670166015625;1.45999999631385;147;100 mA;
122.643661690355;-0.799560546875;-0.030584716796875;1.46999999628861;148;100 mA;
122.653661690329;-0.799560546875;-0.030499267578125;1.47999999626336;149;100 mA;
122.663661690304;-0.79986572265625;-0.0304168701171875;1.48999999623811;150;100 mA;
122.673661690279;-0.799560546875;-0.0303314208984375;1.49999999621286;151;100 mA;
122.683661690254;-0.7989501953125;-0.0302520751953125;1.50999999618762;152;100 mA;
122.693661690228;-0.799560546875;-0.03016357421875;1.51999999616237;153;100 mA;
122.703661690203;-0.799560546875;-0.0300750732421875;1.52999999613712;154;100 mA;
122.713661690178;-0.799560546875;-0.0299957275390625;1.53999999611187;155;100 mA;
122.723661690153;-0.79986572265625;-0.0299102783203125;1.54999999608663;156;100 mA;
122.733661690127;-0.79986572265625;-0.029833984375;1.55999999606138;157;100 mA;
122.743661690102;-0.799560546875;-0.0297515869140625;1.56999999603613;158;100 mA;
122.753661690077;-0.79986572265625;-0.0296722412109375;1.57999999601088;159;100 mA;
122.763661690052;-0.79925537109375;-0.029595947265625;1.58999999598564;160;100 mA;
122.773661690026;-0.7989501953125;-0.0295074462890625;1.59999999596039;161;100 mA;
122.783661690001;-0.799560546875;-0.02943115234375;1.60999999593514;162;100 mA;
122.793661689976;-0.799560546875;-0.029351806640625;1.61999999590989;163;100 mA;
122.803661689951;-0.79986572265625;-0.0292724609375;1.62999999588465;164;100 mA;
122.813661689925;-0.799560546875;-0.029193115234375;1.6399999958594;165;100 mA;
122.8236616899;-0.79925537109375;-0.029107666015625;1.64999999583415;166;100 mA;
122.833661689875;-0.79986572265625;-0.029034423828125;1.6599999958089;167;100 mA;
122.84366168985;-0.799560546875;-0.0289520263671875;1.66999999578366;168;100 mA;
122.853661689824;-0.79986572265625;-0.0288818359375;1.67999999575841;169;100 mA;
122.863661689799;-0.79986572265625;-0.0288055419921875;1.68999999573316;170;100 mA;
122.873661689774;-0.8001708984375;-0.02872314453125;1.69999999570791;171;100 mA;
122.883661689749;-0.799560546875;-0.0286529541015625;1.70999999568267;172;100 mA;
122.893661689723;-0.79986572265625;-0.02857666015625;1.71999999565742;173;100 mA;
122.903661689698;-0.79925537109375;-0.0285003662109375;1.72999999563217;174;100 mA;
122.913661689673;-0.79925537109375;-0.02843017578125;1.73999999560692;175;100 mA;
122.923661689648;-0.79925537109375;-0.0283477783203125;1.74999999558167;176;100 mA;
122.933661689622;-0.79925537109375;-0.02828369140625;1.75999999555643;177;100 mA;
122.943661689597;-0.799560546875;-0.0282073974609375;1.76999999553118;178;100 mA;
122.953661689572;-0.79986572265625;-0.0281341552734375;1.77999999550593;179;100 mA;
122.963661689547;-0.7989501953125;-0.0280609130859375;1.78999999548068;180;100 mA;
122.973661689521;-0.79986572265625;-0.0279815673828125;1.79999999545544;181;100 mA;
122.983661689496;-0.79986572265625;-0.027923583984375;1.80999999543019;182;100 mA;
122.993661689471;-0.8001708984375;-0.027850341796875;1.81999999540494;183;100 mA;
123.003661689446;-0.79925537109375;-0.027777099609375;1.82999999537969;184;100 mA;
123.01366168942;-0.7989501953125;-0.0277099609375;1.83999999535445;185;100 mA;
123.023661689395;-0.799560546875;-0.02763671875;1.8499999953292;186;100 mA;
123.03366168937;-0.799560546875;-0.0275726318359375;1.85999999530395;187;100 mA;
123.043661689345;-0.79925537109375;-0.0275054931640625;1.8699999952787;188;100 mA;
123.053661689319;-0.79925537109375;-0.027435302734375;1.87999999525346;189;100 mA;
123.063661689294;-0.79925537109375;-0.027374267578125;1.88999999522821;190;100 mA;
123.073661689269;-0.79986572265625;-0.0272979736328125;1.89999999520296;191;100 mA;
123.083661689244;-0.79986572265625;-0.0272430419921875;1.90999999517771;192;100 mA;
123.093661689218;-0.79925537109375;-0.0271728515625;1.91999999515247;193;100 mA;
123.103661689193;-0.799560546875;-0.0271087646484375;1.92999999512722;194;100 mA;
123.113661689168;-0.799560546875;-0.0270477294921875;1.93999999510197;195;100 mA;
123.123661689143;-0.79925537109375;-0.0269775390625;1.94999999507672;196;100 mA;
123.133661689117;-0.799560546875;-0.0269195556640625;1.95999999505148;197;100 mA;
123.143661689092;-0.799560546875;-0.02685546875;1.96999999502623;198;100 mA;
123.153661689067;-0.799560546875;-0.02679443359375;1.97999999500098;199;100 mA;
123.163661689042;-0.799560546875;-0.0267333984375;1.98999999497573;200;100 mA;
123.173661689016;-0.79925537109375;-0.0266693115234375;1.99999999495049;201;100 mA;
123.183661688991;-0.79986572265625;-0.0266143798828125;2.00999999492524;202;100 mA;
123.193661688966;-0.79925537109375;-0.0265533447265625;2.01999999489999;203;100 mA;
123.203661688941;-0.799560546875;-0.0264923095703125;2.02999999487474;204;100 mA;
123.213661688915;-0.79986572265625;-0.0264404296875;2.0399999948495;205;100 mA;
123.22366168889;-0.799560546875;-0.02637939453125;2.04999999482425;206;100 mA;
123.233661688865;-0.799560546875;-0.02633056640625;2.059999994799;207;100 mA;
123.24366168884;-0.799560546875;-0.026275634765625;2.06999999477375;208;100 mA;
123.253661688814;-0.79925537109375;-0.026214599609375;2.0799999947485;209;100 mA;
123.263661688789;-0.799560546875;-0.026165771484375;2.08999999472326;210;100 mA;
123.273661688764;-0.79925537109375;-0.0261077880859375;2.09999999469801;211;100 mA;
123.283661688739;-0.79986572265625;-0.0260589599609375;2.10999999467276;212;100 mA;
123.293661688713;-0.79986572265625;-0.026007080078125;2.11999999464751;213;100 mA;
123.303661688688;-0.79986572265625;-0.0259552001953125;2.12999999462227;214;100 mA;
123.313661688663;-0.79986572265625;-0.0259124755859375;2.13999999459702;215;100 mA;
123.323661688638;-0.7989501953125;-0.0258575439453125;2.14999999457177;216;100 mA;
123.333661688612;-0.79986572265625;-0.0258209228515625;2.15999999454652;217;100 mA;
123.343661688587;-0.799560546875;-0.0257781982421875;2.16999999452128;218;100 mA;
123.353661688562;-0.799560546875;-0.0257354736328125;2.17999999449603;219;100 mA;
123.363661688537;-0.79986572265625;-0.0257049560546875;2.18999999447078;220;100 mA;
123.373661688511;-0.79986572265625;-0.0256622314453125;2.19999999444553;221;100 mA;
123.383661688486;-0.7989501953125;-0.0256378173828125;2.20999999442029;222;100 mA;
123.393661688461;-0.8001708984375;-0.0256011962890625;2.21999999439504;223;100 mA;
123.403661688436;-0.799560546875;-0.0255706787109375;2.22999999436979;224;100 mA;
123.41366168841;-0.799560546875;-0.02554931640625;2.23999999434454;225;100 mA;
123.423661688385;-0.8001708984375;-0.0255218505859375;2.2499999943193;226;100 mA;
123.43366168836;-0.79925537109375;-0.0255035400390625;2.25999999429405;227;100 mA;
123.443661688335;-0.79986572265625;-0.0254791259765625;2.2699999942688;228;100 mA;
123.453661688309;-0.79925537109375;-0.025457763671875;2.27999999424355;229;100 mA;
123.463661688284;-0.79986572265625;-0.0254425048828125;2.28999999421831;230;100 mA;
123.473661688259;-0.79925537109375;-0.0254241943359375;2.29999999419306;231;100 mA;
123.483661688234;-0.79986572265625;-0.0254150390625;2.30999999416781;232;100 mA;
123.493661688208;-0.79864501953125;-0.025396728515625;2.31999999414256;233;100 mA;
123.503661688183;-0.799560546875;-0.02537841796875;2.32999999411732;234;100 mA;
123.513661688158;-0.799560546875;-0.0253692626953125;2.33999999409207;235;100 mA;
123.523661688133;-0.799560546875;-0.025347900390625;2.34999999406682;236;100 mA;
123.533661688107;-0.799560546875;-0.0253387451171875;2.35999999404157;237;100 mA;
123.543661688082;-0.799560546875;-0.0253173828125;2.36999999401633;238;100 mA;
123.553661688057;-0.79925537109375;-0.025299072265625;2.37999999399108;239;100 mA;
123.563661688032;-0.799560546875;-0.0252838134765625;2.38999999396583;240;100 mA;
123.573661688006;-0.799560546875;-0.0252593994140625;2.39999999394058;241;100 mA;
123.583661687981;-0.799560546875;-0.025244140625;2.40999999391533;242;100 mA;
123.593661687956;-0.79925537109375;-0.0252227783203125;2.41999999389009;243;100 mA;
123.603661687931;-0.799560546875;-0.025201416015625;2.42999999386484;244;100 mA;
123.613661687906;-0.7989501953125;-0.02518310546875;2.43999999383959;245;100 mA;
123.62366168788;-0.79925537109375;-0.025152587890625;2.44999999381434;246;100 mA;
123.633661687855;-0.79925537109375;-0.0251373291015625;2.4599999937891;247;100 mA;
123.64366168783;-0.79925537109375;-0.02510986328125;2.46999999376385;248;100 mA;
123.653661687805;-0.79986572265625;-0.0250823974609375;2.4799999937386;249;100 mA;
123.663661687779;-0.79925537109375;-0.0250640869140625;2.48999999371335;250;100 mA;
123.673661687754;-0.799560546875;-0.025030517578125;2.49999999368811;251;100 mA;
123.683661687729;-0.79925537109375;-0.02501220703125;2.50999999366286;252;100 mA;
123.693661687704;-0.79925537109375;-0.0249847412109375;2.51999999363761;253;100 mA;
123.703661687678;-0.799560546875;-0.024951171875;2.52999999361236;254;100 mA;
123.713661687653;-0.79925537109375;-0.0249298095703125;2.53999999358712;255;100 mA;
123.723661687628;-0.79925537109375;-0.0248931884765625;2.54999999356187;256;100 mA;
123.733661687603;-0.79925537109375;-0.0248779296875;2.55999999353662;257;100 mA;
123.743661687577;-0.8001708984375;-0.024847412109375;2.56999999351137;258;100 mA;
123.753661687552;-0.799560546875;-0.024822998046875;2.57999999348613;259;100 mA;
123.763661687527;-0.799560546875;-0.024798583984375;2.58999999346088;260;100 mA;
123.773661687502;-0.799560546875;-0.02476806640625;2.59999999343563;261;100 mA;
123.783661687476;-0.799560546875;-0.024749755859375;2.60999999341038;262;100 mA;
123.793661687451;-0.799560546875;-0.0247283935546875;2.61999999338514;263;100 mA;
123.803661687426;-0.79925537109375;-0.024700927734375;2.62999999335989;264;100 mA;
123.813661687401;-0.79986572265625;-0.024676513671875;2.63999999333464;265;100 mA;
123.823661687375;-0.799560546875;-0.0246490478515625;2.64999999330939;266;100 mA;
123.83366168735;-0.7989501953125;-0.024627685546875;2.65999999328415;267;100 mA;
123.843661687325;-0.79925537109375;-0.024603271484375;2.6699999932589;268;100 mA;
123.8536616873;-0.799560546875;-0.0245758056640625;2.67999999323365;269;100 mA;
123.863661687274;-0.79986572265625;-0.02454833984375;2.6899999932084;270;100 mA;
123.873661687249;-0.799560546875;-0.024517822265625;2.69999999318316;271;100 mA;
123.883661687224;-0.79986572265625;-0.0245025634765625;2.70999999315791;272;100 mA;
123.893661687199;-0.799560546875;-0.02447509765625;2.71999999313266;273;100 mA;
123.903661687173;-0.799560546875;-0.02445068359375;2.72999999310741;274;100 mA;
123.913661687148;-0.799560546875;-0.0244354248046875;2.73999999308217;275;100 mA;
123.923661687123;-0.79925537109375;-0.0244049072265625;2.74999999305692;276;100 mA;
123.933661687098;-0.79986572265625;-0.024395751953125;2.75999999303167;277;100 mA;
123.943661687072;-0.79986572265625;-0.024371337890625;2.76999999300642;278;100 mA;
123.953661687047;-0.79864501953125;-0.024346923828125;2.77999999298117;279;100 mA;
123.963661687022;-0.7989501953125;-0.02432861328125;2.78999999295593;280;100 mA;
123.973661686997;-0.79986572265625;-0.0243011474609375;2.79999999293068;281;100 mA;
123.983661686971;-0.79925537109375;-0.0242828369140625;2.80999999290543;282;100 mA;
123.993661686946;-0.79925537109375;-0.02425537109375;2.81999999288018;283;100 mA;
124.003661686921;-0.79986572265625;-0.0242279052734375;2.82999999285494;284;100 mA;
124.013661686896;-0.79925537109375;-0.02420654296875;2.83999999282969;285;100 mA;
124.02366168687;-0.79986572265625;-0.02418212890625;2.84999999280444;286;100 mA;
124.033661686845;-0.79925537109375;-0.024163818359375;2.85999999277919;287;100 mA;
124.04366168682;-0.79925537109375;-0.024139404296875;2.86999999275395;288;100 mA;
124.053661686795;-0.799560546875;-0.02412109375;2.8799999927287;289;100 mA;
124.063661686769;-0.799560546875;-0.0241058349609375;2.88999999270345;290;100 mA;
124.073661686744;-0.79925537109375;-0.0240875244140625;2.8999999926782;291;100 mA;
124.083661686719;-0.7989501953125;-0.0240753173828125;2.90999999265296;292;100 mA;
124.093661686694;-0.79925537109375;-0.024053955078125;2.91999999262771;293;100 mA;
124.103661686668;-0.79925537109375;-0.02403564453125;2.92999999260246;294;100 mA;
124.113661686643;-0.799560546875;-0.0240203857421875;2.93999999257721;295;100 mA;
124.123661686618;-0.79925537109375;-0.023992919921875;2.94999999255197;296;100 mA;
124.133661686593;-0.79986572265625;-0.023974609375;2.95999999252672;297;100 mA;
124.143661686567;-0.79925537109375;-0.0239501953125;2.96999999250147;298;100 mA;
124.153661686542;-0.799560546875;-0.02392578125;2.97999999247622;299;100 mA;
124.163661686517;-0.79986572265625;-0.023907470703125;2.98999999245098;300;100 mA;
124.173661686492;-0.79986572265625;-0.0238800048828125;2.99999999242573;301;100 mA;
124.183661686466;-0.79925537109375;-0.0238677978515625;3.00999999240048;302;100 mA;
124.193661686441;-0.799560546875;-0.0238494873046875;3.01999999237523;303;100 mA;
124.203661686416;-0.79925537109375;-0.0238311767578125;3.02999999234999;304;100 mA;
124.213661686391;-0.79986572265625;-0.023822021484375;3.03999999232474;305;100 mA;
124.223661686365;-0.79925537109375;-0.0238037109375;3.04999999229949;306;100 mA;
124.23366168634;-0.79925537109375;-0.02379150390625;3.05999999227424;307;100 mA;
124.243661686315;-0.799560546875;-0.0237762451171875;3.069999992249;308;100 mA;
124.25366168629;-0.79986572265625;-0.0237579345703125;3.07999999222375;309;100 mA;
124.263661686264;-0.79925537109375;-0.0237396240234375;3.0899999921985;310;100 mA;
124.273661686239;-0.799560546875;-0.0237152099609375;3.09999999217325;311;100 mA;
124.283661686214;-0.79925537109375;-0.023699951171875;3.109999992148;312;100 mA;
124.293661686189;-0.799560546875;-0.023681640625;3.11999999212276;313;100 mA;
124.303661686163;-0.79925537109375;-0.023663330078125;3.12999999209751;314;100 mA;
124.313661686138;-0.79925537109375;-0.02364501953125;3.13999999207226;315;100 mA;
124.323661686113;-0.79925537109375;-0.023626708984375;3.14999999204701;316;100 mA;
124.333661686088;-0.79925537109375;-0.023614501953125;3.15999999202177;317;100 mA;
124.343661686062;-0.799560546875;-0.023602294921875;3.16999999199652;318;100 mA;
124.353661686037;-0.79925537109375;-0.0235931396484375;3.17999999197127;319;100 mA;
124.363661686012;-0.7989501953125;-0.0235809326171875;3.18999999194602;320;100 mA;
124.373661685987;-0.79925537109375;-0.02357177734375;3.19999999192078;321;100 mA;
124.383661685961;-0.79986572265625;-0.0235687255859375;3.20999999189553;322;100 mA;
124.393661685936;-0.799560546875;-0.0235626220703125;3.21999999187028;323;100 mA;
124.403661685911;-0.79986572265625;-0.023553466796875;3.22999999184503;324;100 mA;
124.413661685886;-0.7989501953125;-0.02354736328125;3.23999999181979;325;100 mA;
124.42366168586;-0.799560546875;-0.023529052734375;3.24999999179454;326;100 mA;
124.433661685835;-0.79925537109375;-0.0235260009765625;3.25999999176929;327;100 mA;
124.44366168581;-0.79925537109375;-0.0235137939453125;3.26999999174404;328;100 mA;
124.453661685785;-0.799560546875;-0.02349853515625;3.2799999917188;329;100 mA;
124.463661685759;-0.79986572265625;-0.0234954833984375;3.28999999169355;330;100 mA;
124.473661685734;-0.799560546875;-0.0234893798828125;3.2999999916683;331;100 mA;
124.483661685709;-0.799560546875;-0.023492431640625;3.30999999164305;332;100 mA;
124.493661685684;-0.79925537109375;-0.0234893798828125;3.31999999161781;333;100 mA;
124.503661685658;-0.79986572265625;-0.0234893798828125;3.32999999159256;334;100 mA;
124.513661685633;-0.79925537109375;-0.0234954833984375;3.33999999156731;335;100 mA;
124.523661685608;-0.79864501953125;-0.023492431640625;3.34999999154206;336;100 mA;
124.533661685583;-0.79925537109375;-0.02349853515625;3.35999999151682;337;100 mA;
124.543661685557;-0.799560546875;-0.0234954833984375;3.36999999149157;338;100 mA;
124.553661685532;-0.79925537109375;-0.0234893798828125;3.37999999146632;339;100 mA;
124.563661685507;-0.79925537109375;-0.023486328125;3.38999999144107;340;100 mA;
124.573661685482;-0.799560546875;-0.02347412109375;3.39999999141583;341;100 mA;
124.583661685456;-0.799560546875;-0.0234710693359375;3.40999999139058;342;100 mA;
124.593661685431;-0.79925537109375;-0.0234588623046875;3.41999999136533;343;100 mA;
124.603661685406;-0.799560546875;-0.0234466552734375;3.42999999134008;344;100 mA;
124.613661685381;-0.79986572265625;-0.023443603515625;3.43999999131483;345;100 mA;
124.623661685356;-0.799560546875;-0.02342529296875;3.44999999128959;346;100 mA;
124.63366168533;-0.79986572265625;-0.0234222412109375;3.45999999126434;347;100 mA;
124.643661685305;-0.799560546875;-0.0234130859375;3.46999999123909;348;100 mA;
124.65366168528;-0.79986572265625;-0.023406982421875;3.47999999121384;349;100 mA;
124.663661685255;-0.8001708984375;-0.02340087890625;3.4899999911886;350;100 mA;
124.673661685229;-0.799560546875;-0.023388671875;3.49999999116335;351;100 mA;
124.683661685204;-0.799560546875;-0.0233856201171875;3.5099999911381;352;100 mA;
124.693661685179;-0.799560546875;-0.023370361328125;3.51999999111285;353;100 mA;
124.703661685154;-0.79986572265625;-0.02335205078125;3.52999999108761;354;100 mA;
124.713661685128;-0.79925537109375;-0.02333984375;3.53999999106236;355;100 mA;
124.723661685103;-0.79925537109375;-0.0233154296875;3.54999999103711;356;100 mA;
124.733661685078;-0.799560546875;-0.023309326171875;3.55999999101186;357;100 mA;
124.743661685053;-0.799560546875;-0.0232879638671875;3.56999999098662;358;100 mA;
124.753661685027;-0.799560546875;-0.0232666015625;3.57999999096137;359;100 mA;
124.763661685002;-0.7989501953125;-0.02325439453125;3.58999999093612;360;100 mA;
124.773661684977;-0.799560546875;-0.0232330322265625;3.59999999091087;361;100 mA;
124.783661684952;-0.799560546875;-0.0232208251953125;3.60999999088563;362;100 mA;
124.793661684926;-0.7989501953125;-0.0232086181640625;3.61999999086038;363;100 mA;
124.803661684901;-0.79925537109375;-0.0231903076171875;3.62999999083513;364;100 mA;
124.813661684876;-0.79925537109375;-0.02318115234375;3.63999999080988;365;100 mA;
124.823661684851;-0.79925537109375;-0.02315673828125;3.64999999078464;366;100 mA;
124.833661684825;-0.79986572265625;-0.0231475830078125;3.65999999075939;367;100 mA;
124.8436616848;-0.79925537109375;-0.0231292724609375;3.66999999073414;368;100 mA;
124.853661684775;-0.79986572265625;-0.02310791015625;3.67999999070889;369;100 mA;
124.86366168475;-0.799560546875;-0.023089599609375;3.68999999068365;370;100 mA;
124.873661684724;-0.79925537109375;-0.023065185546875;3.6999999906584;371;100 mA;
124.883661684699;-0.799560546875;-0.0230499267578125;3.70999999063315;372;100 mA;
124.893661684674;-0.7989501953125;-0.0230316162109375;3.7199999906079;373;100 mA;
124.903661684649;-0.79925537109375;-0.02301025390625;3.72999999058266;374;100 mA;
124.913661684623;-0.799560546875;-0.0229949951171875;3.73999999055741;375;100 mA;
124.923661684598;-0.79986572265625;-0.0229736328125;3.74999999053216;376;100 mA;
124.933661684573;-0.79925537109375;-0.022967529296875;3.75999999050691;377;100 mA;
124.943661684548;-0.7989501953125;-0.02294921875;3.76999999048167;378;100 mA;
124.953661684522;-0.79986572265625;-0.02293701171875;3.77999999045642;379;100 mA;
124.963661684497;-0.79925537109375;-0.0229248046875;3.78999999043117;380;100 mA;
124.973661684472;-0.79925537109375;-0.022906494140625;3.79999999040592;381;100 mA;
124.983661684447;-0.79925537109375;-0.0228973388671875;3.80999999038067;382;100 mA;
124.993661684421;-0.79925537109375;-0.0228790283203125;3.81999999035543;383;100 mA;
125.003661684396;-0.799560546875;-0.02286376953125;3.82999999033018;384;100 mA;
125.013661684371;-0.799560546875;-0.0228515625;3.83999999030493;385;100 mA;
125.023661684346;-0.79925537109375;-0.0228271484375;3.84999999027968;386;100 mA;
125.03366168432;-0.79925537109375;-0.022821044921875;3.85999999025444;387;100 mA;
125.043661684295;-0.79925537109375;-0.0227996826171875;3.86999999022919;388;100 mA;
125.05366168427;-0.799560546875;-0.022784423828125;3.87999999020394;389;100 mA;
125.063661684245;-0.79925537109375;-0.022772216796875;3.88999999017869;390;100 mA;
125.073661684219;-0.7989501953125;-0.0227508544921875;3.89999999015345;391;100 mA;
125.083661684194;-0.79925537109375;-0.022747802734375;3.9099999901282;392;100 mA;
125.093661684169;-0.79925537109375;-0.022735595703125;3.91999999010295;393;100 mA;
125.103661684144;-0.79925537109375;-0.022723388671875;3.9299999900777;394;100 mA;
125.113661684118;-0.79925537109375;-0.022711181640625;3.93999999005246;395;100 mA;
125.123661684093;-0.7989501953125;-0.0226959228515625;3.94999999002721;396;100 mA;
125.133661684068;-0.7989501953125;-0.02269287109375;3.95999999000196;397;100 mA;
125.143661684043;-0.799560546875;-0.022686767578125;3.96999998997671;398;100 mA;
125.153661684017;-0.799560546875;-0.0226715087890625;3.97999998995147;399;100 mA;
125.163661683992;-0.8001708984375;-0.0226654052734375;3.98999998992622;400;100 mA;
125.173661683967;-0.799560546875;-0.0226470947265625;3.99999998990097;401;100 mA;
125.183661683942;-0.79986572265625;-0.0226470947265625;4.00999998987572;402;100 mA;
125.193661683916;-0.799560546875;-0.0226318359375;4.01999998985048;403;100 mA;
125.203661683891;-0.7989501953125;-0.0226165771484375;4.02999998982523;404;100 mA;
125.213661683866;-0.8001708984375;-0.0226104736328125;4.03999998979998;405;100 mA;
125.223661683841;-0.8001708984375;-0.022589111328125;4.04999998977473;406;100 mA;
125.233661683815;-0.799560546875;-0.0225860595703125;4.05999998974949;407;100 mA;
125.24366168379;-0.79986572265625;-0.0225738525390625;4.06999998972424;408;100 mA;
125.253661683765;-0.79925537109375;-0.0225677490234375;4.07999998969899;409;100 mA;
125.26366168374;-0.79986572265625;-0.0225616455078125;4.08999998967374;410;100 mA;
125.273661683714;-0.79925537109375;-0.0225494384765625;4.0999999896485;411;100 mA;
125.283661683689;-0.79925537109375;-0.022552490234375;4.10999998962325;412;100 mA;
125.293661683664;-0.79925537109375;-0.0225433349609375;4.119999989598;413;100 mA;
125.303661683639;-0.799560546875;-0.0225433349609375;4.12999998957275;414;100 mA;
125.313661683613;-0.79925537109375;-0.022540283203125;4.1399999895475;415;100 mA;
125.323661683588;-0.79986572265625;-0.022528076171875;4.14999998952226;416;100 mA;
125.333661683563;-0.79925537109375;-0.02252197265625;4.15999998949701;417;100 mA;
125.343661683538;-0.799560546875;-0.022515869140625;4.16999998947176;418;100 mA;
125.353661683512;-0.799560546875;-0.022509765625;4.17999998944651;419;100 mA;
125.363661683487;-0.79925537109375;-0.022503662109375;4.18999998942127;420;100 mA;
125.373661683462;-0.799560546875;-0.0224945068359375;4.19999998939602;421;100 mA;
125.383661683437;-0.79986572265625;-0.0224945068359375;4.20999998937077;422;100 mA;
125.393661683411;-0.79925537109375;-0.0224884033203125;4.21999998934552;423;100 mA;
125.403661683386;-0.79986572265625;-0.0224884033203125;4.22999998932028;424;100 mA;
125.413661683361;-0.799560546875;-0.0224884033203125;4.23999998929503;425;100 mA;
125.423661683336;-0.799560546875;-0.0224884033203125;4.24999998926978;426;100 mA;
125.43366168331;-0.799560546875;-0.0224945068359375;4.25999998924453;427;100 mA;
125.443661683285;-0.79986572265625;-0.0224945068359375;4.26999998921929;428;100 mA;
125.45366168326;-0.799560546875;-0.02249755859375;4.27999998919404;429;100 mA;
125.463661683235;-0.79986572265625;-0.022503662109375;4.28999998916879;430;100 mA;
125.473661683209;-0.799560546875;-0.02249755859375;4.29999998914354;431;100 mA;
125.483661683184;-0.79925537109375;-0.022509765625;4.3099999891183;432;100 mA;
125.493661683159;-0.79925537109375;-0.022503662109375;4.31999998909305;433;100 mA;
125.503661683134;-0.79925537109375;-0.0225006103515625;4.3299999890678;434;100 mA;
125.513661683108;-0.7989501953125;-0.02249755859375;4.33999998904255;435;100 mA;
125.523661683083;-0.799560546875;-0.022491455078125;4.34999998901731;436;100 mA;
125.533661683058;-0.79925537109375;-0.0224945068359375;4.35999998899206;437;100 mA;
125.543661683033;-0.8001708984375;-0.0224884033203125;4.36999998896681;438;100 mA;
125.553661683007;-0.799560546875;-0.0224853515625;4.37999998894156;439;100 mA;
125.563661682982;-0.799560546875;-0.0224884033203125;4.38999998891632;440;100 mA;
125.573661682957;-0.799560546875;-0.0224822998046875;4.39999998889107;441;100 mA;
125.583661682932;-0.79925537109375;-0.022491455078125;4.40999998886582;442;100 mA;
125.593661682906;-0.7989501953125;-0.0224884033203125;4.41999998884057;443;100 mA;
125.603661682881;-0.79925537109375;-0.022491455078125;4.42999998881533;444;100 mA;
125.613661682856;-0.79986572265625;-0.0224884033203125;4.43999998879008;445;100 mA;
125.623661682831;-0.79986572265625;-0.0224853515625;4.44999998876483;446;100 mA;
125.633661682805;-0.79925537109375;-0.0224884033203125;4.45999998873958;447;100 mA;
125.64366168278;-0.79986572265625;-0.0224822998046875;4.46999998871433;448;100 mA;
125.653661682755;-0.79925537109375;-0.022479248046875;4.47999998868909;449;100 mA;
125.66366168273;-0.79986572265625;-0.02247314453125;4.48999998866384;450;100 mA;
125.673661682705;-0.79986572265625;-0.0224578857421875;4.49999998863859;451;100 mA;
125.683661682679;-0.79925537109375;-0.0224578857421875;4.50999998861334;452;100 mA;
125.693661682654;-0.79986572265625;-0.0224456787109375;4.5199999885881;453;100 mA;
125.703661682629;-0.799560546875;-0.0224365234375;4.52999998856285;454;100 mA;
125.713661682604;-0.799560546875;-0.022430419921875;4.5399999885376;455;100 mA;
125.723661682578;-0.799560546875;-0.022418212890625;4.54999998851235;456;100 mA;
125.733661682553;-0.79925537109375;-0.0224151611328125;4.55999998848711;457;100 mA;
125.743661682528;-0.79925537109375;-0.0224090576171875;4.56999998846186;458;100 mA;
125.753661682503;-0.7989501953125;-0.02239990234375;4.57999998843661;459;100 mA;
125.763661682477;-0.79925537109375;-0.0223876953125;4.58999998841136;460;100 mA;
125.773661682452;-0.79925537109375;-0.02237548828125;4.59999998838612;461;100 mA;
125.783661682427;-0.799560546875;-0.022369384765625;4.60999998836087;462;100 mA;
125.793661682402;-0.799560546875;-0.022357177734375;4.61999998833562;463;100 mA;
125.803661682376;-0.79925537109375;-0.0223388671875;4.62999998831037;464;100 mA;
125.813661682351;-0.79925537109375;-0.02232666015625;4.63999998828513;465;100 mA;
125.823661682326;-0.799560546875;-0.0222991943359375;4.64999998825988;466;100 mA;
125.833661682301;-0.799560546875;-0.0222930908203125;4.65999998823463;467;100 mA;
125.843661682275;-0.799560546875;-0.0222747802734375;4.66999998820938;468;100 mA;
125.85366168225;-0.79925537109375;-0.02225341796875;4.67999998818414;469;100 mA;
125.863661682225;-0.799560546875;-0.0222412109375;4.68999998815889;470;100 mA;
125.8736616822;-0.79986572265625;-0.022222900390625;4.69999998813364;471;100 mA;
125.883661682174;-0.79925537109375;-0.0222137451171875;4.70999998810839;472;100 mA;
125.893661682149;-0.799560546875;-0.022198486328125;4.71999998808315;473;100 mA;
125.903661682124;-0.799560546875;-0.0221771240234375;4.7299999880579;474;100 mA;
125.913661682099;-0.799560546875;-0.0221649169921875;4.73999998803265;475;100 mA;
125.923661682073;-0.79986572265625;-0.0221435546875;4.7499999880074;476;100 mA;
125.933661682048;-0.79925537109375;-0.0221343994140625;4.75999998798216;477;100 mA;
125.943661682023;-0.799560546875;-0.022119140625;4.76999998795691;478;100 mA;
125.953661681998;-0.79925537109375;-0.0220977783203125;4.77999998793166;479;100 mA;
125.963661681972;-0.799560546875;-0.0220855712890625;4.78999998790641;480;100 mA;
125.973661681947;-0.799560546875;-0.0220611572265625;4.79999998788116;481;100 mA;
125.983661681922;-0.799560546875;-0.0220489501953125;4.80999998785592;482;100 mA;
125.993661681897;-0.8001708984375;-0.0220306396484375;4.81999998783067;483;100 mA;
126.003661681871;-0.799560546875;-0.02200927734375;4.82999998780542;484;100 mA;
126.013661681846;-0.79986572265625;-0.022003173828125;4.83999998778017;485;100 mA;
126.023661681821;-0.79925537109375;-0.0219818115234375;4.84999998775493;486;100 mA;
126.033661681796;-0.79986572265625;-0.02197265625;4.85999998772968;487;100 mA;
126.04366168177;-0.799560546875;-0.02196044921875;4.86999998770443;488;100 mA;
126.053661681745;-0.79925537109375;-0.0219451904296875;4.87999998767918;489;100 mA;
126.06366168172;-0.79986572265625;-0.021929931640625;4.88999998765394;490;100 mA;
126.073661681695;-0.79986572265625;-0.021917724609375;4.89999998762869;491;100 mA;
126.083661681669;-0.799560546875;-0.021905517578125;4.90999998760344;492;100 mA;
126.093661681644;-0.799560546875;-0.021893310546875;4.91999998757819;493;100 mA;
126.103661681619;-0.79925537109375;-0.021881103515625;4.92999998755295;494;100 mA;
126.113661681594;-0.79986572265625;-0.021868896484375;4.9399999875277;495;100 mA;
126.123661681568;-0.799560546875;-0.021856689453125;4.94999998750245;496;100 mA;
126.133661681543;-0.79925537109375;-0.0218505859375;4.9599999874772;497;100 mA;
126.143661681518;-0.79986572265625;-0.0218414306640625;4.96999998745196;498;100 mA;
126.153661681493;-0.79925537109375;-0.021826171875;4.97999998742671;499;100 mA;
126.163661681467;-0.79986572265625;-0.021826171875;4.98999998740146;500;100 mA;
126.173661681442;-0.79986572265625;-0.02181396484375;4.99999998737621;501;100 mA;
126.183661681417;-0.799560546875;-0.0218109130859375;5.00999998735097;502;100 mA;
126.193661681392;-0.79925537109375;-0.0218048095703125;5.01999998732572;503;100 mA;
126.203661681366;-0.79986572265625;-0.0217987060546875;5.02999998730047;504;100 mA;
126.213661681341;-0.79925537109375;-0.0217987060546875;5.03999998727522;505;100 mA;
126.223661681316;-0.799560546875;-0.0217926025390625;5.04999998724998;506;100 mA;
126.233661681291;-0.799560546875;-0.0218048095703125;5.05999998722473;507;100 mA;
126.243661681265;-0.799560546875;-0.0218017578125;5.06999998719948;508;100 mA;
126.25366168124;-0.799560546875;-0.021807861328125;5.07999998717423;509;100 mA;
126.263661681215;-0.7989501953125;-0.0218231201171875;5.08999998714899;510;100 mA;
126.27366168119;-0.799560546875;-0.021826171875;5.09999998712374;511;100 mA;
126.283661681164;-0.79986572265625;-0.0218475341796875;5.10999998709849;512;100 mA;
126.293661681139;-0.79925537109375;-0.0218597412109375;5.11999998707324;513;100 mA;
126.303661681114;-0.799560546875;-0.021875;5.129999987048;514;100 mA;
126.313661681089;-0.79986572265625;-0.0218994140625;5.13999998702275;515;100 mA;
126.323661681063;-0.799560546875;-0.0219146728515625;5.1499999869975;516;100 mA;
126.333661681038;-0.799560546875;-0.0219451904296875;5.15999998697225;517;100 mA;
126.343661681013;-0.799560546875;-0.0219635009765625;5.169999986947;518;100 mA;
126.353661680988;-0.799560546875;-0.0219818115234375;5.17999998692176;519;100 mA;
126.363661680962;-0.79925537109375;-0.0220062255859375;5.18999998689651;520;100 mA;
126.373661680937;-0.7989501953125;-0.022021484375;5.19999998687126;521;100 mA;
126.383661680912;-0.799560546875;-0.0220489501953125;5.20999998684601;522;100 mA;
126.393661680887;-0.7989501953125;-0.0220672607421875;5.21999998682077;523;100 mA;
126.403661680861;-0.799560546875;-0.02208251953125;5.22999998679552;524;100 mA;
126.413661680836;-0.799560546875;-0.02210693359375;5.23999998677027;525;100 mA;
126.423661680811;-0.799560546875;-0.022119140625;5.24999998674502;526;100 mA;
126.433661680786;-0.799560546875;-0.0221435546875;5.25999998671978;527;100 mA;
126.44366168076;-0.79925537109375;-0.02215576171875;5.26999998669453;528;100 mA;
126.453661680735;-0.79986572265625;-0.022174072265625;5.27999998666928;529;100 mA;
126.46366168071;-0.79925537109375;-0.0221923828125;5.28999998664403;530;100 mA;
126.473661680685;-0.79925537109375;-0.0222015380859375;5.29999998661879;531;100 mA;
126.483661680659;-0.799560546875;-0.0222259521484375;5.30999998659354;532;100 mA;
126.493661680634;-0.8001708984375;-0.0222381591796875;5.31999998656829;533;100 mA;
126.503661680609;-0.799560546875;-0.0222503662109375;5.32999998654304;534;100 mA;
126.513661680584;-0.799560546875;-0.0222686767578125;5.3399999865178;535;100 mA;
126.523661680558;-0.79925537109375;-0.0222808837890625;5.34999998649255;536;100 mA;
126.533661680533;-0.79925537109375;-0.0223052978515625;5.3599999864673;537;100 mA;
126.543661680508;-0.79986572265625;-0.0223175048828125;5.36999998644205;538;100 mA;
126.553661680483;-0.799560546875;-0.022332763671875;5.37999998641681;539;100 mA;
126.563661680457;-0.799560546875;-0.0223480224609375;5.38999998639156;540;100 mA;
126.573661680432;-0.799560546875;-0.02236328125;5.39999998636631;541;100 mA;
126.583661680407;-0.79925537109375;-0.0223785400390625;5.40999998634106;542;100 mA;
126.593661680382;-0.799560546875;-0.0223907470703125;5.41999998631582;543;100 mA;
126.603661680356;-0.79925537109375;-0.022406005859375;5.42999998629057;544;100 mA;
126.613661680331;-0.79986572265625;-0.0224212646484375;5.43999998626532;545;100 mA;
126.623661680306;-0.79925537109375;-0.02242431640625;5.44999998624007;546;100 mA;
126.633661680281;-0.799560546875;-0.0224395751953125;5.45999998621483;547;100 mA;
126.643661680255;-0.799560546875;-0.02244873046875;5.46999998618958;548;100 mA;
126.65366168023;-0.79925537109375;-0.0224517822265625;5.47999998616433;549;100 mA;
126.663661680205;-0.79986572265625;-0.0224609375;5.48999998613908;550;100 mA;
126.67366168018;-0.8001708984375;-0.0224578857421875;5.49999998611383;551;100 mA;
126.683661680155;-0.79986572265625;-0.0224700927734375;5.50999998608859;552;100 mA;
126.693661680129;-0.799560546875;-0.0224700927734375;5.51999998606334;553;100 mA;
126.703661680104;-0.799560546875;-0.022467041015625;5.52999998603809;554;100 mA;
126.713661680079;-0.799560546875;-0.02247314453125;5.53999998601284;555;100 mA;
126.723661680054;-0.799560546875;-0.0224639892578125;5.5499999859876;556;100 mA;
126.733661680028;-0.799560546875;-0.022467041015625;5.55999998596235;557;100 mA;
126.743661680003;-0.79925537109375;-0.0224609375;5.5699999859371;558;100 mA;
126.753661679978;-0.79925537109375;-0.0224578857421875;5.57999998591185;559;100 mA;
126.763661679953;-0.7989501953125;-0.0224517822265625;5.58999998588661;560;100 mA;
126.773661679927;-0.7989501953125;-0.0224365234375;5.59999998586136;561;100 mA;
126.783661679902;-0.79986572265625;-0.0224334716796875;5.60999998583611;562;100 mA;
126.793661679877;-0.799560546875;-0.022418212890625;5.61999998581086;563;100 mA;
126.803661679852;-0.799560546875;-0.022406005859375;5.62999998578562;564;100 mA;
126.813661679826;-0.799560546875;-0.02239990234375;5.63999998576037;565;100 mA;
126.823661679801;-0.799560546875;-0.0223785400390625;5.64999998573512;566;100 mA;
126.833661679776;-0.79925537109375;-0.02237548828125;5.65999998570987;567;100 mA;
126.843661679751;-0.799560546875;-0.02236328125;5.66999998568463;568;100 mA;
126.853661679725;-0.799560546875;-0.0223480224609375;5.67999998565938;569;100 mA;
126.8636616797;-0.799560546875;-0.0223358154296875;5.68999998563413;570;100 mA;
126.873661679675;-0.79986572265625;-0.0223175048828125;5.69999998560888;571;100 mA;
126.88366167965;-0.799560546875;-0.022308349609375;5.70999998558364;572;100 mA;
126.893661679624;-0.79925537109375;-0.022283935546875;5.71999998555839;573;100 mA;
126.903661679599;-0.79925537109375;-0.0222625732421875;5.72999998553314;574;100 mA;
126.913661679574;-0.79925537109375;-0.0222412109375;5.73999998550789;575;100 mA;
126.923661679549;-0.79925537109375;-0.0222137451171875;5.74999998548265;576;100 mA;
126.933661679523;-0.799560546875;-0.022198486328125;5.7599999854574;577;100 mA;
126.943661679498;-0.79925537109375;-0.0221710205078125;5.76999998543215;578;100 mA;
126.953661679473;-0.79986572265625;-0.0221466064453125;5.7799999854069;579;100 mA;
126.963661679448;-0.79925537109375;-0.022125244140625;5.78999998538166;580;100 mA;
126.973661679422;-0.799560546875;-0.0220916748046875;5.79999998535641;581;100 mA;
126.983661679397;-0.79925537109375;-0.0220733642578125;5.80999998533116;582;100 mA;
126.993661679372;-0.799560546875;-0.0220489501953125;5.81999998530591;583;100 mA;
127.003661679347;-0.799560546875;-0.0220245361328125;5.82999998528066;584;100 mA;
127.013661679321;-0.799560546875;-0.022003173828125;5.83999998525542;585;100 mA;
127.023661679296;-0.79925537109375;-0.0219696044921875;5.84999998523017;586;100 mA;
127.033661679271;-0.7989501953125;-0.021954345703125;5.85999998520492;587;100 mA;
127.043661679246;-0.79925537109375;-0.0219207763671875;5.86999998517967;588;100 mA;
127.05366167922;-0.79986572265625;-0.0218963623046875;5.87999998515443;589;100 mA;
127.063661679195;-0.79925537109375;-0.021868896484375;5.88999998512918;590;100 mA;
127.07366167917;-0.799560546875;-0.02183837890625;5.89999998510393;591;100 mA;
127.083661679145;-0.79986572265625;-0.02181396484375;5.90999998507868;592;100 mA;
127.093661679119;-0.79925537109375;-0.0217864990234375;5.91999998505344;593;100 mA;
127.103661679094;-0.799560546875;-0.0217559814453125;5.92999998502819;594;100 mA;
127.113661679069;-0.79925537109375;-0.021728515625;5.93999998500294;595;100 mA;
127.123661679044;-0.79986572265625;-0.0217010498046875;5.94999998497769;596;100 mA;
127.133661679018;-0.799560546875;-0.0216766357421875;5.95999998495245;597;100 mA;
127.143661678993;-0.79925537109375;-0.0216552734375;5.9699999849272;598;100 mA;
127.153661678968;-0.799560546875;-0.021624755859375;5.97999998490195;599;100 mA;
127.163661678943;-0.799560546875;-0.021600341796875;5.9899999848767;600;100 mA;
127.173661678917;-0.79925537109375;-0.021575927734375;5.99999998485146;601;100 mA;
127.183661678892;-0.799560546875;-0.0215576171875;6.00999998482621;602;100 mA;
127.193661678867;-0.79986572265625;-0.021533203125;6.01999998480096;603;100 mA;
127.203661678842;-0.799560546875;-0.021502685546875;6.02999998477571;604;100 mA;
127.213661678816;-0.79986572265625;-0.021484375;6.03999998475047;605;100 mA;
127.223661678791;-0.79986572265625;-0.021453857421875;6.04999998472522;606;100 mA;
127.233661678766;-0.7989501953125;-0.021435546875;6.05999998469997;607;100 mA;
127.243661678741;-0.7989501953125;-0.0214141845703125;6.06999998467472;608;100 mA;
127.253661678715;-0.7989501953125;-0.0213897705078125;6.07999998464948;609;100 mA;
127.26366167869;-0.79925537109375;-0.021368408203125;6.08999998462423;610;100 mA;
127.273661678665;-0.799560546875;-0.021343994140625;6.09999998459898;611;100 mA;
127.28366167864;-0.79925537109375;-0.021331787109375;6.10999998457373;612;100 mA;
127.293661678614;-0.8001708984375;-0.0213104248046875;6.11999998454849;613;100 mA;
127.303661678589;-0.79986572265625;-0.0212890625;6.12999998452324;614;100 mA;
127.313661678564;-0.799560546875;-0.02127685546875;6.13999998449799;615;100 mA;
127.323661678539;-0.79925537109375;-0.0212554931640625;6.14999998447274;616;100 mA;
127.333661678513;-0.7989501953125;-0.021246337890625;6.1599999844475;617;100 mA;
127.343661678488;-0.799560546875;-0.02122802734375;6.16999998442225;618;100 mA;
127.353661678463;-0.79925537109375;-0.021209716796875;6.179999984397;619;100 mA;
127.363661678438;-0.79864501953125;-0.021197509765625;6.18999998437175;620;100 mA;
127.373661678412;-0.79925537109375;-0.0211761474609375;6.1999999843465;621;100 mA;
127.383661678387;-0.799560546875;-0.0211700439453125;6.20999998432126;622;100 mA;
127.393661678362;-0.799560546875;-0.02115478515625;6.21999998429601;623;100 mA;
127.403661678337;-0.79986572265625;-0.0211334228515625;6.22999998427076;624;100 mA;
127.413661678311;-0.8001708984375;-0.0211273193359375;6.23999998424551;625;100 mA;
127.423661678286;-0.79925537109375;-0.021112060546875;6.24999998422027;626;100 mA;
127.433661678261;-0.79986572265625;-0.02110595703125;6.25999998419502;627;100 mA;
127.443661678236;-0.799560546875;-0.0210968017578125;6.26999998416977;628;100 mA;
127.45366167821;-0.799560546875;-0.0210845947265625;6.27999998414452;629;100 mA;
127.463661678185;-0.79925537109375;-0.02108154296875;6.28999998411928;630;100 mA;
127.47366167816;-0.799560546875;-0.0210662841796875;6.29999998409403;631;100 mA;
127.483661678135;-0.799560546875;-0.0210693359375;6.30999998406878;632;100 mA;
127.493661678109;-0.799560546875;-0.02105712890625;6.31999998404353;633;100 mA;
127.503661678084;-0.79986572265625;-0.021051025390625;6.32999998401829;634;100 mA;
127.513661678059;-0.799560546875;-0.021044921875;6.33999998399304;635;100 mA;
127.523661678034;-0.799560546875;-0.02103271484375;6.34999998396779;636;100 mA;
127.533661678008;-0.79925537109375;-0.021038818359375;6.35999998394254;637;100 mA;
127.543661677983;-0.799560546875;-0.021026611328125;6.3699999839173;638;100 mA;
127.553661677958;-0.79925537109375;-0.0210235595703125;6.37999998389205;639;100 mA;
127.563661677933;-0.79925537109375;-0.0210205078125;6.3899999838668;640;100 mA;
127.573661677907;-0.799560546875;-0.02100830078125;6.39999998384155;641;100 mA;
127.583661677882;-0.79925537109375;-0.0210174560546875;6.40999998381631;642;100 mA;
127.593661677857;-0.79925537109375;-0.021014404296875;6.41999998379106;643;100 mA;
127.603661677832;-0.79925537109375;-0.0210113525390625;6.42999998376581;644;100 mA;
127.613661677806;-0.799560546875;-0.0210174560546875;6.43999998374056;645;100 mA;
127.623661677781;-0.7989501953125;-0.0210113525390625;6.44999998371532;646;100 mA;
127.633661677756;-0.799560546875;-0.0210235595703125;6.45999998369007;647;100 mA;
127.643661677731;-0.799560546875;-0.0210205078125;6.46999998366482;648;100 mA;
127.653661677705;-0.79925537109375;-0.0210235595703125;6.47999998363957;649;100 mA;
127.66366167768;-0.7989501953125;-0.021026611328125;6.48999998361433;650;100 mA;
127.673661677655;-0.79986572265625;-0.021026611328125;6.49999998358908;651;100 mA;
127.68366167763;-0.799560546875;-0.0210296630859375;6.50999998356383;652;100 mA;
127.693661677604;-0.8001708984375;-0.021026611328125;6.51999998353858;653;100 mA;
127.703661677579;-0.79986572265625;-0.0210296630859375;6.52999998351333;654;100 mA;
127.713661677554;-0.799560546875;-0.02103271484375;6.53999998348809;655;100 mA;
127.723661677529;-0.79925537109375;-0.0210357666015625;6.54999998346284;656;100 mA;
127.733661677504;-0.799560546875;-0.0210418701171875;6.55999998343759;657;100 mA;
127.743661677478;-0.79986572265625;-0.021044921875;6.56999998341234;658;100 mA;
127.753661677453;-0.799560546875;-0.021051025390625;6.5799999833871;659;100 mA;
127.763661677428;-0.79925537109375;-0.02105712890625;6.58999998336185;660;100 mA;
127.773661677403;-0.7989501953125;-0.0210601806640625;6.5999999833366;661;100 mA;
127.783661677377;-0.79986572265625;-0.0210723876953125;6.60999998331135;662;100 mA;
127.793661677352;-0.79986572265625;-0.0210784912109375;6.61999998328611;663;100 mA;
127.803661677327;-0.79925537109375;-0.0210845947265625;6.62999998326086;664;100 mA;
127.813661677302;-0.799560546875;-0.0210906982421875;6.63999998323561;665;100 mA;
127.823661677276;-0.799560546875;-0.0210906982421875;6.64999998321036;666;100 mA;
127.833661677251;-0.799560546875;-0.021099853515625;6.65999998318512;667;100 mA;
127.843661677226;-0.79986572265625;-0.0211029052734375;6.66999998315987;668;100 mA;
127.853661677201;-0.799560546875;-0.0211090087890625;6.67999998313462;669;100 mA;
127.863661677175;-0.79986572265625;-0.0211151123046875;6.68999998310937;670;100 mA;
127.87366167715;-0.799560546875;-0.0211181640625;6.69999998308413;671;100 mA;
127.883661677125;-0.799560546875;-0.02113037109375;6.70999998305888;672;100 mA;
127.8936616771;-0.79925537109375;-0.0211334228515625;6.71999998303363;673;100 mA;
127.903661677074;-0.7989501953125;-0.0211395263671875;6.72999998300838;674;100 mA;
127.913661677049;-0.79925537109375;-0.021148681640625;6.73999998298314;675;100 mA;
127.923661677024;-0.79925537109375;-0.02115478515625;6.74999998295789;676;100 mA;
127.933661676999;-0.79925537109375;-0.0211669921875;6.75999998293264;677;100 mA;
127.943661676973;-0.7989501953125;-0.0211761474609375;6.76999998290739;678;100 mA;
127.953661676948;-0.79986572265625;-0.02117919921875;6.77999998288215;679;100 mA;
127.963661676923;-0.7989501953125;-0.0211883544921875;6.7899999828569;680;100 mA;
127.973661676898;-0.799560546875;-0.021185302734375;6.79999998283165;681;100 mA;
127.983661676872;-0.7989501953125;-0.021197509765625;6.8099999828064;682;100 mA;
127.993661676847;-0.79925537109375;-0.0211944580078125;6.81999998278116;683;100 mA;
128.003661676822;-0.799560546875;-0.0212005615234375;6.82999998275591;684;100 mA;
128.013661676797;-0.79925537109375;-0.02120361328125;6.83999998273066;685;100 mA;
128.023661676771;-0.79925537109375;-0.02120361328125;6.84999998270541;686;100 mA;
128.033661676746;-0.799560546875;-0.0212158203125;6.85999998268016;687;100 mA;
128.043661676721;-0.799560546875;-0.021221923828125;6.86999998265492;688;100 mA;
128.053661676696;-0.79925537109375;-0.02122802734375;6.87999998262967;689;100 mA;
128.06366167667;-0.79986572265625;-0.021240234375;6.88999998260442;690;100 mA;
128.073661676645;-0.79986572265625;-0.021246337890625;6.89999998257917;691;100 mA;
128.08366167662;-0.79986572265625;-0.0212615966796875;6.90999998255393;692;100 mA;
128.093661676595;-0.79986572265625;-0.0212677001953125;6.91999998252868;693;100 mA;
128.103661676569;-0.799560546875;-0.0212738037109375;6.92999998250343;694;100 mA;
128.113661676544;-0.79925537109375;-0.0212799072265625;6.93999998247818;695;100 mA;
128.123661676519;-0.79925537109375;-0.0212799072265625;6.94999998245294;696;100 mA;
128.133661676494;-0.8001708984375;-0.0212860107421875;6.95999998242769;697;100 mA;
128.143661676468;-0.799560546875;-0.021282958984375;6.96999998240244;698;100 mA;
128.153661676443;-0.799560546875;-0.0212890625;6.97999998237719;699;100 mA;
128.163661676418;-0.799560546875;-0.0212921142578125;6.98999998235195;700;100 mA;
128.173661676393;-0.79925537109375;-0.021295166015625;6.9999999823267;701;100 mA;
128.183661676367;-0.79925537109375;-0.021307373046875;7.00999998230145;702;100 mA;
128.193661676342;-0.79925537109375;-0.0213104248046875;7.0199999822762;703;100 mA;
128.203661676317;-0.79925537109375;-0.0213165283203125;7.02999998225096;704;100 mA;
128.213661676292;-0.79925537109375;-0.02132568359375;7.03999998222571;705;100 mA;
128.223661676266;-0.7989501953125;-0.0213348388671875;7.04999998220046;706;100 mA;
128.233661676241;-0.799560546875;-0.0213470458984375;7.05999998217521;707;100 mA;
128.243661676216;-0.799560546875;-0.0213470458984375;7.06999998214997;708;100 mA;
128.253661676191;-0.799560546875;-0.0213470458984375;7.07999998212472;709;100 mA;
128.263661676165;-0.79986572265625;-0.0213470458984375;7.08999998209947;710;100 mA;
128.27366167614;-0.799560546875;-0.021343994140625;7.09999998207422;711;100 mA;
128.283661676115;-0.79925537109375;-0.0213470458984375;7.10999998204898;712;100 mA;
128.29366167609;-0.79925537109375;-0.021337890625;7.11999998202373;713;100 mA;
128.303661676064;-0.8001708984375;-0.021331787109375;7.12999998199848;714;100 mA;
128.313661676039;-0.79925537109375;-0.021337890625;7.13999998197323;715;100 mA;
128.323661676014;-0.8001708984375;-0.0213287353515625;7.14999998194799;716;100 mA;
128.333661675989;-0.8001708984375;-0.0213348388671875;7.15999998192274;717;100 mA;
128.343661675963;-0.799560546875;-0.021331787109375;7.16999998189749;718;100 mA;
128.353661675938;-0.8001708984375;-0.0213287353515625;7.17999998187224;719;100 mA;
128.363661675913;-0.799560546875;-0.0213348388671875;7.189999981847;720;100 mA;
128.373661675888;-0.799560546875;-0.021331787109375;7.19999998182175;721;100 mA;
128.383661675862;-0.7989501953125;-0.0213348388671875;7.2099999817965;722;100 mA;
128.393661675837;-0.79986572265625;-0.0213348388671875;7.21999998177125;723;100 mA;
128.403661675812;-0.79986572265625;-0.021331787109375;7.229999981746;724;100 mA;
128.413661675787;-0.799560546875;-0.0213287353515625;7.23999998172076;725;100 mA;
128.423661675761;-0.79925537109375;-0.0213165283203125;7.24999998169551;726;100 mA;
128.433661675736;-0.79925537109375;-0.0213134765625;7.25999998167026;727;100 mA;
128.443661675711;-0.79986572265625;-0.0213043212890625;7.26999998164501;728;100 mA;
128.453661675686;-0.79925537109375;-0.021295166015625;7.27999998161977;729;100 mA;
128.46366167566;-0.79925537109375;-0.0212921142578125;7.28999998159452;730;100 mA;
128.473661675635;-0.79925537109375;-0.0212860107421875;7.29999998156927;731;100 mA;
128.48366167561;-0.799560546875;-0.0212890625;7.30999998154402;732;100 mA;
128.493661675585;-0.799560546875;-0.021282958984375;7.31999998151878;733;100 mA;
128.503661675559;-0.799560546875;-0.0212799072265625;7.32999998149353;734;100 mA;
128.513661675534;-0.799560546875;-0.0212860107421875;7.33999998146828;735;100 mA;
128.523661675509;-0.79986572265625;-0.02127685546875;7.34999998144303;736;100 mA;
128.533661675484;-0.799560546875;-0.0212799072265625;7.35999998141779;737;100 mA;
128.543661675458;-0.79925537109375;-0.02127685546875;7.36999998139254;738;100 mA;
128.553661675433;-0.799560546875;-0.0212738037109375;7.37999998136729;739;100 mA;
128.563661675408;-0.79986572265625;-0.0212646484375;7.38999998134204;740;100 mA;
128.573661675383;-0.79925537109375;-0.0212554931640625;7.3999999813168;741;100 mA;
128.583661675357;-0.79986572265625;-0.02125244140625;7.40999998129155;742;100 mA;
128.593661675332;-0.79925537109375;-0.021240234375;7.4199999812663;743;100 mA;
128.603661675307;-0.79986572265625;-0.02122802734375;7.42999998124105;744;100 mA;
128.613661675282;-0.799560546875;-0.021221923828125;7.43999998121581;745;100 mA;
128.623661675256;-0.79925537109375;-0.0212127685546875;7.44999998119056;746;100 mA;
128.633661675231;-0.79925537109375;-0.0212158203125;7.45999998116531;747;100 mA;
128.643661675206;-0.7989501953125;-0.0212127685546875;7.46999998114006;748;100 mA;
128.653661675181;-0.799560546875;-0.0212066650390625;7.47999998111482;749;100 mA;
128.663661675155;-0.7989501953125;-0.0212066650390625;7.48999998108957;750;100 mA;
128.67366167513;-0.799560546875;-0.0212005615234375;7.49999998106432;751;100 mA;
128.683661675105;-0.799560546875;-0.02120361328125;7.50999998103907;752;100 mA;
128.69366167508;-0.79925537109375;-0.021197509765625;7.51999998101383;753;100 mA;
128.703661675054;-0.79986572265625;-0.02119140625;7.52999998098858;754;100 mA;
128.713661675029;-0.79925537109375;-0.021185302734375;7.53999998096333;755;100 mA;
128.723661675004;-0.7989501953125;-0.021173095703125;7.54999998093808;756;100 mA;
128.733661674979;-0.79986572265625;-0.0211761474609375;7.55999998091283;757;100 mA;
128.743661674954;-0.799560546875;-0.021160888671875;7.56999998088759;758;100 mA;
128.753661674928;-0.79925537109375;-0.02115478515625;7.57999998086234;759;100 mA;
128.763661674903;-0.799560546875;-0.021148681640625;7.58999998083709;760;100 mA;
128.773661674878;-0.799560546875;-0.0211395263671875;7.59999998081184;761;100 mA;
128.783661674853;-0.79986572265625;-0.021136474609375;7.6099999807866;762;100 mA;
128.793661674827;-0.799560546875;-0.02113037109375;7.61999998076135;763;100 mA;
128.803661674802;-0.79925537109375;-0.0211273193359375;7.6299999807361;764;100 mA;
128.813661674777;-0.79986572265625;-0.0211273193359375;7.63999998071085;765;100 mA;
128.823661674752;-0.8001708984375;-0.0211181640625;7.64999998068561;766;100 mA;
128.833661674726;-0.8001708984375;-0.0211181640625;7.65999998066036;767;100 mA;
128.843661674701;-0.79925537109375;-0.021112060546875;7.66999998063511;768;100 mA;
128.853661674676;-0.7989501953125;-0.0211029052734375;7.67999998060986;769;100 mA;
128.863661674651;-0.799560546875;-0.021099853515625;7.68999998058462;770;100 mA;
128.873661674625;-0.79986572265625;-0.0210845947265625;7.69999998055937;771;100 mA;
128.8836616746;-0.79986572265625;-0.0210784912109375;7.70999998053412;772;100 mA;
128.893661674575;-0.79986572265625;-0.0210662841796875;7.71999998050887;773;100 mA;
128.90366167455;-0.79925537109375;-0.0210540771484375;7.72999998048363;774;100 mA;
128.913661674524;-0.799560546875;-0.0210540771484375;7.73999998045838;775;100 mA;
128.923661674499;-0.79925537109375;-0.0210357666015625;7.74999998043313;776;100 mA;
128.933661674474;-0.799560546875;-0.0210357666015625;7.75999998040788;777;100 mA;
128.943661674449;-0.79925537109375;-0.021026611328125;7.76999998038264;778;100 mA;
128.953661674423;-0.79925537109375;-0.0210174560546875;7.77999998035739;779;100 mA;
128.963661674398;-0.79986572265625;-0.0210113525390625;7.78999998033214;780;100 mA;
128.973661674373;-0.79925537109375;-0.021002197265625;7.79999998030689;781;100 mA;
128.983661674348;-0.79986572265625;-0.021002197265625;7.80999998028165;782;100 mA;
128.993661674322;-0.799560546875;-0.020989990234375;7.8199999802564;783;100 mA;
129.003661674297;-0.79925537109375;-0.020977783203125;7.82999998023115;784;100 mA;
129.013661674272;-0.79925537109375;-0.0209747314453125;7.8399999802059;785;100 mA;
129.023661674247;-0.79925537109375;-0.020953369140625;7.84999998018066;786;100 mA;
129.033661674221;-0.79925537109375;-0.0209503173828125;7.85999998015541;787;100 mA;
129.043661674196;-0.799560546875;-0.02093505859375;7.86999998013016;788;100 mA;
129.053661674171;-0.8001708984375;-0.0209197998046875;7.87999998010491;789;100 mA;
129.063661674146;-0.799560546875;-0.0209136962890625;7.88999998007966;790;100 mA;
129.07366167412;-0.79986572265625;-0.0208984375;7.89999998005442;791;100 mA;
129.083661674095;-0.79925537109375;-0.0208984375;7.90999998002917;792;100 mA;
129.09366167407;-0.79925537109375;-0.0208831787109375;7.91999998000392;793;100 mA;
129.103661674045;-0.79925537109375;-0.0208709716796875;7.92999997997867;794;100 mA;
129.113661674019;-0.79986572265625;-0.020867919921875;7.93999997995343;795;100 mA;
129.123661673994;-0.79925537109375;-0.0208526611328125;7.94999997992818;796;100 mA;
129.133661673969;-0.79986572265625;-0.020849609375;7.95999997990293;797;100 mA;
129.143661673944;-0.799560546875;-0.0208404541015625;7.96999997987768;798;100 mA;
129.153661673918;-0.799560546875;-0.0208251953125;7.97999997985244;799;100 mA;
129.163661673893;-0.799560546875;-0.02081298828125;7.98999997982719;800;100 mA;
129.173661673868;-0.79925537109375;-0.020794677734375;7.99999997980194;801;100 mA;
129.183661673843;-0.7989501953125;-0.02078857421875;8.00999997977669;802;100 mA;
129.193661673817;-0.799560546875;-0.0207733154296875;8.01999997975145;803;100 mA;
129.203661673792;-0.799560546875;-0.020758056640625;8.0299999797262;804;100 mA;
129.213661673767;-0.79986572265625;-0.020745849609375;8.03999997970095;805;100 mA;
129.223661673742;-0.799560546875;-0.0207275390625;8.0499999796757;806;100 mA;
129.233661673716;-0.7989501953125;-0.020721435546875;8.05999997965046;807;100 mA;
129.243661673691;-0.79925537109375;-0.0207061767578125;8.06999997962521;808;100 mA;
129.253661673666;-0.799560546875;-0.02069091796875;8.07999997959996;809;100 mA;
129.263661673641;-0.799560546875;-0.0206817626953125;8.08999997957471;810;100 mA;
129.273661673615;-0.79925537109375;-0.0206634521484375;8.09999997954947;811;100 mA;
129.28366167359;-0.79986572265625;-0.0206573486328125;8.10999997952422;812;100 mA;
129.293661673565;-0.799560546875;-0.02064208984375;8.11999997949897;813;100 mA;
129.30366167354;-0.79925537109375;-0.0206268310546875;8.12999997947372;814;100 mA;
129.313661673514;-0.79986572265625;-0.0206146240234375;8.13999997944848;815;100 mA;
129.323661673489;-0.79925537109375;-0.02059326171875;8.14999997942323;816;100 mA;
129.333661673464;-0.799560546875;-0.0205810546875;8.15999997939798;817;100 mA;
129.343661673439;-0.799560546875;-0.020562744140625;8.16999997937273;818;100 mA;
129.353661673413;-0.799560546875;-0.0205474853515625;8.17999997934749;819;100 mA;
129.363661673388;-0.8001708984375;-0.0205322265625;8.18999997932224;820;100 mA;
129.373661673363;-0.79925537109375;-0.020513916015625;8.19999997929699;821;100 mA;
129.383661673338;-0.79986572265625;-0.0205078125;8.20999997927174;822;100 mA;
129.393661673312;-0.799560546875;-0.020489501953125;8.2199999792465;823;100 mA;
129.403661673287;-0.79925537109375;-0.0204742431640625;8.22999997922125;824;100 mA;
129.413661673262;-0.79986572265625;-0.0204681396484375;8.239999979196;825;100 mA;
129.423661673237;-0.799560546875;-0.02044677734375;8.24999997917075;826;100 mA;
129.433661673211;-0.799560546875;-0.0204376220703125;8.2599999791455;827;100 mA;
129.443661673186;-0.8001708984375;-0.02042236328125;8.26999997912026;828;100 mA;
129.453661673161;-0.799560546875;-0.0204071044921875;8.27999997909501;829;100 mA;
129.463661673136;-0.799560546875;-0.0203948974609375;8.28999997906976;830;100 mA;
129.47366167311;-0.79986572265625;-0.02037353515625;8.29999997904451;831;100 mA;
129.483661673085;-0.79925537109375;-0.0203643798828125;8.30999997901927;832;100 mA;
129.49366167306;-0.799560546875;-0.0203460693359375;8.31999997899402;833;100 mA;
129.503661673035;-0.799560546875;-0.020330810546875;8.32999997896877;834;100 mA;
129.513661673009;-0.799560546875;-0.0203216552734375;8.33999997894352;835;100 mA;
129.523661672984;-0.799560546875;-0.02030029296875;8.34999997891828;836;100 mA;
129.533661672959;-0.799560546875;-0.0202972412109375;8.35999997889303;837;100 mA;
129.543661672934;-0.799560546875;-0.020281982421875;8.36999997886778;838;100 mA;
129.553661672908;-0.79986572265625;-0.0202667236328125;8.37999997884253;839;100 mA;
129.563661672883;-0.799560546875;-0.0202606201171875;8.38999997881729;840;100 mA;
129.573661672858;-0.79925537109375;-0.020245361328125;8.39999997879204;841;100 mA;
129.583661672833;-0.79986572265625;-0.0202392578125;8.40999997876679;842;100 mA;
129.593661672807;-0.8001708984375;-0.02022705078125;8.41999997874154;843;100 mA;
129.603661672782;-0.79925537109375;-0.0202117919921875;8.4299999787163;844;100 mA;
129.613661672757;-0.79864501953125;-0.0202056884765625;8.43999997869105;845;100 mA;
129.623661672732;-0.79986572265625;-0.0201873779296875;8.4499999786658;846;100 mA;
129.633661672706;-0.79925537109375;-0.0201812744140625;8.45999997864055;847;100 mA;
129.643661672681;-0.799560546875;-0.0201629638671875;8.46999997861531;848;100 mA;
129.653661672656;-0.799560546875;-0.0201507568359375;8.47999997859006;849;100 mA;
129.663661672631;-0.799560546875;-0.0201446533203125;8.48999997856481;850;100 mA;
129.673661672605;-0.79925537109375;-0.0201324462890625;8.49999997853956;851;100 mA;
129.68366167258;-0.799560546875;-0.0201263427734375;8.50999997851432;852;100 mA;
129.693661672555;-0.799560546875;-0.0201141357421875;8.51999997848907;853;100 mA;
129.70366167253;-0.79925537109375;-0.02010498046875;8.52999997846382;854;100 mA;
129.713661672504;-0.7989501953125;-0.020098876953125;8.53999997843857;855;100 mA;
129.723661672479;-0.8001708984375;-0.0200897216796875;8.54999997841333;856;100 mA;
129.733661672454;-0.799560546875;-0.020086669921875;8.55999997838808;857;100 mA;
129.743661672429;-0.799560546875;-0.0200775146484375;8.56999997836283;858;100 mA;
129.753661672403;-0.799560546875;-0.0200653076171875;8.57999997833758;859;100 mA;
129.763661672378;-0.79925537109375;-0.020062255859375;8.58999997831233;860;100 mA;
129.773661672353;-0.79925537109375;-0.0200531005859375;8.59999997828709;861;100 mA;
129.783661672328;-0.79925537109375;-0.020050048828125;8.60999997826184;862;100 mA;
129.793661672303;-0.79986572265625;-0.0200408935546875;8.61999997823659;863;100 mA;
129.803661672277;-0.7989501953125;-0.02003173828125;8.62999997821134;864;100 mA;
129.813661672252;-0.79925537109375;-0.0200286865234375;8.6399999781861;865;100 mA;
129.823661672227;-0.79864501953125;-0.020013427734375;8.64999997816085;866;100 mA;
129.833661672202;-0.79925537109375;-0.020013427734375;8.6599999781356;867;100 mA;
129.843661672176;-0.79986572265625;-0.02000732421875;8.66999997811035;868;100 mA;
129.853661672151;-0.79986572265625;-0.0200042724609375;8.67999997808511;869;100 mA;
129.863661672126;-0.79925537109375;-0.020001220703125;8.68999997805986;870;100 mA;
129.873661672101;-0.799560546875;-0.0199920654296875;8.69999997803461;871;100 mA;
129.883661672075;-0.799560546875;-0.0199951171875;8.70999997800936;872;100 mA;
129.89366167205;-0.79925537109375;-0.0199920654296875;8.71999997798412;873;100 mA;
129.903661672025;-0.79925537109375;-0.0199859619140625;8.72999997795887;874;100 mA;
129.913661672;-0.79986572265625;-0.01998291015625;8.73999997793362;875;100 mA;
129.923661671974;-0.79925537109375;-0.0199737548828125;8.74999997790837;876;100 mA;
129.933661671949;-0.7989501953125;-0.019976806640625;8.75999997788313;877;100 mA;
129.943661671924;-0.799560546875;-0.0199737548828125;8.76999997785788;878;100 mA;
129.953661671899;-0.799560546875;-0.0199615478515625;8.77999997783263;879;100 mA;
129.963661671873;-0.799560546875;-0.0199676513671875;8.78999997780738;880;100 mA;
129.973661671848;-0.799560546875;-0.01995849609375;8.79999997778214;881;100 mA;
129.983661671823;-0.79986572265625;-0.0199615478515625;8.80999997775689;882;100 mA;
129.993661671798;-0.79925537109375;-0.01995849609375;8.81999997773164;883;100 mA;
130.003661671772;-0.79925537109375;-0.0199554443359375;8.82999997770639;884;100 mA;
130.013661671747;-0.799560546875;-0.0199615478515625;8.83999997768115;885;100 mA;
130.023661671722;-0.799560546875;-0.019952392578125;8.8499999776559;886;100 mA;
130.033661671697;-0.79925537109375;-0.0199615478515625;8.85999997763065;887;100 mA;
130.043661671671;-0.79986572265625;-0.01995849609375;8.8699999776054;888;100 mA;
130.053661671646;-0.79925537109375;-0.01995849609375;8.87999997758016;889;100 mA;
130.063661671621;-0.79986572265625;-0.0199676513671875;8.88999997755491;890;100 mA;
130.073661671596;-0.7989501953125;-0.019964599609375;8.89999997752966;891;100 mA;
130.08366167157;-0.799560546875;-0.0199676513671875;8.90999997750441;892;100 mA;
130.093661671545;-0.79986572265625;-0.019970703125;8.91999997747916;893;100 mA;
130.10366167152;-0.79925537109375;-0.019970703125;8.92999997745392;894;100 mA;
130.113661671495;-0.79925537109375;-0.019976806640625;8.93999997742867;895;100 mA;
130.123661671469;-0.79925537109375;-0.019976806640625;8.94999997740342;896;100 mA;
130.133661671444;-0.799560546875;-0.0199859619140625;8.95999997737817;897;100 mA;
130.143661671419;-0.79986572265625;-0.019989013671875;8.96999997735293;898;100 mA;
130.153661671394;-0.79925537109375;-0.0199951171875;8.97999997732768;899;100 mA;
130.163661671368;-0.7989501953125;-0.020001220703125;8.98999997730243;900;100 mA;
130.173661671343;-0.799560546875;-0.02000732421875;8.99999997727718;901;100 mA;
130.183661671318;-0.799560546875;-0.0200164794921875;9.00999997725194;902;100 mA;
130.193661671293;-0.799560546875;-0.0200164794921875;9.01999997722669;903;100 mA;
130.203661671267;-0.7989501953125;-0.020025634765625;9.02999997720144;904;100 mA;
130.213661671242;-0.799560546875;-0.0200347900390625;9.03999997717619;905;100 mA;
130.223661671217;-0.799560546875;-0.0200347900390625;9.04999997715095;906;100 mA;
130.233661671192;-0.7989501953125;-0.0200439453125;9.0599999771257;907;100 mA;
130.243661671166;-0.8001708984375;-0.0200469970703125;9.06999997710045;908;100 mA;
130.253661671141;-0.79986572265625;-0.020050048828125;9.0799999770752;909;100 mA;
130.263661671116;-0.79925537109375;-0.0200592041015625;9.08999997704996;910;100 mA;
130.273661671091;-0.79925537109375;-0.0200592041015625;9.09999997702471;911;100 mA;
130.283661671065;-0.799560546875;-0.0200714111328125;9.10999997699946;912;100 mA;
130.29366167104;-0.79986572265625;-0.020074462890625;9.11999997697421;913;100 mA;
130.303661671015;-0.799560546875;-0.0200775146484375;9.12999997694897;914;100 mA;
130.31366167099;-0.79925537109375;-0.0200927734375;9.13999997692372;915;100 mA;
130.323661670964;-0.799560546875;-0.0200927734375;9.14999997689847;916;100 mA;
130.333661670939;-0.79925537109375;-0.0201080322265625;9.15999997687322;917;100 mA;
130.343661670914;-0.79925537109375;-0.020111083984375;9.16999997684798;918;100 mA;
130.353661670889;-0.79925537109375;-0.0201202392578125;9.17999997682273;919;100 mA;
130.363661670863;-0.79925537109375;-0.0201324462890625;9.18999997679748;920;100 mA;
130.373661670838;-0.799560546875;-0.020135498046875;9.19999997677223;921;100 mA;
130.383661670813;-0.799560546875;-0.020147705078125;9.20999997674699;922;100 mA;
130.393661670788;-0.79925537109375;-0.0201507568359375;9.21999997672174;923;100 mA;
130.403661670762;-0.799560546875;-0.02015380859375;9.22999997669649;924;100 mA;
130.413661670737;-0.7989501953125;-0.020166015625;9.23999997667124;925;100 mA;
130.423661670712;-0.79986572265625;-0.020166015625;9.249999976646;926;100 mA;
130.433661670687;-0.79925537109375;-0.0201812744140625;9.25999997662075;927;100 mA;
130.443661670661;-0.799560546875;-0.0201873779296875;9.2699999765955;928;100 mA;
130.453661670636;-0.79925537109375;-0.0201934814453125;9.27999997657025;929;100 mA;
130.463661670611;-0.799560546875;-0.020208740234375;9.289999976545;930;100 mA;
130.473661670586;-0.79986572265625;-0.02021484375;9.29999997651976;931;100 mA;
130.48366167056;-0.79925537109375;-0.020233154296875;9.30999997649451;932;100 mA;
130.493661670535;-0.8001708984375;-0.0202392578125;9.31999997646926;933;100 mA;
130.50366167051;-0.79925537109375;-0.020245361328125;9.32999997644401;934;100 mA;
130.513661670485;-0.799560546875;-0.020257568359375;9.33999997641877;935;100 mA;
130.523661670459;-0.799560546875;-0.020263671875;9.34999997639352;936;100 mA;
130.533661670434;-0.79925537109375;-0.0202789306640625;9.35999997636827;937;100 mA;
130.543661670409;-0.79925537109375;-0.0202850341796875;9.36999997634302;938;100 mA;
130.553661670384;-0.79925537109375;-0.020294189453125;9.37999997631778;939;100 mA;
130.563661670358;-0.79986572265625;-0.0203033447265625;9.38999997629253;940;100 mA;
130.573661670333;-0.799560546875;-0.020306396484375;9.39999997626728;941;100 mA;
130.583661670308;-0.79925537109375;-0.0203216552734375;9.40999997624203;942;100 mA;
130.593661670283;-0.79986572265625;-0.0203277587890625;9.41999997621679;943;100 mA;
130.603661670257;-0.79925537109375;-0.020330810546875;9.42999997619154;944;100 mA;
130.613661670232;-0.79986572265625;-0.0203460693359375;9.43999997616629;945;100 mA;
130.623661670207;-0.799560546875;-0.0203521728515625;9.44999997614104;946;100 mA;
130.633661670182;-0.79986572265625;-0.0203643798828125;9.4599999761158;947;100 mA;
130.643661670156;-0.79925537109375;-0.02037353515625;9.46999997609055;948;100 mA;
130.653661670131;-0.799560546875;-0.020379638671875;9.4799999760653;949;100 mA;
130.663661670106;-0.79986572265625;-0.020391845703125;9.48999997604005;950;100 mA;
130.673661670081;-0.799560546875;-0.02039794921875;9.49999997601481;951;100 mA;
130.683661670055;-0.799560546875;-0.0204132080078125;9.50999997598956;952;100 mA;
130.69366167003;-0.799560546875;-0.020416259765625;9.51999997596431;953;100 mA;
130.703661670005;-0.799560546875;-0.02042236328125;9.52999997593906;954;100 mA;
130.71366166998;-0.79925537109375;-0.0204315185546875;9.53999997591382;955;100 mA;
130.723661669954;-0.79925537109375;-0.020428466796875;9.54999997588857;956;100 mA;
130.733661669929;-0.79925537109375;-0.0204437255859375;9.55999997586332;957;100 mA;
130.743661669904;-0.79925537109375;-0.02044677734375;9.56999997583807;958;100 mA;
130.753661669879;-0.799560546875;-0.020452880859375;9.57999997581283;959;100 mA;
130.763661669853;-0.79986572265625;-0.020458984375;9.58999997578758;960;100 mA;
130.773661669828;-0.79925537109375;-0.020465087890625;9.59999997576233;961;100 mA;
130.783661669803;-0.79925537109375;-0.0204742431640625;9.60999997573708;962;100 mA;
130.793661669778;-0.79986572265625;-0.0204803466796875;9.61999997571183;963;100 mA;
130.803661669753;-0.799560546875;-0.020489501953125;9.62999997568659;964;100 mA;
130.813661669727;-0.79986572265625;-0.0204986572265625;9.63999997566134;965;100 mA;
130.823661669702;-0.799560546875;-0.020501708984375;9.64999997563609;966;100 mA;
130.833661669677;-0.799560546875;-0.0205108642578125;9.65999997561084;967;100 mA;
130.843661669652;-0.799560546875;-0.020513916015625;9.6699999755856;968;100 mA;
130.853661669626;-0.79925537109375;-0.0205169677734375;9.67999997556035;969;100 mA;
130.863661669601;-0.79925537109375;-0.02052001953125;9.6899999755351;970;100 mA;
130.873661669576;-0.799560546875;-0.02052001953125;9.69999997550985;971;100 mA;
130.883661669551;-0.79925537109375;-0.0205291748046875;9.70999997548461;972;100 mA;
130.893661669525;-0.79986572265625;-0.0205291748046875;9.71999997545936;973;100 mA;
130.9036616695;-0.79986572265625;-0.0205291748046875;9.72999997543411;974;100 mA;
130.913661669475;-0.79986572265625;-0.020538330078125;9.73999997540886;975;100 mA;
130.92366166945;-0.7989501953125;-0.020538330078125;9.74999997538362;976;100 mA;
130.933661669424;-0.79986572265625;-0.0205535888671875;9.75999997535837;977;100 mA;
130.943661669399;-0.79925537109375;-0.020556640625;9.76999997533312;978;100 mA;
130.953661669374;-0.799560546875;-0.0205596923828125;9.77999997530787;979;100 mA;
130.963661669349;-0.79986572265625;-0.0205657958984375;9.78999997528263;980;100 mA;
130.973661669323;-0.799560546875;-0.0205718994140625;9.79999997525738;981;100 mA;
130.983661669298;-0.79986572265625;-0.0205780029296875;9.80999997523213;982;100 mA;
130.993661669273;-0.799560546875;-0.0205780029296875;9.81999997520688;983;100 mA;
131.003661669248;-0.7989501953125;-0.0205810546875;9.82999997518164;984;100 mA;
131.013661669222;-0.79986572265625;-0.020587158203125;9.83999997515639;985;100 mA;
131.023661669197;-0.799560546875;-0.0205841064453125;9.84999997513114;986;100 mA;
131.033661669172;-0.79925537109375;-0.02059326171875;9.85999997510589;987;100 mA;
131.043661669147;-0.7989501953125;-0.0205963134765625;9.86999997508065;988;100 mA;
131.053661669121;-0.799560546875;-0.020599365234375;9.8799999750554;989;100 mA;
131.063661669096;-0.79986572265625;-0.02060546875;9.88999997503015;990;100 mA;
131.073661669071;-0.799560546875;-0.020611572265625;9.8999999750049;991;100 mA;
131.083661669046;-0.79925537109375;-0.0206207275390625;9.90999997497966;992;100 mA;
131.09366166902;-0.799560546875;-0.020623779296875;9.91999997495441;993;100 mA;
131.103661668995;-0.79986572265625;-0.0206298828125;9.92999997492916;994;100 mA;
131.11366166897;-0.7989501953125;-0.0206390380859375;9.93999997490391;995;100 mA;
131.123661668945;-0.799560546875;-0.02064208984375;9.94999997487866;996;100 mA;
131.133661668919;-0.79986572265625;-0.020648193359375;9.95999997485342;997;100 mA;
131.143661668894;-0.79925537109375;-0.0206512451171875;9.96999997482817;998;100 mA;
131.153661668869;-0.799560546875;-0.0206573486328125;9.97999997480292;999;100 mA;
131.163661668844;-0.799560546875;-0.02066650390625;9.98999997477767;1000;100 mA;
