Time (s);WE(1).Potential (V);WE(1).Current (A);Corrected time (s);Index;Current range;Overload
192.588097513762;-0.90057373046875;-0.381195068359375;0;1;100 mA;Current overload
192.598097513737;-0.899658203125;-0.257171630859375;0.00999999997475243;2;100 mA;
192.608097513711;-0.89935302734375;-0.206146240234375;0.0199999999495049;3;100 mA;
192.618097513686;-0.89996337890625;-0.1771240234375;0.0299999999242573;4;100 mA;
192.628097513661;-0.899658203125;-0.15771484375;0.0399999998990097;5;100 mA;
192.638097513636;-0.89935302734375;-0.143524169921875;0.0499999998737621;6;100 mA;
192.64809751361;-0.89996337890625;-0.132537841796875;0.0599999998485146;7;100 mA;
192.658097513585;-0.9002685546875;-0.12371826171875;0.069999999823267;8;100 mA;
192.66809751356;-0.899658203125;-0.116424560546875;0.0799999997980194;9;100 mA;
192.678097513535;-0.8990478515625;-0.1102294921875;0.0899999997727718;10;100 mA;
192.688097513509;-0.89935302734375;-0.10491943359375;0.0999999997475243;11;100 mA;
192.698097513484;-0.89935302734375;-0.100311279296875;0.109999999722277;12;100 mA;
192.708097513459;-0.899658203125;-0.09625244140625;0.119999999697029;13;100 mA;
192.718097513434;-0.89996337890625;-0.0926513671875;0.129999999671782;14;100 mA;
192.728097513408;-0.89935302734375;-0.08941650390625;0.139999999646534;15;100 mA;
192.738097513383;-0.899658203125;-0.08648681640625;0.149999999621286;16;100 mA;
192.748097513358;-0.89935302734375;-0.0838623046875;0.159999999596039;17;100 mA;
192.758097513333;-0.899658203125;-0.0814208984375;0.169999999570791;18;100 mA;
192.768097513307;-0.89935302734375;-0.079193115234375;0.179999999545544;19;100 mA;
192.778097513282;-0.89935302734375;-0.077178955078125;0.189999999520296;20;100 mA;
192.788097513257;-0.89935302734375;-0.07525634765625;0.199999999495049;21;100 mA;
192.798097513232;-0.89935302734375;-0.073516845703125;0.209999999469801;22;100 mA;
192.808097513206;-0.89874267578125;-0.071868896484375;0.219999999444553;23;100 mA;
192.818097513181;-0.899658203125;-0.070343017578125;0.229999999419306;24;100 mA;
192.828097513156;-0.899658203125;-0.068878173828125;0.239999999394058;25;100 mA;
192.838097513131;-0.899658203125;-0.067535400390625;0.249999999368811;26;100 mA;
192.848097513105;-0.899658203125;-0.066253662109375;0.259999999343563;27;100 mA;
192.85809751308;-0.8990478515625;-0.065032958984375;0.269999999318316;28;100 mA;
192.868097513055;-0.89935302734375;-0.06390380859375;0.279999999293068;29;100 mA;
192.87809751303;-0.899658203125;-0.06280517578125;0.28999999926782;30;100 mA;
192.888097513004;-0.89935302734375;-0.061767578125;0.299999999242573;31;100 mA;
192.898097512979;-0.899658203125;-0.060791015625;0.309999999217325;32;100 mA;
192.908097512954;-0.89935302734375;-0.05987548828125;0.319999999192078;33;100 mA;
192.918097512929;-0.89935302734375;-0.058990478515625;0.32999999916683;34;100 mA;
192.928097512903;-0.899658203125;-0.058135986328125;0.339999999141583;35;100 mA;
192.938097512878;-0.899658203125;-0.05731201171875;0.349999999116335;36;100 mA;
192.948097512853;-0.899658203125;-0.056549072265625;0.359999999091087;37;100 mA;
192.958097512828;-0.899658203125;-0.055816650390625;0.36999999906584;38;100 mA;
192.968097512802;-0.8990478515625;-0.055084228515625;0.379999999040592;39;100 mA;
192.978097512777;-0.89935302734375;-0.054412841796875;0.389999999015345;40;100 mA;
192.988097512752;-0.89996337890625;-0.05377197265625;0.399999998990097;41;100 mA;
192.998097512727;-0.9002685546875;-0.053131103515625;0.40999999896485;42;100 mA;
193.008097512701;-0.89935302734375;-0.052520751953125;0.419999998939602;43;100 mA;
193.018097512676;-0.899658203125;-0.05194091796875;0.429999998914354;44;100 mA;
193.028097512651;-0.899658203125;-0.0513916015625;0.439999998889107;45;100 mA;
193.038097512626;-0.89935302734375;-0.05084228515625;0.449999998863859;46;100 mA;
193.0480975126;-0.89935302734375;-0.05029296875;0.459999998838612;47;100 mA;
193.058097512575;-0.89935302734375;-0.0498046875;0.469999998813364;48;100 mA;
193.06809751255;-0.89935302734375;-0.049310302734375;0.479999998788116;49;100 mA;
193.078097512525;-0.899658203125;-0.0488372802734375;0.489999998762869;50;100 mA;
193.088097512499;-0.89935302734375;-0.048382568359375;0.499999998737621;51;100 mA;
193.098097512474;-0.8990478515625;-0.0479461669921875;0.509999998712374;52;100 mA;
193.108097512449;-0.899658203125;-0.0475067138671875;0.519999998687126;53;100 mA;
193.118097512424;-0.899658203125;-0.0470977783203125;0.529999998661879;54;100 mA;
193.128097512398;-0.89935302734375;-0.0466888427734375;0.539999998636631;55;100 mA;
193.138097512373;-0.899658203125;-0.0462982177734375;0.549999998611383;56;100 mA;
193.148097512348;-0.89935302734375;-0.0459197998046875;0.559999998586136;57;100 mA;
193.158097512323;-0.899658203125;-0.0455474853515625;0.569999998560888;58;100 mA;
193.168097512297;-0.89935302734375;-0.0451934814453125;0.579999998535641;59;100 mA;
193.178097512272;-0.899658203125;-0.0448333740234375;0.589999998510393;60;100 mA;
193.188097512247;-0.899658203125;-0.04449462890625;0.599999998485146;61;100 mA;
193.198097512222;-0.899658203125;-0.0441680908203125;0.609999998459898;62;100 mA;
193.208097512196;-0.89996337890625;-0.0438385009765625;0.61999999843465;63;100 mA;
193.218097512171;-0.89935302734375;-0.0435272216796875;0.629999998409403;64;100 mA;
193.228097512146;-0.89935302734375;-0.043212890625;0.639999998384155;65;100 mA;
193.238097512121;-0.8990478515625;-0.0429107666015625;0.649999998358908;66;100 mA;
193.248097512095;-0.89935302734375;-0.04261474609375;0.65999999833366;67;100 mA;
193.25809751207;-0.89935302734375;-0.04232177734375;0.669999998308413;68;100 mA;
193.268097512045;-0.9002685546875;-0.042047119140625;0.679999998283165;69;100 mA;
193.27809751202;-0.8990478515625;-0.04176025390625;0.689999998257917;70;100 mA;
193.288097511994;-0.89874267578125;-0.0414947509765625;0.69999999823267;71;100 mA;
193.298097511969;-0.89935302734375;-0.0412261962890625;0.709999998207422;72;100 mA;
193.308097511944;-0.8990478515625;-0.040966796875;0.719999998182175;73;100 mA;
193.318097511919;-0.89935302734375;-0.040716552734375;0.729999998156927;74;100 mA;
193.328097511893;-0.899658203125;-0.0404571533203125;0.73999999813168;75;100 mA;
193.338097511868;-0.899658203125;-0.040216064453125;0.749999998106432;76;100 mA;
193.348097511843;-0.89935302734375;-0.039984130859375;0.759999998081184;77;100 mA;
193.358097511818;-0.89935302734375;-0.03974609375;0.769999998055937;78;100 mA;
193.368097511792;-0.899658203125;-0.039520263671875;0.779999998030689;79;100 mA;
193.378097511767;-0.89996337890625;-0.039288330078125;0.789999998005442;80;100 mA;
193.388097511742;-0.899658203125;-0.0390716552734375;0.799999997980194;81;100 mA;
193.398097511717;-0.899658203125;-0.0388580322265625;0.809999997954947;82;100 mA;
193.408097511691;-0.89935302734375;-0.0386444091796875;0.819999997929699;83;100 mA;
193.418097511666;-0.89935302734375;-0.0384368896484375;0.829999997904451;84;100 mA;
193.428097511641;-0.899658203125;-0.038226318359375;0.839999997879204;85;100 mA;
193.438097511616;-0.89935302734375;-0.0380279541015625;0.849999997853956;86;100 mA;
193.448097511591;-0.89935302734375;-0.0378326416015625;0.859999997828709;87;100 mA;
193.458097511565;-0.899658203125;-0.037640380859375;0.869999997803461;88;100 mA;
193.46809751154;-0.8984375;-0.0374542236328125;0.879999997778214;89;100 mA;
193.478097511515;-0.89996337890625;-0.037261962890625;0.889999997752966;90;100 mA;
193.48809751149;-0.899658203125;-0.0370880126953125;0.899999997727718;91;100 mA;
193.498097511464;-0.89935302734375;-0.0369110107421875;0.909999997702471;92;100 mA;
193.508097511439;-0.89935302734375;-0.0367340087890625;0.919999997677223;93;100 mA;
193.518097511414;-0.899658203125;-0.036566162109375;0.929999997651976;94;100 mA;
193.528097511389;-0.89935302734375;-0.036395263671875;0.939999997626728;95;100 mA;
193.538097511363;-0.899658203125;-0.03623046875;0.949999997601481;96;100 mA;
193.548097511338;-0.8990478515625;-0.03607177734375;0.959999997576233;97;100 mA;
193.558097511313;-0.89996337890625;-0.0359161376953125;0.969999997550985;98;100 mA;
193.568097511288;-0.89935302734375;-0.0357635498046875;0.979999997525738;99;100 mA;
193.578097511262;-0.89935302734375;-0.0356048583984375;0.98999999750049;100;100 mA;
193.588097511237;-0.899658203125;-0.0354522705078125;0.999999997475243;101;100 mA;
193.598097511212;-0.8990478515625;-0.03531494140625;1.00999999745;102;100 mA;
193.608097511187;-0.89935302734375;-0.0351654052734375;1.01999999742475;103;100 mA;
193.618097511161;-0.9002685546875;-0.0350250244140625;1.0299999973995;104;100 mA;
193.628097511136;-0.8990478515625;-0.0348846435546875;1.03999999737425;105;100 mA;
193.638097511111;-0.8990478515625;-0.034747314453125;1.049999997349;106;100 mA;
193.648097511086;-0.899658203125;-0.0346160888671875;1.05999999732376;107;100 mA;
193.65809751106;-0.899658203125;-0.03448486328125;1.06999999729851;108;100 mA;
193.668097511035;-0.8990478515625;-0.034356689453125;1.07999999727326;109;100 mA;
193.67809751101;-0.8990478515625;-0.034222412109375;1.08999999724801;110;100 mA;
193.688097510985;-0.8990478515625;-0.0340972900390625;1.09999999722277;111;100 mA;
193.698097510959;-0.8990478515625;-0.0339813232421875;1.10999999719752;112;100 mA;
193.708097510934;-0.899658203125;-0.0338531494140625;1.11999999717227;113;100 mA;
193.718097510909;-0.899658203125;-0.033734130859375;1.12999999714702;114;100 mA;
193.728097510884;-0.89996337890625;-0.0336151123046875;1.13999999712178;115;100 mA;
193.738097510858;-0.89935302734375;-0.0334991455078125;1.14999999709653;116;100 mA;
193.748097510833;-0.89935302734375;-0.03338623046875;1.15999999707128;117;100 mA;
193.758097510808;-0.89935302734375;-0.0332672119140625;1.16999999704603;118;100 mA;
193.768097510783;-0.89935302734375;-0.03316650390625;1.17999999702079;119;100 mA;
193.778097510757;-0.89935302734375;-0.0330474853515625;1.18999999699554;120;100 mA;
193.788097510732;-0.899658203125;-0.03294677734375;1.19999999697029;121;100 mA;
193.798097510707;-0.899658203125;-0.032843017578125;1.20999999694504;122;100 mA;
193.808097510682;-0.899658203125;-0.0327362060546875;1.2199999969198;123;100 mA;
193.818097510656;-0.89935302734375;-0.0326416015625;1.22999999689455;124;100 mA;
193.828097510631;-0.89935302734375;-0.0325408935546875;1.2399999968693;125;100 mA;
193.838097510606;-0.89996337890625;-0.032440185546875;1.24999999684405;126;100 mA;
193.848097510581;-0.899658203125;-0.0323455810546875;1.25999999681881;127;100 mA;
193.858097510555;-0.899658203125;-0.032244873046875;1.26999999679356;128;100 mA;
193.86809751053;-0.899658203125;-0.0321563720703125;1.27999999676831;129;100 mA;
193.878097510505;-0.899658203125;-0.0320587158203125;1.28999999674306;130;100 mA;
193.88809751048;-0.8990478515625;-0.03197021484375;1.29999999671782;131;100 mA;
193.898097510454;-0.89935302734375;-0.031884765625;1.30999999669257;132;100 mA;
193.908097510429;-0.89935302734375;-0.031793212890625;1.31999999666732;133;100 mA;
193.918097510404;-0.899658203125;-0.0317169189453125;1.32999999664207;134;100 mA;
193.928097510379;-0.8990478515625;-0.0316253662109375;1.33999999661683;135;100 mA;
193.938097510353;-0.899658203125;-0.0315460205078125;1.34999999659158;136;100 mA;
193.948097510328;-0.8990478515625;-0.031463623046875;1.35999999656633;137;100 mA;
193.958097510303;-0.8990478515625;-0.0313873291015625;1.36999999654108;138;100 mA;
193.968097510278;-0.89935302734375;-0.03131103515625;1.37999999651583;139;100 mA;
193.978097510252;-0.8990478515625;-0.0312286376953125;1.38999999649059;140;100 mA;
193.988097510227;-0.8990478515625;-0.03115234375;1.39999999646534;141;100 mA;
193.998097510202;-0.89935302734375;-0.0310760498046875;1.40999999644009;142;100 mA;
194.008097510177;-0.899658203125;-0.0309967041015625;1.41999999641484;143;100 mA;
194.018097510151;-0.89935302734375;-0.030926513671875;1.4299999963896;144;100 mA;
194.028097510126;-0.89874267578125;-0.0308502197265625;1.43999999636435;145;100 mA;
194.038097510101;-0.899658203125;-0.0307769775390625;1.4499999963391;146;100 mA;
194.048097510076;-0.899658203125;-0.0307098388671875;1.45999999631385;147;100 mA;
194.05809751005;-0.89996337890625;-0.030633544921875;1.46999999628861;148;100 mA;
194.068097510025;-0.8990478515625;-0.0305694580078125;1.47999999626336;149;100 mA;
194.07809751;-0.89935302734375;-0.0305023193359375;1.48999999623811;150;100 mA;
194.088097509975;-0.89935302734375;-0.0304351806640625;1.49999999621286;151;100 mA;
194.098097509949;-0.89935302734375;-0.0303741455078125;1.50999999618762;152;100 mA;
194.108097509924;-0.89935302734375;-0.030303955078125;1.51999999616237;153;100 mA;
194.118097509899;-0.89996337890625;-0.0302459716796875;1.52999999613712;154;100 mA;
194.128097509874;-0.89935302734375;-0.03017578125;1.53999999611187;155;100 mA;
194.138097509848;-0.89935302734375;-0.03011474609375;1.54999999608663;156;100 mA;
194.148097509823;-0.89935302734375;-0.0300567626953125;1.55999999606138;157;100 mA;
194.158097509798;-0.89935302734375;-0.02999267578125;1.56999999603613;158;100 mA;
194.168097509773;-0.899658203125;-0.029937744140625;1.57999999601088;159;100 mA;
194.178097509747;-0.899658203125;-0.0298736572265625;1.58999999598564;160;100 mA;
194.188097509722;-0.89935302734375;-0.029815673828125;1.59999999596039;161;100 mA;
194.198097509697;-0.89935302734375;-0.0297607421875;1.60999999593514;162;100 mA;
194.208097509672;-0.8990478515625;-0.02969970703125;1.61999999590989;163;100 mA;
194.218097509646;-0.899658203125;-0.02965087890625;1.62999999588465;164;100 mA;
194.228097509621;-0.89996337890625;-0.02958984375;1.6399999958594;165;100 mA;
194.238097509596;-0.89935302734375;-0.0295379638671875;1.64999999583415;166;100 mA;
194.248097509571;-0.8990478515625;-0.0294921875;1.6599999958089;167;100 mA;
194.258097509545;-0.89996337890625;-0.02943115234375;1.66999999578366;168;100 mA;
194.26809750952;-0.8990478515625;-0.0293853759765625;1.67999999575841;169;100 mA;
194.278097509495;-0.89935302734375;-0.02933349609375;1.68999999573316;170;100 mA;
194.28809750947;-0.89935302734375;-0.0292816162109375;1.69999999570791;171;100 mA;
194.298097509444;-0.899658203125;-0.0292327880859375;1.70999999568267;172;100 mA;
194.308097509419;-0.89935302734375;-0.0291778564453125;1.71999999565742;173;100 mA;
194.318097509394;-0.899658203125;-0.029132080078125;1.72999999563217;174;100 mA;
194.328097509369;-0.89935302734375;-0.029083251953125;1.73999999560692;175;100 mA;
194.338097509343;-0.89935302734375;-0.0290374755859375;1.74999999558167;176;100 mA;
194.348097509318;-0.89874267578125;-0.0289886474609375;1.75999999555643;177;100 mA;
194.358097509293;-0.89935302734375;-0.0289398193359375;1.76999999553118;178;100 mA;
194.368097509268;-0.89996337890625;-0.0289031982421875;1.77999999550593;179;100 mA;
194.378097509242;-0.8990478515625;-0.0288482666015625;1.78999999548068;180;100 mA;
194.388097509217;-0.899658203125;-0.02880859375;1.79999999545544;181;100 mA;
194.398097509192;-0.899658203125;-0.0287628173828125;1.80999999543019;182;100 mA;
194.408097509167;-0.89935302734375;-0.0287139892578125;1.81999999540494;183;100 mA;
194.418097509141;-0.89935302734375;-0.02867431640625;1.82999999537969;184;100 mA;
194.428097509116;-0.9002685546875;-0.0286224365234375;1.83999999535445;185;100 mA;
194.438097509091;-0.899658203125;-0.028582763671875;1.8499999953292;186;100 mA;
194.448097509066;-0.89935302734375;-0.0285369873046875;1.85999999530395;187;100 mA;
194.45809750904;-0.89935302734375;-0.028485107421875;1.8699999952787;188;100 mA;
194.468097509015;-0.899658203125;-0.028448486328125;1.87999999525346;189;100 mA;
194.47809750899;-0.899658203125;-0.0283966064453125;1.88999999522821;190;100 mA;
194.488097508965;-0.89935302734375;-0.028350830078125;1.89999999520296;191;100 mA;
194.49809750894;-0.899658203125;-0.02830810546875;1.90999999517771;192;100 mA;
194.508097508914;-0.899658203125;-0.0282562255859375;1.91999999515247;193;100 mA;
194.518097508889;-0.89935302734375;-0.0282196044921875;1.92999999512722;194;100 mA;
194.528097508864;-0.899658203125;-0.0281707763671875;1.93999999510197;195;100 mA;
194.538097508839;-0.89935302734375;-0.028125;1.94999999507672;196;100 mA;
194.548097508813;-0.899658203125;-0.028082275390625;1.95999999505148;197;100 mA;
194.558097508788;-0.89935302734375;-0.0280364990234375;1.96999999502623;198;100 mA;
194.568097508763;-0.89935302734375;-0.027996826171875;1.97999999500098;199;100 mA;
194.578097508738;-0.899658203125;-0.0279449462890625;1.98999999497573;200;100 mA;
194.588097508712;-0.899658203125;-0.0278961181640625;1.99999999495049;201;100 mA;
194.598097508687;-0.89996337890625;-0.027850341796875;2.00999999492524;202;100 mA;
194.608097508662;-0.8990478515625;-0.0278045654296875;2.01999999489999;203;100 mA;
194.618097508637;-0.899658203125;-0.0277618408203125;2.02999999487474;204;100 mA;
194.628097508611;-0.89935302734375;-0.0277130126953125;2.0399999948495;205;100 mA;
194.638097508586;-0.8990478515625;-0.0276641845703125;2.04999999482425;206;100 mA;
194.648097508561;-0.89935302734375;-0.0276214599609375;2.059999994799;207;100 mA;
194.658097508536;-0.899658203125;-0.0275726318359375;2.06999999477375;208;100 mA;
194.66809750851;-0.8990478515625;-0.0275299072265625;2.0799999947485;209;100 mA;
194.678097508485;-0.899658203125;-0.0274810791015625;2.08999999472326;210;100 mA;
194.68809750846;-0.89935302734375;-0.027435302734375;2.09999999469801;211;100 mA;
194.698097508435;-0.89935302734375;-0.027398681640625;2.10999999467276;212;100 mA;
194.708097508409;-0.89996337890625;-0.0273468017578125;2.11999999464751;213;100 mA;
194.718097508384;-0.899658203125;-0.02730712890625;2.12999999462227;214;100 mA;
194.728097508359;-0.89996337890625;-0.0272613525390625;2.13999999459702;215;100 mA;
194.738097508334;-0.89935302734375;-0.027215576171875;2.14999999457177;216;100 mA;
194.748097508308;-0.899658203125;-0.0271697998046875;2.15999999454652;217;100 mA;
194.758097508283;-0.8990478515625;-0.0271209716796875;2.16999999452128;218;100 mA;
194.768097508258;-0.899658203125;-0.027081298828125;2.17999999449603;219;100 mA;
194.778097508233;-0.89935302734375;-0.0270294189453125;2.18999999447078;220;100 mA;
194.788097508207;-0.899658203125;-0.0269866943359375;2.19999999444553;221;100 mA;
194.798097508182;-0.899658203125;-0.0269439697265625;2.20999999442029;222;100 mA;
194.808097508157;-0.899658203125;-0.0269012451171875;2.21999999439504;223;100 mA;
194.818097508132;-0.89935302734375;-0.026861572265625;2.22999999436979;224;100 mA;
194.828097508106;-0.8990478515625;-0.02681884765625;2.23999999434454;225;100 mA;
194.838097508081;-0.899658203125;-0.0267791748046875;2.2499999943193;226;100 mA;
194.848097508056;-0.899658203125;-0.026739501953125;2.25999999429405;227;100 mA;
194.858097508031;-0.899658203125;-0.02669677734375;2.2699999942688;228;100 mA;
194.868097508005;-0.89935302734375;-0.0266632080078125;2.27999999424355;229;100 mA;
194.87809750798;-0.9002685546875;-0.0266143798828125;2.28999999421831;230;100 mA;
194.888097507955;-0.89935302734375;-0.02657470703125;2.29999999419306;231;100 mA;
194.89809750793;-0.89935302734375;-0.0265350341796875;2.30999999416781;232;100 mA;
194.908097507904;-0.89935302734375;-0.0264923095703125;2.31999999414256;233;100 mA;
194.918097507879;-0.89935302734375;-0.0264495849609375;2.32999999411732;234;100 mA;
194.928097507854;-0.89935302734375;-0.026409912109375;2.33999999409207;235;100 mA;
194.938097507829;-0.89935302734375;-0.0263671875;2.34999999406682;236;100 mA;
194.948097507803;-0.89996337890625;-0.02633056640625;2.35999999404157;237;100 mA;
194.958097507778;-0.89935302734375;-0.026287841796875;2.36999999401633;238;100 mA;
194.968097507753;-0.9002685546875;-0.02625732421875;2.37999999399108;239;100 mA;
194.978097507728;-0.89935302734375;-0.0262176513671875;2.38999999396583;240;100 mA;
194.988097507702;-0.89935302734375;-0.026177978515625;2.39999999394058;241;100 mA;
194.998097507677;-0.89935302734375;-0.0261474609375;2.40999999391533;242;100 mA;
195.008097507652;-0.89996337890625;-0.0261077880859375;2.41999999389009;243;100 mA;
195.018097507627;-0.89935302734375;-0.02607421875;2.42999999386484;244;100 mA;
195.028097507601;-0.899658203125;-0.026031494140625;2.43999999383959;245;100 mA;
195.038097507576;-0.89935302734375;-0.0259979248046875;2.44999999381434;246;100 mA;
195.048097507551;-0.8990478515625;-0.025958251953125;2.4599999937891;247;100 mA;
195.058097507526;-0.899658203125;-0.0259246826171875;2.46999999376385;248;100 mA;
195.0680975075;-0.899658203125;-0.02589111328125;2.4799999937386;249;100 mA;
195.078097507475;-0.89935302734375;-0.0258514404296875;2.48999999371335;250;100 mA;
195.08809750745;-0.899658203125;-0.0258148193359375;2.49999999368811;251;100 mA;
195.098097507425;-0.89996337890625;-0.0257843017578125;2.50999999366286;252;100 mA;
195.108097507399;-0.899658203125;-0.025750732421875;2.51999999363761;253;100 mA;
195.118097507374;-0.89935302734375;-0.02572021484375;2.52999999361236;254;100 mA;
195.128097507349;-0.89935302734375;-0.025689697265625;2.53999999358712;255;100 mA;
195.138097507324;-0.89935302734375;-0.0256591796875;2.54999999356187;256;100 mA;
195.148097507298;-0.899658203125;-0.025634765625;2.55999999353662;257;100 mA;
195.158097507273;-0.89935302734375;-0.0256011962890625;2.56999999351137;258;100 mA;
195.168097507248;-0.89935302734375;-0.0255767822265625;2.57999999348613;259;100 mA;
195.178097507223;-0.89935302734375;-0.025543212890625;2.58999999346088;260;100 mA;
195.188097507197;-0.8990478515625;-0.0255157470703125;2.59999999343563;261;100 mA;
195.198097507172;-0.89935302734375;-0.02548828125;2.60999999341038;262;100 mA;
195.208097507147;-0.89935302734375;-0.0254547119140625;2.61999999338514;263;100 mA;
195.218097507122;-0.899658203125;-0.0254302978515625;2.62999999335989;264;100 mA;
195.228097507096;-0.899658203125;-0.0253997802734375;2.63999999333464;265;100 mA;
195.238097507071;-0.8990478515625;-0.0253692626953125;2.64999999330939;266;100 mA;
195.248097507046;-0.899658203125;-0.0253509521484375;2.65999999328415;267;100 mA;
195.258097507021;-0.89935302734375;-0.025323486328125;2.6699999932589;268;100 mA;
195.268097506995;-0.89996337890625;-0.0253082275390625;2.67999999323365;269;100 mA;
195.27809750697;-0.899658203125;-0.02528076171875;2.6899999932084;270;100 mA;
195.288097506945;-0.89935302734375;-0.025262451171875;2.69999999318316;271;100 mA;
195.29809750692;-0.8990478515625;-0.025244140625;2.70999999315791;272;100 mA;
195.308097506894;-0.899658203125;-0.0252197265625;2.71999999313266;273;100 mA;
195.318097506869;-0.899658203125;-0.0252044677734375;2.72999999310741;274;100 mA;
195.328097506844;-0.899658203125;-0.0251800537109375;2.73999999308217;275;100 mA;
195.338097506819;-0.899658203125;-0.0251556396484375;2.74999999305692;276;100 mA;
195.348097506793;-0.89935302734375;-0.0251373291015625;2.75999999303167;277;100 mA;
195.358097506768;-0.899658203125;-0.025115966796875;2.76999999300642;278;100 mA;
195.368097506743;-0.89996337890625;-0.0251007080078125;2.77999999298117;279;100 mA;
195.378097506718;-0.899658203125;-0.0250732421875;2.78999999295593;280;100 mA;
195.388097506692;-0.899658203125;-0.02506103515625;2.79999999293068;281;100 mA;
195.398097506667;-0.9002685546875;-0.025042724609375;2.80999999290543;282;100 mA;
195.408097506642;-0.899658203125;-0.0250274658203125;2.81999999288018;283;100 mA;
195.418097506617;-0.899658203125;-0.025018310546875;2.82999999285494;284;100 mA;
195.428097506591;-0.8990478515625;-0.0249969482421875;2.83999999282969;285;100 mA;
195.438097506566;-0.89935302734375;-0.0249847412109375;2.84999999280444;286;100 mA;
195.448097506541;-0.899658203125;-0.0249725341796875;2.85999999277919;287;100 mA;
195.458097506516;-0.899658203125;-0.024951171875;2.86999999275395;288;100 mA;
195.46809750649;-0.8990478515625;-0.024951171875;2.8799999927287;289;100 mA;
195.478097506465;-0.89935302734375;-0.024920654296875;2.88999999270345;290;100 mA;
195.48809750644;-0.89935302734375;-0.024908447265625;2.8999999926782;291;100 mA;
195.498097506415;-0.899658203125;-0.024896240234375;2.90999999265296;292;100 mA;
195.50809750639;-0.8990478515625;-0.0248779296875;2.91999999262771;293;100 mA;
195.518097506364;-0.899658203125;-0.024871826171875;2.92999999260246;294;100 mA;
195.528097506339;-0.8990478515625;-0.0248504638671875;2.93999999257721;295;100 mA;
195.538097506314;-0.89935302734375;-0.0248382568359375;2.94999999255197;296;100 mA;
195.548097506289;-0.8990478515625;-0.0248291015625;2.95999999252672;297;100 mA;
195.558097506263;-0.899658203125;-0.0248199462890625;2.96999999250147;298;100 mA;
195.568097506238;-0.899658203125;-0.02481689453125;2.97999999247622;299;100 mA;
195.578097506213;-0.89935302734375;-0.0247955322265625;2.98999999245098;300;100 mA;
195.588097506188;-0.899658203125;-0.024786376953125;2.99999999242573;301;100 mA;
195.598097506162;-0.8990478515625;-0.0247772216796875;3.00999999240048;302;100 mA;
195.608097506137;-0.899658203125;-0.024761962890625;3.01999999237523;303;100 mA;
195.618097506112;-0.89935302734375;-0.0247528076171875;3.02999999234999;304;100 mA;
195.628097506087;-0.8990478515625;-0.0247344970703125;3.03999999232474;305;100 mA;
195.638097506061;-0.899658203125;-0.024725341796875;3.04999999229949;306;100 mA;
195.648097506036;-0.89935302734375;-0.02470703125;3.05999999227424;307;100 mA;
195.658097506011;-0.899658203125;-0.0246917724609375;3.069999992249;308;100 mA;
195.668097505986;-0.899658203125;-0.0246826171875;3.07999999222375;309;100 mA;
195.67809750596;-0.899658203125;-0.024664306640625;3.0899999921985;310;100 mA;
195.688097505935;-0.89935302734375;-0.024652099609375;3.09999999217325;311;100 mA;
195.69809750591;-0.89935302734375;-0.0246368408203125;3.109999992148;312;100 mA;
195.708097505885;-0.89935302734375;-0.0246246337890625;3.11999999212276;313;100 mA;
195.718097505859;-0.89935302734375;-0.0246185302734375;3.12999999209751;314;100 mA;
195.728097505834;-0.89935302734375;-0.0246002197265625;3.13999999207226;315;100 mA;
195.738097505809;-0.89935302734375;-0.0245849609375;3.14999999204701;316;100 mA;
195.748097505784;-0.899658203125;-0.0245697021484375;3.15999999202177;317;100 mA;
195.758097505758;-0.899658203125;-0.0245574951171875;3.16999999199652;318;100 mA;
195.768097505733;-0.89935302734375;-0.0245452880859375;3.17999999197127;319;100 mA;
195.778097505708;-0.89935302734375;-0.024530029296875;3.18999999194602;320;100 mA;
195.788097505683;-0.89935302734375;-0.0245086669921875;3.19999999192078;321;100 mA;
195.798097505657;-0.899658203125;-0.0244964599609375;3.20999999189553;322;100 mA;
195.808097505632;-0.89935302734375;-0.02447509765625;3.21999999187028;323;100 mA;
195.818097505607;-0.89935302734375;-0.024468994140625;3.22999999184503;324;100 mA;
195.828097505582;-0.89935302734375;-0.0244476318359375;3.23999999181979;325;100 mA;
195.838097505556;-0.899658203125;-0.024432373046875;3.24999999179454;326;100 mA;
195.848097505531;-0.89935302734375;-0.024420166015625;3.25999999176929;327;100 mA;
195.858097505506;-0.899658203125;-0.02440185546875;3.26999999174404;328;100 mA;
195.868097505481;-0.89935302734375;-0.024395751953125;3.2799999917188;329;100 mA;
195.878097505455;-0.899658203125;-0.0243743896484375;3.28999999169355;330;100 mA;
195.88809750543;-0.899658203125;-0.024359130859375;3.2999999916683;331;100 mA;
195.898097505405;-0.89935302734375;-0.024346923828125;3.30999999164305;332;100 mA;
195.90809750538;-0.899658203125;-0.0243255615234375;3.31999999161781;333;100 mA;
195.918097505354;-0.89935302734375;-0.024310302734375;3.32999999159256;334;100 mA;
195.928097505329;-0.899658203125;-0.0242919921875;3.33999999156731;335;100 mA;
195.938097505304;-0.89935302734375;-0.024273681640625;3.34999999154206;336;100 mA;
195.948097505279;-0.8990478515625;-0.024261474609375;3.35999999151682;337;100 mA;
195.958097505253;-0.89935302734375;-0.0242340087890625;3.36999999149157;338;100 mA;
195.968097505228;-0.89996337890625;-0.024224853515625;3.37999999146632;339;100 mA;
195.978097505203;-0.89935302734375;-0.0242034912109375;3.38999999144107;340;100 mA;
195.988097505178;-0.899658203125;-0.0241851806640625;3.39999999141583;341;100 mA;
195.998097505152;-0.899658203125;-0.0241668701171875;3.40999999139058;342;100 mA;
196.008097505127;-0.899658203125;-0.0241455078125;3.41999999136533;343;100 mA;
196.018097505102;-0.89935302734375;-0.0241302490234375;3.42999999134008;344;100 mA;
196.028097505077;-0.899658203125;-0.02410888671875;3.43999999131483;345;100 mA;
196.038097505051;-0.899658203125;-0.02408447265625;3.44999999128959;346;100 mA;
196.048097505026;-0.899658203125;-0.0240692138671875;3.45999999126434;347;100 mA;
196.058097505001;-0.899658203125;-0.0240447998046875;3.46999999123909;348;100 mA;
196.068097504976;-0.89935302734375;-0.024029541015625;3.47999999121384;349;100 mA;
196.07809750495;-0.899658203125;-0.0240020751953125;3.4899999911886;350;100 mA;
196.088097504925;-0.89996337890625;-0.023980712890625;3.49999999116335;351;100 mA;
196.0980975049;-0.89996337890625;-0.0239593505859375;3.5099999911381;352;100 mA;
196.108097504875;-0.899658203125;-0.02393798828125;3.51999999111285;353;100 mA;
196.118097504849;-0.89996337890625;-0.023919677734375;3.52999999108761;354;100 mA;
196.128097504824;-0.89935302734375;-0.023895263671875;3.53999999106236;355;100 mA;
196.138097504799;-0.899658203125;-0.023870849609375;3.54999999103711;356;100 mA;
196.148097504774;-0.8990478515625;-0.0238525390625;3.55999999101186;357;100 mA;
196.158097504748;-0.899658203125;-0.023828125;3.56999999098662;358;100 mA;
196.168097504723;-0.8990478515625;-0.0238128662109375;3.57999999096137;359;100 mA;
196.178097504698;-0.89935302734375;-0.0237884521484375;3.58999999093612;360;100 mA;
196.188097504673;-0.89935302734375;-0.0237701416015625;3.59999999091087;361;100 mA;
196.198097504647;-0.89935302734375;-0.023748779296875;3.60999999088563;362;100 mA;
196.208097504622;-0.899658203125;-0.023724365234375;3.61999999086038;363;100 mA;
196.218097504597;-0.89935302734375;-0.023712158203125;3.62999999083513;364;100 mA;
196.228097504572;-0.89935302734375;-0.0236907958984375;3.63999999080988;365;100 mA;
196.238097504546;-0.89935302734375;-0.02366943359375;3.64999999078464;366;100 mA;
196.248097504521;-0.89935302734375;-0.0236541748046875;3.65999999075939;367;100 mA;
196.258097504496;-0.899658203125;-0.0236358642578125;3.66999999073414;368;100 mA;
196.268097504471;-0.89935302734375;-0.02362060546875;3.67999999070889;369;100 mA;
196.278097504445;-0.89935302734375;-0.023602294921875;3.68999999068365;370;100 mA;
196.28809750442;-0.8990478515625;-0.0235870361328125;3.6999999906584;371;100 mA;
196.298097504395;-0.89935302734375;-0.023577880859375;3.70999999063315;372;100 mA;
196.30809750437;-0.8990478515625;-0.0235565185546875;3.7199999906079;373;100 mA;
196.318097504344;-0.8990478515625;-0.0235504150390625;3.72999999058266;374;100 mA;
196.328097504319;-0.89935302734375;-0.023529052734375;3.73999999055741;375;100 mA;
196.338097504294;-0.899658203125;-0.023516845703125;3.74999999053216;376;100 mA;
196.348097504269;-0.8990478515625;-0.0235076904296875;3.75999999050691;377;100 mA;
196.358097504243;-0.89996337890625;-0.023492431640625;3.76999999048167;378;100 mA;
196.368097504218;-0.899658203125;-0.023486328125;3.77999999045642;379;100 mA;
196.378097504193;-0.9002685546875;-0.023468017578125;3.78999999043117;380;100 mA;
196.388097504168;-0.899658203125;-0.0234588623046875;3.79999999040592;381;100 mA;
196.398097504142;-0.899658203125;-0.023455810546875;3.80999999038067;382;100 mA;
196.408097504117;-0.8990478515625;-0.0234405517578125;3.81999999035543;383;100 mA;
196.418097504092;-0.89935302734375;-0.0234375;3.82999999033018;384;100 mA;
196.428097504067;-0.899658203125;-0.0234283447265625;3.83999999030493;385;100 mA;
196.438097504041;-0.899658203125;-0.0234222412109375;3.84999999027968;386;100 mA;
196.448097504016;-0.89996337890625;-0.0234161376953125;3.85999999025444;387;100 mA;
196.458097503991;-0.899658203125;-0.023406982421875;3.86999999022919;388;100 mA;
196.468097503966;-0.899658203125;-0.023406982421875;3.87999999020394;389;100 mA;
196.47809750394;-0.89935302734375;-0.023394775390625;3.88999999017869;390;100 mA;
196.488097503915;-0.899658203125;-0.023388671875;3.89999999015345;391;100 mA;
196.49809750389;-0.89935302734375;-0.023388671875;3.9099999901282;392;100 mA;
196.508097503865;-0.89935302734375;-0.02337646484375;3.91999999010295;393;100 mA;
196.518097503839;-0.8990478515625;-0.02337646484375;3.9299999900777;394;100 mA;
196.528097503814;-0.89935302734375;-0.023370361328125;3.93999999005246;395;100 mA;
196.538097503789;-0.89935302734375;-0.0233642578125;3.94999999002721;396;100 mA;
196.548097503764;-0.89935302734375;-0.0233673095703125;3.95999999000196;397;100 mA;
196.558097503739;-0.8984375;-0.0233612060546875;3.96999998997671;398;100 mA;
196.568097503713;-0.89935302734375;-0.0233673095703125;3.97999998995147;399;100 mA;
196.578097503688;-0.89935302734375;-0.023358154296875;3.98999998992622;400;100 mA;
196.588097503663;-0.899658203125;-0.0233551025390625;3.99999998990097;401;100 mA;
196.598097503638;-0.89996337890625;-0.0233612060546875;4.00999998987572;402;100 mA;
196.608097503612;-0.89935302734375;-0.023358154296875;4.01999998985048;403;100 mA;
196.618097503587;-0.89996337890625;-0.0233612060546875;4.02999998982523;404;100 mA;
196.628097503562;-0.8990478515625;-0.0233612060546875;4.03999998979998;405;100 mA;
196.638097503537;-0.89935302734375;-0.0233612060546875;4.04999998977473;406;100 mA;
196.648097503511;-0.8990478515625;-0.0233642578125;4.05999998974949;407;100 mA;
196.658097503486;-0.899658203125;-0.0233642578125;4.06999998972424;408;100 mA;
196.668097503461;-0.899658203125;-0.023370361328125;4.07999998969899;409;100 mA;
196.678097503436;-0.8990478515625;-0.023370361328125;4.08999998967374;410;100 mA;
196.68809750341;-0.89935302734375;-0.02337646484375;4.0999999896485;411;100 mA;
196.698097503385;-0.89935302734375;-0.0233856201171875;4.10999998962325;412;100 mA;
196.70809750336;-0.8990478515625;-0.0233856201171875;4.119999989598;413;100 mA;
196.718097503335;-0.899658203125;-0.0233978271484375;4.12999998957275;414;100 mA;
196.728097503309;-0.89935302734375;-0.023406982421875;4.1399999895475;415;100 mA;
196.738097503284;-0.89935302734375;-0.0234100341796875;4.14999998952226;416;100 mA;
196.748097503259;-0.89935302734375;-0.0234222412109375;4.15999998949701;417;100 mA;
196.758097503234;-0.899658203125;-0.0234344482421875;4.16999998947176;418;100 mA;
196.768097503208;-0.89996337890625;-0.0234466552734375;4.17999998944651;419;100 mA;
196.778097503183;-0.89935302734375;-0.0234527587890625;4.18999998942127;420;100 mA;
196.788097503158;-0.8990478515625;-0.0234619140625;4.19999998939602;421;100 mA;
196.798097503133;-0.89935302734375;-0.023480224609375;4.20999998937077;422;100 mA;
196.808097503107;-0.899658203125;-0.023486328125;4.21999998934552;423;100 mA;
196.818097503082;-0.8990478515625;-0.023504638671875;4.22999998932028;424;100 mA;
196.828097503057;-0.899658203125;-0.023516845703125;4.23999998929503;425;100 mA;
196.838097503032;-0.8990478515625;-0.0235260009765625;4.24999998926978;426;100 mA;
196.848097503006;-0.899658203125;-0.0235443115234375;4.25999998924453;427;100 mA;
196.858097502981;-0.899658203125;-0.0235595703125;4.26999998921929;428;100 mA;
196.868097502956;-0.89935302734375;-0.0235809326171875;4.27999998919404;429;100 mA;
196.878097502931;-0.89935302734375;-0.023583984375;4.28999998916879;430;100 mA;
196.888097502905;-0.899658203125;-0.023602294921875;4.29999998914354;431;100 mA;
196.89809750288;-0.89996337890625;-0.02362060546875;4.3099999891183;432;100 mA;
196.908097502855;-0.899658203125;-0.0236297607421875;4.31999998909305;433;100 mA;
196.91809750283;-0.8990478515625;-0.0236480712890625;4.3299999890678;434;100 mA;
196.928097502804;-0.89935302734375;-0.0236572265625;4.33999998904255;435;100 mA;
196.938097502779;-0.89996337890625;-0.0236663818359375;4.34999998901731;436;100 mA;
196.948097502754;-0.899658203125;-0.023681640625;4.35999998899206;437;100 mA;
196.958097502729;-0.89935302734375;-0.023687744140625;4.36999998896681;438;100 mA;
196.968097502703;-0.89935302734375;-0.0237091064453125;4.37999998894156;439;100 mA;
196.978097502678;-0.89935302734375;-0.0237152099609375;4.38999998891632;440;100 mA;
196.988097502653;-0.89935302734375;-0.02373046875;4.39999998889107;441;100 mA;
196.998097502628;-0.89935302734375;-0.0237457275390625;4.40999998886582;442;100 mA;
197.008097502602;-0.89935302734375;-0.0237579345703125;4.41999998884057;443;100 mA;
197.018097502577;-0.89996337890625;-0.0237762451171875;4.42999998881533;444;100 mA;
197.028097502552;-0.899658203125;-0.0237884521484375;4.43999998879008;445;100 mA;
197.038097502527;-0.89935302734375;-0.0238006591796875;4.44999998876483;446;100 mA;
197.048097502501;-0.899658203125;-0.0238128662109375;4.45999998873958;447;100 mA;
197.058097502476;-0.89874267578125;-0.023822021484375;4.46999998871433;448;100 mA;
197.068097502451;-0.8990478515625;-0.02384033203125;4.47999998868909;449;100 mA;
197.078097502426;-0.899658203125;-0.023846435546875;4.48999998866384;450;100 mA;
197.0880975024;-0.899658203125;-0.0238555908203125;4.49999998863859;451;100 mA;
197.098097502375;-0.89935302734375;-0.0238677978515625;4.50999998861334;452;100 mA;
197.10809750235;-0.89874267578125;-0.0238739013671875;4.5199999885881;453;100 mA;
197.118097502325;-0.89935302734375;-0.02388916015625;4.52999998856285;454;100 mA;
197.128097502299;-0.899658203125;-0.0238922119140625;4.5399999885376;455;100 mA;
197.138097502274;-0.89996337890625;-0.023895263671875;4.54999998851235;456;100 mA;
197.148097502249;-0.8990478515625;-0.0239044189453125;4.55999998848711;457;100 mA;
197.158097502224;-0.89935302734375;-0.0239013671875;4.56999998846186;458;100 mA;
197.168097502198;-0.899658203125;-0.02391357421875;4.57999998843661;459;100 mA;
197.178097502173;-0.8990478515625;-0.023907470703125;4.58999998841136;460;100 mA;
197.188097502148;-0.899658203125;-0.023907470703125;4.59999998838612;461;100 mA;
197.198097502123;-0.8990478515625;-0.023907470703125;4.60999998836087;462;100 mA;
197.208097502097;-0.899658203125;-0.0238983154296875;4.61999998833562;463;100 mA;
197.218097502072;-0.89935302734375;-0.0239013671875;4.62999998831037;464;100 mA;
197.228097502047;-0.89935302734375;-0.0238922119140625;4.63999998828513;465;100 mA;
197.238097502022;-0.8990478515625;-0.023883056640625;4.64999998825988;466;100 mA;
197.248097501996;-0.899658203125;-0.023876953125;4.65999998823463;467;100 mA;
197.258097501971;-0.899658203125;-0.0238677978515625;4.66999998820938;468;100 mA;
197.268097501946;-0.899658203125;-0.0238616943359375;4.67999998818414;469;100 mA;
197.278097501921;-0.8990478515625;-0.0238525390625;4.68999998815889;470;100 mA;
197.288097501895;-0.89996337890625;-0.0238433837890625;4.69999998813364;471;100 mA;
197.29809750187;-0.8990478515625;-0.0238372802734375;4.70999998810839;472;100 mA;
197.308097501845;-0.899658203125;-0.023822021484375;4.71999998808315;473;100 mA;
197.31809750182;-0.89996337890625;-0.023822021484375;4.7299999880579;474;100 mA;
197.328097501794;-0.89935302734375;-0.023809814453125;4.73999998803265;475;100 mA;
197.338097501769;-0.89935302734375;-0.0237945556640625;4.7499999880074;476;100 mA;
197.348097501744;-0.89996337890625;-0.0237945556640625;4.75999998798216;477;100 mA;
197.358097501719;-0.89935302734375;-0.023779296875;4.76999998795691;478;100 mA;
197.368097501693;-0.89935302734375;-0.023779296875;4.77999998793166;479;100 mA;
197.378097501668;-0.89935302734375;-0.023760986328125;4.78999998790641;480;100 mA;
197.388097501643;-0.89935302734375;-0.0237518310546875;4.79999998788116;481;100 mA;
197.398097501618;-0.899658203125;-0.0237396240234375;4.80999998785592;482;100 mA;
197.408097501592;-0.899658203125;-0.02373046875;4.81999998783067;483;100 mA;
197.418097501567;-0.899658203125;-0.0237274169921875;4.82999998780542;484;100 mA;
197.428097501542;-0.89935302734375;-0.0237152099609375;4.83999998778017;485;100 mA;
197.438097501517;-0.89935302734375;-0.023699951171875;4.84999998775493;486;100 mA;
197.448097501491;-0.899658203125;-0.0236968994140625;4.85999998772968;487;100 mA;
197.458097501466;-0.89935302734375;-0.023681640625;4.86999998770443;488;100 mA;
197.468097501441;-0.89935302734375;-0.0236846923828125;4.87999998767918;489;100 mA;
197.478097501416;-0.89996337890625;-0.0236724853515625;4.88999998765394;490;100 mA;
197.48809750139;-0.8990478515625;-0.0236602783203125;4.89999998762869;491;100 mA;
197.498097501365;-0.89935302734375;-0.0236572265625;4.90999998760344;492;100 mA;
197.50809750134;-0.8990478515625;-0.0236419677734375;4.91999998757819;493;100 mA;
197.518097501315;-0.89935302734375;-0.023638916015625;4.92999998755295;494;100 mA;
197.528097501289;-0.89935302734375;-0.0236236572265625;4.9399999875277;495;100 mA;
197.538097501264;-0.89935302734375;-0.0236114501953125;4.94999998750245;496;100 mA;
197.548097501239;-0.8990478515625;-0.0236053466796875;4.9599999874772;497;100 mA;
197.558097501214;-0.89935302734375;-0.0235870361328125;4.96999998745196;498;100 mA;
197.568097501189;-0.8990478515625;-0.0235931396484375;4.97999998742671;499;100 mA;
197.578097501163;-0.899658203125;-0.02357177734375;4.98999998740146;500;100 mA;
197.588097501138;-0.89935302734375;-0.0235595703125;4.99999998737621;501;100 mA;
197.598097501113;-0.89874267578125;-0.0235565185546875;5.00999998735097;502;100 mA;
197.608097501088;-0.89996337890625;-0.0235443115234375;5.01999998732572;503;100 mA;
197.618097501062;-0.89935302734375;-0.0235382080078125;5.02999998730047;504;100 mA;
197.628097501037;-0.89935302734375;-0.02352294921875;5.03999998727522;505;100 mA;
197.638097501012;-0.89874267578125;-0.0235076904296875;5.04999998724998;506;100 mA;
197.648097500987;-0.89935302734375;-0.02349853515625;5.05999998722473;507;100 mA;
197.658097500961;-0.89935302734375;-0.0234832763671875;5.06999998719948;508;100 mA;
197.668097500936;-0.89935302734375;-0.0234771728515625;5.07999998717423;509;100 mA;
197.678097500911;-0.8990478515625;-0.0234527587890625;5.08999998714899;510;100 mA;
197.688097500886;-0.899658203125;-0.023443603515625;5.09999998712374;511;100 mA;
197.69809750086;-0.89996337890625;-0.02342529296875;5.10999998709849;512;100 mA;
197.708097500835;-0.89935302734375;-0.0234039306640625;5.11999998707324;513;100 mA;
197.71809750081;-0.8990478515625;-0.02340087890625;5.129999987048;514;100 mA;
197.728097500785;-0.89935302734375;-0.023382568359375;5.13999998702275;515;100 mA;
197.738097500759;-0.8990478515625;-0.0233612060546875;5.1499999869975;516;100 mA;
197.748097500734;-0.89935302734375;-0.023345947265625;5.15999998697225;517;100 mA;
197.758097500709;-0.89935302734375;-0.0233245849609375;5.169999986947;518;100 mA;
197.768097500684;-0.89935302734375;-0.0233184814453125;5.17999998692176;519;100 mA;
197.778097500658;-0.89935302734375;-0.0232940673828125;5.18999998689651;520;100 mA;
197.788097500633;-0.89935302734375;-0.0232757568359375;5.19999998687126;521;100 mA;
197.798097500608;-0.899658203125;-0.023260498046875;5.20999998684601;522;100 mA;
197.808097500583;-0.89935302734375;-0.023236083984375;5.21999998682077;523;100 mA;
197.818097500557;-0.89935302734375;-0.023223876953125;5.22999998679552;524;100 mA;
197.828097500532;-0.89935302734375;-0.0232025146484375;5.23999998677027;525;100 mA;
197.838097500507;-0.899658203125;-0.0231781005859375;5.24999998674502;526;100 mA;
197.848097500482;-0.89935302734375;-0.023162841796875;5.25999998671978;527;100 mA;
197.858097500456;-0.89996337890625;-0.02314453125;5.26999998669453;528;100 mA;
197.868097500431;-0.89935302734375;-0.02313232421875;5.27999998666928;529;100 mA;
197.878097500406;-0.89935302734375;-0.0231048583984375;5.28999998664403;530;100 mA;
197.888097500381;-0.89935302734375;-0.0230865478515625;5.29999998661879;531;100 mA;
197.898097500355;-0.899658203125;-0.0230743408203125;5.30999998659354;532;100 mA;
197.90809750033;-0.899658203125;-0.023052978515625;5.31999998656829;533;100 mA;
197.918097500305;-0.89935302734375;-0.0230438232421875;5.32999998654304;534;100 mA;
197.92809750028;-0.89996337890625;-0.0230194091796875;5.3399999865178;535;100 mA;
197.938097500254;-0.89935302734375;-0.0230072021484375;5.34999998649255;536;100 mA;
197.948097500229;-0.899658203125;-0.0229888916015625;5.3599999864673;537;100 mA;
197.958097500204;-0.8990478515625;-0.0229736328125;5.36999998644205;538;100 mA;
197.968097500179;-0.89996337890625;-0.02296142578125;5.37999998641681;539;100 mA;
197.978097500153;-0.899658203125;-0.0229400634765625;5.38999998639156;540;100 mA;
197.988097500128;-0.89935302734375;-0.0229217529296875;5.39999998636631;541;100 mA;
197.998097500103;-0.89935302734375;-0.0229095458984375;5.40999998634106;542;100 mA;
198.008097500078;-0.899658203125;-0.0228851318359375;5.41999998631582;543;100 mA;
198.018097500052;-0.89996337890625;-0.0228790283203125;5.42999998629057;544;100 mA;
198.028097500027;-0.89874267578125;-0.0228668212890625;5.43999998626532;545;100 mA;
198.038097500002;-0.89935302734375;-0.0228485107421875;5.44999998624007;546;100 mA;
198.048097499977;-0.89935302734375;-0.0228363037109375;5.45999998621483;547;100 mA;
198.058097499951;-0.8990478515625;-0.0228179931640625;5.46999998618958;548;100 mA;
198.068097499926;-0.89996337890625;-0.0228118896484375;5.47999998616433;549;100 mA;
198.078097499901;-0.89935302734375;-0.022796630859375;5.48999998613908;550;100 mA;
198.088097499876;-0.89874267578125;-0.022784423828125;5.49999998611383;551;100 mA;
198.09809749985;-0.89935302734375;-0.022772216796875;5.50999998608859;552;100 mA;
198.108097499825;-0.89935302734375;-0.022760009765625;5.51999998606334;553;100 mA;
198.1180974998;-0.8990478515625;-0.0227508544921875;5.52999998603809;554;100 mA;
198.128097499775;-0.899658203125;-0.0227386474609375;5.53999998601284;555;100 mA;
198.138097499749;-0.899658203125;-0.0227203369140625;5.5499999859876;556;100 mA;
198.148097499724;-0.89935302734375;-0.022711181640625;5.55999998596235;557;100 mA;
198.158097499699;-0.89935302734375;-0.02269287109375;5.5699999859371;558;100 mA;
198.168097499674;-0.899658203125;-0.02269287109375;5.57999998591185;559;100 mA;
198.178097499648;-0.899658203125;-0.0226715087890625;5.58999998588661;560;100 mA;
198.188097499623;-0.89935302734375;-0.0226593017578125;5.59999998586136;561;100 mA;
198.198097499598;-0.899658203125;-0.0226531982421875;5.60999998583611;562;100 mA;
198.208097499573;-0.89935302734375;-0.0226348876953125;5.61999998581086;563;100 mA;
198.218097499547;-0.8990478515625;-0.0226318359375;5.62999998578562;564;100 mA;
198.228097499522;-0.899658203125;-0.022613525390625;5.63999998576037;565;100 mA;
198.238097499497;-0.89935302734375;-0.022601318359375;5.64999998573512;566;100 mA;
198.248097499472;-0.899658203125;-0.0225860595703125;5.65999998570987;567;100 mA;
198.258097499446;-0.899658203125;-0.02257080078125;5.66999998568463;568;100 mA;
198.268097499421;-0.89935302734375;-0.0225616455078125;5.67999998565938;569;100 mA;
198.278097499396;-0.899658203125;-0.0225433349609375;5.68999998563413;570;100 mA;
198.288097499371;-0.89996337890625;-0.0225250244140625;5.69999998560888;571;100 mA;
198.298097499345;-0.899658203125;-0.022515869140625;5.70999998558364;572;100 mA;
198.30809749932;-0.89935302734375;-0.0224945068359375;5.71999998555839;573;100 mA;
198.318097499295;-0.89935302734375;-0.0224884033203125;5.72999998553314;574;100 mA;
198.32809749927;-0.89996337890625;-0.02247314453125;5.73999998550789;575;100 mA;
198.338097499244;-0.899658203125;-0.0224517822265625;5.74999998548265;576;100 mA;
198.348097499219;-0.899658203125;-0.0224456787109375;5.7599999854574;577;100 mA;
198.358097499194;-0.899658203125;-0.022418212890625;5.76999998543215;578;100 mA;
198.368097499169;-0.89996337890625;-0.022412109375;5.7799999854069;579;100 mA;
198.378097499143;-0.899658203125;-0.0223907470703125;5.78999998538166;580;100 mA;
198.388097499118;-0.89935302734375;-0.02237548828125;5.79999998535641;581;100 mA;
198.398097499093;-0.89935302734375;-0.0223602294921875;5.80999998533116;582;100 mA;
198.408097499068;-0.899658203125;-0.0223358154296875;5.81999998530591;583;100 mA;
198.418097499042;-0.89935302734375;-0.0223236083984375;5.82999998528066;584;100 mA;
198.428097499017;-0.89935302734375;-0.02230224609375;5.83999998525542;585;100 mA;
198.438097498992;-0.899658203125;-0.022283935546875;5.84999998523017;586;100 mA;
198.448097498967;-0.89996337890625;-0.0222686767578125;5.85999998520492;587;100 mA;
198.458097498941;-0.89935302734375;-0.0222503662109375;5.86999998517967;588;100 mA;
198.468097498916;-0.8990478515625;-0.0222381591796875;5.87999998515443;589;100 mA;
198.478097498891;-0.899658203125;-0.0222198486328125;5.88999998512918;590;100 mA;
198.488097498866;-0.899658203125;-0.0222015380859375;5.89999998510393;591;100 mA;
198.49809749884;-0.89935302734375;-0.022186279296875;5.90999998507868;592;100 mA;
198.508097498815;-0.8990478515625;-0.0221710205078125;5.91999998505344;593;100 mA;
198.51809749879;-0.89996337890625;-0.022161865234375;5.92999998502819;594;100 mA;
198.528097498765;-0.899658203125;-0.0221435546875;5.93999998500294;595;100 mA;
198.538097498739;-0.899658203125;-0.022125244140625;5.94999998497769;596;100 mA;
198.548097498714;-0.899658203125;-0.022113037109375;5.95999998495245;597;100 mA;
198.558097498689;-0.89935302734375;-0.0220977783203125;5.9699999849272;598;100 mA;
198.568097498664;-0.89996337890625;-0.0220855712890625;5.97999998490195;599;100 mA;
198.578097498638;-0.899658203125;-0.0220733642578125;5.9899999848767;600;100 mA;
198.588097498613;-0.89935302734375;-0.02205810546875;5.99999998485146;601;100 mA;
198.598097498588;-0.89935302734375;-0.022052001953125;6.00999998482621;602;100 mA;
198.608097498563;-0.8990478515625;-0.0220367431640625;6.01999998480096;603;100 mA;
198.618097498538;-0.89874267578125;-0.022027587890625;6.02999998477571;604;100 mA;
198.628097498512;-0.89935302734375;-0.022015380859375;6.03999998475047;605;100 mA;
198.638097498487;-0.899658203125;-0.022003173828125;6.04999998472522;606;100 mA;
198.648097498462;-0.899658203125;-0.0219940185546875;6.05999998469997;607;100 mA;
198.658097498437;-0.89996337890625;-0.021978759765625;6.06999998467472;608;100 mA;
198.668097498411;-0.89935302734375;-0.0219757080078125;6.07999998464948;609;100 mA;
198.678097498386;-0.89996337890625;-0.02196044921875;6.08999998462423;610;100 mA;
198.688097498361;-0.89935302734375;-0.0219482421875;6.09999998459898;611;100 mA;
198.698097498336;-0.89996337890625;-0.0219390869140625;6.10999998457373;612;100 mA;
198.70809749831;-0.89935302734375;-0.0219146728515625;6.11999998454849;613;100 mA;
198.718097498285;-0.89935302734375;-0.0219146728515625;6.12999998452324;614;100 mA;
198.72809749826;-0.899658203125;-0.0219024658203125;6.13999998449799;615;100 mA;
198.738097498235;-0.89935302734375;-0.021893310546875;6.14999998447274;616;100 mA;
198.748097498209;-0.899658203125;-0.0218841552734375;6.1599999844475;617;100 mA;
198.758097498184;-0.89935302734375;-0.0218719482421875;6.16999998442225;618;100 mA;
198.768097498159;-0.89874267578125;-0.0218719482421875;6.179999984397;619;100 mA;
198.778097498134;-0.89935302734375;-0.0218597412109375;6.18999998437175;620;100 mA;
198.788097498108;-0.89935302734375;-0.0218505859375;6.1999999843465;621;100 mA;
198.798097498083;-0.899658203125;-0.021844482421875;6.20999998432126;622;100 mA;
198.808097498058;-0.89996337890625;-0.021826171875;6.21999998429601;623;100 mA;
198.818097498033;-0.8990478515625;-0.021826171875;6.22999998427076;624;100 mA;
198.828097498007;-0.899658203125;-0.0218109130859375;6.23999998424551;625;100 mA;
198.838097497982;-0.89996337890625;-0.0217926025390625;6.24999998422027;626;100 mA;
198.848097497957;-0.89935302734375;-0.0217803955078125;6.25999998419502;627;100 mA;
198.858097497932;-0.899658203125;-0.0217620849609375;6.26999998416977;628;100 mA;
198.868097497906;-0.89996337890625;-0.0217529296875;6.27999998414452;629;100 mA;
198.878097497881;-0.89935302734375;-0.021734619140625;6.28999998411928;630;100 mA;
198.888097497856;-0.89935302734375;-0.0217193603515625;6.29999998409403;631;100 mA;
198.898097497831;-0.899658203125;-0.021710205078125;6.30999998406878;632;100 mA;
198.908097497805;-0.89935302734375;-0.02169189453125;6.31999998404353;633;100 mA;
198.91809749778;-0.89996337890625;-0.021685791015625;6.32999998401829;634;100 mA;
198.928097497755;-0.89996337890625;-0.021673583984375;6.33999998399304;635;100 mA;
198.93809749773;-0.899658203125;-0.0216522216796875;6.34999998396779;636;100 mA;
198.948097497704;-0.8990478515625;-0.02164306640625;6.35999998394254;637;100 mA;
198.958097497679;-0.89935302734375;-0.021624755859375;6.3699999839173;638;100 mA;
198.968097497654;-0.8990478515625;-0.02161865234375;6.37999998389205;639;100 mA;
198.978097497629;-0.89935302734375;-0.0215972900390625;6.3899999838668;640;100 mA;
198.988097497603;-0.89996337890625;-0.0215789794921875;6.39999998384155;641;100 mA;
198.998097497578;-0.89935302734375;-0.0215667724609375;6.40999998381631;642;100 mA;
199.008097497553;-0.899658203125;-0.0215362548828125;6.41999998379106;643;100 mA;
199.018097497528;-0.8990478515625;-0.021533203125;6.42999998376581;644;100 mA;
199.028097497502;-0.89935302734375;-0.0215118408203125;6.43999998374056;645;100 mA;
199.038097497477;-0.89935302734375;-0.021490478515625;6.44999998371532;646;100 mA;
199.048097497452;-0.8990478515625;-0.0214813232421875;6.45999998369007;647;100 mA;
199.058097497427;-0.89935302734375;-0.0214599609375;6.46999998366482;648;100 mA;
199.068097497401;-0.89935302734375;-0.0214569091796875;6.47999998363957;649;100 mA;
199.078097497376;-0.899658203125;-0.021435546875;6.48999998361433;650;100 mA;
199.088097497351;-0.89935302734375;-0.0214202880859375;6.49999998358908;651;100 mA;
199.098097497326;-0.89996337890625;-0.0214080810546875;6.50999998356383;652;100 mA;
199.1080974973;-0.8990478515625;-0.02138671875;6.51999998353858;653;100 mA;
199.118097497275;-0.89935302734375;-0.02137451171875;6.52999998351333;654;100 mA;
199.12809749725;-0.899658203125;-0.0213592529296875;6.53999998348809;655;100 mA;
199.138097497225;-0.89935302734375;-0.0213409423828125;6.54999998346284;656;100 mA;
199.148097497199;-0.899658203125;-0.0213226318359375;6.55999998343759;657;100 mA;
199.158097497174;-0.8990478515625;-0.0212982177734375;6.56999998341234;658;100 mA;
199.168097497149;-0.89935302734375;-0.0212921142578125;6.5799999833871;659;100 mA;
199.178097497124;-0.89935302734375;-0.021270751953125;6.58999998336185;660;100 mA;
199.188097497098;-0.89935302734375;-0.02125244140625;6.5999999833366;661;100 mA;
199.198097497073;-0.8990478515625;-0.0212432861328125;6.60999998331135;662;100 mA;
199.208097497048;-0.89935302734375;-0.0212188720703125;6.61999998328611;663;100 mA;
199.218097497023;-0.8990478515625;-0.0212158203125;6.62999998326086;664;100 mA;
199.228097496997;-0.89935302734375;-0.021197509765625;6.63999998323561;665;100 mA;
199.238097496972;-0.899658203125;-0.0211822509765625;6.64999998321036;666;100 mA;
199.248097496947;-0.89935302734375;-0.0211700439453125;6.65999998318512;667;100 mA;
199.258097496922;-0.89935302734375;-0.0211517333984375;6.66999998315987;668;100 mA;
199.268097496896;-0.89935302734375;-0.021142578125;6.67999998313462;669;100 mA;
199.278097496871;-0.899658203125;-0.0211212158203125;6.68999998310937;670;100 mA;
199.288097496846;-0.89935302734375;-0.021099853515625;6.69999998308413;671;100 mA;
199.298097496821;-0.89935302734375;-0.0210845947265625;6.70999998305888;672;100 mA;
199.308097496795;-0.89935302734375;-0.021063232421875;6.71999998303363;673;100 mA;
199.31809749677;-0.8990478515625;-0.0210540771484375;6.72999998300838;674;100 mA;
199.328097496745;-0.899658203125;-0.021038818359375;6.73999998298314;675;100 mA;
199.33809749672;-0.8990478515625;-0.0210205078125;6.74999998295789;676;100 mA;
199.348097496694;-0.89935302734375;-0.02100830078125;6.75999998293264;677;100 mA;
199.358097496669;-0.89935302734375;-0.020989990234375;6.76999998290739;678;100 mA;
199.368097496644;-0.899658203125;-0.02098388671875;6.77999998288215;679;100 mA;
199.378097496619;-0.89996337890625;-0.0209625244140625;6.7899999828569;680;100 mA;
199.388097496593;-0.899658203125;-0.020947265625;6.79999998283165;681;100 mA;
199.398097496568;-0.8990478515625;-0.02093505859375;6.8099999828064;682;100 mA;
199.408097496543;-0.8990478515625;-0.0209136962890625;6.81999998278116;683;100 mA;
199.418097496518;-0.89935302734375;-0.020904541015625;6.82999998275591;684;100 mA;
199.428097496492;-0.89935302734375;-0.020880126953125;6.83999998273066;685;100 mA;
199.438097496467;-0.899658203125;-0.0208648681640625;6.84999998270541;686;100 mA;
199.448097496442;-0.89935302734375;-0.020843505859375;6.85999998268016;687;100 mA;
199.458097496417;-0.899658203125;-0.0208251953125;6.86999998265492;688;100 mA;
199.468097496391;-0.8990478515625;-0.02081298828125;6.87999998262967;689;100 mA;
199.478097496366;-0.89935302734375;-0.02078857421875;6.88999998260442;690;100 mA;
199.488097496341;-0.89935302734375;-0.0207733154296875;6.89999998257917;691;100 mA;
199.498097496316;-0.899658203125;-0.0207611083984375;6.90999998255393;692;100 mA;
199.50809749629;-0.899658203125;-0.0207427978515625;6.91999998252868;693;100 mA;
199.518097496265;-0.89996337890625;-0.020733642578125;6.92999998250343;694;100 mA;
199.52809749624;-0.899658203125;-0.0207122802734375;6.93999998247818;695;100 mA;
199.538097496215;-0.89996337890625;-0.02069091796875;6.94999998245294;696;100 mA;
199.548097496189;-0.899658203125;-0.0206756591796875;6.95999998242769;697;100 mA;
199.558097496164;-0.8990478515625;-0.020654296875;6.96999998240244;698;100 mA;
199.568097496139;-0.8990478515625;-0.0206390380859375;6.97999998237719;699;100 mA;
199.578097496114;-0.89935302734375;-0.0206146240234375;6.98999998235195;700;100 mA;
199.588097496088;-0.89935302734375;-0.02059326171875;6.9999999823267;701;100 mA;
199.598097496063;-0.8990478515625;-0.020574951171875;7.00999998230145;702;100 mA;
199.608097496038;-0.899658203125;-0.020550537109375;7.0199999822762;703;100 mA;
199.618097496013;-0.899658203125;-0.0205352783203125;7.02999998225096;704;100 mA;
199.628097495988;-0.89935302734375;-0.020513916015625;7.03999998222571;705;100 mA;
199.638097495962;-0.89935302734375;-0.0204986572265625;7.04999998220046;706;100 mA;
199.648097495937;-0.899658203125;-0.0204803466796875;7.05999998217521;707;100 mA;
199.658097495912;-0.899658203125;-0.0204559326171875;7.06999998214997;708;100 mA;
199.668097495887;-0.89935302734375;-0.020440673828125;7.07999998212472;709;100 mA;
199.678097495861;-0.899658203125;-0.02042236328125;7.08999998209947;710;100 mA;
199.688097495836;-0.89935302734375;-0.02039794921875;7.09999998207422;711;100 mA;
199.698097495811;-0.8990478515625;-0.0203826904296875;7.10999998204898;712;100 mA;
199.708097495786;-0.899658203125;-0.020355224609375;7.11999998202373;713;100 mA;
199.71809749576;-0.8990478515625;-0.0203369140625;7.12999998199848;714;100 mA;
199.728097495735;-0.899658203125;-0.0203155517578125;7.13999998197323;715;100 mA;
199.73809749571;-0.899658203125;-0.0202911376953125;7.14999998194799;716;100 mA;
199.748097495685;-0.89935302734375;-0.020269775390625;7.15999998192274;717;100 mA;
199.758097495659;-0.89874267578125;-0.020245361328125;7.16999998189749;718;100 mA;
199.768097495634;-0.89996337890625;-0.0202301025390625;7.17999998187224;719;100 mA;
199.778097495609;-0.89935302734375;-0.0202056884765625;7.189999981847;720;100 mA;
199.788097495584;-0.89935302734375;-0.0201873779296875;7.19999998182175;721;100 mA;
199.798097495558;-0.89996337890625;-0.0201751708984375;7.2099999817965;722;100 mA;
199.808097495533;-0.9002685546875;-0.020147705078125;7.21999998177125;723;100 mA;
199.818097495508;-0.899658203125;-0.0201324462890625;7.229999981746;724;100 mA;
199.828097495483;-0.8990478515625;-0.020111083984375;7.23999998172076;725;100 mA;
199.838097495457;-0.899658203125;-0.0200897216796875;7.24999998169551;726;100 mA;
199.848097495432;-0.89996337890625;-0.0200714111328125;7.25999998167026;727;100 mA;
199.858097495407;-0.89996337890625;-0.0200439453125;7.26999998164501;728;100 mA;
199.868097495382;-0.899658203125;-0.02003173828125;7.27999998161977;729;100 mA;
199.878097495356;-0.899658203125;-0.0200042724609375;7.28999998159452;730;100 mA;
199.888097495331;-0.89935302734375;-0.0199798583984375;7.29999998156927;731;100 mA;
199.898097495306;-0.89935302734375;-0.019964599609375;7.30999998154402;732;100 mA;
199.908097495281;-0.899658203125;-0.019940185546875;7.31999998151878;733;100 mA;
199.918097495255;-0.899658203125;-0.019927978515625;7.32999998149353;734;100 mA;
199.92809749523;-0.89935302734375;-0.019903564453125;7.33999998146828;735;100 mA;
199.938097495205;-0.899658203125;-0.01988525390625;7.34999998144303;736;100 mA;
199.94809749518;-0.8990478515625;-0.0198699951171875;7.35999998141779;737;100 mA;
199.958097495154;-0.899658203125;-0.0198486328125;7.36999998139254;738;100 mA;
199.968097495129;-0.89935302734375;-0.01983642578125;7.37999998136729;739;100 mA;
199.978097495104;-0.89935302734375;-0.0198089599609375;7.38999998134204;740;100 mA;
199.988097495079;-0.899658203125;-0.0197906494140625;7.3999999813168;741;100 mA;
199.998097495053;-0.89935302734375;-0.019775390625;7.40999998129155;742;100 mA;
200.008097495028;-0.899658203125;-0.0197479248046875;7.4199999812663;743;100 mA;
200.018097495003;-0.89996337890625;-0.0197357177734375;7.42999998124105;744;100 mA;
200.028097494978;-0.89935302734375;-0.01971435546875;7.43999998121581;745;100 mA;
200.038097494952;-0.89935302734375;-0.0196929931640625;7.44999998119056;746;100 mA;
200.048097494927;-0.8984375;-0.0196746826171875;7.45999998116531;747;100 mA;
200.058097494902;-0.899658203125;-0.0196533203125;7.46999998114006;748;100 mA;
200.068097494877;-0.89935302734375;-0.0196380615234375;7.47999998111482;749;100 mA;
200.078097494851;-0.8990478515625;-0.01961669921875;7.48999998108957;750;100 mA;
200.088097494826;-0.89996337890625;-0.0195953369140625;7.49999998106432;751;100 mA;
200.098097494801;-0.8990478515625;-0.0195831298828125;7.50999998103907;752;100 mA;
200.108097494776;-0.89935302734375;-0.0195587158203125;7.51999998101383;753;100 mA;
200.11809749475;-0.899658203125;-0.0195465087890625;7.52999998098858;754;100 mA;
200.128097494725;-0.89935302734375;-0.019525146484375;7.53999998096333;755;100 mA;
200.1380974947;-0.899658203125;-0.0195037841796875;7.54999998093808;756;100 mA;
200.148097494675;-0.899658203125;-0.019488525390625;7.55999998091283;757;100 mA;
200.158097494649;-0.899658203125;-0.0194671630859375;7.56999998088759;758;100 mA;
200.168097494624;-0.89996337890625;-0.0194488525390625;7.57999998086234;759;100 mA;
200.178097494599;-0.899658203125;-0.019427490234375;7.58999998083709;760;100 mA;
200.188097494574;-0.899658203125;-0.0194091796875;7.59999998081184;761;100 mA;
200.198097494548;-0.89996337890625;-0.0193939208984375;7.6099999807866;762;100 mA;
200.208097494523;-0.89935302734375;-0.01937255859375;7.61999998076135;763;100 mA;
200.218097494498;-0.89935302734375;-0.019354248046875;7.6299999807361;764;100 mA;
200.228097494473;-0.899658203125;-0.0193389892578125;7.63999998071085;765;100 mA;
200.238097494447;-0.89996337890625;-0.0193145751953125;7.64999998068561;766;100 mA;
200.248097494422;-0.899658203125;-0.0193023681640625;7.65999998066036;767;100 mA;
200.258097494397;-0.8990478515625;-0.019281005859375;7.66999998063511;768;100 mA;
200.268097494372;-0.89996337890625;-0.0192626953125;7.67999998060986;769;100 mA;
200.278097494346;-0.89935302734375;-0.0192413330078125;7.68999998058462;770;100 mA;
200.288097494321;-0.89935302734375;-0.0192230224609375;7.69999998055937;771;100 mA;
200.298097494296;-0.89935302734375;-0.019207763671875;7.70999998053412;772;100 mA;
200.308097494271;-0.89874267578125;-0.0191864013671875;7.71999998050887;773;100 mA;
200.318097494245;-0.899658203125;-0.019171142578125;7.72999998048363;774;100 mA;
200.32809749422;-0.89874267578125;-0.01915283203125;7.73999998045838;775;100 mA;
200.338097494195;-0.899658203125;-0.0191314697265625;7.74999998043313;776;100 mA;
200.34809749417;-0.89935302734375;-0.0191162109375;7.75999998040788;777;100 mA;
200.358097494144;-0.89935302734375;-0.019091796875;7.76999998038264;778;100 mA;
200.368097494119;-0.899658203125;-0.0190826416015625;7.77999998035739;779;100 mA;
200.378097494094;-0.8990478515625;-0.019061279296875;7.78999998033214;780;100 mA;
200.388097494069;-0.89935302734375;-0.01904296875;7.79999998030689;781;100 mA;
200.398097494043;-0.899658203125;-0.01903076171875;7.80999998028165;782;100 mA;
200.408097494018;-0.89935302734375;-0.0190032958984375;7.8199999802564;783;100 mA;
200.418097493993;-0.899658203125;-0.0189910888671875;7.82999998023115;784;100 mA;
200.428097493968;-0.899658203125;-0.0189697265625;7.8399999802059;785;100 mA;
200.438097493942;-0.89935302734375;-0.0189483642578125;7.84999998018066;786;100 mA;
200.448097493917;-0.89996337890625;-0.01893310546875;7.85999998015541;787;100 mA;
200.458097493892;-0.89935302734375;-0.0189117431640625;7.86999998013016;788;100 mA;
200.468097493867;-0.89935302734375;-0.018902587890625;7.87999998010491;789;100 mA;
200.478097493841;-0.89935302734375;-0.018878173828125;7.88999998007966;790;100 mA;
200.488097493816;-0.899658203125;-0.0188568115234375;7.89999998005442;791;100 mA;
200.498097493791;-0.899658203125;-0.01884765625;7.90999998002917;792;100 mA;
200.508097493766;-0.89996337890625;-0.0188232421875;7.91999998000392;793;100 mA;
200.51809749374;-0.89935302734375;-0.0188140869140625;7.92999997997867;794;100 mA;
200.528097493715;-0.89935302734375;-0.018792724609375;7.93999997995343;795;100 mA;
200.53809749369;-0.89935302734375;-0.0187744140625;7.94999997992818;796;100 mA;
200.548097493665;-0.89935302734375;-0.018756103515625;7.95999997990293;797;100 mA;
200.558097493639;-0.89935302734375;-0.01873779296875;7.96999997987768;798;100 mA;
200.568097493614;-0.89935302734375;-0.0187286376953125;7.97999997985244;799;100 mA;
200.578097493589;-0.9002685546875;-0.018707275390625;7.98999997982719;800;100 mA;
200.588097493564;-0.89935302734375;-0.01868896484375;7.99999997980194;801;100 mA;
200.598097493538;-0.89935302734375;-0.0186767578125;8.00999997977669;802;100 mA;
200.608097493513;-0.899658203125;-0.0186553955078125;8.01999997975145;803;100 mA;
200.618097493488;-0.89996337890625;-0.01865234375;8.0299999797262;804;100 mA;
200.628097493463;-0.89935302734375;-0.0186370849609375;8.03999997970095;805;100 mA;
200.638097493437;-0.899658203125;-0.0186279296875;8.0499999796757;806;100 mA;
200.648097493412;-0.899658203125;-0.0186248779296875;8.05999997965046;807;100 mA;
200.658097493387;-0.899658203125;-0.018609619140625;8.06999997962521;808;100 mA;
200.668097493362;-0.899658203125;-0.01861572265625;8.07999997959996;809;100 mA;
200.678097493337;-0.89996337890625;-0.018609619140625;8.08999997957471;810;100 mA;
200.688097493311;-0.89935302734375;-0.0186126708984375;8.09999997954947;811;100 mA;
200.698097493286;-0.89935302734375;-0.018621826171875;8.10999997952422;812;100 mA;
200.708097493261;-0.89935302734375;-0.0186187744140625;8.11999997949897;813;100 mA;
200.718097493236;-0.8990478515625;-0.018634033203125;8.12999997947372;814;100 mA;
200.72809749321;-0.8990478515625;-0.0186431884765625;8.13999997944848;815;100 mA;
200.738097493185;-0.89935302734375;-0.0186553955078125;8.14999997942323;816;100 mA;
200.74809749316;-0.8990478515625;-0.0186737060546875;8.15999997939798;817;100 mA;
200.758097493135;-0.89935302734375;-0.01868896484375;8.16999997937273;818;100 mA;
200.768097493109;-0.89935302734375;-0.0187103271484375;8.17999997934749;819;100 mA;
200.778097493084;-0.8990478515625;-0.018731689453125;8.18999997932224;820;100 mA;
200.788097493059;-0.89996337890625;-0.01875;8.19999997929699;821;100 mA;
200.798097493034;-0.89935302734375;-0.0187713623046875;8.20999997927174;822;100 mA;
200.808097493008;-0.8990478515625;-0.018792724609375;8.2199999792465;823;100 mA;
200.818097492983;-0.89935302734375;-0.018817138671875;8.22999997922125;824;100 mA;
200.828097492958;-0.89935302734375;-0.0188323974609375;8.239999979196;825;100 mA;
200.838097492933;-0.899658203125;-0.0188507080078125;8.24999997917075;826;100 mA;
200.848097492907;-0.899658203125;-0.018865966796875;8.2599999791455;827;100 mA;
200.858097492882;-0.8990478515625;-0.018878173828125;8.26999997912026;828;100 mA;
200.868097492857;-0.89996337890625;-0.018896484375;8.27999997909501;829;100 mA;
200.878097492832;-0.89935302734375;-0.018902587890625;8.28999997906976;830;100 mA;
200.888097492806;-0.899658203125;-0.0189117431640625;8.29999997904451;831;100 mA;
200.898097492781;-0.899658203125;-0.0189208984375;8.30999997901927;832;100 mA;
200.908097492756;-0.89935302734375;-0.0189208984375;8.31999997899402;833;100 mA;
200.918097492731;-0.8990478515625;-0.018927001953125;8.32999997896877;834;100 mA;
200.928097492705;-0.899658203125;-0.0189300537109375;8.33999997894352;835;100 mA;
200.93809749268;-0.89935302734375;-0.018927001953125;8.34999997891828;836;100 mA;
200.948097492655;-0.89935302734375;-0.0189300537109375;8.35999997889303;837;100 mA;
200.95809749263;-0.899658203125;-0.0189208984375;8.36999997886778;838;100 mA;
200.968097492604;-0.899658203125;-0.0189178466796875;8.37999997884253;839;100 mA;
200.978097492579;-0.89874267578125;-0.0189117431640625;8.38999997881729;840;100 mA;
200.988097492554;-0.8990478515625;-0.0188995361328125;8.39999997879204;841;100 mA;
200.998097492529;-0.89935302734375;-0.018896484375;8.40999997876679;842;100 mA;
201.008097492503;-0.89935302734375;-0.018878173828125;8.41999997874154;843;100 mA;
201.018097492478;-0.8990478515625;-0.0188720703125;8.4299999787163;844;100 mA;
201.028097492453;-0.8990478515625;-0.0188629150390625;8.43999997869105;845;100 mA;
201.038097492428;-0.89996337890625;-0.0188446044921875;8.4499999786658;846;100 mA;
201.048097492402;-0.89935302734375;-0.01883544921875;8.45999997864055;847;100 mA;
201.058097492377;-0.89935302734375;-0.0188201904296875;8.46999997861531;848;100 mA;
201.068097492352;-0.899658203125;-0.0188140869140625;8.47999997859006;849;100 mA;
201.078097492327;-0.8990478515625;-0.018798828125;8.48999997856481;850;100 mA;
201.088097492301;-0.899658203125;-0.018780517578125;8.49999997853956;851;100 mA;
201.098097492276;-0.8990478515625;-0.0187713623046875;8.50999997851432;852;100 mA;
201.108097492251;-0.9002685546875;-0.0187530517578125;8.51999997848907;853;100 mA;
201.118097492226;-0.89996337890625;-0.018743896484375;8.52999997846382;854;100 mA;
201.1280974922;-0.8990478515625;-0.0187286376953125;8.53999997843857;855;100 mA;
201.138097492175;-0.89935302734375;-0.0187164306640625;8.54999997841333;856;100 mA;
201.14809749215;-0.8990478515625;-0.0187042236328125;8.55999997838808;857;100 mA;
201.158097492125;-0.899658203125;-0.0186859130859375;8.56999997836283;858;100 mA;
201.168097492099;-0.899658203125;-0.0186737060546875;8.57999997833758;859;100 mA;
201.178097492074;-0.89935302734375;-0.0186614990234375;8.58999997831233;860;100 mA;
201.188097492049;-0.899658203125;-0.0186492919921875;8.59999997828709;861;100 mA;
201.198097492024;-0.89935302734375;-0.0186370849609375;8.60999997826184;862;100 mA;
201.208097491998;-0.899658203125;-0.0186248779296875;8.61999997823659;863;100 mA;
201.218097491973;-0.899658203125;-0.0186187744140625;8.62999997821134;864;100 mA;
201.228097491948;-0.89935302734375;-0.0186065673828125;8.6399999781861;865;100 mA;
201.238097491923;-0.89996337890625;-0.01859130859375;8.64999997816085;866;100 mA;
201.248097491897;-0.89935302734375;-0.0185882568359375;8.6599999781356;867;100 mA;
201.258097491872;-0.89935302734375;-0.0185699462890625;8.66999997811035;868;100 mA;
201.268097491847;-0.89935302734375;-0.01856689453125;8.67999997808511;869;100 mA;
201.278097491822;-0.899658203125;-0.0185546875;8.68999997805986;870;100 mA;
201.288097491796;-0.89935302734375;-0.01854248046875;8.69999997803461;871;100 mA;
201.298097491771;-0.899658203125;-0.0185394287109375;8.70999997800936;872;100 mA;
201.308097491746;-0.8990478515625;-0.0185272216796875;8.71999997798412;873;100 mA;
201.318097491721;-0.89935302734375;-0.018524169921875;8.72999997795887;874;100 mA;
201.328097491695;-0.899658203125;-0.01851806640625;8.73999997793362;875;100 mA;
201.33809749167;-0.89935302734375;-0.0185028076171875;8.74999997790837;876;100 mA;
201.348097491645;-0.899658203125;-0.018499755859375;8.75999997788313;877;100 mA;
201.35809749162;-0.89935302734375;-0.0184906005859375;8.76999997785788;878;100 mA;
201.368097491594;-0.89935302734375;-0.018487548828125;8.77999997783263;879;100 mA;
201.378097491569;-0.89935302734375;-0.0184814453125;8.78999997780738;880;100 mA;
201.388097491544;-0.89996337890625;-0.01846923828125;8.79999997778214;881;100 mA;
201.398097491519;-0.8990478515625;-0.0184661865234375;8.80999997775689;882;100 mA;
201.408097491493;-0.899658203125;-0.0184600830078125;8.81999997773164;883;100 mA;
201.418097491468;-0.89935302734375;-0.01845703125;8.82999997770639;884;100 mA;
201.428097491443;-0.899658203125;-0.0184478759765625;8.83999997768115;885;100 mA;
201.438097491418;-0.89996337890625;-0.0184356689453125;8.8499999776559;886;100 mA;
201.448097491392;-0.89935302734375;-0.0184356689453125;8.85999997763065;887;100 mA;
201.458097491367;-0.899658203125;-0.0184234619140625;8.8699999776054;888;100 mA;
201.468097491342;-0.899658203125;-0.01842041015625;8.87999997758016;889;100 mA;
201.478097491317;-0.89935302734375;-0.0184112548828125;8.88999997755491;890;100 mA;
201.488097491291;-0.899658203125;-0.018402099609375;8.89999997752966;891;100 mA;
201.498097491266;-0.89935302734375;-0.01839599609375;8.90999997750441;892;100 mA;
201.508097491241;-0.8990478515625;-0.0183807373046875;8.91999997747916;893;100 mA;
201.518097491216;-0.899658203125;-0.0183807373046875;8.92999997745392;894;100 mA;
201.52809749119;-0.89935302734375;-0.01837158203125;8.93999997742867;895;100 mA;
201.538097491165;-0.899658203125;-0.018365478515625;8.94999997740342;896;100 mA;
201.54809749114;-0.899658203125;-0.0183563232421875;8.95999997737817;897;100 mA;
201.558097491115;-0.89935302734375;-0.0183502197265625;8.96999997735293;898;100 mA;
201.568097491089;-0.899658203125;-0.01834716796875;8.97999997732768;899;100 mA;
201.578097491064;-0.899658203125;-0.0183349609375;8.98999997730243;900;100 mA;
201.588097491039;-0.899658203125;-0.0183258056640625;8.99999997727718;901;100 mA;
201.598097491014;-0.89935302734375;-0.01832275390625;9.00999997725194;902;100 mA;
201.608097490988;-0.899658203125;-0.0183074951171875;9.01999997722669;903;100 mA;
201.618097490963;-0.8990478515625;-0.018304443359375;9.02999997720144;904;100 mA;
201.628097490938;-0.89935302734375;-0.0182952880859375;9.03999997717619;905;100 mA;
201.638097490913;-0.89996337890625;-0.0182861328125;9.04999997715095;906;100 mA;
201.648097490887;-0.8990478515625;-0.0182861328125;9.0599999771257;907;100 mA;
201.658097490862;-0.899658203125;-0.018267822265625;9.06999997710045;908;100 mA;
201.668097490837;-0.899658203125;-0.0182708740234375;9.0799999770752;909;100 mA;
201.678097490812;-0.899658203125;-0.01826171875;9.08999997704996;910;100 mA;
201.688097490787;-0.89874267578125;-0.0182586669921875;9.09999997702471;911;100 mA;
201.698097490761;-0.89935302734375;-0.01826171875;9.10999997699946;912;100 mA;
201.708097490736;-0.89935302734375;-0.01824951171875;9.11999997697421;913;100 mA;
201.718097490711;-0.899658203125;-0.018255615234375;9.12999997694897;914;100 mA;
201.728097490686;-0.89935302734375;-0.01824951171875;9.13999997692372;915;100 mA;
201.73809749066;-0.899658203125;-0.018243408203125;9.14999997689847;916;100 mA;
201.748097490635;-0.89935302734375;-0.018243408203125;9.15999997687322;917;100 mA;
201.75809749061;-0.899658203125;-0.0182373046875;9.16999997684798;918;100 mA;
201.768097490585;-0.89935302734375;-0.018243408203125;9.17999997682273;919;100 mA;
201.778097490559;-0.89935302734375;-0.0182373046875;9.18999997679748;920;100 mA;
201.788097490534;-0.89935302734375;-0.0182373046875;9.19999997677223;921;100 mA;
201.798097490509;-0.899658203125;-0.018243408203125;9.20999997674699;922;100 mA;
201.808097490484;-0.8990478515625;-0.0182403564453125;9.21999997672174;923;100 mA;
201.818097490458;-0.89935302734375;-0.01824951171875;9.22999997669649;924;100 mA;
201.828097490433;-0.89935302734375;-0.0182525634765625;9.23999997667124;925;100 mA;
201.838097490408;-0.89935302734375;-0.0182586669921875;9.249999976646;926;100 mA;
201.848097490383;-0.89996337890625;-0.018267822265625;9.25999997662075;927;100 mA;
201.858097490357;-0.8990478515625;-0.0182708740234375;9.2699999765955;928;100 mA;
201.868097490332;-0.89935302734375;-0.0182861328125;9.27999997657025;929;100 mA;
201.878097490307;-0.8990478515625;-0.01829833984375;9.289999976545;930;100 mA;
201.888097490282;-0.8990478515625;-0.018304443359375;9.29999997651976;931;100 mA;
201.898097490256;-0.899658203125;-0.01832275390625;9.30999997649451;932;100 mA;
201.908097490231;-0.89935302734375;-0.0183258056640625;9.31999997646926;933;100 mA;
201.918097490206;-0.89935302734375;-0.01834716796875;9.32999997644401;934;100 mA;
201.928097490181;-0.899658203125;-0.018359375;9.33999997641877;935;100 mA;
201.938097490155;-0.899658203125;-0.01837158203125;9.34999997639352;936;100 mA;
201.94809749013;-0.89935302734375;-0.0183929443359375;9.35999997636827;937;100 mA;
201.958097490105;-0.899658203125;-0.018402099609375;9.36999997634302;938;100 mA;
201.96809749008;-0.89996337890625;-0.0184326171875;9.37999997631778;939;100 mA;
201.978097490054;-0.89935302734375;-0.018450927734375;9.38999997629253;940;100 mA;
201.988097490029;-0.89935302734375;-0.01846923828125;9.39999997626728;941;100 mA;
201.998097490004;-0.899658203125;-0.0184906005859375;9.40999997624203;942;100 mA;
202.008097489979;-0.89996337890625;-0.018511962890625;9.41999997621679;943;100 mA;
202.018097489953;-0.899658203125;-0.0185394287109375;9.42999997619154;944;100 mA;
202.028097489928;-0.8990478515625;-0.018560791015625;9.43999997616629;945;100 mA;
202.038097489903;-0.899658203125;-0.0185821533203125;9.44999997614104;946;100 mA;
202.048097489878;-0.89935302734375;-0.018603515625;9.4599999761158;947;100 mA;
202.058097489852;-0.89874267578125;-0.018621826171875;9.46999997609055;948;100 mA;
202.068097489827;-0.8990478515625;-0.0186431884765625;9.4799999760653;949;100 mA;
202.078097489802;-0.899658203125;-0.0186614990234375;9.48999997604005;950;100 mA;
202.088097489777;-0.89935302734375;-0.0186767578125;9.49999997601481;951;100 mA;
202.098097489751;-0.8990478515625;-0.018701171875;9.50999997598956;952;100 mA;
202.108097489726;-0.89935302734375;-0.0187164306640625;9.51999997596431;953;100 mA;
202.118097489701;-0.89935302734375;-0.018743896484375;9.52999997593906;954;100 mA;
202.128097489676;-0.89935302734375;-0.0187591552734375;9.53999997591382;955;100 mA;
202.13809748965;-0.899658203125;-0.0187744140625;9.54999997588857;956;100 mA;
202.148097489625;-0.89935302734375;-0.018798828125;9.55999997586332;957;100 mA;
202.1580974896;-0.89935302734375;-0.01881103515625;9.56999997583807;958;100 mA;
202.168097489575;-0.89935302734375;-0.018841552734375;9.57999997581283;959;100 mA;
202.178097489549;-0.8990478515625;-0.018853759765625;9.58999997578758;960;100 mA;
202.188097489524;-0.89935302734375;-0.0188720703125;9.59999997576233;961;100 mA;
202.198097489499;-0.89935302734375;-0.018890380859375;9.60999997573708;962;100 mA;
202.208097489474;-0.899658203125;-0.018902587890625;9.61999997571183;963;100 mA;
202.218097489448;-0.89996337890625;-0.018927001953125;9.62999997568659;964;100 mA;
202.228097489423;-0.899658203125;-0.018939208984375;9.63999997566134;965;100 mA;
202.238097489398;-0.899658203125;-0.018951416015625;9.64999997563609;966;100 mA;
202.248097489373;-0.89935302734375;-0.0189727783203125;9.65999997561084;967;100 mA;
202.258097489347;-0.899658203125;-0.01898193359375;9.6699999755856;968;100 mA;
202.268097489322;-0.899658203125;-0.0190093994140625;9.67999997556035;969;100 mA;
202.278097489297;-0.89935302734375;-0.019024658203125;9.6899999755351;970;100 mA;
202.288097489272;-0.89935302734375;-0.0190399169921875;9.69999997550985;971;100 mA;
202.298097489246;-0.89935302734375;-0.0190643310546875;9.70999997548461;972;100 mA;
202.308097489221;-0.89935302734375;-0.0190826416015625;9.71999997545936;973;100 mA;
202.318097489196;-0.899658203125;-0.0191070556640625;9.72999997543411;974;100 mA;
202.328097489171;-0.89996337890625;-0.01912841796875;9.73999997540886;975;100 mA;
202.338097489145;-0.89996337890625;-0.019146728515625;9.74999997538362;976;100 mA;
202.34809748912;-0.89874267578125;-0.019171142578125;9.75999997535837;977;100 mA;
202.358097489095;-0.8990478515625;-0.0191864013671875;9.76999997533312;978;100 mA;
202.36809748907;-0.89996337890625;-0.0192108154296875;9.77999997530787;979;100 mA;
202.378097489044;-0.899658203125;-0.0192291259765625;9.78999997528263;980;100 mA;
202.388097489019;-0.89935302734375;-0.0192474365234375;9.79999997525738;981;100 mA;
202.398097488994;-0.89935302734375;-0.0192718505859375;9.80999997523213;982;100 mA;
202.408097488969;-0.899658203125;-0.0192901611328125;9.81999997520688;983;100 mA;
202.418097488943;-0.8990478515625;-0.0193206787109375;9.82999997518164;984;100 mA;
202.428097488918;-0.89996337890625;-0.019342041015625;9.83999997515639;985;100 mA;
202.438097488893;-0.89935302734375;-0.0193695068359375;9.84999997513114;986;100 mA;
202.448097488868;-0.8990478515625;-0.0193939208984375;9.85999997510589;987;100 mA;
202.458097488842;-0.899658203125;-0.0194183349609375;9.86999997508065;988;100 mA;
202.468097488817;-0.8990478515625;-0.019451904296875;9.8799999750554;989;100 mA;
202.478097488792;-0.89935302734375;-0.0194793701171875;9.88999997503015;990;100 mA;
202.488097488767;-0.89935302734375;-0.0195068359375;9.8999999750049;991;100 mA;
202.498097488741;-0.899658203125;-0.0195343017578125;9.90999997497966;992;100 mA;
202.508097488716;-0.89935302734375;-0.0195556640625;9.91999997495441;993;100 mA;
202.518097488691;-0.89935302734375;-0.0195831298828125;9.92999997492916;994;100 mA;
202.528097488666;-0.8990478515625;-0.019610595703125;9.93999997490391;995;100 mA;
202.53809748864;-0.899658203125;-0.019635009765625;9.94999997487866;996;100 mA;
202.548097488615;-0.899658203125;-0.019659423828125;9.95999997485342;997;100 mA;
202.55809748859;-0.89935302734375;-0.0196807861328125;9.96999997482817;998;100 mA;
202.568097488565;-0.89874267578125;-0.0197113037109375;9.97999997480292;999;100 mA;
202.578097488539;-0.8990478515625;-0.019732666015625;9.98999997477767;1000;100 mA;
