Time (s);WE(1).Potential (V);WE(1).Current (A);Corrected time (s);Index;Current range
0.522230998681493;-0.3997802734375;-0.0162933349609375;0;1;1 A
0.532230998656246;-0.3997802734375;-0.013311767578125;0.00999999997475243;2;1 A
0.542230998630998;-0.39971923828125;-0.011505126953125;0.0199999999495049;3;1 A
0.552230998605751;-0.39971923828125;-0.0102752685546875;0.0299999999242573;4;1 A
0.562230998580503;-0.399749755859375;-0.0093719482421875;0.0399999998990097;5;1 A
0.572230998555256;-0.399688720703125;-0.0086700439453125;0.0499999998737621;6;1 A
0.582230998530008;-0.399810791015625;-0.00810852050781249;0.0599999998485146;7;1 A
0.59223099850476;-0.3997802734375;-0.00763854980468751;0.069999999823267;8;1 A
0.602230998479513;-0.39971923828125;-0.007244873046875;0.0799999997980194;9;1 A
0.612230998454265;-0.399749755859375;-0.00690612792968751;0.0899999997727718;10;1 A
0.622230998429018;-0.399749755859375;-0.0066070556640625;0.0999999997475243;11;1 A
0.63223099840377;-0.39971923828125;-0.00635681152343751;0.109999999722277;12;1 A
0.642230998378523;-0.3997802734375;-0.0061187744140625;0.119999999697029;13;1 A
0.652230998353275;-0.39971923828125;-0.00591430664062501;0.129999999671782;14;1 A
0.662230998328027;-0.399749755859375;-0.00572814941406249;0.139999999646534;15;1 A
0.67223099830278;-0.39971923828125;-0.0055511474609375;0.149999999621286;16;1 A
0.682230998277532;-0.399749755859375;-0.00540771484374999;0.159999999596039;17;1 A
0.692230998252285;-0.39971923828125;-0.005267333984375;0.169999999570791;18;1 A
0.702230998227037;-0.3997802734375;-0.00513305664062499;0.179999999545544;19;1 A
0.71223099820179;-0.399749755859375;-0.00501403808593751;0.189999999520296;20;1 A
0.722230998176542;-0.3997802734375;-0.00490417480468749;0.199999999495049;21;1 A
0.732230998151294;-0.399749755859375;-0.0048095703125;0.209999999469801;22;1 A
0.742230998126047;-0.399749755859375;-0.0047119140625;0.219999999444553;23;1 A
0.752230998100799;-0.399749755859375;-0.004620361328125;0.229999999419306;24;1 A
0.762230998075552;-0.399749755859375;-0.0045440673828125;0.239999999394058;25;1 A
0.772230998050304;-0.399749755859375;-0.00446166992187499;0.249999999368811;26;1 A
0.782230998025057;-0.3997802734375;-0.0043914794921875;0.259999999343563;27;1 A
0.792230997999809;-0.399688720703125;-0.0043182373046875;0.269999999318316;28;1 A
0.802230997974561;-0.39984130859375;-0.00424804687499999;0.279999999293068;29;1 A
0.812230997949314;-0.399749755859375;-0.004193115234375;0.28999999926782;30;1 A
0.822230997924066;-0.399749755859375;-0.00412597656249999;0.299999999242573;31;1 A
0.832230997898819;-0.39984130859375;-0.00408325195312501;0.309999999217325;32;1 A
0.842230997873571;-0.3997802734375;-0.00402221679687501;0.319999999192078;33;1 A
0.852230997848324;-0.399749755859375;-0.0039703369140625;0.32999999916683;34;1 A
0.862230997823076;-0.39971923828125;-0.003924560546875;0.339999999141583;35;1 A
0.872230997797828;-0.399810791015625;-0.00386962890625001;0.349999999116335;36;1 A
0.882230997772581;-0.399810791015625;-0.0038421630859375;0.359999999091087;37;1 A
0.892230997747333;-0.399749755859375;-0.00379638671875;0.36999999906584;38;1 A
0.902230997722086;-0.3997802734375;-0.00374755859375001;0.379999999040592;39;1 A
0.912230997696838;-0.399749755859375;-0.00371704101562501;0.389999999015345;40;1 A
0.922230997671591;-0.39971923828125;-0.00367126464843751;0.399999998990097;41;1 A
0.932230997646343;-0.39971923828125;-0.0036468505859375;0.40999999896485;42;1 A
0.942230997621095;-0.3997802734375;-0.00361022949218751;0.419999998939602;43;1 A
0.952230997595848;-0.399749755859375;-0.0035736083984375;0.429999998914354;44;1 A
0.9622309975706;-0.3997802734375;-0.00354919433593751;0.439999998889107;45;1 A
0.972230997545353;-0.399688720703125;-0.00351562499999999;0.449999998863859;46;1 A
0.982230997520105;-0.399749755859375;-0.0034912109375;0.459999998838612;47;1 A
0.992230997494858;-0.399749755859375;-0.003460693359375;0.469999998813364;48;1 A
1.00223099746961;-0.399749755859375;-0.00343017578125;0.479999998788116;49;1 A
1.01223099744436;-0.3997802734375;-0.00341186523437501;0.489999998762869;50;1 A
1.02223099741911;-0.39971923828125;-0.003375244140625;0.499999998737621;51;1 A
1.03223099739387;-0.399688720703125;-0.0033599853515625;0.509999998712374;52;1 A
1.04223099736862;-0.3997802734375;-0.0033294677734375;0.519999998687126;53;1 A
1.05223099734337;-0.399810791015625;-0.003314208984375;0.529999998661879;54;1 A
1.06223099731812;-0.399688720703125;-0.0032928466796875;0.539999998636631;55;1 A
1.07223099729288;-0.3997802734375;-0.0032684326171875;0.549999998611383;56;1 A
1.08223099726763;-0.39971923828125;-0.00325622558593749;0.559999998586136;57;1 A
1.09223099724238;-0.399810791015625;-0.00324096679687499;0.569999998560888;58;1 A
1.10223099721713;-0.399688720703125;-0.003216552734375;0.579999998535641;59;1 A
1.11223099719189;-0.39971923828125;-0.003204345703125;0.589999998510393;60;1 A
1.12223099716664;-0.39971923828125;-0.00318603515625;0.599999998485146;61;1 A
1.13223099714139;-0.3997802734375;-0.0031768798828125;0.609999998459898;62;1 A
1.14223099711614;-0.39971923828125;-0.00315246582031251;0.61999999843465;63;1 A
1.1522309970909;-0.399749755859375;-0.0031402587890625;0.629999998409403;64;1 A
1.16223099706565;-0.3997802734375;-0.00312194824218751;0.639999998384155;65;1 A
1.1722309970404;-0.399688720703125;-0.00310668945312501;0.649999998358908;66;1 A
1.18223099701515;-0.39971923828125;-0.0030975341796875;0.65999999833366;67;1 A
1.19223099698991;-0.39971923828125;-0.00308837890624999;0.669999998308413;68;1 A
1.20223099696466;-0.399688720703125;-0.0030670166015625;0.679999998283165;69;1 A
1.21223099693941;-0.399810791015625;-0.00306091308593751;0.689999998257917;70;1 A
1.22223099691416;-0.39971923828125;-0.00304565429687501;0.69999999823267;71;1 A
1.23223099688892;-0.3997802734375;-0.0030364990234375;0.709999998207422;72;1 A
1.24223099686367;-0.399749755859375;-0.003021240234375;0.719999998182175;73;1 A
1.25223099683842;-0.399688720703125;-0.003009033203125;0.729999998156927;74;1 A
1.26223099681317;-0.3997802734375;-0.00299987792968751;0.73999999813168;75;1 A
1.27223099678793;-0.39971923828125;-0.0029754638671875;0.749999998106432;76;1 A
1.28223099676268;-0.3997802734375;-0.0029754638671875;0.759999998081184;77;1 A
1.29223099673743;-0.399810791015625;-0.002960205078125;0.769999998055937;78;1 A
1.30223099671218;-0.399749755859375;-0.0029449462890625;0.779999998030689;79;1 A
1.31223099668694;-0.3997802734375;-0.00293579101562499;0.789999998005442;80;1 A
1.32223099666169;-0.39971923828125;-0.00292053222656249;0.799999997980194;81;1 A
1.33223099663644;-0.399749755859375;-0.00291748046875;0.809999997954947;82;1 A
1.34223099661119;-0.399749755859375;-0.00290527343749999;0.819999997929699;83;1 A
1.35223099658594;-0.399749755859375;-0.002886962890625;0.829999997904451;84;1 A
1.3622309965607;-0.39971923828125;-0.00289001464843749;0.839999997879204;85;1 A
1.37223099653545;-0.399749755859375;-0.0028717041015625;0.849999997853956;86;1 A
1.3822309965102;-0.39971923828125;-0.0028717041015625;0.859999997828709;87;1 A
1.39223099648495;-0.39984130859375;-0.00286254882812501;0.869999997803461;88;1 A
1.40223099645971;-0.399688720703125;-0.00284729003906251;0.879999997778214;89;1 A
1.41223099643446;-0.39971923828125;-0.002850341796875;0.889999997752966;90;1 A
1.42223099640921;-0.3997802734375;-0.0028350830078125;0.899999997727718;91;1 A
1.43223099638396;-0.399749755859375;-0.002838134765625;0.909999997702471;92;1 A
1.44223099635872;-0.399749755859375;-0.0028228759765625;0.919999997677223;93;1 A
1.45223099633347;-0.39971923828125;-0.00281372070312499;0.929999997651976;94;1 A
1.46223099630822;-0.399749755859375;-0.00281372070312499;0.939999997626728;95;1 A
1.47223099628297;-0.399688720703125;-0.00279846191406249;0.949999997601481;96;1 A
1.48223099625773;-0.399810791015625;-0.00280151367187501;0.959999997576233;97;1 A
1.49223099623248;-0.39971923828125;-0.0027923583984375;0.969999997550985;98;1 A
1.50223099620723;-0.39971923828125;-0.0027801513671875;0.979999997525738;99;1 A
1.51223099618198;-0.399688720703125;-0.002777099609375;0.98999999750049;100;1 A
1.52223099615674;-0.3997802734375;-0.002764892578125;0.999999997475243;101;1 A
1.53223099613149;-0.3997802734375;-0.00277099609375001;1.00999999745;102;1 A
1.54223099610624;-0.399749755859375;-0.0027587890625;1.01999999742475;103;1 A
1.55223099608099;-0.399749755859375;-0.00274047851562501;1.0299999973995;104;1 A
1.56223099605575;-0.399749755859375;-0.00274047851562501;1.03999999737425;105;1 A
1.5722309960305;-0.399749755859375;-0.002728271484375;1.049999997349;106;1 A
1.58223099600525;-0.3997802734375;-0.002728271484375;1.05999999732376;107;1 A
1.59223099598;-0.3997802734375;-0.00272216796874999;1.06999999729851;108;1 A
1.60223099595476;-0.39971923828125;-0.00270996093750001;1.07999999727326;109;1 A
1.61223099592951;-0.39971923828125;-0.00270996093750001;1.08999999724801;110;1 A
1.62223099590426;-0.3997802734375;-0.00269470214843751;1.09999999722277;111;1 A
1.63223099587901;-0.39971923828125;-0.00269775390625;1.10999999719752;112;1 A
1.64223099585377;-0.399810791015625;-0.0026885986328125;1.11999999717227;113;1 A
1.65223099582852;-0.399749755859375;-0.0026885986328125;1.12999999714702;114;1 A
1.66223099580327;-0.399749755859375;-0.0026824951171875;1.13999999712178;115;1 A
1.67223099577802;-0.399810791015625;-0.00267944335937501;1.14999999709653;116;1 A
1.68223099575278;-0.3997802734375;-0.00267639160156249;1.15999999707128;117;1 A
1.69223099572753;-0.39984130859375;-0.0026702880859375;1.16999999704603;118;1 A
1.70223099570228;-0.3997802734375;-0.00266113281249999;1.17999999702079;119;1 A
1.71223099567703;-0.39971923828125;-0.002667236328125;1.18999999699554;120;1 A
1.72223099565178;-0.399749755859375;-0.0026580810546875;1.19999999697029;121;1 A
1.73223099562654;-0.399749755859375;-0.0026702880859375;1.20999999694504;122;1 A
1.74223099560129;-0.399749755859375;-0.0026580810546875;1.2199999969198;123;1 A
1.75223099557604;-0.3997802734375;-0.002655029296875;1.22999999689455;124;1 A
1.76223099555079;-0.399810791015625;-0.002655029296875;1.2399999968693;125;1 A
1.77223099552555;-0.3997802734375;-0.002655029296875;1.24999999684405;126;1 A
1.7822309955003;-0.399810791015625;-0.0026580810546875;1.25999999681881;127;1 A
1.79223099547505;-0.399688720703125;-0.002655029296875;1.26999999679356;128;1 A
1.8022309954498;-0.39971923828125;-0.00264892578125001;1.27999999676831;129;1 A
1.81223099542456;-0.399749755859375;-0.00264892578125001;1.28999999674306;130;1 A
1.82223099539931;-0.399810791015625;-0.00263366699218751;1.29999999671782;131;1 A
1.83223099537406;-0.399749755859375;-0.00263671875;1.30999999669257;132;1 A
1.84223099534881;-0.3997802734375;-0.0026275634765625;1.31999999666732;133;1 A
1.85223099532357;-0.39971923828125;-0.00262451171875;1.32999999664207;134;1 A
1.86223099529832;-0.39971923828125;-0.0026214599609375;1.33999999661683;135;1 A
1.87223099527307;-0.399749755859375;-0.0026092529296875;1.34999999659158;136;1 A
1.88223099524782;-0.399749755859375;-0.0026092529296875;1.35999999656633;137;1 A
1.89223099522258;-0.399749755859375;-0.00260314941406251;1.36999999654108;138;1 A
1.90223099519733;-0.39971923828125;-0.002593994140625;1.37999999651583;139;1 A
1.91223099517208;-0.399749755859375;-0.002593994140625;1.38999999649059;140;1 A
1.92223099514683;-0.399749755859375;-0.00258483886718749;1.39999999646534;141;1 A
1.93223099512159;-0.399749755859375;-0.00258789062500001;1.40999999644009;142;1 A
1.94223099509634;-0.399749755859375;-0.002581787109375;1.41999999641484;143;1 A
1.95223099507109;-0.3997802734375;-0.00257568359375;1.4299999963896;144;1 A
1.96223099504584;-0.39971923828125;-0.002581787109375;1.43999999636435;145;1 A
1.9722309950206;-0.399810791015625;-0.00257263183593751;1.4499999963391;146;1 A
1.98223099499535;-0.399810791015625;-0.00257263183593751;1.45999999631385;147;1 A
1.9922309949701;-0.39984130859375;-0.00256958007812499;1.46999999628861;148;1 A
2.00223099494485;-0.3997802734375;-0.0025634765625;1.47999999626336;149;1 A
2.01223099491961;-0.39971923828125;-0.00257568359375;1.48999999623811;150;1 A
2.02223099489436;-0.399749755859375;-0.0025634765625;1.49999999621286;151;1 A
2.03223099486911;-0.39971923828125;-0.00256958007812499;1.50999999618762;152;1 A
2.04223099484386;-0.399688720703125;-0.0025665283203125;1.51999999616237;153;1 A
2.05223099481861;-0.3997802734375;-0.0025634765625;1.52999999613712;154;1 A
2.06223099479337;-0.3997802734375;-0.00256958007812499;1.53999999611187;155;1 A
2.07223099476812;-0.399749755859375;-0.0025634765625;1.54999999608663;156;1 A
2.08223099474287;-0.3997802734375;-0.00256958007812499;1.55999999606138;157;1 A
2.09223099471762;-0.39971923828125;-0.00257263183593751;1.56999999603613;158;1 A
2.10223099469238;-0.39971923828125;-0.0025665283203125;1.57999999601088;159;1 A
2.11223099466713;-0.399658203125;-0.00256958007812499;1.58999999598564;160;1 A
2.12223099464188;-0.3997802734375;-0.0025634765625;1.59999999596039;161;1 A
2.13223099461663;-0.399749755859375;-0.00257568359375;1.60999999593514;162;1 A
2.14223099459139;-0.39971923828125;-0.00257568359375;1.61999999590989;163;1 A
2.15223099456614;-0.39971923828125;-0.00257568359375;1.62999999588465;164;1 A
2.16223099454089;-0.39971923828125;-0.0025787353515625;1.6399999958594;165;1 A
2.17223099451564;-0.39971923828125;-0.0025787353515625;1.64999999583415;166;1 A
2.1822309944904;-0.399749755859375;-0.0025909423828125;1.6599999958089;167;1 A
2.19223099446515;-0.399749755859375;-0.002593994140625;1.66999999578366;168;1 A
2.2022309944399;-0.39971923828125;-0.002593994140625;1.67999999575841;169;1 A
2.21223099441465;-0.39971923828125;-0.0026092529296875;1.68999999573316;170;1 A
2.22223099438941;-0.399749755859375;-0.00260314941406251;1.69999999570791;171;1 A
2.23223099436416;-0.39971923828125;-0.00261840820312501;1.70999999568267;172;1 A
2.24223099433891;-0.3997802734375;-0.00261840820312501;1.71999999565742;173;1 A
2.25223099431366;-0.399688720703125;-0.00262451171875;1.72999999563217;174;1 A
2.26223099428842;-0.399749755859375;-0.00263366699218751;1.73999999560692;175;1 A
2.27223099426317;-0.399749755859375;-0.00263366699218751;1.74999999558167;176;1 A
2.28223099423792;-0.3997802734375;-0.00264892578125001;1.75999999555643;177;1 A
2.29223099421267;-0.3997802734375;-0.0026580810546875;1.76999999553118;178;1 A
2.30223099418743;-0.399688720703125;-0.00266113281249999;1.77999999550593;179;1 A
2.31223099416218;-0.399749755859375;-0.00267333984375;1.78999999548068;180;1 A
2.32223099413693;-0.39971923828125;-0.0026702880859375;1.79999999545544;181;1 A
2.33223099411168;-0.3997802734375;-0.0026885986328125;1.80999999543019;182;1 A
2.34223099408644;-0.3997802734375;-0.0026885986328125;1.81999999540494;183;1 A
2.35223099406119;-0.39971923828125;-0.0026885986328125;1.82999999537969;184;1 A
2.36223099403594;-0.399658203125;-0.00269470214843751;1.83999999535445;185;1 A
2.37223099401069;-0.39971923828125;-0.00269775390625;1.8499999953292;186;1 A
2.38223099398544;-0.39971923828125;-0.00270996093750001;1.85999999530395;187;1 A
2.3922309939602;-0.39971923828125;-0.002716064453125;1.8699999952787;188;1 A
2.40223099393495;-0.39971923828125;-0.0027130126953125;1.87999999525346;189;1 A
2.4122309939097;-0.399749755859375;-0.00272521972656251;1.88999999522821;190;1 A
2.42223099388445;-0.399749755859375;-0.00272216796874999;1.89999999520296;191;1 A
2.43223099385921;-0.39971923828125;-0.0027313232421875;1.90999999517771;192;1 A
2.44223099383396;-0.399688720703125;-0.0027313232421875;1.91999999515247;193;1 A
2.45223099380871;-0.39971923828125;-0.00274047851562501;1.92999999512722;194;1 A
2.46223099378346;-0.39971923828125;-0.0027435302734375;1.93999999510197;195;1 A
2.47223099375822;-0.3997802734375;-0.00274047851562501;1.94999999507672;196;1 A
2.48223099373297;-0.399749755859375;-0.00274658203125;1.95999999505148;197;1 A
2.49223099370772;-0.399688720703125;-0.00275573730468751;1.96999999502623;198;1 A
2.50223099368247;-0.3997802734375;-0.00274658203125;1.97999999500098;199;1 A
2.51223099365723;-0.399688720703125;-0.00275268554687499;1.98999999497573;200;1 A
2.52223099363198;-0.399749755859375;-0.0027435302734375;1.99999999495049;201;1 A
2.53223099360673;-0.399810791015625;-0.00275573730468751;2.00999999492524;202;1 A
2.54223099358148;-0.399749755859375;-0.00275268554687499;2.01999999489999;203;1 A
2.55223099355624;-0.39971923828125;-0.00274658203125;2.02999999487474;204;1 A
2.56223099353099;-0.39971923828125;-0.0027496337890625;2.0399999948495;205;1 A
2.57223099350574;-0.399749755859375;-0.00274658203125;2.04999999482425;206;1 A
2.58223099348049;-0.3997802734375;-0.00275268554687499;2.059999994799;207;1 A
2.59223099345525;-0.3997802734375;-0.00275268554687499;2.06999999477375;208;1 A
2.60223099343;-0.399688720703125;-0.00274047851562501;2.0799999947485;209;1 A
2.61223099340475;-0.39971923828125;-0.00275573730468751;2.08999999472326;210;1 A
2.6222309933795;-0.399749755859375;-0.00274658203125;2.09999999469801;211;1 A
2.63223099335426;-0.399810791015625;-0.00275268554687499;2.10999999467276;212;1 A
2.64223099332901;-0.399749755859375;-0.00275268554687499;2.11999999464751;213;1 A
2.65223099330376;-0.399749755859375;-0.0027496337890625;2.12999999462227;214;1 A
2.66223099327851;-0.399749755859375;-0.00275268554687499;2.13999999459702;215;1 A
2.67223099325327;-0.399688720703125;-0.00275268554687499;2.14999999457177;216;1 A
2.68223099322802;-0.399749755859375;-0.00275573730468751;2.15999999454652;217;1 A
2.69223099320277;-0.39971923828125;-0.0027587890625;2.16999999452128;218;1 A
2.70223099317752;-0.39971923828125;-0.0027496337890625;2.17999999449603;219;1 A
2.71223099315228;-0.39971923828125;-0.00275573730468751;2.18999999447078;220;1 A
2.72223099312703;-0.399688720703125;-0.0027496337890625;2.19999999444553;221;1 A
2.73223099310178;-0.39971923828125;-0.002764892578125;2.20999999442029;222;1 A
2.74223099307653;-0.3997802734375;-0.00275573730468751;2.21999999439504;223;1 A
2.75223099305128;-0.399749755859375;-0.00275268554687499;2.22999999436979;224;1 A
2.76223099302604;-0.399749755859375;-0.00275268554687499;2.23999999434454;225;1 A
2.77223099300079;-0.399749755859375;-0.00274047851562501;2.2499999943193;226;1 A
2.78223099297554;-0.399749755859375;-0.00275573730468751;2.25999999429405;227;1 A
2.79223099295029;-0.3997802734375;-0.00275268554687499;2.2699999942688;228;1 A
2.80223099292505;-0.39971923828125;-0.0027496337890625;2.27999999424355;229;1 A
2.8122309928998;-0.399688720703125;-0.0027618408203125;2.28999999421831;230;1 A
2.82223099287455;-0.39984130859375;-0.00275268554687499;2.29999999419306;231;1 A
2.8322309928493;-0.399749755859375;-0.0027618408203125;2.30999999416781;232;1 A
2.84223099282406;-0.399749755859375;-0.002764892578125;2.31999999414256;233;1 A
2.85223099279881;-0.399749755859375;-0.002764892578125;2.32999999411732;234;1 A
2.86223099277356;-0.399749755859375;-0.00276794433593749;2.33999999409207;235;1 A
2.87223099274831;-0.399749755859375;-0.002764892578125;2.34999999406682;236;1 A
2.88223099272307;-0.399749755859375;-0.00276794433593749;2.35999999404157;237;1 A
2.89223099269782;-0.399749755859375;-0.00277099609375001;2.36999999401633;238;1 A
2.90223099267257;-0.39971923828125;-0.002764892578125;2.37999999399108;239;1 A
2.91223099264732;-0.39971923828125;-0.002764892578125;2.38999999396583;240;1 A
2.92223099262208;-0.399749755859375;-0.00275573730468751;2.39999999394058;241;1 A
2.93223099259683;-0.399688720703125;-0.002764892578125;2.40999999391533;242;1 A
2.94223099257158;-0.39971923828125;-0.0027587890625;2.41999999389009;243;1 A
2.95223099254633;-0.39971923828125;-0.00275268554687499;2.42999999386484;244;1 A
2.96223099252109;-0.399688720703125;-0.00275268554687499;2.43999999383959;245;1 A
2.97223099249584;-0.3997802734375;-0.00274658203125;2.44999999381434;246;1 A
2.98223099247059;-0.39971923828125;-0.0027496337890625;2.4599999937891;247;1 A
2.99223099244534;-0.39971923828125;-0.00274658203125;2.46999999376385;248;1 A
3.0022309924201;-0.399688720703125;-0.0027435302734375;2.4799999937386;249;1 A
3.01223099239485;-0.39971923828125;-0.0027435302734375;2.48999999371335;250;1 A
3.0222309923696;-0.3997802734375;-0.00273742675781249;2.49999999368811;251;1 A
3.03223099234435;-0.399749755859375;-0.00274047851562501;2.50999999366286;252;1 A
3.04223099231911;-0.399658203125;-0.00273742675781249;2.51999999363761;253;1 A
3.05223099229386;-0.3997802734375;-0.002734375;2.52999999361236;254;1 A
3.06223099226861;-0.399749755859375;-0.002728271484375;2.53999999358712;255;1 A
3.07223099224336;-0.3997802734375;-0.00272216796874999;2.54999999356187;256;1 A
3.08223099221811;-0.3997802734375;-0.0027191162109375;2.55999999353662;257;1 A
3.09223099219287;-0.39971923828125;-0.00272216796874999;2.56999999351137;258;1 A
3.10223099216762;-0.399658203125;-0.002716064453125;2.57999999348613;259;1 A
3.11223099214237;-0.399749755859375;-0.0027191162109375;2.58999999346088;260;1 A
3.12223099211712;-0.399749755859375;-0.002703857421875;2.59999999343563;261;1 A
3.13223099209188;-0.39971923828125;-0.00270690917968749;2.60999999341038;262;1 A
3.14223099206663;-0.3997802734375;-0.002703857421875;2.61999999338514;263;1 A
3.15223099204138;-0.399749755859375;-0.00269165039062499;2.62999999335989;264;1 A
3.16223099201613;-0.399749755859375;-0.00269165039062499;2.63999999333464;265;1 A
3.17223099199089;-0.39971923828125;-0.0026824951171875;2.64999999330939;266;1 A
3.18223099196564;-0.399749755859375;-0.0026885986328125;2.65999999328415;267;1 A
3.19223099194039;-0.3997802734375;-0.0026824951171875;2.6699999932589;268;1 A
3.20223099191514;-0.39971923828125;-0.00267944335937501;2.67999999323365;269;1 A
3.2122309918899;-0.39971923828125;-0.0026824951171875;2.6899999932084;270;1 A
3.22223099186465;-0.399749755859375;-0.00267333984375;2.69999999318316;271;1 A
3.2322309918394;-0.399749755859375;-0.00267944335937501;2.70999999315791;272;1 A
3.24223099181415;-0.399749755859375;-0.00267944335937501;2.71999999313266;273;1 A
3.25223099178891;-0.399749755859375;-0.0026702880859375;2.72999999310741;274;1 A
3.26223099176366;-0.399749755859375;-0.00267944335937501;2.73999999308217;275;1 A
3.27223099173841;-0.3997802734375;-0.002667236328125;2.74999999305692;276;1 A
3.28223099171316;-0.399749755859375;-0.00267333984375;2.75999999303167;277;1 A
3.29223099168792;-0.399749755859375;-0.00267639160156249;2.76999999300642;278;1 A
3.30223099166267;-0.3997802734375;-0.00266418457031251;2.77999999298117;279;1 A
3.31223099163742;-0.39971923828125;-0.002667236328125;2.78999999295593;280;1 A
3.32223099161217;-0.39971923828125;-0.0026580810546875;2.79999999293068;281;1 A
3.33223099158693;-0.399749755859375;-0.002667236328125;2.80999999290543;282;1 A
3.34223099156168;-0.399749755859375;-0.00266113281249999;2.81999999288018;283;1 A
3.35223099153643;-0.399749755859375;-0.0026519775390625;2.82999999285494;284;1 A
3.36223099151118;-0.39971923828125;-0.0026580810546875;2.83999999282969;285;1 A
3.37223099148594;-0.399749755859375;-0.0026519775390625;2.84999999280444;286;1 A
3.38223099146069;-0.399749755859375;-0.0026580810546875;2.85999999277919;287;1 A
3.39223099143544;-0.399810791015625;-0.0026519775390625;2.86999999275395;288;1 A
3.40223099141019;-0.39971923828125;-0.00264587402343749;2.8799999927287;289;1 A
3.41223099138494;-0.399749755859375;-0.002655029296875;2.88999999270345;290;1 A
3.4222309913597;-0.399749755859375;-0.0026397705078125;2.8999999926782;291;1 A
3.43223099133445;-0.39984130859375;-0.002642822265625;2.90999999265296;292;1 A
3.4422309913092;-0.399749755859375;-0.00263366699218751;2.91999999262771;293;1 A
3.45223099128395;-0.399749755859375;-0.00263366699218751;2.92999999260246;294;1 A
3.46223099125871;-0.399749755859375;-0.00263671875;2.93999999257721;295;1 A
3.47223099123346;-0.3997802734375;-0.0026214599609375;2.94999999255197;296;1 A
3.48223099120821;-0.399688720703125;-0.00263366699218751;2.95999999252672;297;1 A
3.49223099118296;-0.3997802734375;-0.00262451171875;2.96999999250147;298;1 A
3.50223099115772;-0.39971923828125;-0.00261535644531249;2.97999999247622;299;1 A
3.51223099113247;-0.3997802734375;-0.00261840820312501;2.98999999245098;300;1 A
3.52223099110722;-0.3997802734375;-0.002606201171875;2.99999999242573;301;1 A
3.53223099108197;-0.3997802734375;-0.0026123046875;3.00999999240048;302;1 A
3.54223099105673;-0.399749755859375;-0.0026092529296875;3.01999999237523;303;1 A
3.55223099103148;-0.39971923828125;-0.00260314941406251;3.02999999234999;304;1 A
3.56223099100623;-0.3997802734375;-0.002606201171875;3.03999999232474;305;1 A
3.57223099098098;-0.399749755859375;-0.002593994140625;3.04999999229949;306;1 A
3.58223099095574;-0.39971923828125;-0.00260009765624999;3.05999999227424;307;1 A
3.59223099093049;-0.399810791015625;-0.00260009765624999;3.069999992249;308;1 A
3.60223099090524;-0.399688720703125;-0.002593994140625;3.07999999222375;309;1 A
3.61223099087999;-0.399749755859375;-0.00260009765624999;3.0899999921985;310;1 A
3.62223099085475;-0.399749755859375;-0.0025909423828125;3.09999999217325;311;1 A
3.6322309908295;-0.399688720703125;-0.00260009765624999;3.109999992148;312;1 A
3.64223099080425;-0.399688720703125;-0.0025970458984375;3.11999999212276;313;1 A
3.652230990779;-0.399749755859375;-0.0025970458984375;3.12999999209751;314;1 A
3.66223099075376;-0.39971923828125;-0.002593994140625;3.13999999207226;315;1 A
3.67223099072851;-0.39971923828125;-0.0025909423828125;3.14999999204701;316;1 A
3.68223099070326;-0.399749755859375;-0.0025970458984375;3.15999999202177;317;1 A
3.69223099067801;-0.3997802734375;-0.0025970458984375;3.16999999199652;318;1 A
3.70223099065277;-0.3997802734375;-0.00258789062500001;3.17999999197127;319;1 A
3.71223099062752;-0.3997802734375;-0.002593994140625;3.18999999194602;320;1 A
3.72223099060227;-0.39971923828125;-0.0025909423828125;3.19999999192078;321;1 A
3.73223099057702;-0.39971923828125;-0.002593994140625;3.20999999189553;322;1 A
3.74223099055177;-0.39971923828125;-0.0025970458984375;3.21999999187028;323;1 A
3.75223099052653;-0.399810791015625;-0.002593994140625;3.22999999184503;324;1 A
3.76223099050128;-0.399749755859375;-0.00260009765624999;3.23999999181979;325;1 A
3.77223099047603;-0.399749755859375;-0.002593994140625;3.24999999179454;326;1 A
3.78223099045078;-0.3997802734375;-0.00260009765624999;3.25999999176929;327;1 A
3.79223099042554;-0.399749755859375;-0.00260314941406251;3.26999999174404;328;1 A
3.80223099040029;-0.399749755859375;-0.0025970458984375;3.2799999917188;329;1 A
3.81223099037504;-0.399749755859375;-0.002606201171875;3.28999999169355;330;1 A
3.82223099034979;-0.3997802734375;-0.002593994140625;3.2999999916683;331;1 A
3.83223099032455;-0.39971923828125;-0.002606201171875;3.30999999164305;332;1 A
3.8422309902993;-0.3997802734375;-0.002606201171875;3.31999999161781;333;1 A
3.85223099027405;-0.39971923828125;-0.00260314941406251;3.32999999159256;334;1 A
3.8622309902488;-0.399749755859375;-0.0026123046875;3.33999999156731;335;1 A
3.87223099022356;-0.3997802734375;-0.00260314941406251;3.34999999154206;336;1 A
3.88223099019831;-0.399688720703125;-0.00261840820312501;3.35999999151682;337;1 A
3.89223099017306;-0.399749755859375;-0.00261535644531249;3.36999999149157;338;1 A
3.90223099014781;-0.399749755859375;-0.002606201171875;3.37999999146632;339;1 A
3.91223099012257;-0.399810791015625;-0.00261840820312501;3.38999999144107;340;1 A
3.92223099009732;-0.3997802734375;-0.0026123046875;3.39999999141583;341;1 A
3.93223099007207;-0.3997802734375;-0.00262451171875;3.40999999139058;342;1 A
3.94223099004682;-0.39971923828125;-0.00262451171875;3.41999999136533;343;1 A
3.95223099002158;-0.399749755859375;-0.00262451171875;3.42999999134008;344;1 A
3.96223098999633;-0.3997802734375;-0.0026275634765625;3.43999999131483;345;1 A
3.97223098997108;-0.399749755859375;-0.00261840820312501;3.44999999128959;346;1 A
3.98223098994583;-0.39971923828125;-0.00263061523437499;3.45999999126434;347;1 A
3.99223098992059;-0.399749755859375;-0.00263366699218751;3.46999999123909;348;1 A
4.00223098989534;-0.3997802734375;-0.00262451171875;3.47999999121384;349;1 A
4.01223098987009;-0.39971923828125;-0.00263061523437499;3.4899999911886;350;1 A
4.02223098984484;-0.3997802734375;-0.00261535644531249;3.49999999116335;351;1 A
4.0322309898196;-0.399749755859375;-0.00262451171875;3.5099999911381;352;1 A
4.04223098979435;-0.39971923828125;-0.0026275634765625;3.51999999111285;353;1 A
4.0522309897691;-0.399749755859375;-0.00262451171875;3.52999999108761;354;1 A
4.06223098974385;-0.3997802734375;-0.00263061523437499;3.53999999106236;355;1 A
4.07223098971861;-0.39971923828125;-0.00262451171875;3.54999999103711;356;1 A
4.08223098969336;-0.399749755859375;-0.00263061523437499;3.55999999101186;357;1 A
4.09223098966811;-0.39971923828125;-0.00263061523437499;3.56999999098662;358;1 A
4.10223098964286;-0.399749755859375;-0.00263061523437499;3.57999999096137;359;1 A
4.11223098961761;-0.3997802734375;-0.0026397705078125;3.58999999093612;360;1 A
4.12223098959237;-0.39971923828125;-0.00263671875;3.59999999091087;361;1 A
4.13223098956712;-0.39971923828125;-0.0026519775390625;3.60999999088563;362;1 A
4.14223098954187;-0.3997802734375;-0.002655029296875;3.61999999086038;363;1 A
4.15223098951662;-0.39971923828125;-0.002655029296875;3.62999999083513;364;1 A
4.16223098949138;-0.399810791015625;-0.00266418457031251;3.63999999080988;365;1 A
4.17223098946613;-0.399749755859375;-0.00266418457031251;3.64999999078464;366;1 A
4.18223098944088;-0.399749755859375;-0.0026702880859375;3.65999999075939;367;1 A
4.19223098941563;-0.39971923828125;-0.00267639160156249;3.66999999073414;368;1 A
4.20223098939039;-0.39971923828125;-0.00267639160156249;3.67999999070889;369;1 A
4.21223098936514;-0.3997802734375;-0.002685546875;3.68999999068365;370;1 A
4.22223098933989;-0.399810791015625;-0.0026824951171875;3.6999999906584;371;1 A
4.23223098931464;-0.399688720703125;-0.0026885986328125;3.70999999063315;372;1 A
4.2422309892894;-0.399749755859375;-0.00269470214843751;3.7199999906079;373;1 A
4.25223098926415;-0.399749755859375;-0.002685546875;3.72999999058266;374;1 A
4.2622309892389;-0.399749755859375;-0.0026885986328125;3.73999999055741;375;1 A
4.27223098921365;-0.399749755859375;-0.0026824951171875;3.74999999053216;376;1 A
4.28223098918841;-0.39971923828125;-0.0026824951171875;3.75999999050691;377;1 A
4.29223098916316;-0.399688720703125;-0.0026885986328125;3.76999999048167;378;1 A
4.30223098913791;-0.3997802734375;-0.00267944335937501;3.77999999045642;379;1 A
4.31223098911266;-0.399749755859375;-0.002685546875;3.78999999043117;380;1 A
4.32223098908742;-0.399749755859375;-0.00267639160156249;3.79999999040592;381;1 A
4.33223098906217;-0.3997802734375;-0.002685546875;3.80999999038067;382;1 A
4.34223098903692;-0.399688720703125;-0.0026824951171875;3.81999999035543;383;1 A
4.35223098901167;-0.399810791015625;-0.002685546875;3.82999999033018;384;1 A
4.36223098898643;-0.399749755859375;-0.0026824951171875;3.83999999030493;385;1 A
4.37223098896118;-0.39971923828125;-0.002685546875;3.84999999027968;386;1 A
4.38223098893593;-0.39971923828125;-0.0026885986328125;3.85999999025444;387;1 A
4.39223098891068;-0.399749755859375;-0.00269165039062499;3.86999999022919;388;1 A
4.40223098888544;-0.3997802734375;-0.00269165039062499;3.87999999020394;389;1 A
4.41223098886019;-0.399749755859375;-0.0027008056640625;3.88999999017869;390;1 A
4.42223098883494;-0.399749755859375;-0.00269470214843751;3.89999999015345;391;1 A
4.43223098880969;-0.399749755859375;-0.002703857421875;3.9099999901282;392;1 A
4.44223098878444;-0.39971923828125;-0.002703857421875;3.91999999010295;393;1 A
4.4522309887592;-0.3997802734375;-0.00270690917968749;3.9299999900777;394;1 A
4.46223098873395;-0.3997802734375;-0.0027191162109375;3.93999999005246;395;1 A
4.4722309887087;-0.39971923828125;-0.002716064453125;3.94999999002721;396;1 A
4.48223098868345;-0.3997802734375;-0.00272521972656251;3.95999999000196;397;1 A
4.49223098865821;-0.399749755859375;-0.00273742675781249;3.96999998997671;398;1 A
4.50223098863296;-0.3997802734375;-0.0027313232421875;3.97999998995147;399;1 A
4.51223098860771;-0.39971923828125;-0.00273742675781249;3.98999998992622;400;1 A
4.52223098858246;-0.39971923828125;-0.002734375;3.99999998990097;401;1 A
4.53223098855722;-0.39971923828125;-0.0027435302734375;4.00999998987572;402;1 A
4.54223098853197;-0.399749755859375;-0.0027435302734375;4.01999998985048;403;1 A
4.55223098850672;-0.3997802734375;-0.00273742675781249;4.02999998982523;404;1 A
4.56223098848147;-0.399749755859375;-0.00274047851562501;4.03999998979998;405;1 A
4.57223098845623;-0.399749755859375;-0.0027313232421875;4.04999998977473;406;1 A
4.58223098843098;-0.39971923828125;-0.002734375;4.05999998974949;407;1 A
4.59223098840573;-0.399749755859375;-0.0027313232421875;4.06999998972424;408;1 A
4.60223098838048;-0.399749755859375;-0.00272216796874999;4.07999998969899;409;1 A
4.61223098835524;-0.399749755859375;-0.002728271484375;4.08999998967374;410;1 A
4.62223098832999;-0.399749755859375;-0.00270996093750001;4.0999999896485;411;1 A
4.63223098830474;-0.399688720703125;-0.0027191162109375;4.10999998962325;412;1 A
4.64223098827949;-0.39971923828125;-0.0027130126953125;4.119999989598;413;1 A
4.65223098825425;-0.3997802734375;-0.00270690917968749;4.12999998957275;414;1 A
4.662230988229;-0.39971923828125;-0.00270690917968749;4.1399999895475;415;1 A
4.67223098820375;-0.399749755859375;-0.0027008056640625;4.14999998952226;416;1 A
4.6822309881785;-0.399749755859375;-0.002703857421875;4.15999998949701;417;1 A
4.69223098815326;-0.39971923828125;-0.002703857421875;4.16999998947176;418;1 A
4.70223098812801;-0.399749755859375;-0.00270690917968749;4.17999998944651;419;1 A
4.71223098810276;-0.399749755859375;-0.0027130126953125;4.18999998942127;420;1 A
4.72223098807751;-0.399688720703125;-0.0027130126953125;4.19999998939602;421;1 A
4.73223098805227;-0.399749755859375;-0.0027191162109375;4.20999998937077;422;1 A
4.74223098802702;-0.39971923828125;-0.002716064453125;4.21999998934552;423;1 A
4.75223098800177;-0.399749755859375;-0.002716064453125;4.22999998932028;424;1 A
4.76223098797652;-0.399749755859375;-0.0027191162109375;4.23999998929503;425;1 A
4.77223098795127;-0.399749755859375;-0.0027130126953125;4.24999998926978;426;1 A
4.78223098792603;-0.399688720703125;-0.0027191162109375;4.25999998924453;427;1 A
4.79223098790078;-0.399749755859375;-0.00272216796874999;4.26999998921929;428;1 A
4.80223098787553;-0.399749755859375;-0.0027130126953125;4.27999998919404;429;1 A
4.81223098785028;-0.399688720703125;-0.002716064453125;4.28999998916879;430;1 A
4.82223098782504;-0.399749755859375;-0.00270996093750001;4.29999998914354;431;1 A
4.83223098779979;-0.399658203125;-0.00270996093750001;4.3099999891183;432;1 A
4.84223098777454;-0.399810791015625;-0.0027130126953125;4.31999998909305;433;1 A
4.85223098774929;-0.399749755859375;-0.00270996093750001;4.3299999890678;434;1 A
4.86223098772405;-0.39971923828125;-0.0027130126953125;4.33999998904255;435;1 A
4.8722309876988;-0.3997802734375;-0.00270690917968749;4.34999998901731;436;1 A
4.88223098767355;-0.399688720703125;-0.00270996093750001;4.35999998899206;437;1 A
4.8922309876483;-0.3997802734375;-0.00270690917968749;4.36999998896681;438;1 A
4.90223098762306;-0.399749755859375;-0.0027008056640625;4.37999998894156;439;1 A
4.91223098759781;-0.399749755859375;-0.00269775390625;4.38999998891632;440;1 A
4.92223098757256;-0.399749755859375;-0.00269165039062499;4.39999998889107;441;1 A
4.93223098754731;-0.39971923828125;-0.00269470214843751;4.40999998886582;442;1 A
4.94223098752207;-0.3997802734375;-0.0026885986328125;4.41999998884057;443;1 A
4.95223098749682;-0.399749755859375;-0.002685546875;4.42999998881533;444;1 A
4.96223098747157;-0.3997802734375;-0.00269165039062499;4.43999998879008;445;1 A
4.97223098744632;-0.399749755859375;-0.00269165039062499;4.44999998876483;446;1 A
4.98223098742108;-0.39971923828125;-0.00269470214843751;4.45999998873958;447;1 A
4.99223098739583;-0.39971923828125;-0.00269470214843751;4.46999998871433;448;1 A
5.00223098737058;-0.3997802734375;-0.00269470214843751;4.47999998868909;449;1 A
5.01223098734533;-0.39971923828125;-0.00270690917968749;4.48999998866384;450;1 A
5.02223098732009;-0.399688720703125;-0.00269470214843751;4.49999998863859;451;1 A
5.03223098729484;-0.399749755859375;-0.00270996093750001;4.50999998861334;452;1 A
5.04223098726959;-0.399749755859375;-0.0027130126953125;4.5199999885881;453;1 A
5.05223098724434;-0.399749755859375;-0.0027130126953125;4.52999998856285;454;1 A
5.0622309872191;-0.39971923828125;-0.002716064453125;4.5399999885376;455;1 A
5.07223098719385;-0.399749755859375;-0.0027191162109375;4.54999998851235;456;1 A
5.0822309871686;-0.399749755859375;-0.00272216796874999;4.55999998848711;457;1 A
5.09223098714335;-0.399749755859375;-0.00272521972656251;4.56999998846186;458;1 A
5.10223098711811;-0.39971923828125;-0.0027191162109375;4.57999998843661;459;1 A
5.11223098709286;-0.399749755859375;-0.00272521972656251;4.58999998841136;460;1 A
5.12223098706761;-0.3997802734375;-0.00272216796874999;4.59999998838612;461;1 A
5.13223098704236;-0.399749755859375;-0.002734375;4.60999998836087;462;1 A
5.14223098701711;-0.399810791015625;-0.0027313232421875;4.61999998833562;463;1 A
5.15223098699187;-0.39971923828125;-0.00272521972656251;4.62999998831037;464;1 A
5.16223098696662;-0.3997802734375;-0.0027313232421875;4.63999998828513;465;1 A
5.17223098694137;-0.39971923828125;-0.00272216796874999;4.64999998825988;466;1 A
5.18223098691612;-0.39971923828125;-0.00272216796874999;4.65999998823463;467;1 A
5.19223098689088;-0.399810791015625;-0.00272521972656251;4.66999998820938;468;1 A
5.20223098686563;-0.399749755859375;-0.0027191162109375;4.67999998818414;469;1 A
5.21223098684038;-0.3997802734375;-0.00272521972656251;4.68999998815889;470;1 A
5.22223098681513;-0.3997802734375;-0.00270996093750001;4.69999998813364;471;1 A
5.23223098678989;-0.399688720703125;-0.00270996093750001;4.70999998810839;472;1 A
5.24223098676464;-0.39971923828125;-0.002703857421875;4.71999998808315;473;1 A
5.25223098673939;-0.39971923828125;-0.0027008056640625;4.7299999880579;474;1 A
5.26223098671414;-0.399688720703125;-0.0027008056640625;4.73999998803265;475;1 A
5.2722309866889;-0.39971923828125;-0.00269470214843751;4.7499999880074;476;1 A
5.28223098666365;-0.399749755859375;-0.00269775390625;4.75999998798216;477;1 A
5.2922309866384;-0.39971923828125;-0.00269470214843751;4.76999998795691;478;1 A
5.30223098661315;-0.3997802734375;-0.0026885986328125;4.77999998793166;479;1 A
5.31223098658791;-0.399688720703125;-0.00269775390625;4.78999998790641;480;1 A
5.32223098656266;-0.399749755859375;-0.00269165039062499;4.79999998788116;481;1 A
5.33223098653741;-0.39971923828125;-0.002703857421875;4.80999998785592;482;1 A
5.34223098651216;-0.399749755859375;-0.00269775390625;4.81999998783067;483;1 A
5.35223098648692;-0.3997802734375;-0.00269775390625;4.82999998780542;484;1 A
5.36223098646167;-0.399749755859375;-0.002703857421875;4.83999998778017;485;1 A
5.37223098643642;-0.399749755859375;-0.00269775390625;4.84999998775493;486;1 A
5.38223098641117;-0.399749755859375;-0.00269470214843751;4.85999998772968;487;1 A
5.39223098638593;-0.399688720703125;-0.00269775390625;4.86999998770443;488;1 A
5.40223098636068;-0.399688720703125;-0.0026885986328125;4.87999998767918;489;1 A
5.41223098633543;-0.39971923828125;-0.00269165039062499;4.88999998765394;490;1 A
5.42223098631018;-0.39971923828125;-0.0026885986328125;4.89999998762869;491;1 A
5.43223098628494;-0.399749755859375;-0.00269165039062499;4.90999998760344;492;1 A
5.44223098625969;-0.399749755859375;-0.0026824951171875;4.91999998757819;493;1 A
5.45223098623444;-0.39971923828125;-0.00267944335937501;4.92999998755295;494;1 A
5.46223098620919;-0.399749755859375;-0.0026824951171875;4.9399999875277;495;1 A
5.47223098618394;-0.399688720703125;-0.00267333984375;4.94999998750245;496;1 A
5.4822309861587;-0.399749755859375;-0.00267333984375;4.9599999874772;497;1 A
5.49223098613345;-0.39971923828125;-0.00267333984375;4.96999998745196;498;1 A
5.5022309861082;-0.39971923828125;-0.0026702880859375;4.97999998742671;499;1 A
5.51223098608295;-0.39971923828125;-0.00267333984375;4.98999998740146;500;1 A
5.52223098605771;-0.39971923828125;-0.002667236328125;4.99999998737621;501;1 A
5.53223098603246;-0.3997802734375;-0.002667236328125;5.00999998735097;502;1 A
5.54223098600721;-0.39971923828125;-0.002667236328125;5.01999998732572;503;1 A
5.55223098598196;-0.399749755859375;-0.00266113281249999;5.02999998730047;504;1 A
5.56223098595672;-0.39971923828125;-0.002667236328125;5.03999998727522;505;1 A
5.57223098593147;-0.3997802734375;-0.00266418457031251;5.04999998724998;506;1 A
5.58223098590622;-0.39971923828125;-0.0026702880859375;5.05999998722473;507;1 A
5.59223098588097;-0.3997802734375;-0.0026702880859375;5.06999998719948;508;1 A
5.60223098585573;-0.399749755859375;-0.0026702880859375;5.07999998717423;509;1 A
5.61223098583048;-0.39971923828125;-0.00267944335937501;5.08999998714899;510;1 A
5.62223098580523;-0.399749755859375;-0.00266418457031251;5.09999998712374;511;1 A
5.63223098577998;-0.3997802734375;-0.00267333984375;5.10999998709849;512;1 A
5.64223098575474;-0.39971923828125;-0.00267333984375;5.11999998707324;513;1 A
5.65223098572949;-0.399749755859375;-0.00266418457031251;5.129999987048;514;1 A
5.66223098570424;-0.399749755859375;-0.00267333984375;5.13999998702275;515;1 A
5.67223098567899;-0.399749755859375;-0.0026702880859375;5.1499999869975;516;1 A
5.68223098565375;-0.399688720703125;-0.00267333984375;5.15999998697225;517;1 A
5.6922309856285;-0.399749755859375;-0.00267944335937501;5.169999986947;518;1 A
5.70223098560325;-0.39971923828125;-0.002667236328125;5.17999998692176;519;1 A
5.712230985578;-0.399749755859375;-0.0026702880859375;5.18999998689651;520;1 A
5.72223098555276;-0.399688720703125;-0.002667236328125;5.19999998687126;521;1 A
5.73223098552751;-0.399749755859375;-0.00267639160156249;5.20999998684601;522;1 A
5.74223098550226;-0.3997802734375;-0.00267639160156249;5.21999998682077;523;1 A
5.75223098547701;-0.3997802734375;-0.00267333984375;5.22999998679552;524;1 A
5.76223098545177;-0.399749755859375;-0.00267944335937501;5.23999998677027;525;1 A
5.77223098542652;-0.39971923828125;-0.0026702880859375;5.24999998674502;526;1 A
5.78223098540127;-0.39971923828125;-0.00267333984375;5.25999998671978;527;1 A
5.79223098537602;-0.399810791015625;-0.00267639160156249;5.26999998669453;528;1 A
5.80223098535077;-0.39971923828125;-0.00267333984375;5.27999998666928;529;1 A
5.81223098532553;-0.399749755859375;-0.0026824951171875;5.28999998664403;530;1 A
5.82223098530028;-0.399810791015625;-0.00267639160156249;5.29999998661879;531;1 A
5.83223098527503;-0.399688720703125;-0.00267944335937501;5.30999998659354;532;1 A
5.84223098524978;-0.399749755859375;-0.0026824951171875;5.31999998656829;533;1 A
5.85223098522454;-0.3997802734375;-0.00267944335937501;5.32999998654304;534;1 A
5.86223098519929;-0.399749755859375;-0.0026824951171875;5.3399999865178;535;1 A
5.87223098517404;-0.39971923828125;-0.00267639160156249;5.34999998649255;536;1 A
5.88223098514879;-0.3997802734375;-0.00267333984375;5.3599999864673;537;1 A
5.89223098512355;-0.3997802734375;-0.0026824951171875;5.36999998644205;538;1 A
5.9022309850983;-0.399749755859375;-0.00267639160156249;5.37999998641681;539;1 A
5.91223098507305;-0.399749755859375;-0.0026824951171875;5.38999998639156;540;1 A
5.9222309850478;-0.399749755859375;-0.00267639160156249;5.39999998636631;541;1 A
5.93223098502256;-0.399749755859375;-0.0026824951171875;5.40999998634106;542;1 A
5.94223098499731;-0.39971923828125;-0.0026885986328125;5.41999998631582;543;1 A
5.95223098497206;-0.3997802734375;-0.002685546875;5.42999998629057;544;1 A
5.96223098494681;-0.3997802734375;-0.00269165039062499;5.43999998626532;545;1 A
5.97223098492157;-0.39971923828125;-0.00269165039062499;5.44999998624007;546;1 A
5.98223098489632;-0.399749755859375;-0.00269470214843751;5.45999998621483;547;1 A
5.99223098487107;-0.3997802734375;-0.0027008056640625;5.46999998618958;548;1 A
6.00223098484582;-0.39971923828125;-0.0027008056640625;5.47999998616433;549;1 A
6.01223098482058;-0.399749755859375;-0.00270690917968749;5.48999998613908;550;1 A
6.02223098479533;-0.3997802734375;-0.0027008056640625;5.49999998611383;551;1 A
6.03223098477008;-0.399749755859375;-0.00270996093750001;5.50999998608859;552;1 A
6.04223098474483;-0.399749755859375;-0.0027130126953125;5.51999998606334;553;1 A
6.05223098471959;-0.3997802734375;-0.0027130126953125;5.52999998603809;554;1 A
6.06223098469434;-0.39971923828125;-0.00272216796874999;5.53999998601284;555;1 A
6.07223098466909;-0.3997802734375;-0.002716064453125;5.5499999859876;556;1 A
6.08223098464384;-0.399658203125;-0.00272216796874999;5.55999998596235;557;1 A
6.0922309846186;-0.399810791015625;-0.002728271484375;5.5699999859371;558;1 A
6.10223098459335;-0.399749755859375;-0.00272521972656251;5.57999998591185;559;1 A
6.1122309845681;-0.399749755859375;-0.00274047851562501;5.58999998588661;560;1 A
6.12223098454285;-0.399749755859375;-0.002734375;5.59999998586136;561;1 A
6.13223098451761;-0.399749755859375;-0.00273742675781249;5.60999998583611;562;1 A
6.14223098449236;-0.399749755859375;-0.0027435302734375;5.61999998581086;563;1 A
6.15223098446711;-0.3997802734375;-0.0027435302734375;5.62999998578562;564;1 A
6.16223098444186;-0.399749755859375;-0.00275268554687499;5.63999998576037;565;1 A
6.17223098441661;-0.399749755859375;-0.0027496337890625;5.64999998573512;566;1 A
6.18223098439137;-0.39971923828125;-0.00275573730468751;5.65999998570987;567;1 A
6.19223098436612;-0.399749755859375;-0.0027587890625;5.66999998568463;568;1 A
6.20223098434087;-0.399749755859375;-0.00275573730468751;5.67999998565938;569;1 A
6.21223098431562;-0.399810791015625;-0.00276794433593749;5.68999998563413;570;1 A
6.22223098429038;-0.3997802734375;-0.0027618408203125;5.69999998560888;571;1 A
6.23223098426513;-0.39971923828125;-0.00277099609375001;5.70999998558364;572;1 A
6.24223098423988;-0.39971923828125;-0.002777099609375;5.71999998555839;573;1 A
6.25223098421463;-0.39971923828125;-0.0027740478515625;5.72999998553314;574;1 A
6.26223098418939;-0.3997802734375;-0.00278320312499999;5.73999998550789;575;1 A
6.27223098416414;-0.39971923828125;-0.0027801513671875;5.74999998548265;576;1 A
6.28223098413889;-0.399749755859375;-0.00278625488281251;5.7599999854574;577;1 A
6.29223098411364;-0.3997802734375;-0.0027923583984375;5.76999998543215;578;1 A
6.3022309840884;-0.399688720703125;-0.00278625488281251;5.7799999854069;579;1 A
6.31223098406315;-0.399749755859375;-0.00279541015625;5.78999998538166;580;1 A
6.3222309840379;-0.39971923828125;-0.00278625488281251;5.79999998535641;581;1 A
6.33223098401265;-0.399749755859375;-0.00280151367187501;5.80999998533116;582;1 A
6.34223098398741;-0.39971923828125;-0.0028045654296875;5.81999998530591;583;1 A
6.35223098396216;-0.399749755859375;-0.0028076171875;5.82999998528066;584;1 A
6.36223098393691;-0.399749755859375;-0.00281677246093751;5.83999998525542;585;1 A
6.37223098391166;-0.399810791015625;-0.0028106689453125;5.84999998523017;586;1 A
6.38223098388642;-0.399749755859375;-0.00281677246093751;5.85999998520492;587;1 A
6.39223098386117;-0.39971923828125;-0.0028228759765625;5.86999998517967;588;1 A
6.40223098383592;-0.39971923828125;-0.0028228759765625;5.87999998515443;589;1 A
6.41223098381067;-0.3997802734375;-0.00283203125000001;5.88999998512918;590;1 A
6.42223098378543;-0.399749755859375;-0.0028228759765625;5.89999998510393;591;1 A
6.43223098376018;-0.39971923828125;-0.00283203125000001;5.90999998507868;592;1 A
6.44223098373493;-0.399688720703125;-0.0028350830078125;5.91999998505344;593;1 A
6.45223098370968;-0.399749755859375;-0.00283203125000001;5.92999998502819;594;1 A
6.46223098368444;-0.3997802734375;-0.002838134765625;5.93999998500294;595;1 A
6.47223098365919;-0.39971923828125;-0.00283203125000001;5.94999998497769;596;1 A
6.48223098363394;-0.39971923828125;-0.0028350830078125;5.95999998495245;597;1 A
6.49223098360869;-0.399688720703125;-0.002838134765625;5.9699999849272;598;1 A
6.50223098358344;-0.39971923828125;-0.002838134765625;5.97999998490195;599;1 A
6.5122309835582;-0.3997802734375;-0.0028411865234375;5.9899999848767;600;1 A
6.52223098353295;-0.399749755859375;-0.00283203125000001;5.99999998485146;601;1 A
6.5322309835077;-0.39971923828125;-0.0028350830078125;6.00999998482621;602;1 A
6.54223098348245;-0.3997802734375;-0.0028350830078125;6.01999998480096;603;1 A
6.55223098345721;-0.39971923828125;-0.0028228759765625;6.02999998477571;604;1 A
6.56223098343196;-0.399749755859375;-0.00281982421875;6.03999998475047;605;1 A
6.57223098340671;-0.3997802734375;-0.00281677246093751;6.04999998472522;606;1 A
6.58223098338146;-0.39971923828125;-0.0028106689453125;6.05999998469997;607;1 A
6.59223098335622;-0.39971923828125;-0.0028106689453125;6.06999998467472;608;1 A
6.60223098333097;-0.399688720703125;-0.00279541015625;6.07999998464948;609;1 A
6.61223098330572;-0.399749755859375;-0.00279846191406249;6.08999998462423;610;1 A
6.62223098328047;-0.3997802734375;-0.00278625488281251;6.09999998459898;611;1 A
6.63223098325523;-0.39971923828125;-0.0027923583984375;6.10999998457373;612;1 A
6.64223098322998;-0.399749755859375;-0.002789306640625;6.11999998454849;613;1 A
6.65223098320473;-0.399810791015625;-0.00278320312499999;6.12999998452324;614;1 A
6.66223098317948;-0.399749755859375;-0.00278320312499999;6.13999998449799;615;1 A
6.67223098315424;-0.399810791015625;-0.00277099609375001;6.14999998447274;616;1 A
6.68223098312899;-0.399688720703125;-0.00277099609375001;6.1599999844475;617;1 A
6.69223098310374;-0.39971923828125;-0.00277099609375001;6.16999998442225;618;1 A
6.70223098307849;-0.399749755859375;-0.002764892578125;6.179999984397;619;1 A
6.71223098305325;-0.399749755859375;-0.00276794433593749;6.18999998437175;620;1 A
6.722230983028;-0.399749755859375;-0.0027496337890625;6.1999999843465;621;1 A
6.73223098300275;-0.399688720703125;-0.00275268554687499;6.20999998432126;622;1 A
6.7422309829775;-0.39971923828125;-0.00274658203125;6.21999998429601;623;1 A
6.75223098295226;-0.3997802734375;-0.0027435302734375;6.22999998427076;624;1 A
6.76223098292701;-0.399810791015625;-0.00274047851562501;6.23999998424551;625;1 A
6.77223098290176;-0.399749755859375;-0.002734375;6.24999998422027;626;1 A
6.78223098287651;-0.3997802734375;-0.00272521972656251;6.25999998419502;627;1 A
6.79223098285127;-0.399749755859375;-0.00272216796874999;6.26999998416977;628;1 A
6.80223098282602;-0.399658203125;-0.00270996093750001;6.27999998414452;629;1 A
6.81223098280077;-0.399749755859375;-0.00270996093750001;6.28999998411928;630;1 A
6.82223098277552;-0.39971923828125;-0.00269470214843751;6.29999998409403;631;1 A
6.83223098275027;-0.3997802734375;-0.0026885986328125;6.30999998406878;632;1 A
6.84223098272503;-0.39971923828125;-0.002685546875;6.31999998404353;633;1 A
6.85223098269978;-0.399749755859375;-0.00267333984375;6.32999998401829;634;1 A
6.86223098267453;-0.399688720703125;-0.00267639160156249;6.33999998399304;635;1 A
6.87223098264928;-0.3997802734375;-0.00266418457031251;6.34999998396779;636;1 A
6.88223098262404;-0.39971923828125;-0.00266113281249999;6.35999998394254;637;1 A
6.89223098259879;-0.399810791015625;-0.0026580810546875;6.3699999839173;638;1 A
6.90223098257354;-0.399749755859375;-0.0026519775390625;6.37999998389205;639;1 A
6.91223098254829;-0.39971923828125;-0.00266113281249999;6.3899999838668;640;1 A
6.92223098252305;-0.399749755859375;-0.00264892578125001;6.39999998384155;641;1 A
6.9322309824978;-0.399749755859375;-0.0026580810546875;6.40999998381631;642;1 A
6.94223098247255;-0.399749755859375;-0.0026580810546875;6.41999998379106;643;1 A
6.9522309824473;-0.3997802734375;-0.0026580810546875;6.42999998376581;644;1 A
6.96223098242206;-0.39971923828125;-0.00266113281249999;6.43999998374056;645;1 A
6.97223098239681;-0.399749755859375;-0.0026519775390625;6.44999998371532;646;1 A
6.98223098237156;-0.399810791015625;-0.00266113281249999;6.45999998369007;647;1 A
6.99223098234631;-0.3997802734375;-0.002667236328125;6.46999998366482;648;1 A
7.00223098232107;-0.39971923828125;-0.00266418457031251;6.47999998363957;649;1 A
7.01223098229582;-0.3997802734375;-0.0026702880859375;6.48999998361433;650;1 A
7.02223098227057;-0.3997802734375;-0.00266418457031251;6.49999998358908;651;1 A
7.03223098224532;-0.399749755859375;-0.002667236328125;6.50999998356383;652;1 A
7.04223098222008;-0.399749755859375;-0.00267639160156249;6.51999998353858;653;1 A
7.05223098219483;-0.399688720703125;-0.00267639160156249;6.52999998351333;654;1 A
7.06223098216958;-0.3997802734375;-0.002685546875;6.53999998348809;655;1 A
7.07223098214433;-0.399749755859375;-0.00267944335937501;6.54999998346284;656;1 A
7.08223098211909;-0.399810791015625;-0.00267944335937501;6.55999998343759;657;1 A
7.09223098209384;-0.3997802734375;-0.002685546875;6.56999998341234;658;1 A
7.10223098206859;-0.39971923828125;-0.00267944335937501;6.5799999833871;659;1 A
7.11223098204334;-0.39971923828125;-0.0026885986328125;6.58999998336185;660;1 A
7.1222309820181;-0.39971923828125;-0.00267944335937501;6.5999999833366;661;1 A
7.13223098199285;-0.399810791015625;-0.00269165039062499;6.60999998331135;662;1 A
7.1422309819676;-0.39971923828125;-0.00269470214843751;6.61999998328611;663;1 A
7.15223098194235;-0.39971923828125;-0.00269165039062499;6.62999998326086;664;1 A
7.16223098191711;-0.399688720703125;-0.0027008056640625;6.63999998323561;665;1 A
7.17223098189186;-0.399658203125;-0.00269775390625;6.64999998321036;666;1 A
7.18223098186661;-0.399749755859375;-0.00270690917968749;6.65999998318512;667;1 A
7.19223098184136;-0.39971923828125;-0.002716064453125;6.66999998315987;668;1 A
7.20223098181611;-0.399688720703125;-0.00270690917968749;6.67999998313462;669;1 A
7.21223098179087;-0.399810791015625;-0.002716064453125;6.68999998310937;670;1 A
7.22223098176562;-0.399749755859375;-0.00270996093750001;6.69999998308413;671;1 A
7.23223098174037;-0.3997802734375;-0.0027191162109375;6.70999998305888;672;1 A
7.24223098171512;-0.3997802734375;-0.00272216796874999;6.71999998303363;673;1 A
7.25223098168988;-0.3997802734375;-0.00272216796874999;6.72999998300838;674;1 A
7.26223098166463;-0.399688720703125;-0.00272216796874999;6.73999998298314;675;1 A
7.27223098163938;-0.3997802734375;-0.0027191162109375;6.74999998295789;676;1 A
7.28223098161413;-0.399749755859375;-0.00272216796874999;6.75999998293264;677;1 A
7.29223098158889;-0.399810791015625;-0.002728271484375;6.76999998290739;678;1 A
7.30223098156364;-0.399749755859375;-0.00272521972656251;6.77999998288215;679;1 A
7.31223098153839;-0.399749755859375;-0.0027313232421875;6.7899999828569;680;1 A
7.32223098151314;-0.3997802734375;-0.00272216796874999;6.79999998283165;681;1 A
7.3322309814879;-0.399810791015625;-0.002728271484375;6.8099999828064;682;1 A
7.34223098146265;-0.39971923828125;-0.0027313232421875;6.81999998278116;683;1 A
7.3522309814374;-0.399749755859375;-0.0027313232421875;6.82999998275591;684;1 A
7.36223098141215;-0.3997802734375;-0.00274047851562501;6.83999998273066;685;1 A
7.37223098138691;-0.399749755859375;-0.00273742675781249;6.84999998270541;686;1 A
7.38223098136166;-0.399749755859375;-0.002734375;6.85999998268016;687;1 A
7.39223098133641;-0.399749755859375;-0.00273742675781249;6.86999998265492;688;1 A
7.40223098131116;-0.39971923828125;-0.0027313232421875;6.87999998262967;689;1 A
7.41223098128592;-0.399688720703125;-0.00274047851562501;6.88999998260442;690;1 A
7.42223098126067;-0.3997802734375;-0.0027313232421875;6.89999998257917;691;1 A
7.43223098123542;-0.39971923828125;-0.00273742675781249;6.90999998255393;692;1 A
7.44223098121017;-0.399810791015625;-0.00273742675781249;6.91999998252868;693;1 A
7.45223098118493;-0.39971923828125;-0.002734375;6.92999998250343;694;1 A
7.46223098115968;-0.399688720703125;-0.0027435302734375;6.93999998247818;695;1 A
7.47223098113443;-0.39971923828125;-0.00274047851562501;6.94999998245294;696;1 A
7.48223098110918;-0.3997802734375;-0.0027435302734375;6.95999998242769;697;1 A
7.49223098108394;-0.39971923828125;-0.0027496337890625;6.96999998240244;698;1 A
7.50223098105869;-0.399749755859375;-0.0027435302734375;6.97999998237719;699;1 A
7.51223098103344;-0.399810791015625;-0.00275268554687499;6.98999998235195;700;1 A
7.52223098100819;-0.399688720703125;-0.00274658203125;6.9999999823267;701;1 A
7.53223098098294;-0.399871826171875;-0.00275268554687499;7.00999998230145;702;1 A
7.5422309809577;-0.3997802734375;-0.00275268554687499;7.0199999822762;703;1 A
7.55223098093245;-0.399688720703125;-0.0027496337890625;7.02999998225096;704;1 A
7.5622309809072;-0.399749755859375;-0.00275573730468751;7.03999998222571;705;1 A
7.57223098088195;-0.39971923828125;-0.00275268554687499;7.04999998220046;706;1 A
7.58223098085671;-0.39971923828125;-0.0027587890625;7.05999998217521;707;1 A
7.59223098083146;-0.399749755859375;-0.0027618408203125;7.06999998214997;708;1 A
7.60223098080621;-0.399749755859375;-0.0027587890625;7.07999998212472;709;1 A
7.61223098078096;-0.39984130859375;-0.002764892578125;7.08999998209947;710;1 A
7.62223098075572;-0.399749755859375;-0.00275268554687499;7.09999998207422;711;1 A
7.63223098073047;-0.39971923828125;-0.00275573730468751;7.10999998204898;712;1 A
7.64223098070522;-0.3997802734375;-0.00275573730468751;7.11999998202373;713;1 A
7.65223098067997;-0.399749755859375;-0.00275268554687499;7.12999998199848;714;1 A
7.66223098065473;-0.399749755859375;-0.0027496337890625;7.13999998197323;715;1 A
7.67223098062948;-0.39971923828125;-0.00274047851562501;7.14999998194799;716;1 A
7.68223098060423;-0.399749755859375;-0.0027435302734375;7.15999998192274;717;1 A
7.69223098057898;-0.399749755859375;-0.00274047851562501;7.16999998189749;718;1 A
7.70223098055374;-0.399688720703125;-0.00273742675781249;7.17999998187224;719;1 A
7.71223098052849;-0.399749755859375;-0.0027435302734375;7.189999981847;720;1 A
7.72223098050324;-0.3997802734375;-0.00274047851562501;7.19999998182175;721;1 A
7.73223098047799;-0.399749755859375;-0.00274047851562501;7.2099999817965;722;1 A
7.74223098045275;-0.3997802734375;-0.00274047851562501;7.21999998177125;723;1 A
7.7522309804275;-0.399749755859375;-0.00273742675781249;7.229999981746;724;1 A
7.76223098040225;-0.39971923828125;-0.00274658203125;7.23999998172076;725;1 A
7.772230980377;-0.39971923828125;-0.00273742675781249;7.24999998169551;726;1 A
7.78223098035176;-0.3997802734375;-0.00273742675781249;7.25999998167026;727;1 A
7.79223098032651;-0.39971923828125;-0.0027435302734375;7.26999998164501;728;1 A
7.80223098030126;-0.399810791015625;-0.00274047851562501;7.27999998161977;729;1 A
7.81223098027601;-0.399749755859375;-0.0027435302734375;7.28999998159452;730;1 A
7.82223098025077;-0.399749755859375;-0.0027435302734375;7.29999998156927;731;1 A
7.83223098022552;-0.39971923828125;-0.00274658203125;7.30999998154402;732;1 A
7.84223098020027;-0.39971923828125;-0.00274658203125;7.31999998151878;733;1 A
7.85223098017502;-0.3997802734375;-0.00274658203125;7.32999998149353;734;1 A
7.86223098014977;-0.3997802734375;-0.0027435302734375;7.33999998146828;735;1 A
7.87223098012453;-0.39971923828125;-0.00273742675781249;7.34999998144303;736;1 A
7.88223098009928;-0.39971923828125;-0.00273742675781249;7.35999998141779;737;1 A
7.89223098007403;-0.399749755859375;-0.002734375;7.36999998139254;738;1 A
7.90223098004878;-0.399749755859375;-0.00272521972656251;7.37999998136729;739;1 A
7.91223098002354;-0.3997802734375;-0.00272521972656251;7.38999998134204;740;1 A
7.92223097999829;-0.399749755859375;-0.00270996093750001;7.3999999813168;741;1 A
7.93223097997304;-0.399749755859375;-0.00270690917968749;7.40999998129155;742;1 A
7.94223097994779;-0.399810791015625;-0.002703857421875;7.4199999812663;743;1 A
7.95223097992255;-0.399688720703125;-0.00269165039062499;7.42999998124105;744;1 A
7.9622309798973;-0.399658203125;-0.00269775390625;7.43999998121581;745;1 A
7.97223097987205;-0.399749755859375;-0.002685546875;7.44999998119056;746;1 A
7.9822309798468;-0.399749755859375;-0.0026824951171875;7.45999998116531;747;1 A
7.99223097982156;-0.3997802734375;-0.0026824951171875;7.46999998114006;748;1 A
8.00223097979631;-0.399749755859375;-0.00267944335937501;7.47999998111482;749;1 A
8.01223097977106;-0.39971923828125;-0.002685546875;7.48999998108957;750;1 A
8.02223097974581;-0.399688720703125;-0.00267639160156249;7.49999998106432;751;1 A
8.03223097972057;-0.399810791015625;-0.00267944335937501;7.50999998103907;752;1 A
8.04223097969532;-0.39971923828125;-0.0026824951171875;7.51999998101383;753;1 A
8.05223097967007;-0.39971923828125;-0.00267944335937501;7.52999998098858;754;1 A
8.06223097964482;-0.399749755859375;-0.0026824951171875;7.53999998096333;755;1 A
8.07223097961958;-0.399688720703125;-0.00267639160156249;7.54999998093808;756;1 A
8.08223097959433;-0.39971923828125;-0.00267639160156249;7.55999998091283;757;1 A
8.09223097956908;-0.3997802734375;-0.00267944335937501;7.56999998088759;758;1 A
8.10223097954383;-0.399810791015625;-0.00267333984375;7.57999998086234;759;1 A
8.11223097951859;-0.3997802734375;-0.0026824951171875;7.58999998083709;760;1 A
8.12223097949334;-0.39971923828125;-0.002667236328125;7.59999998081184;761;1 A
8.13223097946809;-0.399627685546875;-0.00267333984375;7.6099999807866;762;1 A
8.14223097944284;-0.399810791015625;-0.0026702880859375;7.61999998076135;763;1 A
8.1522309794176;-0.399749755859375;-0.00266418457031251;7.6299999807361;764;1 A
8.16223097939235;-0.3997802734375;-0.002667236328125;7.63999998071085;765;1 A
8.1722309793671;-0.399688720703125;-0.0026580810546875;7.64999998068561;766;1 A
8.18223097934185;-0.399688720703125;-0.0026580810546875;7.65999998066036;767;1 A
8.19223097931661;-0.3997802734375;-0.0026580810546875;7.66999998063511;768;1 A
8.20223097929136;-0.39971923828125;-0.002655029296875;7.67999998060986;769;1 A
8.21223097926611;-0.399749755859375;-0.00266113281249999;7.68999998058462;770;1 A
8.22223097924086;-0.3997802734375;-0.00264587402343749;7.69999998055937;771;1 A
8.23223097921561;-0.399658203125;-0.00264587402343749;7.70999998053412;772;1 A
8.24223097919037;-0.399688720703125;-0.00264587402343749;7.71999998050887;773;1 A
8.25223097916512;-0.399749755859375;-0.002642822265625;7.72999998048363;774;1 A
8.26223097913987;-0.399749755859375;-0.0026397705078125;7.73999998045838;775;1 A
8.27223097911462;-0.39971923828125;-0.00263366699218751;7.74999998043313;776;1 A
8.28223097908938;-0.399749755859375;-0.00263061523437499;7.75999998040788;777;1 A
8.29223097906413;-0.39971923828125;-0.00263061523437499;7.76999998038264;778;1 A
8.30223097903888;-0.3997802734375;-0.00262451171875;7.77999998035739;779;1 A
8.31223097901363;-0.399749755859375;-0.00263061523437499;7.78999998033214;780;1 A
8.32223097898839;-0.39971923828125;-0.00262451171875;7.79999998030689;781;1 A
8.33223097896314;-0.399749755859375;-0.00263061523437499;7.80999998028165;782;1 A
8.34223097893789;-0.3997802734375;-0.00263061523437499;7.8199999802564;783;1 A
8.35223097891264;-0.3997802734375;-0.00263061523437499;7.82999998023115;784;1 A
8.3622309788874;-0.399749755859375;-0.00263366699218751;7.8399999802059;785;1 A
8.37223097886215;-0.399658203125;-0.00263366699218751;7.84999998018066;786;1 A
8.3822309788369;-0.39971923828125;-0.0026275634765625;7.85999998015541;787;1 A
8.39223097881165;-0.3997802734375;-0.00263671875;7.86999998013016;788;1 A
8.40223097878641;-0.399749755859375;-0.00263061523437499;7.87999998010491;789;1 A
8.41223097876116;-0.3997802734375;-0.0026397705078125;7.88999998007966;790;1 A
8.42223097873591;-0.39971923828125;-0.00263061523437499;7.89999998005442;791;1 A
8.43223097871066;-0.39971923828125;-0.00263671875;7.90999998002917;792;1 A
8.44223097868542;-0.39971923828125;-0.00263671875;7.91999998000392;793;1 A
8.45223097866017;-0.399688720703125;-0.00263671875;7.92999997997867;794;1 A
8.46223097863492;-0.399749755859375;-0.00263671875;7.93999997995343;795;1 A
8.47223097860967;-0.399749755859375;-0.00263061523437499;7.94999997992818;796;1 A
8.48223097858443;-0.3997802734375;-0.00263061523437499;7.95999997990293;797;1 A
8.49223097855918;-0.39971923828125;-0.00263671875;7.96999997987768;798;1 A
8.50223097853393;-0.399749755859375;-0.00263366699218751;7.97999997985244;799;1 A
8.51223097850868;-0.399749755859375;-0.0026397705078125;7.98999997982719;800;1 A
8.52223097848344;-0.399688720703125;-0.0026275634765625;7.99999997980194;801;1 A
8.53223097845819;-0.399688720703125;-0.0026275634765625;8.00999997977669;802;1 A
8.54223097843294;-0.399749755859375;-0.00263366699218751;8.01999997975145;803;1 A
8.55223097840769;-0.399749755859375;-0.0026275634765625;8.0299999797262;804;1 A
8.56223097838244;-0.399749755859375;-0.00263671875;8.03999997970095;805;1 A
8.5722309783572;-0.399749755859375;-0.00263366699218751;8.0499999796757;806;1 A
8.58223097833195;-0.399688720703125;-0.00263061523437499;8.05999997965046;807;1 A
8.5922309783067;-0.3997802734375;-0.00263671875;8.06999997962521;808;1 A
8.60223097828145;-0.399749755859375;-0.00263061523437499;8.07999997959996;809;1 A
8.61223097825621;-0.399810791015625;-0.0026397705078125;8.08999997957471;810;1 A
8.62223097823096;-0.399810791015625;-0.00263366699218751;8.09999997954947;811;1 A
8.63223097820571;-0.399688720703125;-0.00263366699218751;8.10999997952422;812;1 A
8.64223097818046;-0.399749755859375;-0.00263366699218751;8.11999997949897;813;1 A
8.65223097815522;-0.3997802734375;-0.00263061523437499;8.12999997947372;814;1 A
8.66223097812997;-0.399749755859375;-0.00263366699218751;8.13999997944848;815;1 A
8.67223097810472;-0.39971923828125;-0.00261840820312501;8.14999997942323;816;1 A
8.68223097807947;-0.39971923828125;-0.00262451171875;8.15999997939798;817;1 A
8.69223097805423;-0.3997802734375;-0.00263061523437499;8.16999997937273;818;1 A
8.70223097802898;-0.399749755859375;-0.0026214599609375;8.17999997934749;819;1 A
8.71223097800373;-0.39984130859375;-0.0026275634765625;8.18999997932224;820;1 A
8.72223097797848;-0.399749755859375;-0.00261535644531249;8.19999997929699;821;1 A
8.73223097795324;-0.399688720703125;-0.00262451171875;8.20999997927174;822;1 A
8.74223097792799;-0.39971923828125;-0.0026214599609375;8.2199999792465;823;1 A
8.75223097790274;-0.39984130859375;-0.0026214599609375;8.22999997922125;824;1 A
8.76223097787749;-0.399749755859375;-0.0026275634765625;8.239999979196;825;1 A
8.77223097785225;-0.399749755859375;-0.0026214599609375;8.24999997917075;826;1 A
8.782230977827;-0.399810791015625;-0.0026275634765625;8.2599999791455;827;1 A
8.79223097780175;-0.39971923828125;-0.00263061523437499;8.26999997912026;828;1 A
8.8022309777765;-0.39971923828125;-0.0026275634765625;8.27999997909501;829;1 A
8.81223097775126;-0.399749755859375;-0.00263366699218751;8.28999997906976;830;1 A
8.82223097772601;-0.39971923828125;-0.0026214599609375;8.29999997904451;831;1 A
8.83223097770076;-0.39971923828125;-0.00263061523437499;8.30999997901927;832;1 A
8.84223097767551;-0.399688720703125;-0.00263671875;8.31999997899402;833;1 A
8.85223097765027;-0.399749755859375;-0.00263366699218751;8.32999997896877;834;1 A
8.86223097762502;-0.399749755859375;-0.00263671875;8.33999997894352;835;1 A
8.87223097759977;-0.3997802734375;-0.0026275634765625;8.34999997891828;836;1 A
8.88223097757452;-0.39971923828125;-0.00263366699218751;8.35999997889303;837;1 A
8.89223097754927;-0.3997802734375;-0.00263366699218751;8.36999997886778;838;1 A
8.90223097752403;-0.399749755859375;-0.00263366699218751;8.37999997884253;839;1 A
8.91223097749878;-0.399749755859375;-0.002642822265625;8.38999997881729;840;1 A
8.92223097747353;-0.399749755859375;-0.00263671875;8.39999997879204;841;1 A
8.93223097744828;-0.39971923828125;-0.0026397705078125;8.40999997876679;842;1 A
8.94223097742304;-0.399749755859375;-0.0026397705078125;8.41999997874154;843;1 A
8.95223097739779;-0.39971923828125;-0.00263671875;8.4299999787163;844;1 A
8.96223097737254;-0.39971923828125;-0.00264587402343749;8.43999997869105;845;1 A
8.97223097734729;-0.399810791015625;-0.0026397705078125;8.4499999786658;846;1 A
8.98223097732205;-0.39971923828125;-0.002642822265625;8.45999997864055;847;1 A
8.9922309772968;-0.399749755859375;-0.00264892578125001;8.46999997861531;848;1 A
9.00223097727155;-0.399749755859375;-0.00264892578125001;8.47999997859006;849;1 A
9.0122309772463;-0.399810791015625;-0.002655029296875;8.48999997856481;850;1 A
9.02223097722106;-0.399810791015625;-0.0026580810546875;8.49999997853956;851;1 A
9.03223097719581;-0.39971923828125;-0.00266418457031251;8.50999997851432;852;1 A
9.04223097717056;-0.39971923828125;-0.00267333984375;8.51999997848907;853;1 A
9.05223097714531;-0.399749755859375;-0.00267333984375;8.52999997846382;854;1 A
9.06223097712007;-0.399749755859375;-0.00267639160156249;8.53999997843857;855;1 A
9.07223097709482;-0.3997802734375;-0.00267639160156249;8.54999997841333;856;1 A
9.08223097706957;-0.39971923828125;-0.00267333984375;8.55999997838808;857;1 A
9.09223097704432;-0.3997802734375;-0.002685546875;8.56999997836283;858;1 A
9.10223097701908;-0.399688720703125;-0.0026824951171875;8.57999997833758;859;1 A
9.11223097699383;-0.3997802734375;-0.0026885986328125;8.58999997831233;860;1 A
9.12223097696858;-0.399749755859375;-0.002685546875;8.59999997828709;861;1 A
9.13223097694333;-0.399749755859375;-0.0026885986328125;8.60999997826184;862;1 A
9.14223097691809;-0.39971923828125;-0.00269165039062499;8.61999997823659;863;1 A
9.15223097689284;-0.399810791015625;-0.00269165039062499;8.62999997821134;864;1 A
9.16223097686759;-0.39971923828125;-0.002703857421875;8.6399999781861;865;1 A
9.17223097684234;-0.39971923828125;-0.0027008056640625;8.64999997816085;866;1 A
9.1822309768171;-0.39971923828125;-0.00269775390625;8.6599999781356;867;1 A
9.19223097679185;-0.39971923828125;-0.002703857421875;8.66999997811035;868;1 A
9.2022309767666;-0.399688720703125;-0.002703857421875;8.67999997808511;869;1 A
9.21223097674135;-0.39984130859375;-0.0027130126953125;8.68999997805986;870;1 A
9.22223097671611;-0.399749755859375;-0.0027130126953125;8.69999997803461;871;1 A
9.23223097669086;-0.399749755859375;-0.00270690917968749;8.70999997800936;872;1 A
9.24223097666561;-0.3997802734375;-0.002716064453125;8.71999997798412;873;1 A
9.25223097664036;-0.39971923828125;-0.0027130126953125;8.72999997795887;874;1 A
9.26223097661511;-0.3997802734375;-0.002728271484375;8.73999997793362;875;1 A
9.27223097658987;-0.399749755859375;-0.0027191162109375;8.74999997790837;876;1 A
9.28223097656462;-0.399749755859375;-0.0027313232421875;8.75999997788313;877;1 A
9.29223097653937;-0.399749755859375;-0.00273742675781249;8.76999997785788;878;1 A
9.30223097651412;-0.399749755859375;-0.002728271484375;8.77999997783263;879;1 A
9.31223097648888;-0.39971923828125;-0.00273742675781249;8.78999997780738;880;1 A
9.32223097646363;-0.3997802734375;-0.002728271484375;8.79999997778214;881;1 A
9.33223097643838;-0.399749755859375;-0.00273742675781249;8.80999997775689;882;1 A
9.34223097641313;-0.399749755859375;-0.00274047851562501;8.81999997773164;883;1 A
9.35223097638789;-0.3997802734375;-0.00273742675781249;8.82999997770639;884;1 A
9.36223097636264;-0.399749755859375;-0.0027435302734375;8.83999997768115;885;1 A
9.37223097633739;-0.39971923828125;-0.0027435302734375;8.8499999776559;886;1 A
9.38223097631214;-0.39971923828125;-0.00274047851562501;8.85999997763065;887;1 A
9.3922309762869;-0.399658203125;-0.00274658203125;8.8699999776054;888;1 A
9.40223097626165;-0.39971923828125;-0.00274047851562501;8.87999997758016;889;1 A
9.4122309762364;-0.399749755859375;-0.00274658203125;8.88999997755491;890;1 A
9.42223097621115;-0.3997802734375;-0.0027435302734375;8.89999997752966;891;1 A
9.43223097618591;-0.399810791015625;-0.0027496337890625;8.90999997750441;892;1 A
9.44223097616066;-0.3997802734375;-0.00275573730468751;8.91999997747916;893;1 A
9.45223097613541;-0.39971923828125;-0.00275573730468751;8.92999997745392;894;1 A
9.46223097611016;-0.399749755859375;-0.0027618408203125;8.93999997742867;895;1 A
9.47223097608492;-0.399749755859375;-0.0027587890625;8.94999997740342;896;1 A
9.48223097605967;-0.3997802734375;-0.0027618408203125;8.95999997737817;897;1 A
9.49223097603442;-0.39971923828125;-0.00276794433593749;8.96999997735293;898;1 A
9.50223097600917;-0.39984130859375;-0.00276794433593749;8.97999997732768;899;1 A
9.51223097598393;-0.39971923828125;-0.0027740478515625;8.98999997730243;900;1 A
9.52223097595868;-0.399749755859375;-0.00276794433593749;8.99999997727718;901;1 A
9.53223097593343;-0.3997802734375;-0.00277099609375001;9.00999997725194;902;1 A
9.54223097590818;-0.399749755859375;-0.002777099609375;9.01999997722669;903;1 A
9.55223097588294;-0.399749755859375;-0.00277099609375001;9.02999997720144;904;1 A
9.56223097585769;-0.399688720703125;-0.0027801513671875;9.03999997717619;905;1 A
9.57223097583244;-0.399749755859375;-0.002777099609375;9.04999997715095;906;1 A
9.58223097580719;-0.3997802734375;-0.00277099609375001;9.0599999771257;907;1 A
9.59223097578194;-0.399749755859375;-0.0027801513671875;9.06999997710045;908;1 A
9.6022309757567;-0.399749755859375;-0.002777099609375;9.0799999770752;909;1 A
9.61223097573145;-0.399749755859375;-0.00278625488281251;9.08999997704996;910;1 A
9.6222309757062;-0.3997802734375;-0.0027801513671875;9.09999997702471;911;1 A
9.63223097568095;-0.3997802734375;-0.00278625488281251;9.10999997699946;912;1 A
9.64223097565571;-0.399688720703125;-0.002789306640625;9.11999997697421;913;1 A
9.65223097563046;-0.39971923828125;-0.002789306640625;9.12999997694897;914;1 A
9.66223097560521;-0.399810791015625;-0.0027923583984375;9.13999997692372;915;1 A
9.67223097557996;-0.399749755859375;-0.002789306640625;9.14999997689847;916;1 A
9.68223097555472;-0.399810791015625;-0.0027923583984375;9.15999997687322;917;1 A
9.69223097552947;-0.3997802734375;-0.00279846191406249;9.16999997684798;918;1 A
9.70223097550422;-0.399658203125;-0.0027923583984375;9.17999997682273;919;1 A
9.71223097547897;-0.399749755859375;-0.00280151367187501;9.18999997679748;920;1 A
9.72223097545373;-0.3997802734375;-0.0027923583984375;9.19999997677223;921;1 A
9.73223097542848;-0.399688720703125;-0.00279846191406249;9.20999997674699;922;1 A
9.74223097540323;-0.3997802734375;-0.0028045654296875;9.21999997672174;923;1 A
9.75223097537798;-0.39971923828125;-0.00280151367187501;9.22999997669649;924;1 A
9.76223097535274;-0.399749755859375;-0.0028076171875;9.23999997667124;925;1 A
9.77223097532749;-0.3997802734375;-0.0028045654296875;9.249999976646;926;1 A
9.78223097530224;-0.3997802734375;-0.0028076171875;9.25999997662075;927;1 A
9.79223097527699;-0.399749755859375;-0.00281372070312499;9.2699999765955;928;1 A
9.80223097525175;-0.399749755859375;-0.0028076171875;9.27999997657025;929;1 A
9.8122309752265;-0.39971923828125;-0.00281677246093751;9.289999976545;930;1 A
9.82223097520125;-0.3997802734375;-0.00281372070312499;9.29999997651976;931;1 A
9.832230975176;-0.399749755859375;-0.00281372070312499;9.30999997649451;932;1 A
9.84223097515076;-0.39971923828125;-0.0028228759765625;9.31999997646926;933;1 A
9.85223097512551;-0.399749755859375;-0.00281982421875;9.32999997644401;934;1 A
9.86223097510026;-0.399749755859375;-0.002825927734375;9.33999997641877;935;1 A
9.87223097507501;-0.3997802734375;-0.002825927734375;9.34999997639352;936;1 A
9.88223097504977;-0.399749755859375;-0.00282897949218749;9.35999997636827;937;1 A
9.89223097502452;-0.399749755859375;-0.0028350830078125;9.36999997634302;938;1 A
9.90223097499927;-0.39971923828125;-0.00283203125000001;9.37999997631778;939;1 A
9.91223097497402;-0.39971923828125;-0.00283203125000001;9.38999997629253;940;1 A
9.92223097494877;-0.3997802734375;-0.00282897949218749;9.39999997626728;941;1 A
9.93223097492353;-0.39971923828125;-0.00283203125000001;9.40999997624203;942;1 A
9.94223097489828;-0.3997802734375;-0.0028350830078125;9.41999997621679;943;1 A
9.95223097487303;-0.39971923828125;-0.00283203125000001;9.42999997619154;944;1 A
9.96223097484778;-0.39984130859375;-0.002838134765625;9.43999997616629;945;1 A
9.97223097482254;-0.399810791015625;-0.00282897949218749;9.44999997614104;946;1 A
9.98223097479729;-0.39971923828125;-0.0028350830078125;9.4599999761158;947;1 A
9.99223097477204;-0.3997802734375;-0.002838134765625;9.46999997609055;948;1 A
10.0022309747468;-0.39971923828125;-0.00283203125000001;9.4799999760653;949;1 A
10.0122309747215;-0.399749755859375;-0.0028411865234375;9.48999997604005;950;1 A
10.0222309746963;-0.39971923828125;-0.0028350830078125;9.49999997601481;951;1 A
10.0322309746711;-0.3997802734375;-0.0028411865234375;9.50999997598956;952;1 A
10.0422309746458;-0.3997802734375;-0.00284423828124999;9.51999997596431;953;1 A
10.0522309746206;-0.399749755859375;-0.00284423828124999;9.52999997593906;954;1 A
10.0622309745953;-0.399749755859375;-0.002850341796875;9.53999997591382;955;1 A
10.0722309745701;-0.399749755859375;-0.00284423828124999;9.54999997588857;956;1 A
10.0822309745448;-0.39971923828125;-0.00284423828124999;9.55999997586332;957;1 A
10.0922309745196;-0.399749755859375;-0.00284729003906251;9.56999997583807;958;1 A
10.1022309744943;-0.399749755859375;-0.00284729003906251;9.57999997581283;959;1 A
10.1122309744691;-0.39971923828125;-0.0028533935546875;9.58999997578758;960;1 A
10.1222309744438;-0.399749755859375;-0.00284729003906251;9.59999997576233;961;1 A
10.1322309744186;-0.39971923828125;-0.0028533935546875;9.60999997573708;962;1 A
10.1422309743933;-0.39971923828125;-0.0028564453125;9.61999997571183;963;1 A
10.1522309743681;-0.399749755859375;-0.002850341796875;9.62999997568659;964;1 A
10.1622309743428;-0.39971923828125;-0.00285949707031249;9.63999997566134;965;1 A
10.1722309743176;-0.39971923828125;-0.0028564453125;9.64999997563609;966;1 A
10.1822309742923;-0.399749755859375;-0.0028533935546875;9.65999997561084;967;1 A
10.1922309742671;-0.399688720703125;-0.0028533935546875;9.6699999755856;968;1 A
10.2022309742418;-0.399749755859375;-0.0028564453125;9.67999997556035;969;1 A
10.2122309742166;-0.399749755859375;-0.00286254882812501;9.6899999755351;970;1 A
10.2222309741913;-0.399688720703125;-0.00284729003906251;9.69999997550985;971;1 A
10.2322309741661;-0.399810791015625;-0.00284423828124999;9.70999997548461;972;1 A
10.2422309741409;-0.3997802734375;-0.00284729003906251;9.71999997545936;973;1 A
10.2522309741156;-0.399749755859375;-0.00284423828124999;9.72999997543411;974;1 A
10.2622309740904;-0.399749755859375;-0.0028350830078125;9.73999997540886;975;1 A
10.2722309740651;-0.399749755859375;-0.002825927734375;9.74999997538362;976;1 A
10.2822309740399;-0.3997802734375;-0.002825927734375;9.75999997535837;977;1 A
10.2922309740146;-0.399749755859375;-0.002825927734375;9.76999997533312;978;1 A
10.3022309739894;-0.39971923828125;-0.00281677246093751;9.77999997530787;979;1 A
10.3122309739641;-0.399688720703125;-0.0028228759765625;9.78999997528263;980;1 A
10.3222309739389;-0.3997802734375;-0.00281372070312499;9.79999997525738;981;1 A
10.3322309739136;-0.39971923828125;-0.00281372070312499;9.80999997523213;982;1 A
10.3422309738884;-0.39971923828125;-0.00281677246093751;9.81999997520688;983;1 A
10.3522309738631;-0.399810791015625;-0.00281677246093751;9.82999997518164;984;1 A
10.3622309738379;-0.399749755859375;-0.00281982421875;9.83999997515639;985;1 A
10.3722309738126;-0.3997802734375;-0.00281677246093751;9.84999997513114;986;1 A
10.3822309737874;-0.39971923828125;-0.0028106689453125;9.85999997510589;987;1 A
10.3922309737621;-0.399749755859375;-0.0028106689453125;9.86999997508065;988;1 A
10.4022309737369;-0.399749755859375;-0.0028076171875;9.8799999750554;989;1 A
10.4122309737116;-0.399658203125;-0.0028106689453125;9.88999997503015;990;1 A
10.4222309736864;-0.39971923828125;-0.00279846191406249;9.8999999750049;991;1 A
10.4322309736611;-0.399749755859375;-0.00279846191406249;9.90999997497966;992;1 A
10.4422309736359;-0.39971923828125;-0.0028045654296875;9.91999997495441;993;1 A
10.4522309736107;-0.399749755859375;-0.00280151367187501;9.92999997492916;994;1 A
10.4622309735854;-0.399749755859375;-0.0028045654296875;9.93999997490391;995;1 A
10.4722309735602;-0.399688720703125;-0.00280151367187501;9.94999997487866;996;1 A
10.4822309735349;-0.399749755859375;-0.0028045654296875;9.95999997485342;997;1 A
10.4922309735097;-0.399749755859375;-0.0028045654296875;9.96999997482817;998;1 A
10.5022309734844;-0.39971923828125;-0.00279846191406249;9.97999997480292;999;1 A
10.5122309734592;-0.399810791015625;-0.0028045654296875;9.98999997477767;1000;1 A
