Time (s);WE(1).Potential (V);WE(1).Current (A);Corrected time (s);Index;Current range
11.3164259714288;-0.2998046875;-0.00191345214843749;0;1;1 A
11.3264259714035;-0.299774169921875;-0.0021636962890625;0.00999999997475243;2;1 A
11.3364259713783;-0.29986572265625;-0.0022857666015625;0.0199999999495049;3;1 A
11.346425971353;-0.299835205078125;-0.00234375000000001;0.0299999999242573;4;1 A
11.3564259713278;-0.299713134765625;-0.002392578125;0.0399999998990097;5;1 A
11.3664259713025;-0.2998046875;-0.0024261474609375;0.0499999998737621;6;1 A
11.3764259712773;-0.299835205078125;-0.00244750976562499;0.0599999998485146;7;1 A
11.386425971252;-0.2998046875;-0.00247802734374999;0.069999999823267;8;1 A
11.3964259712268;-0.2998046875;-0.002490234375;0.0799999997980194;9;1 A
11.4064259712015;-0.2998046875;-0.0024993896484375;0.0899999997727718;10;1 A
11.4164259711763;-0.299835205078125;-0.0025146484375;0.0999999997475243;11;1 A
11.426425971151;-0.2998046875;-0.0025177001953125;0.109999999722277;12;1 A
11.4364259711258;-0.29986572265625;-0.00253906249999999;0.119999999697029;13;1 A
11.4464259711006;-0.299835205078125;-0.00254211425781251;0.129999999671782;14;1 A
11.4564259710753;-0.299774169921875;-0.00254211425781251;0.139999999646534;15;1 A
11.4664259710501;-0.299774169921875;-0.00255126953125;0.149999999621286;16;1 A
11.4764259710248;-0.29974365234375;-0.00255432128906249;0.159999999596039;17;1 A
11.4864259709996;-0.299835205078125;-0.00256958007812499;0.169999999570791;18;1 A
11.4964259709743;-0.299835205078125;-0.0025604248046875;0.179999999545544;19;1 A
11.5064259709491;-0.2998046875;-0.00257263183593751;0.189999999520296;20;1 A
11.5164259709238;-0.29974365234375;-0.00257568359375;0.199999999495049;21;1 A
11.5264259708986;-0.299774169921875;-0.0025787353515625;0.209999999469801;22;1 A
11.5364259708733;-0.29986572265625;-0.002593994140625;0.219999999444553;23;1 A
11.5464259708481;-0.299774169921875;-0.0025909423828125;0.229999999419306;24;1 A
11.5564259708228;-0.299774169921875;-0.002593994140625;0.239999999394058;25;1 A
11.5664259707976;-0.2998046875;-0.002606201171875;0.249999999368811;26;1 A
11.5764259707723;-0.299835205078125;-0.0025970458984375;0.259999999343563;27;1 A
11.5864259707471;-0.29986572265625;-0.002606201171875;0.269999999318316;28;1 A
11.5964259707218;-0.299835205078125;-0.0025970458984375;0.279999999293068;29;1 A
11.6064259706966;-0.29986572265625;-0.00260314941406251;0.28999999926782;30;1 A
11.6164259706713;-0.299774169921875;-0.002606201171875;0.299999999242573;31;1 A
11.6264259706461;-0.29986572265625;-0.0026092529296875;0.309999999217325;32;1 A
11.6364259706208;-0.299774169921875;-0.00261535644531249;0.319999999192078;33;1 A
11.6464259705956;-0.299835205078125;-0.0026123046875;0.32999999916683;34;1 A
11.6564259705704;-0.2998046875;-0.0026123046875;0.339999999141583;35;1 A
11.6664259705451;-0.2998046875;-0.00261840820312501;0.349999999116335;36;1 A
11.6764259705199;-0.2998046875;-0.00261840820312501;0.359999999091087;37;1 A
11.6864259704946;-0.2998046875;-0.00262451171875;0.36999999906584;38;1 A
11.6964259704694;-0.299774169921875;-0.00262451171875;0.379999999040592;39;1 A
11.7064259704441;-0.29986572265625;-0.00262451171875;0.389999999015345;40;1 A
11.7164259704189;-0.2998046875;-0.00263366699218751;0.399999998990097;41;1 A
11.7264259703936;-0.2998046875;-0.00262451171875;0.40999999896485;42;1 A
11.7364259703684;-0.299835205078125;-0.00263061523437499;0.419999998939602;43;1 A
11.7464259703431;-0.29986572265625;-0.00262451171875;0.429999998914354;44;1 A
11.7564259703179;-0.2998046875;-0.00263061523437499;0.439999998889107;45;1 A
11.7664259702926;-0.2998046875;-0.00263671875;0.449999998863859;46;1 A
11.7764259702674;-0.299774169921875;-0.00263366699218751;0.459999998838612;47;1 A
11.7864259702421;-0.29986572265625;-0.0026397705078125;0.469999998813364;48;1 A
11.7964259702169;-0.2998046875;-0.00263671875;0.479999998788116;49;1 A
11.8064259701916;-0.2998046875;-0.00263366699218751;0.489999998762869;50;1 A
11.8164259701664;-0.2998046875;-0.00263366699218751;0.499999998737621;51;1 A
11.8264259701411;-0.299774169921875;-0.0026275634765625;0.509999998712374;52;1 A
11.8364259701159;-0.29986572265625;-0.00263061523437499;0.519999998687126;53;1 A
11.8464259700906;-0.299835205078125;-0.0026275634765625;0.529999998661879;54;1 A
11.8564259700654;-0.2998046875;-0.0026214599609375;0.539999998636631;55;1 A
11.8664259700402;-0.299835205078125;-0.00262451171875;0.549999998611383;56;1 A
11.8764259700149;-0.2998046875;-0.00261840820312501;0.559999998586136;57;1 A
11.8864259699897;-0.299774169921875;-0.00262451171875;0.569999998560888;58;1 A
11.8964259699644;-0.2998046875;-0.00261535644531249;0.579999998535641;59;1 A
11.9064259699392;-0.299835205078125;-0.0026214599609375;0.589999998510393;60;1 A
11.9164259699139;-0.299713134765625;-0.0026275634765625;0.599999998485146;61;1 A
11.9264259698887;-0.299774169921875;-0.00262451171875;0.609999998459898;62;1 A
11.9364259698634;-0.29974365234375;-0.0026275634765625;0.61999999843465;63;1 A
11.9464259698382;-0.29986572265625;-0.0026214599609375;0.629999998409403;64;1 A
11.9564259698129;-0.299835205078125;-0.00262451171875;0.639999998384155;65;1 A
11.9664259697877;-0.2998046875;-0.00263366699218751;0.649999998358908;66;1 A
11.9764259697624;-0.299835205078125;-0.0026275634765625;0.65999999833366;67;1 A
11.9864259697372;-0.2998046875;-0.0026397705078125;0.669999998308413;68;1 A
11.9964259697119;-0.299835205078125;-0.0026397705078125;0.679999998283165;69;1 A
12.0064259696867;-0.2998046875;-0.002642822265625;0.689999998257917;70;1 A
12.0164259696614;-0.299835205078125;-0.0026519775390625;0.69999999823267;71;1 A
12.0264259696362;-0.2998046875;-0.00264892578125001;0.709999998207422;72;1 A
12.0364259696109;-0.29986572265625;-0.0026519775390625;0.719999998182175;73;1 A
12.0464259695857;-0.299835205078125;-0.00264587402343749;0.729999998156927;74;1 A
12.0564259695605;-0.299774169921875;-0.0026519775390625;0.73999999813168;75;1 A
12.0664259695352;-0.299835205078125;-0.002655029296875;0.749999998106432;76;1 A
12.07642596951;-0.2998046875;-0.0026519775390625;0.759999998081184;77;1 A
12.0864259694847;-0.2998046875;-0.00266113281249999;0.769999998055937;78;1 A
12.0964259694595;-0.2998046875;-0.0026519775390625;0.779999998030689;79;1 A
12.1064259694342;-0.29974365234375;-0.002655029296875;0.789999998005442;80;1 A
12.116425969409;-0.29986572265625;-0.0026580810546875;0.799999997980194;81;1 A
12.1264259693837;-0.299835205078125;-0.00264892578125001;0.809999997954947;82;1 A
12.1364259693585;-0.29974365234375;-0.002655029296875;0.819999997929699;83;1 A
12.1464259693332;-0.299835205078125;-0.00264587402343749;0.829999997904451;84;1 A
12.156425969308;-0.299835205078125;-0.00264587402343749;0.839999997879204;85;1 A
12.1664259692827;-0.29986572265625;-0.00264892578125001;0.849999997853956;86;1 A
12.1764259692575;-0.2998046875;-0.0026397705078125;0.859999997828709;87;1 A
12.1864259692322;-0.2998046875;-0.002642822265625;0.869999997803461;88;1 A
12.196425969207;-0.2998046875;-0.00263671875;0.879999997778214;89;1 A
12.2064259691817;-0.2998046875;-0.00263671875;0.889999997752966;90;1 A
12.2164259691565;-0.2998046875;-0.00263671875;0.899999997727718;91;1 A
12.2264259691312;-0.2998046875;-0.00263671875;0.909999997702471;92;1 A
12.236425969106;-0.29986572265625;-0.0026397705078125;0.919999997677223;93;1 A
12.2464259690807;-0.299835205078125;-0.00263366699218751;0.929999997651976;94;1 A
12.2564259690555;-0.2998046875;-0.00263366699218751;0.939999997626728;95;1 A
12.2664259690303;-0.2998046875;-0.0026397705078125;0.949999997601481;96;1 A
12.276425969005;-0.2998046875;-0.0026397705078125;0.959999997576233;97;1 A
12.2864259689798;-0.299835205078125;-0.0026397705078125;0.969999997550985;98;1 A
12.2964259689545;-0.29974365234375;-0.00263366699218751;0.979999997525738;99;1 A
12.3064259689293;-0.29986572265625;-0.00263366699218751;0.98999999750049;100;1 A
12.316425968904;-0.29986572265625;-0.00263671875;0.999999997475243;101;1 A
12.3264259688788;-0.299774169921875;-0.00263061523437499;1.00999999745;102;1 A
12.3364259688535;-0.29986572265625;-0.00263366699218751;1.01999999742475;103;1 A
12.3464259688283;-0.299774169921875;-0.0026275634765625;1.0299999973995;104;1 A
12.356425968803;-0.299835205078125;-0.00262451171875;1.03999999737425;105;1 A
12.3664259687778;-0.2998046875;-0.0026275634765625;1.049999997349;106;1 A
12.3764259687525;-0.299835205078125;-0.00262451171875;1.05999999732376;107;1 A
12.3864259687273;-0.299774169921875;-0.00263061523437499;1.06999999729851;108;1 A
12.396425968702;-0.2998046875;-0.0026214599609375;1.07999999727326;109;1 A
12.4064259686768;-0.299835205078125;-0.00261840820312501;1.08999999724801;110;1 A
12.4164259686515;-0.2998046875;-0.0026214599609375;1.09999999722277;111;1 A
12.4264259686263;-0.2998046875;-0.00261535644531249;1.10999999719752;112;1 A
12.436425968601;-0.2998046875;-0.0026214599609375;1.11999999717227;113;1 A
12.4464259685758;-0.299896240234375;-0.0026123046875;1.12999999714702;114;1 A
12.4564259685505;-0.299835205078125;-0.00261535644531249;1.13999999712178;115;1 A
12.4664259685253;-0.299774169921875;-0.00261840820312501;1.14999999709653;116;1 A
12.4764259685001;-0.29986572265625;-0.00261535644531249;1.15999999707128;117;1 A
12.4864259684748;-0.2998046875;-0.00261840820312501;1.16999999704603;118;1 A
12.4964259684496;-0.299835205078125;-0.0026092529296875;1.17999999702079;119;1 A
12.5064259684243;-0.2998046875;-0.0026123046875;1.18999999699554;120;1 A
12.5164259683991;-0.2998046875;-0.0026092529296875;1.19999999697029;121;1 A
12.5264259683738;-0.29986572265625;-0.00260314941406251;1.20999999694504;122;1 A
12.5364259683486;-0.299774169921875;-0.0026092529296875;1.2199999969198;123;1 A
12.5464259683233;-0.299774169921875;-0.00260314941406251;1.22999999689455;124;1 A
12.5564259682981;-0.2998046875;-0.00260009765624999;1.2399999968693;125;1 A
12.5664259682728;-0.2998046875;-0.002606201171875;1.24999999684405;126;1 A
12.5764259682476;-0.2998046875;-0.00260314941406251;1.25999999681881;127;1 A
12.5864259682223;-0.299774169921875;-0.002606201171875;1.26999999679356;128;1 A
12.5964259681971;-0.299774169921875;-0.0025970458984375;1.27999999676831;129;1 A
12.6064259681718;-0.299835205078125;-0.00260314941406251;1.28999999674306;130;1 A
12.6164259681466;-0.2998046875;-0.002606201171875;1.29999999671782;131;1 A
12.6264259681213;-0.2998046875;-0.00260314941406251;1.30999999669257;132;1 A
12.6364259680961;-0.29986572265625;-0.0026092529296875;1.31999999666732;133;1 A
12.6464259680708;-0.2998046875;-0.00260009765624999;1.32999999664207;134;1 A
12.6564259680456;-0.2998046875;-0.00260009765624999;1.33999999661683;135;1 A
12.6664259680203;-0.29986572265625;-0.00260314941406251;1.34999999659158;136;1 A
12.6764259679951;-0.2998046875;-0.0025970458984375;1.35999999656633;137;1 A
12.6864259679699;-0.299774169921875;-0.00260314941406251;1.36999999654108;138;1 A
12.6964259679446;-0.29986572265625;-0.002593994140625;1.37999999651583;139;1 A
12.7064259679194;-0.2998046875;-0.00260009765624999;1.38999999649059;140;1 A
12.7164259678941;-0.2998046875;-0.0025970458984375;1.39999999646534;141;1 A
12.7264259678689;-0.299774169921875;-0.0025909423828125;1.40999999644009;142;1 A
12.7364259678436;-0.299835205078125;-0.0025970458984375;1.41999999641484;143;1 A
12.7464259678184;-0.29986572265625;-0.0025909423828125;1.4299999963896;144;1 A
12.7564259677931;-0.2998046875;-0.0025970458984375;1.43999999636435;145;1 A
12.7664259677679;-0.299774169921875;-0.00260314941406251;1.4499999963391;146;1 A
12.7764259677426;-0.299774169921875;-0.00260009765624999;1.45999999631385;147;1 A
12.7864259677174;-0.2998046875;-0.0026092529296875;1.46999999628861;148;1 A
12.7964259676921;-0.29986572265625;-0.00260314941406251;1.47999999626336;149;1 A
12.8064259676669;-0.299835205078125;-0.0026092529296875;1.48999999623811;150;1 A
12.8164259676416;-0.2998046875;-0.0026092529296875;1.49999999621286;151;1 A
12.8264259676164;-0.299835205078125;-0.0026092529296875;1.50999999618762;152;1 A
12.8364259675911;-0.299835205078125;-0.00261840820312501;1.51999999616237;153;1 A
12.8464259675659;-0.299835205078125;-0.00261535644531249;1.52999999613712;154;1 A
12.8564259675406;-0.2998046875;-0.0026123046875;1.53999999611187;155;1 A
12.8664259675154;-0.2998046875;-0.00261840820312501;1.54999999608663;156;1 A
12.8764259674901;-0.2998046875;-0.0026214599609375;1.55999999606138;157;1 A
12.8864259674649;-0.2998046875;-0.0026275634765625;1.56999999603613;158;1 A
12.8964259674397;-0.299835205078125;-0.0026214599609375;1.57999999601088;159;1 A
12.9064259674144;-0.2998046875;-0.00262451171875;1.58999999598564;160;1 A
12.9164259673892;-0.29986572265625;-0.00262451171875;1.59999999596039;161;1 A
12.9264259673639;-0.29974365234375;-0.0026214599609375;1.60999999593514;162;1 A
12.9364259673387;-0.29986572265625;-0.00262451171875;1.61999999590989;163;1 A
12.9464259673134;-0.2998046875;-0.00261840820312501;1.62999999588465;164;1 A
12.9564259672882;-0.299774169921875;-0.00261840820312501;1.6399999958594;165;1 A
12.9664259672629;-0.2998046875;-0.0026214599609375;1.64999999583415;166;1 A
12.9764259672377;-0.29986572265625;-0.00261535644531249;1.6599999958089;167;1 A
12.9864259672124;-0.2998046875;-0.00261840820312501;1.66999999578366;168;1 A
12.9964259671872;-0.29986572265625;-0.00261535644531249;1.67999999575841;169;1 A
13.0064259671619;-0.2998046875;-0.0026123046875;1.68999999573316;170;1 A
13.0164259671367;-0.299835205078125;-0.0026092529296875;1.69999999570791;171;1 A
13.0264259671114;-0.299774169921875;-0.00260314941406251;1.70999999568267;172;1 A
13.0364259670862;-0.299835205078125;-0.00260314941406251;1.71999999565742;173;1 A
13.0464259670609;-0.29986572265625;-0.0025970458984375;1.72999999563217;174;1 A
13.0564259670357;-0.299835205078125;-0.0025970458984375;1.73999999560692;175;1 A
13.0664259670104;-0.29986572265625;-0.0025970458984375;1.74999999558167;176;1 A
13.0764259669852;-0.299835205078125;-0.00258789062500001;1.75999999555643;177;1 A
13.08642596696;-0.299774169921875;-0.0025909423828125;1.76999999553118;178;1 A
13.0964259669347;-0.29986572265625;-0.00258483886718749;1.77999999550593;179;1 A
13.1064259669095;-0.299835205078125;-0.00258483886718749;1.78999999548068;180;1 A
13.1164259668842;-0.2998046875;-0.00258483886718749;1.79999999545544;181;1 A
13.126425966859;-0.2998046875;-0.002581787109375;1.80999999543019;182;1 A
13.1364259668337;-0.299835205078125;-0.00258483886718749;1.81999999540494;183;1 A
13.1464259668085;-0.29986572265625;-0.002581787109375;1.82999999537969;184;1 A
13.1564259667832;-0.2998046875;-0.002581787109375;1.83999999535445;185;1 A
13.166425966758;-0.2998046875;-0.00258789062500001;1.8499999953292;186;1 A
13.1764259667327;-0.2998046875;-0.002581787109375;1.85999999530395;187;1 A
13.1864259667075;-0.29986572265625;-0.00258789062500001;1.8699999952787;188;1 A
13.1964259666822;-0.299835205078125;-0.0025909423828125;1.87999999525346;189;1 A
13.206425966657;-0.299835205078125;-0.00258789062500001;1.88999999522821;190;1 A
13.2164259666317;-0.2998046875;-0.002593994140625;1.89999999520296;191;1 A
13.2264259666065;-0.299835205078125;-0.0025909423828125;1.90999999517771;192;1 A
13.2364259665812;-0.299713134765625;-0.00260009765624999;1.91999999515247;193;1 A
13.246425966556;-0.2998046875;-0.002593994140625;1.92999999512722;194;1 A
13.2564259665307;-0.299835205078125;-0.002593994140625;1.93999999510197;195;1 A
13.2664259665055;-0.2998046875;-0.0025970458984375;1.94999999507672;196;1 A
13.2764259664802;-0.2998046875;-0.002593994140625;1.95999999505148;197;1 A
13.286425966455;-0.29974365234375;-0.002593994140625;1.96999999502623;198;1 A
13.2964259664298;-0.2998046875;-0.002581787109375;1.97999999500098;199;1 A
13.3064259664045;-0.299835205078125;-0.0025787353515625;1.98999999497573;200;1 A
13.3164259663793;-0.2998046875;-0.002581787109375;1.99999999495049;201;1 A
13.326425966354;-0.299713134765625;-0.00257568359375;2.00999999492524;202;1 A
13.3364259663288;-0.299774169921875;-0.002581787109375;2.01999999489999;203;1 A
13.3464259663035;-0.29986572265625;-0.00257263183593751;2.02999999487474;204;1 A
13.3564259662783;-0.2998046875;-0.002581787109375;2.0399999948495;205;1 A
13.366425966253;-0.2998046875;-0.002581787109375;2.04999999482425;206;1 A
13.3764259662278;-0.299835205078125;-0.0025787353515625;2.059999994799;207;1 A
13.3864259662025;-0.299774169921875;-0.00258789062500001;2.06999999477375;208;1 A
13.3964259661773;-0.299835205078125;-0.002581787109375;2.0799999947485;209;1 A
13.406425966152;-0.299835205078125;-0.00258483886718749;2.08999999472326;210;1 A
13.4164259661268;-0.2998046875;-0.00258483886718749;2.09999999469801;211;1 A
13.4264259661015;-0.299774169921875;-0.00258483886718749;2.10999999467276;212;1 A
13.4364259660763;-0.2998046875;-0.0025909423828125;2.11999999464751;213;1 A
13.446425966051;-0.299835205078125;-0.00258789062500001;2.12999999462227;214;1 A
13.4564259660258;-0.29986572265625;-0.00258789062500001;2.13999999459702;215;1 A
13.4664259660005;-0.299774169921875;-0.0025909423828125;2.14999999457177;216;1 A
13.4764259659753;-0.299774169921875;-0.0025909423828125;2.15999999454652;217;1 A
13.48642596595;-0.299835205078125;-0.0025909423828125;2.16999999452128;218;1 A
13.4964259659248;-0.29974365234375;-0.00258483886718749;2.17999999449603;219;1 A
13.5064259658996;-0.299835205078125;-0.00258483886718749;2.18999999447078;220;1 A
13.5164259658743;-0.29986572265625;-0.0025909423828125;2.19999999444553;221;1 A
13.5264259658491;-0.299774169921875;-0.0025787353515625;2.20999999442029;222;1 A
13.5364259658238;-0.299774169921875;-0.00258483886718749;2.21999999439504;223;1 A
13.5464259657986;-0.299896240234375;-0.002581787109375;2.22999999436979;224;1 A
13.5564259657733;-0.2998046875;-0.00258789062500001;2.23999999434454;225;1 A
13.5664259657481;-0.2998046875;-0.0025909423828125;2.2499999943193;226;1 A
13.5764259657228;-0.2998046875;-0.002593994140625;2.25999999429405;227;1 A
13.5864259656976;-0.2998046875;-0.00260009765624999;2.2699999942688;228;1 A
13.5964259656723;-0.2998046875;-0.00260314941406251;2.27999999424355;229;1 A
13.6064259656471;-0.299835205078125;-0.00260314941406251;2.28999999421831;230;1 A
13.6164259656218;-0.299835205078125;-0.0026123046875;2.29999999419306;231;1 A
13.6264259655966;-0.2998046875;-0.0026123046875;2.30999999416781;232;1 A
13.6364259655713;-0.29974365234375;-0.00262451171875;2.31999999414256;233;1 A
13.6464259655461;-0.2998046875;-0.0026214599609375;2.32999999411732;234;1 A
13.6564259655208;-0.299835205078125;-0.00262451171875;2.33999999409207;235;1 A
13.6664259654956;-0.2998046875;-0.00263061523437499;2.34999999406682;236;1 A
13.6764259654703;-0.299774169921875;-0.00263061523437499;2.35999999404157;237;1 A
13.6864259654451;-0.299774169921875;-0.002642822265625;2.36999999401633;238;1 A
13.6964259654198;-0.29986572265625;-0.0026397705078125;2.37999999399108;239;1 A
13.7064259653946;-0.2998046875;-0.002642822265625;2.38999999396583;240;1 A
13.7164259653694;-0.29986572265625;-0.002655029296875;2.39999999394058;241;1 A
13.7264259653441;-0.2998046875;-0.0026519775390625;2.40999999391533;242;1 A
13.7364259653189;-0.29986572265625;-0.0026580810546875;2.41999999389009;243;1 A
13.7464259652936;-0.2998046875;-0.0026580810546875;2.42999999386484;244;1 A
13.7564259652684;-0.2998046875;-0.0026580810546875;2.43999999383959;245;1 A
13.7664259652431;-0.299835205078125;-0.0026702880859375;2.44999999381434;246;1 A
13.7764259652179;-0.29974365234375;-0.0026702880859375;2.4599999937891;247;1 A
13.7864259651926;-0.2998046875;-0.0026824951171875;2.46999999376385;248;1 A
13.7964259651674;-0.29974365234375;-0.00267639160156249;2.4799999937386;249;1 A
13.8064259651421;-0.299835205078125;-0.0026824951171875;2.48999999371335;250;1 A
13.8164259651169;-0.29986572265625;-0.0026885986328125;2.49999999368811;251;1 A
13.8264259650916;-0.299774169921875;-0.00269165039062499;2.50999999366286;252;1 A
13.8364259650664;-0.2998046875;-0.00270690917968749;2.51999999363761;253;1 A
13.8464259650411;-0.2998046875;-0.00270690917968749;2.52999999361236;254;1 A
13.8564259650159;-0.299835205078125;-0.00270996093750001;2.53999999358712;255;1 A
13.8664259649906;-0.29986572265625;-0.0027191162109375;2.54999999356187;256;1 A
13.8764259649654;-0.299835205078125;-0.0027191162109375;2.55999999353662;257;1 A
13.8864259649401;-0.299774169921875;-0.00273742675781249;2.56999999351137;258;1 A
13.8964259649149;-0.299835205078125;-0.002734375;2.57999999348613;259;1 A
13.9064259648896;-0.2998046875;-0.00274047851562501;2.58999999346088;260;1 A
13.9164259648644;-0.299774169921875;-0.00274658203125;2.59999999343563;261;1 A
13.9264259648392;-0.29986572265625;-0.0027496337890625;2.60999999341038;262;1 A
13.9364259648139;-0.2998046875;-0.0027618408203125;2.61999999338514;263;1 A
13.9464259647887;-0.299774169921875;-0.0027618408203125;2.62999999335989;264;1 A
13.9564259647634;-0.29986572265625;-0.00276794433593749;2.63999999333464;265;1 A
13.9664259647382;-0.299835205078125;-0.0027801513671875;2.64999999330939;266;1 A
13.9764259647129;-0.299835205078125;-0.002777099609375;2.65999999328415;267;1 A
13.9864259646877;-0.299835205078125;-0.002789306640625;2.6699999932589;268;1 A
13.9964259646624;-0.299835205078125;-0.0027923583984375;2.67999999323365;269;1 A
14.0064259646372;-0.2998046875;-0.00279846191406249;2.6899999932084;270;1 A
14.0164259646119;-0.299835205078125;-0.0028076171875;2.69999999318316;271;1 A
14.0264259645867;-0.299835205078125;-0.0028076171875;2.70999999315791;272;1 A
14.0364259645614;-0.29986572265625;-0.00281677246093751;2.71999999313266;273;1 A
14.0464259645362;-0.2998046875;-0.00281372070312499;2.72999999310741;274;1 A
14.0564259645109;-0.299835205078125;-0.00281677246093751;2.73999999308217;275;1 A
14.0664259644857;-0.299835205078125;-0.00282897949218749;2.74999999305692;276;1 A
14.0764259644604;-0.299835205078125;-0.002825927734375;2.75999999303167;277;1 A
14.0864259644352;-0.299774169921875;-0.00283203125000001;2.76999999300642;278;1 A
14.0964259644099;-0.2998046875;-0.002825927734375;2.77999999298117;279;1 A
14.1064259643847;-0.2998046875;-0.00282897949218749;2.78999999295593;280;1 A
14.1164259643595;-0.299835205078125;-0.0028350830078125;2.79999999293068;281;1 A
14.1264259643342;-0.2998046875;-0.0028350830078125;2.80999999290543;282;1 A
14.136425964309;-0.2998046875;-0.002838134765625;2.81999999288018;283;1 A
14.1464259642837;-0.2998046875;-0.002838134765625;2.82999999285494;284;1 A
14.1564259642585;-0.2998046875;-0.0028411865234375;2.83999999282969;285;1 A
14.1664259642332;-0.2998046875;-0.00284729003906251;2.84999999280444;286;1 A
14.176425964208;-0.29986572265625;-0.00284729003906251;2.85999999277919;287;1 A
14.1864259641827;-0.299774169921875;-0.002850341796875;2.86999999275395;288;1 A
14.1964259641575;-0.299774169921875;-0.00284423828124999;2.8799999927287;289;1 A
14.2064259641322;-0.299774169921875;-0.00284423828124999;2.88999999270345;290;1 A
14.216425964107;-0.299774169921875;-0.002850341796875;2.8999999926782;291;1 A
14.2264259640817;-0.2998046875;-0.0028533935546875;2.90999999265296;292;1 A
14.2364259640565;-0.299835205078125;-0.0028564453125;2.91999999262771;293;1 A
14.2464259640312;-0.2998046875;-0.0028533935546875;2.92999999260246;294;1 A
14.256425964006;-0.2998046875;-0.002850341796875;2.93999999257721;295;1 A
14.2664259639807;-0.2998046875;-0.0028533935546875;2.94999999255197;296;1 A
14.2764259639555;-0.299774169921875;-0.0028533935546875;2.95999999252672;297;1 A
14.2864259639302;-0.2998046875;-0.0028564453125;2.96999999250147;298;1 A
14.296425963905;-0.299835205078125;-0.0028533935546875;2.97999999247622;299;1 A
14.3064259638797;-0.299896240234375;-0.0028564453125;2.98999999245098;300;1 A
14.3164259638545;-0.299835205078125;-0.00286254882812501;2.99999999242573;301;1 A
14.3264259638293;-0.2998046875;-0.0028533935546875;3.00999999240048;302;1 A
14.336425963804;-0.29974365234375;-0.00285949707031249;3.01999999237523;303;1 A
14.3464259637788;-0.2998046875;-0.0028564453125;3.02999999234999;304;1 A
14.3564259637535;-0.299774169921875;-0.0028533935546875;3.03999999232474;305;1 A
14.3664259637283;-0.2998046875;-0.00285949707031249;3.04999999229949;306;1 A
14.376425963703;-0.2998046875;-0.0028564453125;3.05999999227424;307;1 A
14.3864259636778;-0.2998046875;-0.00285949707031249;3.069999992249;308;1 A
14.3964259636525;-0.299835205078125;-0.0028564453125;3.07999999222375;309;1 A
14.4064259636273;-0.299896240234375;-0.0028564453125;3.0899999921985;310;1 A
14.416425963602;-0.2998046875;-0.00286254882812501;3.09999999217325;311;1 A
14.4264259635768;-0.299835205078125;-0.00285949707031249;3.109999992148;312;1 A
14.4364259635515;-0.299713134765625;-0.0028717041015625;3.11999999212276;313;1 A
14.4464259635263;-0.2998046875;-0.0028656005859375;3.12999999209751;314;1 A
14.456425963501;-0.2998046875;-0.00286254882812501;3.13999999207226;315;1 A
14.4664259634758;-0.29986572265625;-0.0028717041015625;3.14999999204701;316;1 A
14.4764259634505;-0.29986572265625;-0.00286865234375;3.15999999202177;317;1 A
14.4864259634253;-0.2998046875;-0.00287780761718751;3.16999999199652;318;1 A
14.4964259634;-0.299835205078125;-0.0028717041015625;3.17999999197127;319;1 A
14.5064259633748;-0.299835205078125;-0.00286865234375;3.18999999194602;320;1 A
14.5164259633495;-0.2996826171875;-0.00287475585937499;3.19999999192078;321;1 A
14.5264259633243;-0.29974365234375;-0.0028717041015625;3.20999999189553;322;1 A
14.5364259632991;-0.299835205078125;-0.00287780761718751;3.21999999187028;323;1 A
14.5464259632738;-0.299774169921875;-0.00287475585937499;3.22999999184503;324;1 A
14.5564259632486;-0.299835205078125;-0.0028717041015625;3.23999999181979;325;1 A
14.5664259632233;-0.299774169921875;-0.0028717041015625;3.24999999179454;326;1 A
14.5764259631981;-0.29974365234375;-0.0028411865234375;3.25999999176929;327;1 A
14.5864259631728;-0.2998046875;-0.00287475585937499;3.26999999174404;328;1 A
14.5964259631476;-0.29974365234375;-0.00286865234375;3.2799999917188;329;1 A
14.6064259631223;-0.2998046875;-0.00286865234375;3.28999999169355;330;1 A
14.6164259630971;-0.299774169921875;-0.0028717041015625;3.2999999916683;331;1 A
14.6264259630718;-0.2998046875;-0.0028656005859375;3.30999999164305;332;1 A
14.6364259630466;-0.29974365234375;-0.00286865234375;3.31999999161781;333;1 A
14.6464259630213;-0.29974365234375;-0.00286254882812501;3.32999999159256;334;1 A
14.6564259629961;-0.2998046875;-0.00286254882812501;3.33999999156731;335;1 A
14.6664259629708;-0.299835205078125;-0.0028656005859375;3.34999999154206;336;1 A
14.6764259629456;-0.2998046875;-0.00286254882812501;3.35999999151682;337;1 A
14.6864259629203;-0.299774169921875;-0.00286254882812501;3.36999999149157;338;1 A
14.6964259628951;-0.29986572265625;-0.0028564453125;3.37999999146632;339;1 A
14.7064259628698;-0.29974365234375;-0.0028564453125;3.38999999144107;340;1 A
14.7164259628446;-0.299835205078125;-0.00285949707031249;3.39999999141583;341;1 A
14.7264259628193;-0.299774169921875;-0.0028533935546875;3.40999999139058;342;1 A
14.7364259627941;-0.299713134765625;-0.0028564453125;3.41999999136533;343;1 A
14.7464259627689;-0.299774169921875;-0.0028533935546875;3.42999999134008;344;1 A
14.7564259627436;-0.2998046875;-0.0028533935546875;3.43999999131483;345;1 A
14.7664259627184;-0.299835205078125;-0.0028564453125;3.44999999128959;346;1 A
14.7764259626931;-0.299774169921875;-0.0028533935546875;3.45999999126434;347;1 A
14.7864259626679;-0.299774169921875;-0.00285949707031249;3.46999999123909;348;1 A
14.7964259626426;-0.299835205078125;-0.0028564453125;3.47999999121384;349;1 A
14.8064259626174;-0.299835205078125;-0.0028533935546875;3.4899999911886;350;1 A
14.8164259625921;-0.2998046875;-0.002850341796875;3.49999999116335;351;1 A
14.8264259625669;-0.2998046875;-0.002850341796875;3.5099999911381;352;1 A
14.8364259625416;-0.299835205078125;-0.0028533935546875;3.51999999111285;353;1 A
14.8464259625164;-0.299835205078125;-0.00284729003906251;3.52999999108761;354;1 A
14.8564259624911;-0.2998046875;-0.002838134765625;3.53999999106236;355;1 A
14.8664259624659;-0.299774169921875;-0.00284423828124999;3.54999999103711;356;1 A
14.8764259624406;-0.2998046875;-0.002838134765625;3.55999999101186;357;1 A
14.8864259624154;-0.29986572265625;-0.00284423828124999;3.56999999098662;358;1 A
14.8964259623901;-0.299774169921875;-0.0028411865234375;3.57999999096137;359;1 A
14.9064259623649;-0.2998046875;-0.002838134765625;3.58999999093612;360;1 A
14.9164259623396;-0.299774169921875;-0.0028411865234375;3.59999999091087;361;1 A
14.9264259623144;-0.299835205078125;-0.00283203125000001;3.60999999088563;362;1 A
14.9364259622891;-0.29986572265625;-0.00282897949218749;3.61999999086038;363;1 A
14.9464259622639;-0.2998046875;-0.002825927734375;3.62999999083513;364;1 A
14.9564259622387;-0.299835205078125;-0.00282897949218749;3.63999999080988;365;1 A
14.9664259622134;-0.2998046875;-0.0028350830078125;3.64999999078464;366;1 A
14.9764259621882;-0.299835205078125;-0.0028228759765625;3.65999999075939;367;1 A
14.9864259621629;-0.2998046875;-0.002825927734375;3.66999999073414;368;1 A
14.9964259621377;-0.299835205078125;-0.00281982421875;3.67999999070889;369;1 A
15.0064259621124;-0.2998046875;-0.00281982421875;3.68999999068365;370;1 A
15.0164259620872;-0.29986572265625;-0.0028228759765625;3.6999999906584;371;1 A
15.0264259620619;-0.2998046875;-0.00281982421875;3.70999999063315;372;1 A
15.0364259620367;-0.2998046875;-0.00283203125000001;3.7199999906079;373;1 A
15.0464259620114;-0.299835205078125;-0.0028228759765625;3.72999999058266;374;1 A
15.0564259619862;-0.2998046875;-0.00281982421875;3.73999999055741;375;1 A
15.0664259619609;-0.29986572265625;-0.00283203125000001;3.74999999053216;376;1 A
15.0764259619357;-0.2998046875;-0.00282897949218749;3.75999999050691;377;1 A
15.0864259619104;-0.299774169921875;-0.0028350830078125;3.76999999048167;378;1 A
15.0964259618852;-0.29986572265625;-0.00282897949218749;3.77999999045642;379;1 A
15.1064259618599;-0.299835205078125;-0.00282897949218749;3.78999999043117;380;1 A
15.1164259618347;-0.2998046875;-0.0028350830078125;3.79999999040592;381;1 A
15.1264259618094;-0.29986572265625;-0.00283203125000001;3.80999999038067;382;1 A
15.1364259617842;-0.299774169921875;-0.0028350830078125;3.81999999035543;383;1 A
15.146425961759;-0.299835205078125;-0.00282897949218749;3.82999999033018;384;1 A
15.1564259617337;-0.299835205078125;-0.0028228759765625;3.83999999030493;385;1 A
15.1664259617085;-0.299835205078125;-0.0028228759765625;3.84999999027968;386;1 A
15.1764259616832;-0.29986572265625;-0.0028106689453125;3.85999999025444;387;1 A
15.186425961658;-0.299835205078125;-0.00281677246093751;3.86999999022919;388;1 A
15.1964259616327;-0.2998046875;-0.0028106689453125;3.87999999020394;389;1 A
15.2064259616075;-0.29986572265625;-0.0028076171875;3.88999999017869;390;1 A
15.2164259615822;-0.2998046875;-0.0028076171875;3.89999999015345;391;1 A
15.226425961557;-0.29986572265625;-0.00279846191406249;3.9099999901282;392;1 A
15.2364259615317;-0.299774169921875;-0.0028045654296875;3.91999999010295;393;1 A
15.2464259615065;-0.2998046875;-0.0027923583984375;3.9299999900777;394;1 A
15.2564259614812;-0.299835205078125;-0.0027923583984375;3.93999999005246;395;1 A
15.266425961456;-0.299835205078125;-0.00279541015625;3.94999999002721;396;1 A
15.2764259614307;-0.299835205078125;-0.0027923583984375;3.95999999000196;397;1 A
15.2864259614055;-0.299835205078125;-0.0027923583984375;3.96999998997671;398;1 A
15.2964259613802;-0.299774169921875;-0.00278625488281251;3.97999998995147;399;1 A
15.306425961355;-0.299774169921875;-0.00278320312499999;3.98999998992622;400;1 A
15.3164259613297;-0.299835205078125;-0.00278625488281251;3.99999998990097;401;1 A
15.3264259613045;-0.2998046875;-0.00278320312499999;4.00999998987572;402;1 A
15.3364259612792;-0.2998046875;-0.0027923583984375;4.01999998985048;403;1 A
15.346425961254;-0.2998046875;-0.00278320312499999;4.02999998982523;404;1 A
15.3564259612288;-0.299774169921875;-0.00278320312499999;4.03999998979998;405;1 A
15.3664259612035;-0.299774169921875;-0.00278625488281251;4.04999998977473;406;1 A
15.3764259611783;-0.2998046875;-0.0027801513671875;4.05999998974949;407;1 A
15.386425961153;-0.29974365234375;-0.00278320312499999;4.06999998972424;408;1 A
15.3964259611278;-0.29974365234375;-0.002777099609375;4.07999998969899;409;1 A
15.4064259611025;-0.29986572265625;-0.0027740478515625;4.08999998967374;410;1 A
15.4164259610773;-0.299835205078125;-0.0027740478515625;4.0999999896485;411;1 A
15.426425961052;-0.299835205078125;-0.00277099609375001;4.10999998962325;412;1 A
15.4364259610268;-0.29974365234375;-0.0027740478515625;4.119999989598;413;1 A
15.4464259610015;-0.299774169921875;-0.00276794433593749;4.12999998957275;414;1 A
15.4564259609763;-0.299835205078125;-0.0027618408203125;4.1399999895475;415;1 A
15.466425960951;-0.29986572265625;-0.0027618408203125;4.14999998952226;416;1 A
15.4764259609258;-0.29986572265625;-0.00275573730468751;4.15999998949701;417;1 A
15.4864259609005;-0.299774169921875;-0.0027618408203125;4.16999998947176;418;1 A
15.4964259608753;-0.2998046875;-0.00275268554687499;4.17999998944651;419;1 A
15.50642596085;-0.2998046875;-0.00275573730468751;4.18999998942127;420;1 A
15.5164259608248;-0.29986572265625;-0.0027587890625;4.19999998939602;421;1 A
15.5264259607995;-0.2998046875;-0.0027496337890625;4.20999998937077;422;1 A
15.5364259607743;-0.2998046875;-0.00275573730468751;4.21999998934552;423;1 A
15.546425960749;-0.299774169921875;-0.00275268554687499;4.22999998932028;424;1 A
15.5564259607238;-0.29986572265625;-0.00275268554687499;4.23999998929503;425;1 A
15.5664259606986;-0.299835205078125;-0.00275268554687499;4.24999998926978;426;1 A
15.5764259606733;-0.2998046875;-0.0027496337890625;4.25999998924453;427;1 A
15.5864259606481;-0.29986572265625;-0.0027618408203125;4.26999998921929;428;1 A
15.5964259606228;-0.299835205078125;-0.00275268554687499;4.27999998919404;429;1 A
15.6064259605976;-0.299835205078125;-0.00275573730468751;4.28999998916879;430;1 A
15.6164259605723;-0.2998046875;-0.0027587890625;4.29999998914354;431;1 A
15.6264259605471;-0.299774169921875;-0.00275573730468751;4.3099999891183;432;1 A
15.6364259605218;-0.2998046875;-0.002764892578125;4.31999998909305;433;1 A
15.6464259604966;-0.299835205078125;-0.0027587890625;4.3299999890678;434;1 A
15.6564259604713;-0.299896240234375;-0.0027587890625;4.33999998904255;435;1 A
15.6664259604461;-0.299835205078125;-0.0027618408203125;4.34999998901731;436;1 A
15.6764259604208;-0.299835205078125;-0.0027587890625;4.35999998899206;437;1 A
15.6864259603956;-0.299774169921875;-0.00276794433593749;4.36999998896681;438;1 A
15.6964259603703;-0.299835205078125;-0.0027587890625;4.37999998894156;439;1 A
15.7064259603451;-0.299774169921875;-0.00275573730468751;4.38999998891632;440;1 A
15.7164259603198;-0.2998046875;-0.00275573730468751;4.39999998889107;441;1 A
15.7264259602946;-0.29986572265625;-0.00275268554687499;4.40999998886582;442;1 A
15.7364259602693;-0.29986572265625;-0.00275268554687499;4.41999998884057;443;1 A
15.7464259602441;-0.299774169921875;-0.0027496337890625;4.42999998881533;444;1 A
15.7564259602188;-0.299774169921875;-0.00274658203125;4.43999998879008;445;1 A
15.7664259601936;-0.299774169921875;-0.0027496337890625;4.44999998876483;446;1 A
15.7764259601684;-0.299774169921875;-0.00274658203125;4.45999998873958;447;1 A
15.7864259601431;-0.299774169921875;-0.0027496337890625;4.46999998871433;448;1 A
15.7964259601179;-0.299835205078125;-0.0027496337890625;4.47999998868909;449;1 A
15.8064259600926;-0.299835205078125;-0.00274658203125;4.48999998866384;450;1 A
15.8164259600674;-0.299896240234375;-0.0027496337890625;4.49999998863859;451;1 A
15.8264259600421;-0.29974365234375;-0.00274658203125;4.50999998861334;452;1 A
15.8364259600169;-0.299835205078125;-0.0027496337890625;4.5199999885881;453;1 A
15.8464259599916;-0.29974365234375;-0.00274658203125;4.52999998856285;454;1 A
15.8564259599664;-0.2998046875;-0.0027435302734375;4.5399999885376;455;1 A
15.8664259599411;-0.2998046875;-0.00274658203125;4.54999998851235;456;1 A
15.8764259599159;-0.2998046875;-0.0027435302734375;4.55999998848711;457;1 A
15.8864259598906;-0.2998046875;-0.00274047851562501;4.56999998846186;458;1 A
15.8964259598654;-0.299835205078125;-0.00273742675781249;4.57999998843661;459;1 A
15.9064259598401;-0.299774169921875;-0.00274047851562501;4.58999998841136;460;1 A
15.9164259598149;-0.29986572265625;-0.00274658203125;4.59999998838612;461;1 A
15.9264259597896;-0.2998046875;-0.00273742675781249;4.60999998836087;462;1 A
15.9364259597644;-0.29974365234375;-0.0027435302734375;4.61999998833562;463;1 A
15.9464259597391;-0.299835205078125;-0.002734375;4.62999998831037;464;1 A
15.9564259597139;-0.299774169921875;-0.00274047851562501;4.63999998828513;465;1 A
15.9664259596886;-0.2998046875;-0.00273742675781249;4.64999998825988;466;1 A
15.9764259596634;-0.299835205078125;-0.0027313232421875;4.65999998823463;467;1 A
15.9864259596382;-0.2998046875;-0.00274047851562501;4.66999998820938;468;1 A
15.9964259596129;-0.29986572265625;-0.0027313232421875;4.67999998818414;469;1 A
16.0064259595877;-0.29986572265625;-0.0027313232421875;4.68999998815889;470;1 A
16.0164259595624;-0.299835205078125;-0.002734375;4.69999998813364;471;1 A
16.0264259595372;-0.299835205078125;-0.002728271484375;4.70999998810839;472;1 A
16.0364259595119;-0.299896240234375;-0.002734375;4.71999998808315;473;1 A
16.0464259594867;-0.299835205078125;-0.00272521972656251;4.7299999880579;474;1 A
16.0564259594614;-0.299835205078125;-0.00272216796874999;4.73999998803265;475;1 A
16.0664259594362;-0.2998046875;-0.002728271484375;4.7499999880074;476;1 A
16.0764259594109;-0.29986572265625;-0.00272216796874999;4.75999998798216;477;1 A
16.0864259593857;-0.2998046875;-0.002728271484375;4.76999998795691;478;1 A
16.0964259593604;-0.299835205078125;-0.00272216796874999;4.77999998793166;479;1 A
16.1064259593352;-0.2998046875;-0.00272521972656251;4.78999998790641;480;1 A
16.1164259593099;-0.299774169921875;-0.0027313232421875;4.79999998788116;481;1 A
16.1264259592847;-0.2998046875;-0.00272216796874999;4.80999998785592;482;1 A
16.1364259592594;-0.2998046875;-0.002728271484375;4.81999998783067;483;1 A
16.1464259592342;-0.299835205078125;-0.0027191162109375;4.82999998780542;484;1 A
16.1564259592089;-0.29986572265625;-0.00272216796874999;4.83999998778017;485;1 A
16.1664259591837;-0.299835205078125;-0.00272521972656251;4.84999998775493;486;1 A
16.1764259591585;-0.2998046875;-0.00272216796874999;4.85999998772968;487;1 A
16.1864259591332;-0.299774169921875;-0.002728271484375;4.86999998770443;488;1 A
16.196425959108;-0.299835205078125;-0.00272216796874999;4.87999998767918;489;1 A
16.2064259590827;-0.2998046875;-0.00272216796874999;4.88999998765394;490;1 A
16.2164259590575;-0.2998046875;-0.002728271484375;4.89999998762869;491;1 A
16.2264259590322;-0.299774169921875;-0.00272216796874999;4.90999998760344;492;1 A
16.236425959007;-0.299774169921875;-0.0027313232421875;4.91999998757819;493;1 A
16.2464259589817;-0.2998046875;-0.002728271484375;4.92999998755295;494;1 A
16.2564259589565;-0.299835205078125;-0.002728271484375;4.9399999875277;495;1 A
16.2664259589312;-0.299896240234375;-0.0027313232421875;4.94999998750245;496;1 A
16.276425958906;-0.2998046875;-0.00272521972656251;4.9599999874772;497;1 A
16.2864259588807;-0.299774169921875;-0.0027313232421875;4.96999998745196;498;1 A
16.2964259588555;-0.299896240234375;-0.00272521972656251;4.97999998742671;499;1 A
16.3064259588302;-0.299835205078125;-0.00272216796874999;4.98999998740146;500;1 A
16.316425958805;-0.299835205078125;-0.00272521972656251;4.99999998737621;501;1 A
16.3264259587797;-0.2998046875;-0.0027191162109375;5.00999998735097;502;1 A
16.3364259587545;-0.29974365234375;-0.002728271484375;5.01999998732572;503;1 A
16.3464259587292;-0.29974365234375;-0.00272521972656251;5.02999998730047;504;1 A
16.356425958704;-0.299774169921875;-0.00272521972656251;5.03999998727522;505;1 A
16.3664259586787;-0.2998046875;-0.002728271484375;5.04999998724998;506;1 A
16.3764259586535;-0.2998046875;-0.00272521972656251;5.05999998722473;507;1 A
16.3864259586283;-0.299774169921875;-0.002734375;5.06999998719948;508;1 A
16.396425958603;-0.299774169921875;-0.002734375;5.07999998717423;509;1 A
16.4064259585778;-0.2998046875;-0.002734375;5.08999998714899;510;1 A
16.4164259585525;-0.2998046875;-0.002734375;5.09999998712374;511;1 A
16.4264259585273;-0.2998046875;-0.0027313232421875;5.10999998709849;512;1 A
16.436425958502;-0.2998046875;-0.00274047851562501;5.11999998707324;513;1 A
16.4464259584768;-0.299774169921875;-0.00274047851562501;5.129999987048;514;1 A
16.4564259584515;-0.2998046875;-0.00273742675781249;5.13999998702275;515;1 A
16.4664259584263;-0.29974365234375;-0.00274658203125;5.1499999869975;516;1 A
16.476425958401;-0.2998046875;-0.0027435302734375;5.15999998697225;517;1 A
16.4864259583758;-0.299835205078125;-0.0027496337890625;5.169999986947;518;1 A
16.4964259583505;-0.299774169921875;-0.0027496337890625;5.17999998692176;519;1 A
16.5064259583253;-0.299835205078125;-0.00274658203125;5.18999998689651;520;1 A
16.5164259583;-0.299774169921875;-0.00275268554687499;5.19999998687126;521;1 A
16.5264259582748;-0.2998046875;-0.00275573730468751;5.20999998684601;522;1 A
16.5364259582495;-0.2998046875;-0.00275573730468751;5.21999998682077;523;1 A
16.5464259582243;-0.29986572265625;-0.00275573730468751;5.22999998679552;524;1 A
16.556425958199;-0.2998046875;-0.00275573730468751;5.23999998677027;525;1 A
16.5664259581738;-0.2998046875;-0.0027618408203125;5.24999998674502;526;1 A
16.5764259581485;-0.2998046875;-0.0027618408203125;5.25999998671978;527;1 A
16.5864259581233;-0.2998046875;-0.0027740478515625;5.26999998669453;528;1 A
16.5964259580981;-0.299835205078125;-0.00277099609375001;5.27999998666928;529;1 A
16.6064259580728;-0.299835205078125;-0.0027740478515625;5.28999998664403;530;1 A
16.6164259580476;-0.299774169921875;-0.0027801513671875;5.29999998661879;531;1 A
16.6264259580223;-0.2998046875;-0.002777099609375;5.30999998659354;532;1 A
16.6364259579971;-0.29974365234375;-0.00278625488281251;5.31999998656829;533;1 A
16.6464259579718;-0.2998046875;-0.00278625488281251;5.32999998654304;534;1 A
16.6564259579466;-0.29986572265625;-0.00278625488281251;5.3399999865178;535;1 A
16.6664259579213;-0.2998046875;-0.0027923583984375;5.34999998649255;536;1 A
16.6764259578961;-0.299835205078125;-0.002789306640625;5.3599999864673;537;1 A
16.6864259578708;-0.29974365234375;-0.00279846191406249;5.36999998644205;538;1 A
16.6964259578456;-0.29974365234375;-0.00279541015625;5.37999998641681;539;1 A
16.7064259578203;-0.2998046875;-0.00279846191406249;5.38999998639156;540;1 A
16.7164259577951;-0.2998046875;-0.00280151367187501;5.39999998636631;541;1 A
16.7264259577698;-0.2998046875;-0.00279541015625;5.40999998634106;542;1 A
16.7364259577446;-0.299835205078125;-0.00280151367187501;5.41999998631582;543;1 A
16.7464259577193;-0.299835205078125;-0.0027923583984375;5.42999998629057;544;1 A
16.7564259576941;-0.2998046875;-0.0027923583984375;5.43999998626532;545;1 A
16.7664259576688;-0.29986572265625;-0.00279846191406249;5.44999998624007;546;1 A
16.7764259576436;-0.2998046875;-0.0027923583984375;5.45999998621483;547;1 A
16.7864259576183;-0.299835205078125;-0.00280151367187501;5.46999998618958;548;1 A
16.7964259575931;-0.29986572265625;-0.00279541015625;5.47999998616433;549;1 A
16.8064259575679;-0.299835205078125;-0.0027923583984375;5.48999998613908;550;1 A
16.8164259575426;-0.29986572265625;-0.00279541015625;5.49999998611383;551;1 A
16.8264259575174;-0.299835205078125;-0.0027923583984375;5.50999998608859;552;1 A
16.8364259574921;-0.29974365234375;-0.00280151367187501;5.51999998606334;553;1 A
16.8464259574669;-0.29974365234375;-0.00279846191406249;5.52999998603809;554;1 A
16.8564259574416;-0.299774169921875;-0.00279846191406249;5.53999998601284;555;1 A
16.8664259574164;-0.299774169921875;-0.00280151367187501;5.5499999859876;556;1 A
16.8764259573911;-0.2998046875;-0.00280151367187501;5.55999998596235;557;1 A
16.8864259573659;-0.2998046875;-0.0028045654296875;5.5699999859371;558;1 A
16.8964259573406;-0.299835205078125;-0.00280151367187501;5.57999998591185;559;1 A
16.9064259573154;-0.2998046875;-0.00280151367187501;5.58999998588661;560;1 A
16.9164259572901;-0.299835205078125;-0.00280151367187501;5.59999998586136;561;1 A
16.9264259572649;-0.2998046875;-0.00280151367187501;5.60999998583611;562;1 A
16.9364259572396;-0.299774169921875;-0.00281372070312499;5.61999998581086;563;1 A
16.9464259572144;-0.299896240234375;-0.0028045654296875;5.62999998578562;564;1 A
16.9564259571891;-0.299774169921875;-0.00280151367187501;5.63999998576037;565;1 A
16.9664259571639;-0.299774169921875;-0.00280151367187501;5.64999998573512;566;1 A
16.9764259571386;-0.299835205078125;-0.00279846191406249;5.65999998570987;567;1 A
16.9864259571134;-0.299835205078125;-0.0028076171875;5.66999998568463;568;1 A
16.9964259570881;-0.299774169921875;-0.0028045654296875;5.67999998565938;569;1 A
17.0064259570629;-0.299835205078125;-0.00280151367187501;5.68999998563413;570;1 A
17.0164259570377;-0.2998046875;-0.0028045654296875;5.69999998560888;571;1 A
17.0264259570124;-0.2998046875;-0.00280151367187501;5.70999998558364;572;1 A
17.0364259569872;-0.299774169921875;-0.00280151367187501;5.71999998555839;573;1 A
17.0464259569619;-0.2998046875;-0.0028045654296875;5.72999998553314;574;1 A
17.0564259569367;-0.299835205078125;-0.00279541015625;5.73999998550789;575;1 A
17.0664259569114;-0.299835205078125;-0.0028045654296875;5.74999998548265;576;1 A
17.0764259568862;-0.299774169921875;-0.0028045654296875;5.7599999854574;577;1 A
17.0864259568609;-0.299835205078125;-0.0028076171875;5.76999998543215;578;1 A
17.0964259568357;-0.2998046875;-0.00280151367187501;5.7799999854069;579;1 A
17.1064259568104;-0.29986572265625;-0.00280151367187501;5.78999998538166;580;1 A
17.1164259567852;-0.299835205078125;-0.00280151367187501;5.79999998535641;581;1 A
17.1264259567599;-0.299835205078125;-0.00280151367187501;5.80999998533116;582;1 A
17.1364259567347;-0.299774169921875;-0.0028045654296875;5.81999998530591;583;1 A
17.1464259567094;-0.299774169921875;-0.0028045654296875;5.82999998528066;584;1 A
17.1564259566842;-0.299774169921875;-0.00280151367187501;5.83999998525542;585;1 A
17.1664259566589;-0.29986572265625;-0.0028106689453125;5.84999998523017;586;1 A
17.1764259566337;-0.2998046875;-0.0028045654296875;5.85999998520492;587;1 A
17.1864259566084;-0.2998046875;-0.0028106689453125;5.86999998517967;588;1 A
17.1964259565832;-0.29986572265625;-0.00281372070312499;5.87999998515443;589;1 A
17.206425956558;-0.2998046875;-0.0028106689453125;5.88999998512918;590;1 A
17.2164259565327;-0.29998779296875;-0.00281372070312499;5.89999998510393;591;1 A
17.2264259565075;-0.29986572265625;-0.0028106689453125;5.90999998507868;592;1 A
17.2364259564822;-0.29986572265625;-0.00281677246093751;5.91999998505344;593;1 A
17.246425956457;-0.299713134765625;-0.00281982421875;5.92999998502819;594;1 A
17.2564259564317;-0.2998046875;-0.00281677246093751;5.93999998500294;595;1 A
17.2664259564065;-0.299835205078125;-0.00281677246093751;5.94999998497769;596;1 A
17.2764259563812;-0.2998046875;-0.00281372070312499;5.95999998495245;597;1 A
17.286425956356;-0.299835205078125;-0.00281982421875;5.9699999849272;598;1 A
17.2964259563307;-0.2999267578125;-0.00281677246093751;5.97999998490195;599;1 A
17.3064259563055;-0.2998046875;-0.00281372070312499;5.9899999848767;600;1 A
17.3164259562802;-0.299896240234375;-0.00281982421875;5.99999998485146;601;1 A
17.326425956255;-0.299835205078125;-0.0028076171875;6.00999998482621;602;1 A
17.3364259562297;-0.29986572265625;-0.0028106689453125;6.01999998480096;603;1 A
17.3464259562045;-0.299774169921875;-0.0028045654296875;6.02999998477571;604;1 A
17.3564259561792;-0.299835205078125;-0.00279541015625;6.03999998475047;605;1 A
17.366425956154;-0.299896240234375;-0.00279846191406249;6.04999998472522;606;1 A
17.3764259561287;-0.299774169921875;-0.0027923583984375;6.05999998469997;607;1 A
17.3864259561035;-0.2998046875;-0.00280151367187501;6.06999998467472;608;1 A
17.3964259560782;-0.29974365234375;-0.00279846191406249;6.07999998464948;609;1 A
17.406425956053;-0.299835205078125;-0.00279541015625;6.08999998462423;610;1 A
17.4164259560278;-0.299774169921875;-0.00279846191406249;6.09999998459898;611;1 A
17.4264259560025;-0.299835205078125;-0.0027923583984375;6.10999998457373;612;1 A
17.4364259559773;-0.299835205078125;-0.00280151367187501;6.11999998454849;613;1 A
17.446425955952;-0.2998046875;-0.00279846191406249;6.12999998452324;614;1 A
17.4564259559268;-0.29998779296875;-0.0027923583984375;6.13999998449799;615;1 A
17.4664259559015;-0.2998046875;-0.00279846191406249;6.14999998447274;616;1 A
17.4764259558763;-0.299835205078125;-0.00279541015625;6.1599999844475;617;1 A
17.486425955851;-0.29974365234375;-0.00279846191406249;6.16999998442225;618;1 A
17.4964259558258;-0.299774169921875;-0.00279541015625;6.179999984397;619;1 A
17.5064259558005;-0.299774169921875;-0.00279541015625;6.18999998437175;620;1 A
17.5164259557753;-0.299774169921875;-0.00280151367187501;6.1999999843465;621;1 A
17.52642595575;-0.2998046875;-0.00279541015625;6.20999998432126;622;1 A
17.5364259557248;-0.299835205078125;-0.00280151367187501;6.21999998429601;623;1 A
17.5464259556995;-0.29974365234375;-0.002789306640625;6.22999998427076;624;1 A
17.5564259556743;-0.29986572265625;-0.0027923583984375;6.23999998424551;625;1 A
17.566425955649;-0.299835205078125;-0.0027923583984375;6.24999998422027;626;1 A
17.5764259556238;-0.299835205078125;-0.00278625488281251;6.25999998419502;627;1 A
17.5864259555985;-0.299774169921875;-0.00278625488281251;6.26999998416977;628;1 A
17.5964259555733;-0.299774169921875;-0.00278320312499999;6.27999998414452;629;1 A
17.606425955548;-0.299835205078125;-0.002777099609375;6.28999998411928;630;1 A
17.6164259555228;-0.2998046875;-0.0027801513671875;6.29999998409403;631;1 A
17.6264259554976;-0.29986572265625;-0.0027740478515625;6.30999998406878;632;1 A
17.6364259554723;-0.2998046875;-0.0027740478515625;6.31999998404353;633;1 A
17.6464259554471;-0.299835205078125;-0.00277099609375001;6.32999998401829;634;1 A
17.6564259554218;-0.299835205078125;-0.00276794433593749;6.33999998399304;635;1 A
17.6664259553966;-0.29986572265625;-0.00276794433593749;6.34999998396779;636;1 A
17.6764259553713;-0.2998046875;-0.00276794433593749;6.35999998394254;637;1 A
17.6864259553461;-0.299835205078125;-0.0027740478515625;6.3699999839173;638;1 A
17.6964259553208;-0.2998046875;-0.0027740478515625;6.37999998389205;639;1 A
17.7064259552956;-0.299774169921875;-0.00276794433593749;6.3899999838668;640;1 A
17.7164259552703;-0.2998046875;-0.0027740478515625;6.39999998384155;641;1 A
17.7264259552451;-0.2998046875;-0.0027740478515625;6.40999998381631;642;1 A
17.7364259552198;-0.2998046875;-0.0027801513671875;6.41999998379106;643;1 A
17.7464259551946;-0.2998046875;-0.0027801513671875;6.42999998376581;644;1 A
17.7564259551693;-0.2998046875;-0.0027740478515625;6.43999998374056;645;1 A
17.7664259551441;-0.299835205078125;-0.0027801513671875;6.44999998371532;646;1 A
17.7764259551188;-0.299774169921875;-0.00277099609375001;6.45999998369007;647;1 A
17.7864259550936;-0.2998046875;-0.0027801513671875;6.46999998366482;648;1 A
17.7964259550683;-0.299774169921875;-0.0027801513671875;6.47999998363957;649;1 A
17.8064259550431;-0.29986572265625;-0.0027740478515625;6.48999998361433;650;1 A
17.8164259550178;-0.299835205078125;-0.0027740478515625;6.49999998358908;651;1 A
17.8264259549926;-0.299835205078125;-0.002764892578125;6.50999998356383;652;1 A
17.8364259549674;-0.299774169921875;-0.00276794433593749;6.51999998353858;653;1 A
17.8464259549421;-0.2998046875;-0.00276794433593749;6.52999998351333;654;1 A
17.8564259549169;-0.29986572265625;-0.0027587890625;6.53999998348809;655;1 A
17.8664259548916;-0.2998046875;-0.0027587890625;6.54999998346284;656;1 A
17.8764259548664;-0.2998046875;-0.00274658203125;6.55999998343759;657;1 A
17.8864259548411;-0.2998046875;-0.00275573730468751;6.56999998341234;658;1 A
17.8964259548159;-0.29974365234375;-0.00275573730468751;6.5799999833871;659;1 A
17.9064259547906;-0.29986572265625;-0.0027496337890625;6.58999998336185;660;1 A
17.9164259547654;-0.299835205078125;-0.0027496337890625;6.5999999833366;661;1 A
17.9264259547401;-0.299835205078125;-0.0027435302734375;6.60999998331135;662;1 A
17.9364259547149;-0.299896240234375;-0.0027435302734375;6.61999998328611;663;1 A
17.9464259546896;-0.2998046875;-0.00274047851562501;6.62999998326086;664;1 A
17.9564259546644;-0.2998046875;-0.0027435302734375;6.63999998323561;665;1 A
17.9664259546391;-0.299835205078125;-0.00275268554687499;6.64999998321036;666;1 A
17.9764259546139;-0.299835205078125;-0.0027435302734375;6.65999998318512;667;1 A
17.9864259545886;-0.299835205078125;-0.00275268554687499;6.66999998315987;668;1 A
17.9964259545634;-0.299835205078125;-0.00275268554687499;6.67999998313462;669;1 A
18.0064259545381;-0.29986572265625;-0.00274658203125;6.68999998310937;670;1 A
18.0164259545129;-0.299835205078125;-0.00275268554687499;6.69999998308413;671;1 A
18.0264259544876;-0.299774169921875;-0.0027496337890625;6.70999998305888;672;1 A
18.0364259544624;-0.299774169921875;-0.0027587890625;6.71999998303363;673;1 A
18.0464259544372;-0.299835205078125;-0.00275268554687499;6.72999998300838;674;1 A
18.0564259544119;-0.2998046875;-0.00275268554687499;6.73999998298314;675;1 A
18.0664259543867;-0.299835205078125;-0.00275573730468751;6.74999998295789;676;1 A
18.0764259543614;-0.2998046875;-0.00275573730468751;6.75999998293264;677;1 A
18.0864259543362;-0.299835205078125;-0.00275573730468751;6.76999998290739;678;1 A
18.0964259543109;-0.299835205078125;-0.0027496337890625;6.77999998288215;679;1 A
18.1064259542857;-0.2998046875;-0.00274658203125;6.7899999828569;680;1 A
18.1164259542604;-0.2998046875;-0.0027435302734375;6.79999998283165;681;1 A
18.1264259542352;-0.299835205078125;-0.00273742675781249;6.8099999828064;682;1 A
18.1364259542099;-0.29974365234375;-0.00273742675781249;6.81999998278116;683;1 A
18.1464259541847;-0.299835205078125;-0.002728271484375;6.82999998275591;684;1 A
18.1564259541594;-0.299835205078125;-0.00272216796874999;6.83999998273066;685;1 A
18.1664259541342;-0.299835205078125;-0.002716064453125;6.84999998270541;686;1 A
18.1764259541089;-0.299774169921875;-0.0027130126953125;6.85999998268016;687;1 A
18.1864259540837;-0.2998046875;-0.00270690917968749;6.86999998265492;688;1 A
18.1964259540584;-0.2998046875;-0.0027008056640625;6.87999998262967;689;1 A
18.2064259540332;-0.2998046875;-0.0026885986328125;6.88999998260442;690;1 A
18.2164259540079;-0.29986572265625;-0.0026824951171875;6.89999998257917;691;1 A
18.2264259539827;-0.299835205078125;-0.00267639160156249;6.90999998255393;692;1 A
18.2364259539575;-0.299835205078125;-0.00267333984375;6.91999998252868;693;1 A
18.2464259539322;-0.2998046875;-0.002667236328125;6.92999998250343;694;1 A
18.256425953907;-0.29986572265625;-0.00266418457031251;6.93999998247818;695;1 A
18.2664259538817;-0.299774169921875;-0.002667236328125;6.94999998245294;696;1 A
18.2764259538565;-0.2998046875;-0.0026580810546875;6.95999998242769;697;1 A
18.2864259538312;-0.299774169921875;-0.0026580810546875;6.96999998240244;698;1 A
18.296425953806;-0.2996826171875;-0.0026580810546875;6.97999998237719;699;1 A
18.3064259537807;-0.2998046875;-0.00264587402343749;6.98999998235195;700;1 A
18.3164259537555;-0.2998046875;-0.00264587402343749;6.9999999823267;701;1 A
18.3264259537302;-0.299774169921875;-0.00263671875;7.00999998230145;702;1 A
18.336425953705;-0.2998046875;-0.002642822265625;7.0199999822762;703;1 A
18.3464259536797;-0.299835205078125;-0.0026397705078125;7.02999998225096;704;1 A
18.3564259536545;-0.29974365234375;-0.00263061523437499;7.03999998222571;705;1 A
18.3664259536292;-0.2998046875;-0.00263671875;7.04999998220046;706;1 A
18.376425953604;-0.2998046875;-0.00263061523437499;7.05999998217521;707;1 A
18.3864259535787;-0.299774169921875;-0.00263366699218751;7.06999998214997;708;1 A
18.3964259535535;-0.299835205078125;-0.00263366699218751;7.07999998212472;709;1 A
18.4064259535282;-0.299835205078125;-0.0026275634765625;7.08999998209947;710;1 A
18.416425953503;-0.29974365234375;-0.00263671875;7.09999998207422;711;1 A
18.4264259534777;-0.29986572265625;-0.0026214599609375;7.10999998204898;712;1 A
18.4364259534525;-0.299774169921875;-0.0026275634765625;7.11999998202373;713;1 A
18.4464259534273;-0.2998046875;-0.00262451171875;7.12999998199848;714;1 A
18.456425953402;-0.299835205078125;-0.0026123046875;7.13999998197323;715;1 A
18.4664259533768;-0.299774169921875;-0.00261840820312501;7.14999998194799;716;1 A
18.4764259533515;-0.29986572265625;-0.0026092529296875;7.15999998192274;717;1 A
18.4864259533263;-0.2998046875;-0.0026123046875;7.16999998189749;718;1 A
18.496425953301;-0.2998046875;-0.00260314941406251;7.17999998187224;719;1 A
18.5064259532758;-0.299835205078125;-0.00260009765624999;7.189999981847;720;1 A
18.5164259532505;-0.299774169921875;-0.002606201171875;7.19999998182175;721;1 A
18.5264259532253;-0.299774169921875;-0.002593994140625;7.2099999817965;722;1 A
18.5364259532;-0.299713134765625;-0.00260009765624999;7.21999998177125;723;1 A
18.5464259531748;-0.2998046875;-0.0025909423828125;7.229999981746;724;1 A
18.5564259531495;-0.299835205078125;-0.0025909423828125;7.23999998172076;725;1 A
18.5664259531243;-0.2998046875;-0.002593994140625;7.24999998169551;726;1 A
18.576425953099;-0.2998046875;-0.0025909423828125;7.25999998167026;727;1 A
18.5864259530738;-0.2998046875;-0.002593994140625;7.26999998164501;728;1 A
18.5964259530485;-0.299835205078125;-0.002593994140625;7.27999998161977;729;1 A
18.6064259530233;-0.299774169921875;-0.0025909423828125;7.28999998159452;730;1 A
18.616425952998;-0.2998046875;-0.002593994140625;7.29999998156927;731;1 A
18.6264259529728;-0.2998046875;-0.0025909423828125;7.30999998154402;732;1 A
18.6364259529475;-0.2998046875;-0.00260009765624999;7.31999998151878;733;1 A
18.6464259529223;-0.299835205078125;-0.00260009765624999;7.32999998149353;734;1 A
18.6564259528971;-0.29974365234375;-0.002606201171875;7.33999998146828;735;1 A
18.6664259528718;-0.299835205078125;-0.00260314941406251;7.34999998144303;736;1 A
18.6764259528466;-0.29974365234375;-0.002593994140625;7.35999998141779;737;1 A
18.6864259528213;-0.2998046875;-0.002606201171875;7.36999998139254;738;1 A
18.6964259527961;-0.29986572265625;-0.00260009765624999;7.37999998136729;739;1 A
18.7064259527708;-0.299835205078125;-0.0025970458984375;7.38999998134204;740;1 A
18.7164259527456;-0.2998046875;-0.00260314941406251;7.3999999813168;741;1 A
18.7264259527203;-0.299835205078125;-0.0025970458984375;7.40999998129155;742;1 A
18.7364259526951;-0.299774169921875;-0.00260314941406251;7.4199999812663;743;1 A
18.7464259526698;-0.299835205078125;-0.0025970458984375;7.42999998124105;744;1 A
18.7564259526446;-0.299774169921875;-0.00260009765624999;7.43999998121581;745;1 A
18.7664259526193;-0.299774169921875;-0.00260009765624999;7.44999998119056;746;1 A
18.7764259525941;-0.29974365234375;-0.0025970458984375;7.45999998116531;747;1 A
18.7864259525688;-0.29974365234375;-0.002593994140625;7.46999998114006;748;1 A
18.7964259525436;-0.29986572265625;-0.0025970458984375;7.47999998111482;749;1 A
18.8064259525183;-0.29986572265625;-0.0025909423828125;7.48999998108957;750;1 A
18.8164259524931;-0.29986572265625;-0.0025970458984375;7.49999998106432;751;1 A
18.8264259524678;-0.299774169921875;-0.0025909423828125;7.50999998103907;752;1 A
18.8364259524426;-0.299774169921875;-0.002593994140625;7.51999998101383;753;1 A
18.8464259524173;-0.299835205078125;-0.0025909423828125;7.52999998098858;754;1 A
18.8564259523921;-0.2998046875;-0.0025909423828125;7.53999998096333;755;1 A
18.8664259523669;-0.299835205078125;-0.00260009765624999;7.54999998093808;756;1 A
18.8764259523416;-0.299774169921875;-0.00260314941406251;7.55999998091283;757;1 A
18.8864259523164;-0.29986572265625;-0.0026092529296875;7.56999998088759;758;1 A
18.8964259522911;-0.2996826171875;-0.00261535644531249;7.57999998086234;759;1 A
18.9064259522659;-0.299774169921875;-0.0026092529296875;7.58999998083709;760;1 A
18.9164259522406;-0.29974365234375;-0.00261535644531249;7.59999998081184;761;1 A
18.9264259522154;-0.299774169921875;-0.00261535644531249;7.6099999807866;762;1 A
18.9364259521901;-0.2998046875;-0.0026214599609375;7.61999998076135;763;1 A
18.9464259521649;-0.299774169921875;-0.00261840820312501;7.6299999807361;764;1 A
18.9564259521396;-0.29974365234375;-0.0026214599609375;7.63999998071085;765;1 A
18.9664259521144;-0.2998046875;-0.0026275634765625;7.64999998068561;766;1 A
18.9764259520891;-0.299774169921875;-0.0026214599609375;7.65999998066036;767;1 A
18.9864259520639;-0.29986572265625;-0.00262451171875;7.66999998063511;768;1 A
18.9964259520386;-0.299774169921875;-0.0026275634765625;7.67999998060986;769;1 A
19.0064259520134;-0.2998046875;-0.00262451171875;7.68999998058462;770;1 A
19.0164259519881;-0.2998046875;-0.00263061523437499;7.69999998055937;771;1 A
19.0264259519629;-0.29974365234375;-0.00262451171875;7.70999998053412;772;1 A
19.0364259519376;-0.299774169921875;-0.00263366699218751;7.71999998050887;773;1 A
19.0464259519124;-0.299835205078125;-0.00263061523437499;7.72999998048363;774;1 A
19.0564259518871;-0.2998046875;-0.0026275634765625;7.73999998045838;775;1 A
19.0664259518619;-0.299774169921875;-0.00263366699218751;7.74999998043313;776;1 A
19.0764259518367;-0.2998046875;-0.00263061523437499;7.75999998040788;777;1 A
19.0864259518114;-0.29974365234375;-0.00263671875;7.76999998038264;778;1 A
19.0964259517862;-0.2998046875;-0.00263671875;7.77999998035739;779;1 A
19.1064259517609;-0.299774169921875;-0.00263366699218751;7.78999998033214;780;1 A
19.1164259517357;-0.299774169921875;-0.00264587402343749;7.79999998030689;781;1 A
19.1264259517104;-0.299835205078125;-0.0026397705078125;7.80999998028165;782;1 A
19.1364259516852;-0.29974365234375;-0.00264587402343749;7.8199999802564;783;1 A
19.1464259516599;-0.299835205078125;-0.00264587402343749;7.82999998023115;784;1 A
19.1564259516347;-0.2998046875;-0.00264587402343749;7.8399999802059;785;1 A
19.1664259516094;-0.2998046875;-0.00264587402343749;7.84999998018066;786;1 A
19.1764259515842;-0.299835205078125;-0.002642822265625;7.85999998015541;787;1 A
19.1864259515589;-0.2998046875;-0.0026519775390625;7.86999998013016;788;1 A
19.1964259515337;-0.299774169921875;-0.0026519775390625;7.87999998010491;789;1 A
19.2064259515084;-0.2998046875;-0.00264587402343749;7.88999998007966;790;1 A
19.2164259514832;-0.2998046875;-0.00264892578125001;7.89999998005442;791;1 A
19.2264259514579;-0.299774169921875;-0.0026519775390625;7.90999998002917;792;1 A
19.2364259514327;-0.29986572265625;-0.00266418457031251;7.91999998000392;793;1 A
19.2464259514074;-0.299774169921875;-0.0026580810546875;7.92999997997867;794;1 A
19.2564259513822;-0.29974365234375;-0.00266113281249999;7.93999997995343;795;1 A
19.266425951357;-0.2998046875;-0.00266418457031251;7.94999997992818;796;1 A
19.2764259513317;-0.299835205078125;-0.00266113281249999;7.95999997990293;797;1 A
19.2864259513065;-0.2998046875;-0.00266418457031251;7.96999997987768;798;1 A
19.2964259512812;-0.299835205078125;-0.00266113281249999;7.97999997985244;799;1 A
19.306425951256;-0.2998046875;-0.0026580810546875;7.98999997982719;800;1 A
19.3164259512307;-0.29974365234375;-0.00266418457031251;7.99999997980194;801;1 A
19.3264259512055;-0.2998046875;-0.00266418457031251;8.00999997977669;802;1 A
19.3364259511802;-0.299835205078125;-0.00267333984375;8.01999997975145;803;1 A
19.346425951155;-0.299774169921875;-0.002667236328125;8.0299999797262;804;1 A
19.3564259511297;-0.299774169921875;-0.00267639160156249;8.03999997970095;805;1 A
19.3664259511045;-0.299774169921875;-0.00267333984375;8.0499999796757;806;1 A
19.3764259510792;-0.29986572265625;-0.00266418457031251;8.05999997965046;807;1 A
19.386425951054;-0.299713134765625;-0.0026702880859375;8.06999997962521;808;1 A
19.3964259510287;-0.299835205078125;-0.0026702880859375;8.07999997959996;809;1 A
19.4064259510035;-0.299774169921875;-0.002667236328125;8.08999997957471;810;1 A
19.4164259509782;-0.299774169921875;-0.00267333984375;8.09999997954947;811;1 A
19.426425950953;-0.299835205078125;-0.002667236328125;8.10999997952422;812;1 A
19.4364259509277;-0.299713134765625;-0.00267639160156249;8.11999997949897;813;1 A
19.4464259509025;-0.2998046875;-0.00267333984375;8.12999997947372;814;1 A
19.4564259508772;-0.299774169921875;-0.00267639160156249;8.13999997944848;815;1 A
19.466425950852;-0.2998046875;-0.002685546875;8.14999997942323;816;1 A
19.4764259508268;-0.29986572265625;-0.0026885986328125;8.15999997939798;817;1 A
19.4864259508015;-0.299835205078125;-0.0026885986328125;8.16999997937273;818;1 A
19.4964259507763;-0.299835205078125;-0.0026885986328125;8.17999997934749;819;1 A
19.506425950751;-0.299835205078125;-0.00269165039062499;8.18999997932224;820;1 A
19.5164259507258;-0.299835205078125;-0.00269165039062499;8.19999997929699;821;1 A
19.5264259507005;-0.299774169921875;-0.0026885986328125;8.20999997927174;822;1 A
19.5364259506753;-0.299835205078125;-0.0027008056640625;8.2199999792465;823;1 A
19.54642595065;-0.299774169921875;-0.00269470214843751;8.22999997922125;824;1 A
19.5564259506248;-0.29974365234375;-0.00269470214843751;8.239999979196;825;1 A
19.5664259505995;-0.2998046875;-0.002703857421875;8.24999997917075;826;1 A
19.5764259505743;-0.2998046875;-0.0027008056640625;8.2599999791455;827;1 A
19.586425950549;-0.299835205078125;-0.002703857421875;8.26999997912026;828;1 A
19.5964259505238;-0.2998046875;-0.00270690917968749;8.27999997909501;829;1 A
19.6064259504985;-0.299835205078125;-0.0027008056640625;8.28999997906976;830;1 A
19.6164259504733;-0.29986572265625;-0.0027008056640625;8.29999997904451;831;1 A
19.626425950448;-0.299774169921875;-0.0027008056640625;8.30999997901927;832;1 A
19.6364259504228;-0.29986572265625;-0.002703857421875;8.31999997899402;833;1 A
19.6464259503975;-0.299835205078125;-0.00269775390625;8.32999997896877;834;1 A
19.6564259503723;-0.2998046875;-0.00269165039062499;8.33999997894352;835;1 A
19.666425950347;-0.2998046875;-0.00269165039062499;8.34999997891828;836;1 A
19.6764259503218;-0.299713134765625;-0.0026885986328125;8.35999997889303;837;1 A
19.6864259502966;-0.299774169921875;-0.00269470214843751;8.36999997886778;838;1 A
19.6964259502713;-0.299835205078125;-0.00269165039062499;8.37999997884253;839;1 A
19.7064259502461;-0.299774169921875;-0.00269165039062499;8.38999997881729;840;1 A
19.7164259502208;-0.299774169921875;-0.00269775390625;8.39999997879204;841;1 A
19.7264259501956;-0.29986572265625;-0.002685546875;8.40999997876679;842;1 A
19.7364259501703;-0.299774169921875;-0.00269165039062499;8.41999997874154;843;1 A
19.7464259501451;-0.2998046875;-0.00269470214843751;8.4299999787163;844;1 A
19.7564259501198;-0.29986572265625;-0.00269775390625;8.43999997869105;845;1 A
19.7664259500946;-0.299774169921875;-0.0027008056640625;8.4499999786658;846;1 A
19.7764259500693;-0.2998046875;-0.00269775390625;8.45999997864055;847;1 A
19.7864259500441;-0.2998046875;-0.00270690917968749;8.46999997861531;848;1 A
19.7964259500188;-0.2998046875;-0.00270690917968749;8.47999997859006;849;1 A
19.8064259499936;-0.29986572265625;-0.0027008056640625;8.48999997856481;850;1 A
19.8164259499683;-0.2999267578125;-0.0027130126953125;8.49999997853956;851;1 A
19.8264259499431;-0.299774169921875;-0.00270690917968749;8.50999997851432;852;1 A
19.8364259499178;-0.2998046875;-0.0027130126953125;8.51999997848907;853;1 A
19.8464259498926;-0.2998046875;-0.0027130126953125;8.52999997846382;854;1 A
19.8564259498673;-0.29986572265625;-0.00270690917968749;8.53999997843857;855;1 A
19.8664259498421;-0.299835205078125;-0.0027130126953125;8.54999997841333;856;1 A
19.8764259498168;-0.29974365234375;-0.00270996093750001;8.55999997838808;857;1 A
19.8864259497916;-0.299835205078125;-0.0027130126953125;8.56999997836283;858;1 A
19.8964259497664;-0.2998046875;-0.0027130126953125;8.57999997833758;859;1 A
19.9064259497411;-0.299774169921875;-0.00270996093750001;8.58999997831233;860;1 A
19.9164259497159;-0.299774169921875;-0.00270690917968749;8.59999997828709;861;1 A
19.9264259496906;-0.299774169921875;-0.002703857421875;8.60999997826184;862;1 A
19.9364259496654;-0.29974365234375;-0.0027130126953125;8.61999997823659;863;1 A
19.9464259496401;-0.299774169921875;-0.0027130126953125;8.62999997821134;864;1 A
19.9564259496149;-0.29986572265625;-0.0027130126953125;8.6399999781861;865;1 A
19.9664259495896;-0.299774169921875;-0.0027130126953125;8.64999997816085;866;1 A
19.9764259495644;-0.299835205078125;-0.00270996093750001;8.6599999781356;867;1 A
19.9864259495391;-0.299835205078125;-0.00272521972656251;8.66999997811035;868;1 A
19.9964259495139;-0.2998046875;-0.00272521972656251;8.67999997808511;869;1 A
20.0064259494886;-0.299835205078125;-0.00272216796874999;8.68999997805986;870;1 A
20.0164259494634;-0.29974365234375;-0.00272216796874999;8.69999997803461;871;1 A
20.0264259494381;-0.2998046875;-0.0027130126953125;8.70999997800936;872;1 A
20.0364259494129;-0.2998046875;-0.0027130126953125;8.71999997798412;873;1 A
20.0464259493876;-0.299774169921875;-0.002716064453125;8.72999997795887;874;1 A
20.0564259493624;-0.299774169921875;-0.00272521972656251;8.73999997793362;875;1 A
20.0664259493371;-0.2998046875;-0.00272216796874999;8.74999997790837;876;1 A
20.0764259493119;-0.2998046875;-0.0027191162109375;8.75999997788313;877;1 A
20.0864259492866;-0.2998046875;-0.0027191162109375;8.76999997785788;878;1 A
20.0964259492614;-0.299835205078125;-0.00270996093750001;8.77999997783263;879;1 A
20.1064259492362;-0.299835205078125;-0.00270996093750001;8.78999997780738;880;1 A
20.1164259492109;-0.299774169921875;-0.0027130126953125;8.79999997778214;881;1 A
20.1264259491857;-0.299835205078125;-0.00270690917968749;8.80999997775689;882;1 A
20.1364259491604;-0.2998046875;-0.00270996093750001;8.81999997773164;883;1 A
20.1464259491352;-0.29974365234375;-0.002703857421875;8.82999997770639;884;1 A
20.1564259491099;-0.29986572265625;-0.00269775390625;8.83999997768115;885;1 A
20.1664259490847;-0.299774169921875;-0.0027008056640625;8.8499999776559;886;1 A
20.1764259490594;-0.29986572265625;-0.00269165039062499;8.85999997763065;887;1 A
20.1864259490342;-0.299835205078125;-0.00269470214843751;8.8699999776054;888;1 A
20.1964259490089;-0.2998046875;-0.00269470214843751;8.87999997758016;889;1 A
20.2064259489837;-0.299835205078125;-0.002685546875;8.88999997755491;890;1 A
20.2164259489584;-0.2998046875;-0.002685546875;8.89999997752966;891;1 A
20.2264259489332;-0.299835205078125;-0.0026824951171875;8.90999997750441;892;1 A
20.2364259489079;-0.29986572265625;-0.00269165039062499;8.91999997747916;893;1 A
20.2464259488827;-0.2998046875;-0.002685546875;8.92999997745392;894;1 A
20.2564259488574;-0.299835205078125;-0.00267944335937501;8.93999997742867;895;1 A
20.2664259488322;-0.2998046875;-0.0026824951171875;8.94999997740342;896;1 A
20.2764259488069;-0.29986572265625;-0.00267333984375;8.95999997737817;897;1 A
20.2864259487817;-0.2998046875;-0.002685546875;8.96999997735293;898;1 A
20.2964259487565;-0.299835205078125;-0.002685546875;8.97999997732768;899;1 A
20.3064259487312;-0.299774169921875;-0.00267944335937501;8.98999997730243;900;1 A
20.316425948706;-0.299774169921875;-0.0026885986328125;8.99999997727718;901;1 A
20.3264259486807;-0.2998046875;-0.0026824951171875;9.00999997725194;902;1 A
20.3364259486555;-0.2998046875;-0.0026885986328125;9.01999997722669;903;1 A
20.3464259486302;-0.29986572265625;-0.00269165039062499;9.02999997720144;904;1 A
20.356425948605;-0.29986572265625;-0.00269470214843751;9.03999997717619;905;1 A
20.3664259485797;-0.299774169921875;-0.00269775390625;9.04999997715095;906;1 A
20.3764259485545;-0.29986572265625;-0.00269775390625;9.0599999771257;907;1 A
20.3864259485292;-0.29986572265625;-0.002703857421875;9.06999997710045;908;1 A
20.396425948504;-0.2998046875;-0.00269775390625;9.0799999770752;909;1 A
20.4064259484787;-0.2998046875;-0.002703857421875;9.08999997704996;910;1 A
20.4164259484535;-0.2996826171875;-0.00270690917968749;9.09999997702471;911;1 A
20.4264259484282;-0.29986572265625;-0.0027008056640625;9.10999997699946;912;1 A
20.436425948403;-0.29986572265625;-0.0027130126953125;9.11999997697421;913;1 A
20.4464259483777;-0.299835205078125;-0.00270996093750001;9.12999997694897;914;1 A
20.4564259483525;-0.299835205078125;-0.00270690917968749;9.13999997692372;915;1 A
20.4664259483272;-0.299835205078125;-0.00270996093750001;9.14999997689847;916;1 A
20.476425948302;-0.29974365234375;-0.00270690917968749;9.15999997687322;917;1 A
20.4864259482767;-0.2998046875;-0.0027130126953125;9.16999997684798;918;1 A
20.4964259482515;-0.2998046875;-0.00270690917968749;9.17999997682273;919;1 A
20.5064259482263;-0.299774169921875;-0.002703857421875;9.18999997679748;920;1 A
20.516425948201;-0.29986572265625;-0.002703857421875;9.19999997677223;921;1 A
20.5264259481758;-0.299835205078125;-0.002703857421875;9.20999997674699;922;1 A
20.5364259481505;-0.299896240234375;-0.0027130126953125;9.21999997672174;923;1 A
20.5464259481253;-0.29974365234375;-0.002716064453125;9.22999997669649;924;1 A
20.5564259481;-0.299774169921875;-0.002716064453125;9.23999997667124;925;1 A
20.5664259480748;-0.299774169921875;-0.0027191162109375;9.249999976646;926;1 A
20.5764259480495;-0.299835205078125;-0.00272521972656251;9.25999997662075;927;1 A
20.5864259480243;-0.2998046875;-0.002728271484375;9.2699999765955;928;1 A
20.596425947999;-0.299896240234375;-0.002734375;9.27999997657025;929;1 A
20.6064259479738;-0.299774169921875;-0.0027435302734375;9.289999976545;930;1 A
20.6164259479485;-0.299774169921875;-0.0027435302734375;9.29999997651976;931;1 A
20.6264259479233;-0.2998046875;-0.00274047851562501;9.30999997649451;932;1 A
20.636425947898;-0.29986572265625;-0.00274658203125;9.31999997646926;933;1 A
20.6464259478728;-0.299835205078125;-0.00275268554687499;9.32999997644401;934;1 A
20.6564259478475;-0.299713134765625;-0.00275268554687499;9.33999997641877;935;1 A
20.6664259478223;-0.2998046875;-0.00275268554687499;9.34999997639352;936;1 A
20.676425947797;-0.2998046875;-0.0027496337890625;9.35999997636827;937;1 A
20.6864259477718;-0.299835205078125;-0.0027496337890625;9.36999997634302;938;1 A
20.6964259477465;-0.299835205078125;-0.0027496337890625;9.37999997631778;939;1 A
20.7064259477213;-0.299774169921875;-0.00274047851562501;9.38999997629253;940;1 A
20.7164259476961;-0.299835205078125;-0.00274658203125;9.39999997626728;941;1 A
20.7264259476708;-0.299835205078125;-0.00274047851562501;9.40999997624203;942;1 A
20.7364259476456;-0.299835205078125;-0.0027435302734375;9.41999997621679;943;1 A
20.7464259476203;-0.2998046875;-0.00273742675781249;9.42999997619154;944;1 A
20.7564259475951;-0.299896240234375;-0.0027313232421875;9.43999997616629;945;1 A
20.7664259475698;-0.299774169921875;-0.0027435302734375;9.44999997614104;946;1 A
20.7764259475446;-0.29974365234375;-0.00274047851562501;9.4599999761158;947;1 A
20.7864259475193;-0.29986572265625;-0.0027435302734375;9.46999997609055;948;1 A
20.7964259474941;-0.299835205078125;-0.00274658203125;9.4799999760653;949;1 A
20.8064259474688;-0.29974365234375;-0.00273742675781249;9.48999997604005;950;1 A
20.8164259474436;-0.299774169921875;-0.00274047851562501;9.49999997601481;951;1 A
20.8264259474183;-0.299774169921875;-0.002734375;9.50999997598956;952;1 A
20.8364259473931;-0.29986572265625;-0.0027435302734375;9.51999997596431;953;1 A
20.8464259473678;-0.299835205078125;-0.0027435302734375;9.52999997593906;954;1 A
20.8564259473426;-0.2998046875;-0.00273742675781249;9.53999997591382;955;1 A
20.8664259473173;-0.29986572265625;-0.00274047851562501;9.54999997588857;956;1 A
20.8764259472921;-0.299835205078125;-0.002734375;9.55999997586332;957;1 A
20.8864259472668;-0.299896240234375;-0.00273742675781249;9.56999997583807;958;1 A
20.8964259472416;-0.29974365234375;-0.00274047851562501;9.57999997581283;959;1 A
20.9064259472163;-0.299774169921875;-0.0027313232421875;9.58999997578758;960;1 A
20.9164259471911;-0.2998046875;-0.00273742675781249;9.59999997576233;961;1 A
20.9264259471659;-0.299835205078125;-0.002728271484375;9.60999997573708;962;1 A
20.9364259471406;-0.299835205078125;-0.0027313232421875;9.61999997571183;963;1 A
20.9464259471154;-0.2998046875;-0.0027313232421875;9.62999997568659;964;1 A
20.9564259470901;-0.2998046875;-0.00272521972656251;9.63999997566134;965;1 A
20.9664259470649;-0.2998046875;-0.002728271484375;9.64999997563609;966;1 A
20.9764259470396;-0.2998046875;-0.0027191162109375;9.65999997561084;967;1 A
20.9864259470144;-0.299835205078125;-0.00272216796874999;9.6699999755856;968;1 A
20.9964259469891;-0.29986572265625;-0.00270996093750001;9.67999997556035;969;1 A
21.0064259469639;-0.299835205078125;-0.00270690917968749;9.6899999755351;970;1 A
21.0164259469386;-0.299774169921875;-0.00270996093750001;9.69999997550985;971;1 A
21.0264259469134;-0.2998046875;-0.0027008056640625;9.70999997548461;972;1 A
21.0364259468881;-0.2998046875;-0.00270690917968749;9.71999997545936;973;1 A
21.0464259468629;-0.2998046875;-0.00269775390625;9.72999997543411;974;1 A
21.0564259468376;-0.299774169921875;-0.00269165039062499;9.73999997540886;975;1 A
21.0664259468124;-0.2998046875;-0.0026885986328125;9.74999997538362;976;1 A
21.0764259467871;-0.2998046875;-0.00267944335937501;9.75999997535837;977;1 A
21.0864259467619;-0.2998046875;-0.0026885986328125;9.76999997533312;978;1 A
21.0964259467366;-0.299774169921875;-0.0026824951171875;9.77999997530787;979;1 A
21.1064259467114;-0.299835205078125;-0.00267944335937501;9.78999997528263;980;1 A
21.1164259466861;-0.2998046875;-0.00267944335937501;9.79999997525738;981;1 A
21.1264259466609;-0.2998046875;-0.00267333984375;9.80999997523213;982;1 A
21.1364259466357;-0.299774169921875;-0.00267639160156249;9.81999997520688;983;1 A
21.1464259466104;-0.2998046875;-0.00267333984375;9.82999997518164;984;1 A
21.1564259465852;-0.2998046875;-0.0026702880859375;9.83999997515639;985;1 A
21.1664259465599;-0.2998046875;-0.0026702880859375;9.84999997513114;986;1 A
21.1764259465347;-0.2998046875;-0.002667236328125;9.85999997510589;987;1 A
21.1864259465094;-0.29986572265625;-0.0026702880859375;9.86999997508065;988;1 A
21.1964259464842;-0.2998046875;-0.00267333984375;9.8799999750554;989;1 A
21.2064259464589;-0.29974365234375;-0.00266418457031251;9.88999997503015;990;1 A
21.2164259464337;-0.299835205078125;-0.00266113281249999;9.8999999750049;991;1 A
21.2264259464084;-0.2998046875;-0.0026580810546875;9.90999997497966;992;1 A
21.2364259463832;-0.29986572265625;-0.0026580810546875;9.91999997495441;993;1 A
21.2464259463579;-0.2998046875;-0.002655029296875;9.92999997492916;994;1 A
21.2564259463327;-0.299774169921875;-0.0026519775390625;9.93999997490391;995;1 A
21.2664259463074;-0.299835205078125;-0.0026580810546875;9.94999997487866;996;1 A
21.2764259462822;-0.299835205078125;-0.00264892578125001;9.95999997485342;997;1 A
21.2864259462569;-0.2998046875;-0.00264892578125001;9.96999997482817;998;1 A
21.2964259462317;-0.299774169921875;-0.0026519775390625;9.97999997480292;999;1 A
21.3064259462064;-0.299835205078125;-0.0026397705078125;9.98999997477767;1000;1 A
