Time (s);WE(1).Potential (V);WE(1).Current (A);Corrected time (s);Index;Current range
22.0177149444106;-0.19989013671875;-0.0012847900390625;0;1;1 A
22.0277149443854;-0.19989013671875;-0.00166015625;0.00999999997475243;2;1 A
22.0377149443601;-0.199951171875;-0.0018341064453125;0.0199999999495049;3;1 A
22.0477149443349;-0.19989013671875;-0.00194702148437501;0.0299999999242573;4;1 A
22.0577149443096;-0.199951171875;-0.0020263671875;0.0399999998990097;5;1 A
22.0677149442844;-0.19989013671875;-0.0020782470703125;0.0499999998737621;6;1 A
22.0777149442591;-0.199951171875;-0.00213012695312501;0.0599999998485146;7;1 A
22.0877149442339;-0.199981689453125;-0.00216064453125001;0.069999999823267;8;1 A
22.0977149442086;-0.199859619140625;-0.00219116210937501;0.0799999997980194;9;1 A
22.1077149441834;-0.19989013671875;-0.0022247314453125;0.0899999997727718;10;1 A
22.1177149441581;-0.199981689453125;-0.00223693847656251;0.0999999997475243;11;1 A
22.1277149441329;-0.199920654296875;-0.00226440429687499;0.109999999722277;12;1 A
22.1377149441076;-0.199920654296875;-0.0022735595703125;0.119999999697029;13;1 A
22.1477149440824;-0.19989013671875;-0.002288818359375;0.129999999671782;14;1 A
22.1577149440571;-0.199859619140625;-0.0023040771484375;0.139999999646534;15;1 A
22.1677149440319;-0.199920654296875;-0.00231323242187501;0.149999999621286;16;1 A
22.1777149440067;-0.199951171875;-0.0023345947265625;0.159999999596039;17;1 A
22.1877149439814;-0.199920654296875;-0.002337646484375;0.169999999570791;18;1 A
22.1977149439562;-0.19989013671875;-0.0023468017578125;0.179999999545544;19;1 A
22.2077149439309;-0.1998291015625;-0.0023651123046875;0.189999999520296;20;1 A
22.2177149439057;-0.199981689453125;-0.00237121582031249;0.199999999495049;21;1 A
22.2277149438804;-0.199951171875;-0.0023834228515625;0.209999999469801;22;1 A
22.2377149438552;-0.199859619140625;-0.00238647460937499;0.219999999444553;23;1 A
22.2477149438299;-0.1998291015625;-0.00238952636718751;0.229999999419306;24;1 A
22.2577149438047;-0.199920654296875;-0.0023956298828125;0.239999999394058;25;1 A
22.2677149437794;-0.199920654296875;-0.002398681640625;0.249999999368811;26;1 A
22.2777149437542;-0.199920654296875;-0.002410888671875;0.259999999343563;27;1 A
22.2877149437289;-0.19976806640625;-0.002410888671875;0.269999999318316;28;1 A
22.2977149437037;-0.19989013671875;-0.00242004394531251;0.279999999293068;29;1 A
22.3077149436784;-0.199859619140625;-0.0024261474609375;0.28999999926782;30;1 A
22.3177149436532;-0.19989013671875;-0.00243225097656249;0.299999999242573;31;1 A
22.3277149436279;-0.199951171875;-0.0024444580078125;0.309999999217325;32;1 A
22.3377149436027;-0.199920654296875;-0.00244140625;0.319999999192078;33;1 A
22.3477149435774;-0.199920654296875;-0.0024444580078125;0.32999999916683;34;1 A
22.3577149435522;-0.199920654296875;-0.00245056152343751;0.339999999141583;35;1 A
22.3677149435269;-0.19989013671875;-0.00244750976562499;0.349999999116335;36;1 A
22.3777149435017;-0.199951171875;-0.002459716796875;0.359999999091087;37;1 A
22.3877149434765;-0.199951171875;-0.00246276855468749;0.36999999906584;38;1 A
22.3977149434512;-0.199859619140625;-0.002459716796875;0.379999999040592;39;1 A
22.407714943426;-0.199920654296875;-0.0024688720703125;0.389999999015345;40;1 A
22.4177149434007;-0.199981689453125;-0.00246582031250001;0.399999998990097;41;1 A
22.4277149433755;-0.19989013671875;-0.00247802734374999;0.40999999896485;42;1 A
22.4377149433502;-0.199920654296875;-0.00248107910156251;0.419999998939602;43;1 A
22.447714943325;-0.19989013671875;-0.00248107910156251;0.429999998914354;44;1 A
22.4577149432997;-0.199859619140625;-0.002490234375;0.439999998889107;45;1 A
22.4677149432745;-0.199951171875;-0.00249328613281249;0.449999998863859;46;1 A
22.4777149432492;-0.199951171875;-0.0024993896484375;0.459999998838612;47;1 A
22.487714943224;-0.199920654296875;-0.00249633789062501;0.469999998813364;48;1 A
22.4977149431987;-0.199920654296875;-0.00250244140625;0.479999998788116;49;1 A
22.5077149431735;-0.199920654296875;-0.0025054931640625;0.489999998762869;50;1 A
22.5177149431482;-0.199920654296875;-0.0025054931640625;0.499999998737621;51;1 A
22.527714943123;-0.19964599609375;-0.00251159667968751;0.509999998712374;52;1 A
22.5377149430977;-0.199859619140625;-0.0025177001953125;0.519999998687126;53;1 A
22.5477149430725;-0.19989013671875;-0.0025146484375;0.529999998661879;54;1 A
22.5577149430472;-0.199920654296875;-0.00252685546875001;0.539999998636631;55;1 A
22.567714943022;-0.19989013671875;-0.0025299072265625;0.549999998611383;56;1 A
22.5777149429967;-0.199920654296875;-0.00253906249999999;0.559999998586136;57;1 A
22.5877149429715;-0.1998291015625;-0.00254211425781251;0.569999998560888;58;1 A
22.5977149429463;-0.19989013671875;-0.00253906249999999;0.579999998535641;59;1 A
22.607714942921;-0.19989013671875;-0.00254211425781251;0.589999998510393;60;1 A
22.6177149428958;-0.199920654296875;-0.002545166015625;0.599999998485146;61;1 A
22.6277149428705;-0.199951171875;-0.00255432128906249;0.609999998459898;62;1 A
22.6377149428453;-0.199920654296875;-0.00255737304687501;0.61999999843465;63;1 A
22.64771494282;-0.199859619140625;-0.00255432128906249;0.629999998409403;64;1 A
22.6577149427948;-0.199951171875;-0.0025665283203125;0.639999998384155;65;1 A
22.6677149427695;-0.199920654296875;-0.0025604248046875;0.649999998358908;66;1 A
22.6777149427443;-0.199951171875;-0.00257263183593751;0.65999999833366;67;1 A
22.687714942719;-0.199859619140625;-0.00256958007812499;0.669999998308413;68;1 A
22.6977149426938;-0.19989013671875;-0.00257568359375;0.679999998283165;69;1 A
22.7077149426685;-0.20001220703125;-0.0025787353515625;0.689999998257917;70;1 A
22.7177149426433;-0.19989013671875;-0.00257263183593751;0.69999999823267;71;1 A
22.727714942618;-0.199920654296875;-0.0025787353515625;0.709999998207422;72;1 A
22.7377149425928;-0.199951171875;-0.00257568359375;0.719999998182175;73;1 A
22.7477149425675;-0.199859619140625;-0.00257568359375;0.729999998156927;74;1 A
22.7577149425423;-0.199951171875;-0.00257568359375;0.73999999813168;75;1 A
22.767714942517;-0.199951171875;-0.0025634765625;0.749999998106432;76;1 A
22.7777149424918;-0.19989013671875;-0.00257568359375;0.759999998081184;77;1 A
22.7877149424666;-0.199920654296875;-0.00256958007812499;0.769999998055937;78;1 A
22.7977149424413;-0.1998291015625;-0.00257263183593751;0.779999998030689;79;1 A
22.8077149424161;-0.199920654296875;-0.0025787353515625;0.789999998005442;80;1 A
22.8177149423908;-0.199920654296875;-0.00257568359375;0.799999997980194;81;1 A
22.8277149423656;-0.200042724609375;-0.00258789062500001;0.809999997954947;82;1 A
22.8377149423403;-0.19989013671875;-0.002581787109375;0.819999997929699;83;1 A
22.8477149423151;-0.199920654296875;-0.002581787109375;0.829999997904451;84;1 A
22.8577149422898;-0.199920654296875;-0.00258483886718749;0.839999997879204;85;1 A
22.8677149422646;-0.199951171875;-0.00258789062500001;0.849999997853956;86;1 A
22.8777149422393;-0.199951171875;-0.00260009765624999;0.859999997828709;87;1 A
22.8877149422141;-0.199981689453125;-0.0025909423828125;0.869999997803461;88;1 A
22.8977149421888;-0.19989013671875;-0.00260314941406251;0.879999997778214;89;1 A
22.9077149421636;-0.199951171875;-0.002606201171875;0.889999997752966;90;1 A
22.9177149421383;-0.199920654296875;-0.00260314941406251;0.899999997727718;91;1 A
22.9277149421131;-0.19989013671875;-0.00261535644531249;0.909999997702471;92;1 A
22.9377149420878;-0.19989013671875;-0.0026092529296875;0.919999997677223;93;1 A
22.9477149420626;-0.199951171875;-0.00261535644531249;0.929999997651976;94;1 A
22.9577149420373;-0.199859619140625;-0.0026092529296875;0.939999997626728;95;1 A
22.9677149420121;-0.199951171875;-0.0026092529296875;0.949999997601481;96;1 A
22.9777149419868;-0.199951171875;-0.00261840820312501;0.959999997576233;97;1 A
22.9877149419616;-0.1998291015625;-0.00261535644531249;0.969999997550985;98;1 A
22.9977149419364;-0.199920654296875;-0.0026123046875;0.979999997525738;99;1 A
23.0077149419111;-0.199859619140625;-0.002606201171875;0.98999999750049;100;1 A
23.0177149418859;-0.199920654296875;-0.0026092529296875;0.999999997475243;101;1 A
23.0277149418606;-0.199951171875;-0.00261840820312501;1.00999999745;102;1 A
23.0377149418354;-0.199920654296875;-0.0026123046875;1.01999999742475;103;1 A
23.0477149418101;-0.199920654296875;-0.00261535644531249;1.0299999973995;104;1 A
23.0577149417849;-0.199920654296875;-0.00261535644531249;1.03999999737425;105;1 A
23.0677149417596;-0.199920654296875;-0.00261535644531249;1.049999997349;106;1 A
23.0777149417344;-0.19989013671875;-0.00261535644531249;1.05999999732376;107;1 A
23.0877149417091;-0.19989013671875;-0.0026092529296875;1.06999999729851;108;1 A
23.0977149416839;-0.19989013671875;-0.002606201171875;1.07999999727326;109;1 A
23.1077149416586;-0.199981689453125;-0.0026123046875;1.08999999724801;110;1 A
23.1177149416334;-0.199951171875;-0.00260314941406251;1.09999999722277;111;1 A
23.1277149416081;-0.199951171875;-0.0025970458984375;1.10999999719752;112;1 A
23.1377149415829;-0.199951171875;-0.00260314941406251;1.11999999717227;113;1 A
23.1477149415576;-0.199981689453125;-0.0025970458984375;1.12999999714702;114;1 A
23.1577149415324;-0.199951171875;-0.00260314941406251;1.13999999712178;115;1 A
23.1677149415071;-0.199951171875;-0.0025970458984375;1.14999999709653;116;1 A
23.1777149414819;-0.199920654296875;-0.0026092529296875;1.15999999707128;117;1 A
23.1877149414566;-0.199859619140625;-0.0026123046875;1.16999999704603;118;1 A
23.1977149414314;-0.19989013671875;-0.0025970458984375;1.17999999702079;119;1 A
23.2077149414062;-0.19989013671875;-0.00260009765624999;1.18999999699554;120;1 A
23.2177149413809;-0.199981689453125;-0.0025970458984375;1.19999999697029;121;1 A
23.2277149413557;-0.199981689453125;-0.00260314941406251;1.20999999694504;122;1 A
23.2377149413304;-0.19989013671875;-0.00260009765624999;1.2199999969198;123;1 A
23.2477149413052;-0.199981689453125;-0.002593994140625;1.22999999689455;124;1 A
23.2577149412799;-0.1998291015625;-0.00260314941406251;1.2399999968693;125;1 A
23.2677149412547;-0.199951171875;-0.00260009765624999;1.24999999684405;126;1 A
23.2777149412294;-0.199951171875;-0.002606201171875;1.25999999681881;127;1 A
23.2877149412042;-0.19989013671875;-0.002606201171875;1.26999999679356;128;1 A
23.2977149411789;-0.199951171875;-0.002606201171875;1.27999999676831;129;1 A
23.3077149411537;-0.1998291015625;-0.00261535644531249;1.28999999674306;130;1 A
23.3177149411284;-0.19989013671875;-0.00260314941406251;1.29999999671782;131;1 A
23.3277149411032;-0.199951171875;-0.00261535644531249;1.30999999669257;132;1 A
23.3377149410779;-0.199859619140625;-0.0026123046875;1.31999999666732;133;1 A
23.3477149410527;-0.199920654296875;-0.0026123046875;1.32999999664207;134;1 A
23.3577149410274;-0.199920654296875;-0.00261535644531249;1.33999999661683;135;1 A
23.3677149410022;-0.199981689453125;-0.002606201171875;1.34999999659158;136;1 A
23.3777149409769;-0.199920654296875;-0.0026214599609375;1.35999999656633;137;1 A
23.3877149409517;-0.19989013671875;-0.0026214599609375;1.36999999654108;138;1 A
23.3977149409264;-0.199920654296875;-0.00262451171875;1.37999999651583;139;1 A
23.4077149409012;-0.199951171875;-0.0026275634765625;1.38999999649059;140;1 A
23.417714940876;-0.199859619140625;-0.00263366699218751;1.39999999646534;141;1 A
23.4277149408507;-0.19989013671875;-0.0026519775390625;1.40999999644009;142;1 A
23.4377149408255;-0.19989013671875;-0.00263671875;1.41999999641484;143;1 A
23.4477149408002;-0.199920654296875;-0.002642822265625;1.4299999963896;144;1 A
23.457714940775;-0.199951171875;-0.002642822265625;1.43999999636435;145;1 A
23.4677149407497;-0.199951171875;-0.002642822265625;1.4499999963391;146;1 A
23.4777149407245;-0.199920654296875;-0.00264892578125001;1.45999999631385;147;1 A
23.4877149406992;-0.199981689453125;-0.00264892578125001;1.46999999628861;148;1 A
23.497714940674;-0.199920654296875;-0.0026519775390625;1.47999999626336;149;1 A
23.5077149406487;-0.19989013671875;-0.0026580810546875;1.48999999623811;150;1 A
23.5177149406235;-0.199981689453125;-0.002655029296875;1.49999999621286;151;1 A
23.5277149405982;-0.19989013671875;-0.00266418457031251;1.50999999618762;152;1 A
23.537714940573;-0.199859619140625;-0.002667236328125;1.51999999616237;153;1 A
23.5477149405477;-0.199859619140625;-0.00267333984375;1.52999999613712;154;1 A
23.5577149405225;-0.199920654296875;-0.00266418457031251;1.53999999611187;155;1 A
23.5677149404972;-0.199920654296875;-0.0026702880859375;1.54999999608663;156;1 A
23.577714940472;-0.19989013671875;-0.00267333984375;1.55999999606138;157;1 A
23.5877149404467;-0.199920654296875;-0.00267333984375;1.56999999603613;158;1 A
23.5977149404215;-0.199951171875;-0.00267333984375;1.57999999601088;159;1 A
23.6077149403962;-0.200042724609375;-0.00267639160156249;1.58999999598564;160;1 A
23.617714940371;-0.19989013671875;-0.00267333984375;1.59999999596039;161;1 A
23.6277149403458;-0.19989013671875;-0.002685546875;1.60999999593514;162;1 A
23.6377149403205;-0.19989013671875;-0.0026885986328125;1.61999999590989;163;1 A
23.6477149402953;-0.199920654296875;-0.00269165039062499;1.62999999588465;164;1 A
23.65771494027;-0.19989013671875;-0.00269165039062499;1.6399999958594;165;1 A
23.6677149402448;-0.199798583984375;-0.00269470214843751;1.64999999583415;166;1 A
23.6777149402195;-0.199920654296875;-0.00269470214843751;1.6599999958089;167;1 A
23.6877149401943;-0.199859619140625;-0.00269775390625;1.66999999578366;168;1 A
23.697714940169;-0.19989013671875;-0.00269470214843751;1.67999999575841;169;1 A
23.7077149401438;-0.199951171875;-0.0027008056640625;1.68999999573316;170;1 A
23.7177149401185;-0.199920654296875;-0.00269775390625;1.69999999570791;171;1 A
23.7277149400933;-0.199951171875;-0.0027008056640625;1.70999999568267;172;1 A
23.737714940068;-0.19989013671875;-0.00269775390625;1.71999999565742;173;1 A
23.7477149400428;-0.199951171875;-0.00269775390625;1.72999999563217;174;1 A
23.7577149400175;-0.199859619140625;-0.0027008056640625;1.73999999560692;175;1 A
23.7677149399923;-0.199920654296875;-0.00269470214843751;1.74999999558167;176;1 A
23.777714939967;-0.199920654296875;-0.0027008056640625;1.75999999555643;177;1 A
23.7877149399418;-0.199859619140625;-0.002703857421875;1.76999999553118;178;1 A
23.7977149399165;-0.19989013671875;-0.0026885986328125;1.77999999550593;179;1 A
23.8077149398913;-0.19989013671875;-0.00269165039062499;1.78999999548068;180;1 A
23.8177149398661;-0.19989013671875;-0.002685546875;1.79999999545544;181;1 A
23.8277149398408;-0.199920654296875;-0.00269165039062499;1.80999999543019;182;1 A
23.8377149398156;-0.199920654296875;-0.0026885986328125;1.81999999540494;183;1 A
23.8477149397903;-0.199920654296875;-0.0026824951171875;1.82999999537969;184;1 A
23.8577149397651;-0.199920654296875;-0.002685546875;1.83999999535445;185;1 A
23.8677149397398;-0.199951171875;-0.0026824951171875;1.8499999953292;186;1 A
23.8777149397146;-0.199920654296875;-0.002685546875;1.85999999530395;187;1 A
23.8877149396893;-0.199951171875;-0.002685546875;1.8699999952787;188;1 A
23.8977149396641;-0.19989013671875;-0.0026824951171875;1.87999999525346;189;1 A
23.9077149396388;-0.1998291015625;-0.0026885986328125;1.88999999522821;190;1 A
23.9177149396136;-0.199920654296875;-0.00267639160156249;1.89999999520296;191;1 A
23.9277149395883;-0.19989013671875;-0.0026824951171875;1.90999999517771;192;1 A
23.9377149395631;-0.199951171875;-0.00267944335937501;1.91999999515247;193;1 A
23.9477149395378;-0.199859619140625;-0.002685546875;1.92999999512722;194;1 A
23.9577149395126;-0.199920654296875;-0.0026885986328125;1.93999999510197;195;1 A
23.9677149394873;-0.20001220703125;-0.0026824951171875;1.94999999507672;196;1 A
23.9777149394621;-0.199951171875;-0.00269165039062499;1.95999999505148;197;1 A
23.9877149394368;-0.199859619140625;-0.00269470214843751;1.96999999502623;198;1 A
23.9977149394116;-0.199859619140625;-0.00269470214843751;1.97999999500098;199;1 A
24.0077149393863;-0.199951171875;-0.00269775390625;1.98999999497573;200;1 A
24.0177149393611;-0.19989013671875;-0.00269470214843751;1.99999999495049;201;1 A
24.0277149393359;-0.1998291015625;-0.0027130126953125;2.00999999492524;202;1 A
24.0377149393106;-0.1998291015625;-0.002703857421875;2.01999999489999;203;1 A
24.0477149392854;-0.199981689453125;-0.002703857421875;2.02999999487474;204;1 A
24.0577149392601;-0.199859619140625;-0.00270690917968749;2.0399999948495;205;1 A
24.0677149392349;-0.19989013671875;-0.00270996093750001;2.04999999482425;206;1 A
24.0777149392096;-0.199920654296875;-0.0027191162109375;2.059999994799;207;1 A
24.0877149391844;-0.19989013671875;-0.002716064453125;2.06999999477375;208;1 A
24.0977149391591;-0.19989013671875;-0.0027130126953125;2.0799999947485;209;1 A
24.1077149391339;-0.199859619140625;-0.00272216796874999;2.08999999472326;210;1 A
24.1177149391086;-0.199951171875;-0.002716064453125;2.09999999469801;211;1 A
24.1277149390834;-0.199920654296875;-0.00272216796874999;2.10999999467276;212;1 A
24.1377149390581;-0.199920654296875;-0.00272216796874999;2.11999999464751;213;1 A
24.1477149390329;-0.199798583984375;-0.00272521972656251;2.12999999462227;214;1 A
24.1577149390076;-0.19989013671875;-0.0027191162109375;2.13999999459702;215;1 A
24.1677149389824;-0.199920654296875;-0.0027191162109375;2.14999999457177;216;1 A
24.1777149389571;-0.199920654296875;-0.00272521972656251;2.15999999454652;217;1 A
24.1877149389319;-0.199920654296875;-0.00272521972656251;2.16999999452128;218;1 A
24.1977149389066;-0.1998291015625;-0.00272216796874999;2.17999999449603;219;1 A
24.2077149388814;-0.199920654296875;-0.00272216796874999;2.18999999447078;220;1 A
24.2177149388561;-0.19989013671875;-0.002716064453125;2.19999999444553;221;1 A
24.2277149388309;-0.199920654296875;-0.002728271484375;2.20999999442029;222;1 A
24.2377149388057;-0.199981689453125;-0.00272521972656251;2.21999999439504;223;1 A
24.2477149387804;-0.19989013671875;-0.00272521972656251;2.22999999436979;224;1 A
24.2577149387552;-0.199951171875;-0.00272216796874999;2.23999999434454;225;1 A
24.2677149387299;-0.19989013671875;-0.0027191162109375;2.2499999943193;226;1 A
24.2777149387047;-0.19989013671875;-0.0027191162109375;2.25999999429405;227;1 A
24.2877149386794;-0.199951171875;-0.00272216796874999;2.2699999942688;228;1 A
24.2977149386542;-0.199920654296875;-0.00272216796874999;2.27999999424355;229;1 A
24.3077149386289;-0.199859619140625;-0.002728271484375;2.28999999421831;230;1 A
24.3177149386037;-0.199920654296875;-0.00272216796874999;2.29999999419306;231;1 A
24.3277149385784;-0.199920654296875;-0.0027313232421875;2.30999999416781;232;1 A
24.3377149385532;-0.199920654296875;-0.002728271484375;2.31999999414256;233;1 A
24.3477149385279;-0.199920654296875;-0.0027313232421875;2.32999999411732;234;1 A
24.3577149385027;-0.199920654296875;-0.002734375;2.33999999409207;235;1 A
24.3677149384774;-0.199920654296875;-0.002728271484375;2.34999999406682;236;1 A
24.3777149384522;-0.19989013671875;-0.002734375;2.35999999404157;237;1 A
24.3877149384269;-0.199951171875;-0.002734375;2.36999999401633;238;1 A
24.3977149384017;-0.19989013671875;-0.00272521972656251;2.37999999399108;239;1 A
24.4077149383764;-0.199981689453125;-0.0027313232421875;2.38999999396583;240;1 A
24.4177149383512;-0.199951171875;-0.00272216796874999;2.39999999394058;241;1 A
24.4277149383259;-0.199920654296875;-0.002728271484375;2.40999999391533;242;1 A
24.4377149383007;-0.199951171875;-0.00272216796874999;2.41999999389009;243;1 A
24.4477149382755;-0.1998291015625;-0.00272216796874999;2.42999999386484;244;1 A
24.4577149382502;-0.199920654296875;-0.002716064453125;2.43999999383959;245;1 A
24.467714938225;-0.19989013671875;-0.00270996093750001;2.44999999381434;246;1 A
24.4777149381997;-0.199920654296875;-0.0027130126953125;2.4599999937891;247;1 A
24.4877149381745;-0.199981689453125;-0.00270996093750001;2.46999999376385;248;1 A
24.4977149381492;-0.19989013671875;-0.002703857421875;2.4799999937386;249;1 A
24.507714938124;-0.19989013671875;-0.00270690917968749;2.48999999371335;250;1 A
24.5177149380987;-0.199951171875;-0.00269470214843751;2.49999999368811;251;1 A
24.5277149380735;-0.1998291015625;-0.00269775390625;2.50999999366286;252;1 A
24.5377149380482;-0.199859619140625;-0.00269470214843751;2.51999999363761;253;1 A
24.547714938023;-0.19989013671875;-0.0026824951171875;2.52999999361236;254;1 A
24.5577149379977;-0.19989013671875;-0.0026824951171875;2.53999999358712;255;1 A
24.5677149379725;-0.199920654296875;-0.00267639160156249;2.54999999356187;256;1 A
24.5777149379472;-0.199920654296875;-0.00267333984375;2.55999999353662;257;1 A
24.587714937922;-0.199859619140625;-0.00267333984375;2.56999999351137;258;1 A
24.5977149378967;-0.19989013671875;-0.002667236328125;2.57999999348613;259;1 A
24.6077149378715;-0.19989013671875;-0.00266418457031251;2.58999999346088;260;1 A
24.6177149378462;-0.199859619140625;-0.00266113281249999;2.59999999343563;261;1 A
24.627714937821;-0.199951171875;-0.002667236328125;2.60999999341038;262;1 A
24.6377149377957;-0.199920654296875;-0.0026580810546875;2.61999999338514;263;1 A
24.6477149377705;-0.19989013671875;-0.0026580810546875;2.62999999335989;264;1 A
24.6577149377453;-0.199920654296875;-0.0026580810546875;2.63999999333464;265;1 A
24.66771493772;-0.199859619140625;-0.0026519775390625;2.64999999330939;266;1 A
24.6777149376948;-0.199951171875;-0.00264892578125001;2.65999999328415;267;1 A
24.6877149376695;-0.19989013671875;-0.0026519775390625;2.6699999932589;268;1 A
24.6977149376443;-0.199951171875;-0.00264587402343749;2.67999999323365;269;1 A
24.707714937619;-0.19989013671875;-0.00264892578125001;2.6899999932084;270;1 A
24.7177149375938;-0.199859619140625;-0.002642822265625;2.69999999318316;271;1 A
24.7277149375685;-0.199920654296875;-0.00264892578125001;2.70999999315791;272;1 A
24.7377149375433;-0.199951171875;-0.00264587402343749;2.71999999313266;273;1 A
24.747714937518;-0.199920654296875;-0.00264587402343749;2.72999999310741;274;1 A
24.7577149374928;-0.19989013671875;-0.002642822265625;2.73999999308217;275;1 A
24.7677149374675;-0.199920654296875;-0.002642822265625;2.74999999305692;276;1 A
24.7777149374423;-0.19989013671875;-0.00264587402343749;2.75999999303167;277;1 A
24.787714937417;-0.19989013671875;-0.00264587402343749;2.76999999300642;278;1 A
24.7977149373918;-0.199951171875;-0.00263671875;2.77999999298117;279;1 A
24.8077149373665;-0.1998291015625;-0.0026397705078125;2.78999999295593;280;1 A
24.8177149373413;-0.19989013671875;-0.00263061523437499;2.79999999293068;281;1 A
24.827714937316;-0.199920654296875;-0.00263671875;2.80999999290543;282;1 A
24.8377149372908;-0.199920654296875;-0.0026275634765625;2.81999999288018;283;1 A
24.8477149372656;-0.199920654296875;-0.0026214599609375;2.82999999285494;284;1 A
24.8577149372403;-0.199920654296875;-0.00262451171875;2.83999999282969;285;1 A
24.8677149372151;-0.199981689453125;-0.00261535644531249;2.84999999280444;286;1 A
24.8777149371898;-0.19989013671875;-0.0026214599609375;2.85999999277919;287;1 A
24.8877149371646;-0.199920654296875;-0.00261535644531249;2.86999999275395;288;1 A
24.8977149371393;-0.19989013671875;-0.0026092529296875;2.8799999927287;289;1 A
24.9077149371141;-0.19989013671875;-0.00261535644531249;2.88999999270345;290;1 A
24.9177149370888;-0.199920654296875;-0.002606201171875;2.8999999926782;291;1 A
24.9277149370636;-0.19989013671875;-0.0026123046875;2.90999999265296;292;1 A
24.9377149370383;-0.199951171875;-0.00260009765624999;2.91999999262771;293;1 A
24.9477149370131;-0.19989013671875;-0.00260314941406251;2.92999999260246;294;1 A
24.9577149369878;-0.199920654296875;-0.00260009765624999;2.93999999257721;295;1 A
24.9677149369626;-0.19989013671875;-0.0025909423828125;2.94999999255197;296;1 A
24.9777149369373;-0.199859619140625;-0.0025970458984375;2.95999999252672;297;1 A
24.9877149369121;-0.199981689453125;-0.002593994140625;2.96999999250147;298;1 A
24.9977149368868;-0.19989013671875;-0.0025909423828125;2.97999999247622;299;1 A
25.0077149368616;-0.199951171875;-0.0025909423828125;2.98999999245098;300;1 A
25.0177149368363;-0.19989013671875;-0.00258789062500001;2.99999999242573;301;1 A
25.0277149368111;-0.199859619140625;-0.002593994140625;3.00999999240048;302;1 A
25.0377149367858;-0.199951171875;-0.00258483886718749;3.01999999237523;303;1 A
25.0477149367606;-0.199920654296875;-0.00258483886718749;3.02999999234999;304;1 A
25.0577149367354;-0.199951171875;-0.00258483886718749;3.03999999232474;305;1 A
25.0677149367101;-0.199920654296875;-0.00258483886718749;3.04999999229949;306;1 A
25.0777149366849;-0.199798583984375;-0.00258789062500001;3.05999999227424;307;1 A
25.0877149366596;-0.19989013671875;-0.00258483886718749;3.069999992249;308;1 A
25.0977149366344;-0.199920654296875;-0.00258483886718749;3.07999999222375;309;1 A
25.1077149366091;-0.199951171875;-0.00258789062500001;3.0899999921985;310;1 A
25.1177149365839;-0.19989013671875;-0.002581787109375;3.09999999217325;311;1 A
25.1277149365586;-0.199951171875;-0.00258483886718749;3.109999992148;312;1 A
25.1377149365334;-0.1998291015625;-0.00257568359375;3.11999999212276;313;1 A
25.1477149365081;-0.199951171875;-0.00257568359375;3.12999999209751;314;1 A
25.1577149364829;-0.199920654296875;-0.00256958007812499;3.13999999207226;315;1 A
25.1677149364576;-0.1998291015625;-0.0025665283203125;3.14999999204701;316;1 A
25.1777149364324;-0.199920654296875;-0.0025634765625;3.15999999202177;317;1 A
25.1877149364071;-0.19989013671875;-0.0025604248046875;3.16999999199652;318;1 A
25.1977149363819;-0.199920654296875;-0.00255737304687501;3.17999999197127;319;1 A
25.2077149363566;-0.19989013671875;-0.00255737304687501;3.18999999194602;320;1 A
25.2177149363314;-0.199859619140625;-0.00255126953125;3.19999999192078;321;1 A
25.2277149363061;-0.199981689453125;-0.00255737304687501;3.20999999189553;322;1 A
25.2377149362809;-0.199859619140625;-0.00255737304687501;3.21999999187028;323;1 A
25.2477149362556;-0.199859619140625;-0.00255432128906249;3.22999999184503;324;1 A
25.2577149362304;-0.199920654296875;-0.00255432128906249;3.23999999181979;325;1 A
25.2677149362052;-0.199920654296875;-0.00255126953125;3.24999999179454;326;1 A
25.2777149361799;-0.19989013671875;-0.00255432128906249;3.25999999176929;327;1 A
25.2877149361547;-0.1998291015625;-0.00255737304687501;3.26999999174404;328;1 A
25.2977149361294;-0.199951171875;-0.00255432128906249;3.2799999917188;329;1 A
25.3077149361042;-0.19989013671875;-0.00255737304687501;3.28999999169355;330;1 A
25.3177149360789;-0.199951171875;-0.00255126953125;3.2999999916683;331;1 A
25.3277149360537;-0.199859619140625;-0.0025604248046875;3.30999999164305;332;1 A
25.3377149360284;-0.199920654296875;-0.00255432128906249;3.31999999161781;333;1 A
25.3477149360032;-0.199951171875;-0.00255126953125;3.32999999159256;334;1 A
25.3577149359779;-0.19989013671875;-0.00255432128906249;3.33999999156731;335;1 A
25.3677149359527;-0.199951171875;-0.00254211425781251;3.34999999154206;336;1 A
25.3777149359274;-0.199951171875;-0.0025482177734375;3.35999999151682;337;1 A
25.3877149359022;-0.199859619140625;-0.00254211425781251;3.36999999149157;338;1 A
25.3977149358769;-0.199920654296875;-0.0025360107421875;3.37999999146632;339;1 A
25.4077149358517;-0.199859619140625;-0.00253906249999999;3.38999999144107;340;1 A
25.4177149358264;-0.199951171875;-0.002532958984375;3.39999999141583;341;1 A
25.4277149358012;-0.199951171875;-0.002532958984375;3.40999999139058;342;1 A
25.4377149357759;-0.199951171875;-0.00252685546875001;3.41999999136533;343;1 A
25.4477149357507;-0.19989013671875;-0.00252380371093749;3.42999999134008;344;1 A
25.4577149357254;-0.19989013671875;-0.002520751953125;3.43999999131483;345;1 A
25.4677149357002;-0.199981689453125;-0.0025146484375;3.44999999128959;346;1 A
25.477714935675;-0.19989013671875;-0.0025146484375;3.45999999126434;347;1 A
25.4877149356497;-0.199920654296875;-0.00251159667968751;3.46999999123909;348;1 A
25.4977149356245;-0.1998291015625;-0.00251159667968751;3.47999999121384;349;1 A
25.5077149355992;-0.199981689453125;-0.00250854492187499;3.4899999911886;350;1 A
25.517714935574;-0.199951171875;-0.00250854492187499;3.49999999116335;351;1 A
25.5277149355487;-0.199859619140625;-0.0025146484375;3.5099999911381;352;1 A
25.5377149355235;-0.199951171875;-0.0025054931640625;3.51999999111285;353;1 A
25.5477149354982;-0.19989013671875;-0.00250244140625;3.52999999108761;354;1 A
25.557714935473;-0.19989013671875;-0.0025054931640625;3.53999999106236;355;1 A
25.5677149354477;-0.199920654296875;-0.0025054931640625;3.54999999103711;356;1 A
25.5777149354225;-0.199920654296875;-0.00250854492187499;3.55999999101186;357;1 A
25.5877149353972;-0.199981689453125;-0.00250854492187499;3.56999999098662;358;1 A
25.597714935372;-0.199951171875;-0.0025054931640625;3.57999999096137;359;1 A
25.6077149353467;-0.199951171875;-0.00250854492187499;3.58999999093612;360;1 A
25.6177149353215;-0.199920654296875;-0.00250244140625;3.59999999091087;361;1 A
25.6277149352962;-0.19989013671875;-0.00250854492187499;3.60999999088563;362;1 A
25.637714935271;-0.199859619140625;-0.0025054931640625;3.61999999086038;363;1 A
25.6477149352457;-0.199859619140625;-0.00250244140625;3.62999999083513;364;1 A
25.6577149352205;-0.199920654296875;-0.0025146484375;3.63999999080988;365;1 A
25.6677149351952;-0.199920654296875;-0.00250244140625;3.64999999078464;366;1 A
25.67771493517;-0.19989013671875;-0.0025054931640625;3.65999999075939;367;1 A
25.6877149351448;-0.19989013671875;-0.0025054931640625;3.66999999073414;368;1 A
25.6977149351195;-0.199951171875;-0.0025054931640625;3.67999999070889;369;1 A
25.7077149350943;-0.199951171875;-0.00251159667968751;3.68999999068365;370;1 A
25.717714935069;-0.199859619140625;-0.00250244140625;3.6999999906584;371;1 A
25.7277149350438;-0.199859619140625;-0.0025146484375;3.70999999063315;372;1 A
25.7377149350185;-0.199859619140625;-0.0025054931640625;3.7199999906079;373;1 A
25.7477149349933;-0.199920654296875;-0.00250854492187499;3.72999999058266;374;1 A
25.757714934968;-0.199920654296875;-0.00250244140625;3.73999999055741;375;1 A
25.7677149349428;-0.199859619140625;-0.0025054931640625;3.74999999053216;376;1 A
25.7777149349175;-0.19989013671875;-0.00251159667968751;3.75999999050691;377;1 A
25.7877149348923;-0.199859619140625;-0.0025054931640625;3.76999999048167;378;1 A
25.797714934867;-0.199920654296875;-0.00250244140625;3.77999999045642;379;1 A
25.8077149348418;-0.19989013671875;-0.00250854492187499;3.78999999043117;380;1 A
25.8177149348165;-0.199920654296875;-0.00250244140625;3.79999999040592;381;1 A
25.8277149347913;-0.199951171875;-0.00250854492187499;3.80999999038067;382;1 A
25.837714934766;-0.199920654296875;-0.00250854492187499;3.81999999035543;383;1 A
25.8477149347408;-0.199920654296875;-0.00250244140625;3.82999999033018;384;1 A
25.8577149347155;-0.199951171875;-0.00251159667968751;3.83999999030493;385;1 A
25.8677149346903;-0.199951171875;-0.0025054931640625;3.84999999027968;386;1 A
25.8777149346651;-0.19989013671875;-0.0025146484375;3.85999999025444;387;1 A
25.8877149346398;-0.199920654296875;-0.00250854492187499;3.86999999022919;388;1 A
25.8977149346146;-0.199920654296875;-0.00250854492187499;3.87999999020394;389;1 A
25.9077149345893;-0.199920654296875;-0.00251159667968751;3.88999999017869;390;1 A
25.9177149345641;-0.199951171875;-0.00250854492187499;3.89999999015345;391;1 A
25.9277149345388;-0.19989013671875;-0.0025146484375;3.9099999901282;392;1 A
25.9377149345136;-0.199859619140625;-0.0025146484375;3.91999999010295;393;1 A
25.9477149344883;-0.199981689453125;-0.002520751953125;3.9299999900777;394;1 A
25.9577149344631;-0.199859619140625;-0.00252380371093749;3.93999999005246;395;1 A
25.9677149344378;-0.199920654296875;-0.0025177001953125;3.94999999002721;396;1 A
25.9777149344126;-0.199920654296875;-0.00252380371093749;3.95999999000196;397;1 A
25.9877149343873;-0.1998291015625;-0.00252380371093749;3.96999998997671;398;1 A
25.9977149343621;-0.19989013671875;-0.002520751953125;3.97999998995147;399;1 A
26.0077149343368;-0.199920654296875;-0.00252685546875001;3.98999998992622;400;1 A
26.0177149343116;-0.19989013671875;-0.00252380371093749;3.99999998990097;401;1 A
26.0277149342863;-0.199920654296875;-0.002520751953125;4.00999998987572;402;1 A
26.0377149342611;-0.199859619140625;-0.002520751953125;4.01999998985048;403;1 A
26.0477149342358;-0.199859619140625;-0.0025177001953125;4.02999998982523;404;1 A
26.0577149342106;-0.199920654296875;-0.002520751953125;4.03999998979998;405;1 A
26.0677149341853;-0.199920654296875;-0.0025177001953125;4.04999998977473;406;1 A
26.0777149341601;-0.199951171875;-0.00252380371093749;4.05999998974949;407;1 A
26.0877149341349;-0.199920654296875;-0.00252380371093749;4.06999998972424;408;1 A
26.0977149341096;-0.199859619140625;-0.002520751953125;4.07999998969899;409;1 A
26.1077149340844;-0.199920654296875;-0.00252380371093749;4.08999998967374;410;1 A
26.1177149340591;-0.20001220703125;-0.0025177001953125;4.0999999896485;411;1 A
26.1277149340339;-0.19989013671875;-0.0025177001953125;4.10999998962325;412;1 A
26.1377149340086;-0.199859619140625;-0.002520751953125;4.119999989598;413;1 A
26.1477149339834;-0.1998291015625;-0.0025146484375;4.12999998957275;414;1 A
26.1577149339581;-0.199859619140625;-0.00251159667968751;4.1399999895475;415;1 A
26.1677149339329;-0.199951171875;-0.00251159667968751;4.14999998952226;416;1 A
26.1777149339076;-0.19989013671875;-0.0025146484375;4.15999998949701;417;1 A
26.1877149338824;-0.19989013671875;-0.0025177001953125;4.16999998947176;418;1 A
26.1977149338571;-0.199951171875;-0.00251159667968751;4.17999998944651;419;1 A
26.2077149338319;-0.19989013671875;-0.0025177001953125;4.18999998942127;420;1 A
26.2177149338066;-0.199951171875;-0.0025146484375;4.19999998939602;421;1 A
26.2277149337814;-0.199920654296875;-0.0025146484375;4.20999998937077;422;1 A
26.2377149337561;-0.19989013671875;-0.0025146484375;4.21999998934552;423;1 A
26.2477149337309;-0.19989013671875;-0.00251159667968751;4.22999998932028;424;1 A
26.2577149337056;-0.199859619140625;-0.0025177001953125;4.23999998929503;425;1 A
26.2677149336804;-0.199951171875;-0.00251159667968751;4.24999998926978;426;1 A
26.2777149336551;-0.199951171875;-0.0025146484375;4.25999998924453;427;1 A
26.2877149336299;-0.199859619140625;-0.0025177001953125;4.26999998921929;428;1 A
26.2977149336047;-0.199859619140625;-0.0025146484375;4.27999998919404;429;1 A
26.3077149335794;-0.199920654296875;-0.00252380371093749;4.28999998916879;430;1 A
26.3177149335542;-0.19989013671875;-0.00251159667968751;4.29999998914354;431;1 A
26.3277149335289;-0.199859619140625;-0.0025146484375;4.3099999891183;432;1 A
26.3377149335037;-0.199859619140625;-0.00251159667968751;4.31999998909305;433;1 A
26.3477149334784;-0.19989013671875;-0.0025054931640625;4.3299999890678;434;1 A
26.3577149334532;-0.1998291015625;-0.00250244140625;4.33999998904255;435;1 A
26.3677149334279;-0.199920654296875;-0.00249633789062501;4.34999998901731;436;1 A
26.3777149334027;-0.199920654296875;-0.00250244140625;4.35999998899206;437;1 A
26.3877149333774;-0.19989013671875;-0.00249328613281249;4.36999998896681;438;1 A
26.3977149333522;-0.199920654296875;-0.00248107910156251;4.37999998894156;439;1 A
26.4077149333269;-0.199920654296875;-0.0024871826171875;4.38999998891632;440;1 A
26.4177149333017;-0.199920654296875;-0.00248107910156251;4.39999998889107;441;1 A
26.4277149332764;-0.19989013671875;-0.0024871826171875;4.40999998886582;442;1 A
26.4377149332512;-0.199920654296875;-0.0024749755859375;4.41999998884057;443;1 A
26.4477149332259;-0.19989013671875;-0.0024749755859375;4.42999998881533;444;1 A
26.4577149332007;-0.199920654296875;-0.00247802734374999;4.43999998879008;445;1 A
26.4677149331754;-0.199951171875;-0.002471923828125;4.44999998876483;446;1 A
26.4777149331502;-0.199951171875;-0.0024749755859375;4.45999998873958;447;1 A
26.4877149331249;-0.200042724609375;-0.002471923828125;4.46999998871433;448;1 A
26.4977149330997;-0.19989013671875;-0.00248107910156251;4.47999998868909;449;1 A
26.5077149330745;-0.19989013671875;-0.0024749755859375;4.48999998866384;450;1 A
26.5177149330492;-0.19989013671875;-0.00246582031250001;4.49999998863859;451;1 A
26.527714933024;-0.199951171875;-0.002471923828125;4.50999998861334;452;1 A
26.5377149329987;-0.19989013671875;-0.002471923828125;4.5199999885881;453;1 A
26.5477149329735;-0.199920654296875;-0.002471923828125;4.52999998856285;454;1 A
26.5577149329482;-0.199920654296875;-0.00246582031250001;4.5399999885376;455;1 A
26.567714932923;-0.199951171875;-0.00246276855468749;4.54999998851235;456;1 A
26.5777149328977;-0.199981689453125;-0.00246276855468749;4.55999998848711;457;1 A
26.5877149328725;-0.19989013671875;-0.0024566650390625;4.56999998846186;458;1 A
26.5977149328472;-0.19989013671875;-0.00245361328125;4.57999998843661;459;1 A
26.607714932822;-0.199981689453125;-0.0024566650390625;4.58999998841136;460;1 A
26.6177149327967;-0.199920654296875;-0.00245361328125;4.59999998838612;461;1 A
26.6277149327715;-0.19989013671875;-0.00245361328125;4.60999998836087;462;1 A
26.6377149327462;-0.199951171875;-0.00245361328125;4.61999998833562;463;1 A
26.647714932721;-0.199951171875;-0.00245361328125;4.62999998831037;464;1 A
26.6577149326957;-0.199859619140625;-0.0024566650390625;4.63999998828513;465;1 A
26.6677149326705;-0.1998291015625;-0.002459716796875;4.64999998825988;466;1 A
26.6777149326452;-0.199920654296875;-0.0024566650390625;4.65999998823463;467;1 A
26.68771493262;-0.199920654296875;-0.0024566650390625;4.66999998820938;468;1 A
26.6977149325947;-0.199951171875;-0.00245361328125;4.67999998818414;469;1 A
26.7077149325695;-0.1998291015625;-0.0024566650390625;4.68999998815889;470;1 A
26.7177149325443;-0.19989013671875;-0.00245361328125;4.69999998813364;471;1 A
26.727714932519;-0.199981689453125;-0.00245361328125;4.70999998810839;472;1 A
26.7377149324938;-0.199920654296875;-0.00245361328125;4.71999998808315;473;1 A
26.7477149324685;-0.199951171875;-0.00244750976562499;4.7299999880579;474;1 A
26.7577149324433;-0.19989013671875;-0.00245361328125;4.73999998803265;475;1 A
26.767714932418;-0.199920654296875;-0.00245056152343751;4.7499999880074;476;1 A
26.7777149323928;-0.199920654296875;-0.00245361328125;4.75999998798216;477;1 A
26.7877149323675;-0.19989013671875;-0.00245361328125;4.76999998795691;478;1 A
26.7977149323423;-0.1998291015625;-0.0024444580078125;4.77999998793166;479;1 A
26.807714932317;-0.19989013671875;-0.00244750976562499;4.78999998790641;480;1 A
26.8177149322918;-0.199859619140625;-0.0024444580078125;4.79999998788116;481;1 A
26.8277149322665;-0.199981689453125;-0.00245056152343751;4.80999998785592;482;1 A
26.8377149322413;-0.19989013671875;-0.00244140625;4.81999998783067;483;1 A
26.847714932216;-0.19989013671875;-0.0024383544921875;4.82999998780542;484;1 A
26.8577149321908;-0.199920654296875;-0.00244140625;4.83999998778017;485;1 A
26.8677149321655;-0.199920654296875;-0.0024383544921875;4.84999998775493;486;1 A
26.8777149321403;-0.19989013671875;-0.00244140625;4.85999998772968;487;1 A
26.887714932115;-0.199951171875;-0.00244140625;4.86999998770443;488;1 A
26.8977149320898;-0.199920654296875;-0.00244140625;4.87999998767918;489;1 A
26.9077149320646;-0.199859619140625;-0.00244750976562499;4.88999998765394;490;1 A
26.9177149320393;-0.19989013671875;-0.00243530273437501;4.89999998762869;491;1 A
26.9277149320141;-0.199920654296875;-0.00244140625;4.90999998760344;492;1 A
26.9377149319888;-0.199951171875;-0.00243225097656249;4.91999998757819;493;1 A
26.9477149319636;-0.199920654296875;-0.00243225097656249;4.92999998755295;494;1 A
26.9577149319383;-0.199920654296875;-0.00244140625;4.9399999875277;495;1 A
26.9677149319131;-0.20001220703125;-0.00242919921875;4.94999998750245;496;1 A
26.9777149318878;-0.199951171875;-0.0024444580078125;4.9599999874772;497;1 A
26.9877149318626;-0.199951171875;-0.00244140625;4.96999998745196;498;1 A
26.9977149318373;-0.19989013671875;-0.00244140625;4.97999998742671;499;1 A
27.0077149318121;-0.19976806640625;-0.00244140625;4.98999998740146;500;1 A
27.0177149317868;-0.199920654296875;-0.0024383544921875;4.99999998737621;501;1 A
27.0277149317616;-0.199859619140625;-0.00244750976562499;5.00999998735097;502;1 A
27.0377149317363;-0.199859619140625;-0.00243225097656249;5.01999998732572;503;1 A
27.0477149317111;-0.199951171875;-0.00244140625;5.02999998730047;504;1 A
27.0577149316858;-0.199920654296875;-0.00244140625;5.03999998727522;505;1 A
27.0677149316606;-0.19976806640625;-0.00244140625;5.04999998724998;506;1 A
27.0777149316353;-0.19989013671875;-0.0024444580078125;5.05999998722473;507;1 A
27.0877149316101;-0.19989013671875;-0.0024444580078125;5.06999998719948;508;1 A
27.0977149315848;-0.199920654296875;-0.0024444580078125;5.07999998717423;509;1 A
27.1077149315596;-0.199859619140625;-0.0024444580078125;5.08999998714899;510;1 A
27.1177149315344;-0.199859619140625;-0.00244140625;5.09999998712374;511;1 A
27.1277149315091;-0.199920654296875;-0.00244750976562499;5.10999998709849;512;1 A
27.1377149314839;-0.199920654296875;-0.0024444580078125;5.11999998707324;513;1 A
27.1477149314586;-0.199859619140625;-0.0024444580078125;5.129999987048;514;1 A
27.1577149314334;-0.19989013671875;-0.00244140625;5.13999998702275;515;1 A
27.1677149314081;-0.199920654296875;-0.0024444580078125;5.1499999869975;516;1 A
27.1777149313829;-0.19989013671875;-0.00245056152343751;5.15999998697225;517;1 A
27.1877149313576;-0.199951171875;-0.0024444580078125;5.169999986947;518;1 A
27.1977149313324;-0.199859619140625;-0.0024444580078125;5.17999998692176;519;1 A
27.2077149313071;-0.199951171875;-0.0024444580078125;5.18999998689651;520;1 A
27.2177149312819;-0.199920654296875;-0.0024444580078125;5.19999998687126;521;1 A
27.2277149312566;-0.19989013671875;-0.00244750976562499;5.20999998684601;522;1 A
27.2377149312314;-0.199920654296875;-0.0024444580078125;5.21999998682077;523;1 A
27.2477149312061;-0.199920654296875;-0.00244750976562499;5.22999998679552;524;1 A
27.2577149311809;-0.199920654296875;-0.0024444580078125;5.23999998677027;525;1 A
27.2677149311556;-0.199859619140625;-0.00244750976562499;5.24999998674502;526;1 A
27.2777149311304;-0.199981689453125;-0.00244750976562499;5.25999998671978;527;1 A
27.2877149311051;-0.19989013671875;-0.0024444580078125;5.26999998669453;528;1 A
27.2977149310799;-0.199920654296875;-0.00244140625;5.27999998666928;529;1 A
27.3077149310546;-0.199859619140625;-0.00245361328125;5.28999998664403;530;1 A
27.3177149310294;-0.1998291015625;-0.00244750976562499;5.29999998661879;531;1 A
27.3277149310042;-0.199951171875;-0.0024566650390625;5.30999998659354;532;1 A
27.3377149309789;-0.1998291015625;-0.00245361328125;5.31999998656829;533;1 A
27.3477149309537;-0.19989013671875;-0.0024566650390625;5.32999998654304;534;1 A
27.3577149309284;-0.199859619140625;-0.002459716796875;5.3399999865178;535;1 A
27.3677149309032;-0.199951171875;-0.0024566650390625;5.34999998649255;536;1 A
27.3777149308779;-0.19989013671875;-0.00246582031250001;5.3599999864673;537;1 A
27.3877149308527;-0.199951171875;-0.0024688720703125;5.36999998644205;538;1 A
27.3977149308274;-0.199920654296875;-0.00246582031250001;5.37999998641681;539;1 A
27.4077149308022;-0.199951171875;-0.0024688720703125;5.38999998639156;540;1 A
27.4177149307769;-0.199920654296875;-0.00246582031250001;5.39999998636631;541;1 A
27.4277149307517;-0.19989013671875;-0.002471923828125;5.40999998634106;542;1 A
27.4377149307264;-0.19989013671875;-0.0024688720703125;5.41999998631582;543;1 A
27.4477149307012;-0.19989013671875;-0.0024749755859375;5.42999998629057;544;1 A
27.4577149306759;-0.199920654296875;-0.002471923828125;5.43999998626532;545;1 A
27.4677149306507;-0.199920654296875;-0.0024688720703125;5.44999998624007;546;1 A
27.4777149306254;-0.19989013671875;-0.00247802734374999;5.45999998621483;547;1 A
27.4877149306002;-0.199920654296875;-0.0024749755859375;5.46999998618958;548;1 A
27.4977149305749;-0.19989013671875;-0.002471923828125;5.47999998616433;549;1 A
27.5077149305497;-0.199920654296875;-0.002484130859375;5.48999998613908;550;1 A
27.5177149305244;-0.19989013671875;-0.0024749755859375;5.49999998611383;551;1 A
27.5277149304992;-0.199859619140625;-0.00247802734374999;5.50999998608859;552;1 A
27.537714930474;-0.199920654296875;-0.002471923828125;5.51999998606334;553;1 A
27.5477149304487;-0.199951171875;-0.0024749755859375;5.52999998603809;554;1 A
27.5577149304235;-0.19989013671875;-0.0024749755859375;5.53999998601284;555;1 A
27.5677149303982;-0.199920654296875;-0.002471923828125;5.5499999859876;556;1 A
27.577714930373;-0.199859619140625;-0.0024749755859375;5.55999998596235;557;1 A
27.5877149303477;-0.199951171875;-0.002471923828125;5.5699999859371;558;1 A
27.5977149303225;-0.199951171875;-0.002471923828125;5.57999998591185;559;1 A
27.6077149302972;-0.199920654296875;-0.0024749755859375;5.58999998588661;560;1 A
27.617714930272;-0.19989013671875;-0.00247802734374999;5.59999998586136;561;1 A
27.6277149302467;-0.19989013671875;-0.002484130859375;5.60999998583611;562;1 A
27.6377149302215;-0.199951171875;-0.0024749755859375;5.61999998581086;563;1 A
27.6477149301962;-0.19989013671875;-0.0024749755859375;5.62999998578562;564;1 A
27.657714930171;-0.199951171875;-0.0024749755859375;5.63999998576037;565;1 A
27.6677149301457;-0.199920654296875;-0.00247802734374999;5.64999998573512;566;1 A
27.6777149301205;-0.199920654296875;-0.00248107910156251;5.65999998570987;567;1 A
27.6877149300952;-0.19989013671875;-0.00247802734374999;5.66999998568463;568;1 A
27.69771493007;-0.199951171875;-0.0024749755859375;5.67999998565938;569;1 A
27.7077149300447;-0.19989013671875;-0.00248107910156251;5.68999998563413;570;1 A
27.7177149300195;-0.199859619140625;-0.00248107910156251;5.69999998560888;571;1 A
27.7277149299942;-0.199859619140625;-0.00248107910156251;5.70999998558364;572;1 A
27.737714929969;-0.19989013671875;-0.0024749755859375;5.71999998555839;573;1 A
27.7477149299438;-0.199920654296875;-0.002471923828125;5.72999998553314;574;1 A
27.7577149299185;-0.199859619140625;-0.002471923828125;5.73999998550789;575;1 A
27.7677149298933;-0.199920654296875;-0.0024688720703125;5.74999998548265;576;1 A
27.777714929868;-0.19989013671875;-0.0024688720703125;5.7599999854574;577;1 A
27.7877149298428;-0.19989013671875;-0.00246276855468749;5.76999998543215;578;1 A
27.7977149298175;-0.20001220703125;-0.00246582031250001;5.7799999854069;579;1 A
27.8077149297923;-0.19989013671875;-0.00246582031250001;5.78999998538166;580;1 A
27.817714929767;-0.199920654296875;-0.0024566650390625;5.79999998535641;581;1 A
27.8277149297418;-0.19989013671875;-0.0024566650390625;5.80999998533116;582;1 A
27.8377149297165;-0.1998291015625;-0.002459716796875;5.81999998530591;583;1 A
27.8477149296913;-0.19989013671875;-0.00244750976562499;5.82999998528066;584;1 A
27.857714929666;-0.199920654296875;-0.00245056152343751;5.83999998525542;585;1 A
27.8677149296408;-0.199859619140625;-0.0024444580078125;5.84999998523017;586;1 A
27.8777149296155;-0.199859619140625;-0.0024444580078125;5.85999998520492;587;1 A
27.8877149295903;-0.19989013671875;-0.0024383544921875;5.86999998517967;588;1 A
27.897714929565;-0.19989013671875;-0.00243225097656249;5.87999998515443;589;1 A
27.9077149295398;-0.199951171875;-0.0024383544921875;5.88999998512918;590;1 A
27.9177149295145;-0.199951171875;-0.00242919921875;5.89999998510393;591;1 A
27.9277149294893;-0.19989013671875;-0.0024383544921875;5.90999998507868;592;1 A
27.9377149294641;-0.199951171875;-0.00242919921875;5.91999998505344;593;1 A
27.9477149294388;-0.19989013671875;-0.00242919921875;5.92999998502819;594;1 A
27.9577149294136;-0.19989013671875;-0.00242919921875;5.93999998500294;595;1 A
27.9677149293883;-0.199859619140625;-0.00242919921875;5.94999998497769;596;1 A
27.9777149293631;-0.199920654296875;-0.0024383544921875;5.95999998495245;597;1 A
27.9877149293378;-0.19989013671875;-0.00244140625;5.9699999849272;598;1 A
27.9977149293126;-0.199951171875;-0.00243530273437501;5.97999998490195;599;1 A
28.0077149292873;-0.199920654296875;-0.00244140625;5.9899999848767;600;1 A
28.0177149292621;-0.199920654296875;-0.00243530273437501;5.99999998485146;601;1 A
28.0277149292368;-0.19989013671875;-0.0024444580078125;6.00999998482621;602;1 A
28.0377149292116;-0.19989013671875;-0.0024444580078125;6.01999998480096;603;1 A
28.0477149291863;-0.199859619140625;-0.00244750976562499;6.02999998477571;604;1 A
28.0577149291611;-0.199920654296875;-0.00244750976562499;6.03999998475047;605;1 A
28.0677149291358;-0.199951171875;-0.0024444580078125;6.04999998472522;606;1 A
28.0777149291106;-0.19989013671875;-0.00245361328125;6.05999998469997;607;1 A
28.0877149290853;-0.199859619140625;-0.00244140625;6.06999998467472;608;1 A
28.0977149290601;-0.199920654296875;-0.00244750976562499;6.07999998464948;609;1 A
28.1077149290348;-0.199920654296875;-0.00245361328125;6.08999998462423;610;1 A
28.1177149290096;-0.199920654296875;-0.00244750976562499;6.09999998459898;611;1 A
28.1277149289843;-0.199920654296875;-0.0024566650390625;6.10999998457373;612;1 A
28.1377149289591;-0.19989013671875;-0.00244750976562499;6.11999998454849;613;1 A
28.1477149289339;-0.199920654296875;-0.0024566650390625;6.12999998452324;614;1 A
28.1577149289086;-0.199951171875;-0.0024566650390625;6.13999998449799;615;1 A
28.1677149288834;-0.1998291015625;-0.00245361328125;6.14999998447274;616;1 A
28.1777149288581;-0.19989013671875;-0.002459716796875;6.1599999844475;617;1 A
28.1877149288329;-0.199920654296875;-0.0024566650390625;6.16999998442225;618;1 A
28.1977149288076;-0.199920654296875;-0.002459716796875;6.179999984397;619;1 A
28.2077149287824;-0.199920654296875;-0.00246276855468749;6.18999998437175;620;1 A
28.2177149287571;-0.199920654296875;-0.002459716796875;6.1999999843465;621;1 A
28.2277149287319;-0.199920654296875;-0.0024688720703125;6.20999998432126;622;1 A
28.2377149287066;-0.199981689453125;-0.00246582031250001;6.21999998429601;623;1 A
28.2477149286814;-0.199859619140625;-0.0024688720703125;6.22999998427076;624;1 A
28.2577149286561;-0.199951171875;-0.0024688720703125;6.23999998424551;625;1 A
28.2677149286309;-0.19989013671875;-0.0024688720703125;6.24999998422027;626;1 A
28.2777149286056;-0.199859619140625;-0.00247802734374999;6.25999998419502;627;1 A
28.2877149285804;-0.199920654296875;-0.00247802734374999;6.26999998416977;628;1 A
28.2977149285551;-0.19989013671875;-0.002471923828125;6.27999998414452;629;1 A
28.3077149285299;-0.19989013671875;-0.00247802734374999;6.28999998411928;630;1 A
28.3177149285046;-0.199951171875;-0.00248107910156251;6.29999998409403;631;1 A
28.3277149284794;-0.199920654296875;-0.002484130859375;6.30999998406878;632;1 A
28.3377149284541;-0.199859619140625;-0.0024871826171875;6.31999998404353;633;1 A
28.3477149284289;-0.199951171875;-0.0024871826171875;6.32999998401829;634;1 A
28.3577149284037;-0.199951171875;-0.0024871826171875;6.33999998399304;635;1 A
28.3677149283784;-0.19989013671875;-0.0024871826171875;6.34999998396779;636;1 A
28.3777149283532;-0.19989013671875;-0.0024871826171875;6.35999998394254;637;1 A
28.3877149283279;-0.199859619140625;-0.002490234375;6.3699999839173;638;1 A
28.3977149283027;-0.199951171875;-0.002490234375;6.37999998389205;639;1 A
28.4077149282774;-0.19989013671875;-0.00249633789062501;6.3899999838668;640;1 A
28.4177149282522;-0.199920654296875;-0.002490234375;6.39999998384155;641;1 A
28.4277149282269;-0.199859619140625;-0.00249633789062501;6.40999998381631;642;1 A
28.4377149282017;-0.19989013671875;-0.00249633789062501;6.41999998379106;643;1 A
28.4477149281764;-0.199920654296875;-0.00249328613281249;6.42999998376581;644;1 A
28.4577149281512;-0.199920654296875;-0.0024993896484375;6.43999998374056;645;1 A
28.4677149281259;-0.199920654296875;-0.00249633789062501;6.44999998371532;646;1 A
28.4777149281007;-0.199859619140625;-0.0025054931640625;6.45999998369007;647;1 A
28.4877149280754;-0.19989013671875;-0.00250244140625;6.46999998366482;648;1 A
28.4977149280502;-0.199920654296875;-0.00250244140625;6.47999998363957;649;1 A
28.5077149280249;-0.199951171875;-0.0025146484375;6.48999998361433;650;1 A
28.5177149279997;-0.199920654296875;-0.00250854492187499;6.49999998358908;651;1 A
28.5277149279744;-0.199920654296875;-0.002520751953125;6.50999998356383;652;1 A
28.5377149279492;-0.199951171875;-0.0025146484375;6.51999998353858;653;1 A
28.5477149279239;-0.199920654296875;-0.00251159667968751;6.52999998351333;654;1 A
28.5577149278987;-0.199920654296875;-0.0025146484375;6.53999998348809;655;1 A
28.5677149278735;-0.19989013671875;-0.00250854492187499;6.54999998346284;656;1 A
28.5777149278482;-0.199951171875;-0.0025177001953125;6.55999998343759;657;1 A
28.587714927823;-0.199951171875;-0.0025146484375;6.56999998341234;658;1 A
28.5977149277977;-0.199951171875;-0.0025146484375;6.5799999833871;659;1 A
28.6077149277725;-0.19989013671875;-0.00251159667968751;6.58999998336185;660;1 A
28.6177149277472;-0.199920654296875;-0.0025054931640625;6.5999999833366;661;1 A
28.627714927722;-0.199951171875;-0.0025146484375;6.60999998331135;662;1 A
28.6377149276967;-0.199859619140625;-0.00251159667968751;6.61999998328611;663;1 A
28.6477149276715;-0.199920654296875;-0.00250854492187499;6.62999998326086;664;1 A
28.6577149276462;-0.19989013671875;-0.00250854492187499;6.63999998323561;665;1 A
28.667714927621;-0.199951171875;-0.0025054931640625;6.64999998321036;666;1 A
28.6777149275957;-0.199920654296875;-0.0025146484375;6.65999998318512;667;1 A
28.6877149275705;-0.199859619140625;-0.0025146484375;6.66999998315987;668;1 A
28.6977149275452;-0.199951171875;-0.0025146484375;6.67999998313462;669;1 A
28.70771492752;-0.199981689453125;-0.002520751953125;6.68999998310937;670;1 A
28.7177149274947;-0.199951171875;-0.0025177001953125;6.69999998308413;671;1 A
28.7277149274695;-0.199981689453125;-0.00252685546875001;6.70999998305888;672;1 A
28.7377149274442;-0.19989013671875;-0.002520751953125;6.71999998303363;673;1 A
28.747714927419;-0.19989013671875;-0.00252380371093749;6.72999998300838;674;1 A
28.7577149273937;-0.199951171875;-0.002520751953125;6.73999998298314;675;1 A
28.7677149273685;-0.199859619140625;-0.00252380371093749;6.74999998295789;676;1 A
28.7777149273433;-0.199859619140625;-0.0025299072265625;6.75999998293264;677;1 A
28.787714927318;-0.199859619140625;-0.00252685546875001;6.76999998290739;678;1 A
28.7977149272928;-0.19989013671875;-0.00252685546875001;6.77999998288215;679;1 A
28.8077149272675;-0.199920654296875;-0.0025299072265625;6.7899999828569;680;1 A
28.8177149272423;-0.199920654296875;-0.0025299072265625;6.79999998283165;681;1 A
28.827714927217;-0.199951171875;-0.00253906249999999;6.8099999828064;682;1 A
28.8377149271918;-0.199920654296875;-0.0025299072265625;6.81999998278116;683;1 A
28.8477149271665;-0.19989013671875;-0.002532958984375;6.82999998275591;684;1 A
28.8577149271413;-0.199920654296875;-0.00253906249999999;6.83999998273066;685;1 A
28.867714927116;-0.199920654296875;-0.00253906249999999;6.84999998270541;686;1 A
28.8777149270908;-0.19989013671875;-0.00254211425781251;6.85999998268016;687;1 A
28.8877149270655;-0.199951171875;-0.00254211425781251;6.86999998265492;688;1 A
28.8977149270403;-0.19989013671875;-0.0025360107421875;6.87999998262967;689;1 A
28.907714927015;-0.19989013671875;-0.00254211425781251;6.88999998260442;690;1 A
28.9177149269898;-0.199920654296875;-0.00253906249999999;6.89999998257917;691;1 A
28.9277149269645;-0.199920654296875;-0.00255126953125;6.90999998255393;692;1 A
28.9377149269393;-0.199798583984375;-0.0025482177734375;6.91999998252868;693;1 A
28.947714926914;-0.199859619140625;-0.0025482177734375;6.92999998250343;694;1 A
28.9577149268888;-0.19989013671875;-0.00255126953125;6.93999998247818;695;1 A
28.9677149268636;-0.199920654296875;-0.00255126953125;6.94999998245294;696;1 A
28.9777149268383;-0.199951171875;-0.00255432128906249;6.95999998242769;697;1 A
28.9877149268131;-0.199859619140625;-0.0025604248046875;6.96999998240244;698;1 A
28.9977149267878;-0.199951171875;-0.00255737304687501;6.97999998237719;699;1 A
29.0077149267626;-0.199920654296875;-0.0025604248046875;6.98999998235195;700;1 A
29.0177149267373;-0.199859619140625;-0.0025604248046875;6.9999999823267;701;1 A
29.0277149267121;-0.199920654296875;-0.0025634765625;7.00999998230145;702;1 A
29.0377149266868;-0.199920654296875;-0.0025665283203125;7.0199999822762;703;1 A
29.0477149266616;-0.19989013671875;-0.0025634765625;7.02999998225096;704;1 A
29.0577149266363;-0.19989013671875;-0.0025665283203125;7.03999998222571;705;1 A
29.0677149266111;-0.19989013671875;-0.0025665283203125;7.04999998220046;706;1 A
29.0777149265858;-0.199859619140625;-0.00257263183593751;7.05999998217521;707;1 A
29.0877149265606;-0.19989013671875;-0.00256958007812499;7.06999998214997;708;1 A
29.0977149265353;-0.199920654296875;-0.00256958007812499;7.07999998212472;709;1 A
29.1077149265101;-0.19989013671875;-0.00257568359375;7.08999998209947;710;1 A
29.1177149264848;-0.19989013671875;-0.00256958007812499;7.09999998207422;711;1 A
29.1277149264596;-0.199859619140625;-0.00257263183593751;7.10999998204898;712;1 A
29.1377149264343;-0.19989013671875;-0.00257263183593751;7.11999998202373;713;1 A
29.1477149264091;-0.19989013671875;-0.0025665283203125;7.12999998199848;714;1 A
29.1577149263838;-0.19989013671875;-0.00257568359375;7.13999998197323;715;1 A
29.1677149263586;-0.199920654296875;-0.00257263183593751;7.14999998194799;716;1 A
29.1777149263334;-0.199859619140625;-0.0025787353515625;7.15999998192274;717;1 A
29.1877149263081;-0.199920654296875;-0.0025787353515625;7.16999998189749;718;1 A
29.1977149262829;-0.199859619140625;-0.00257263183593751;7.17999998187224;719;1 A
29.2077149262576;-0.19989013671875;-0.0025787353515625;7.189999981847;720;1 A
29.2177149262324;-0.199920654296875;-0.00257568359375;7.19999998182175;721;1 A
29.2277149262071;-0.199951171875;-0.002581787109375;7.2099999817965;722;1 A
29.2377149261819;-0.19989013671875;-0.002581787109375;7.21999998177125;723;1 A
29.2477149261566;-0.199951171875;-0.0025787353515625;7.229999981746;724;1 A
29.2577149261314;-0.199981689453125;-0.00258483886718749;7.23999998172076;725;1 A
29.2677149261061;-0.199859619140625;-0.00258483886718749;7.24999998169551;726;1 A
29.2777149260809;-0.199951171875;-0.0025909423828125;7.25999998167026;727;1 A
29.2877149260556;-0.199859619140625;-0.002581787109375;7.26999998164501;728;1 A
29.2977149260304;-0.199859619140625;-0.002581787109375;7.27999998161977;729;1 A
29.3077149260051;-0.199920654296875;-0.00258789062500001;7.28999998159452;730;1 A
29.3177149259799;-0.199920654296875;-0.00258483886718749;7.29999998156927;731;1 A
29.3277149259546;-0.199920654296875;-0.0025909423828125;7.30999998154402;732;1 A
29.3377149259294;-0.19989013671875;-0.0025909423828125;7.31999998151878;733;1 A
29.3477149259041;-0.19989013671875;-0.00258789062500001;7.32999998149353;734;1 A
29.3577149258789;-0.199951171875;-0.0025909423828125;7.33999998146828;735;1 A
29.3677149258536;-0.199920654296875;-0.00258789062500001;7.34999998144303;736;1 A
29.3777149258284;-0.199859619140625;-0.002593994140625;7.35999998141779;737;1 A
29.3877149258032;-0.19989013671875;-0.0025909423828125;7.36999998139254;738;1 A
29.3977149257779;-0.199859619140625;-0.00258483886718749;7.37999998136729;739;1 A
29.4077149257527;-0.19989013671875;-0.0025909423828125;7.38999998134204;740;1 A
29.4177149257274;-0.19989013671875;-0.00258789062500001;7.3999999813168;741;1 A
29.4277149257022;-0.19989013671875;-0.002593994140625;7.40999998129155;742;1 A
29.4377149256769;-0.199951171875;-0.0025909423828125;7.4199999812663;743;1 A
29.4477149256517;-0.199859619140625;-0.00258789062500001;7.42999998124105;744;1 A
29.4577149256264;-0.1998291015625;-0.0025909423828125;7.43999998121581;745;1 A
29.4677149256012;-0.199951171875;-0.0025909423828125;7.44999998119056;746;1 A
29.4777149255759;-0.199951171875;-0.0025970458984375;7.45999998116531;747;1 A
29.4877149255507;-0.199951171875;-0.0025909423828125;7.46999998114006;748;1 A
29.4977149255254;-0.199920654296875;-0.002593994140625;7.47999998111482;749;1 A
29.5077149255002;-0.199951171875;-0.002593994140625;7.48999998108957;750;1 A
29.5177149254749;-0.199951171875;-0.0025909423828125;7.49999998106432;751;1 A
29.5277149254497;-0.199920654296875;-0.00260009765624999;7.50999998103907;752;1 A
29.5377149254244;-0.199920654296875;-0.0025909423828125;7.51999998101383;753;1 A
29.5477149253992;-0.199920654296875;-0.0025970458984375;7.52999998098858;754;1 A
29.5577149253739;-0.199951171875;-0.0025970458984375;7.53999998096333;755;1 A
29.5677149253487;-0.199981689453125;-0.0025970458984375;7.54999998093808;756;1 A
29.5777149253234;-0.19989013671875;-0.00260314941406251;7.55999998091283;757;1 A
29.5877149252982;-0.199859619140625;-0.00260009765624999;7.56999998088759;758;1 A
29.597714925273;-0.19989013671875;-0.002606201171875;7.57999998086234;759;1 A
29.6077149252477;-0.199920654296875;-0.00260314941406251;7.58999998083709;760;1 A
29.6177149252225;-0.19989013671875;-0.00260009765624999;7.59999998081184;761;1 A
29.6277149251972;-0.199920654296875;-0.0026092529296875;7.6099999807866;762;1 A
29.637714925172;-0.199920654296875;-0.00260314941406251;7.61999998076135;763;1 A
29.6477149251467;-0.199920654296875;-0.00260314941406251;7.6299999807361;764;1 A
29.6577149251215;-0.19989013671875;-0.00260314941406251;7.63999998071085;765;1 A
29.6677149250962;-0.199951171875;-0.0026092529296875;7.64999998068561;766;1 A
29.677714925071;-0.19989013671875;-0.0026123046875;7.65999998066036;767;1 A
29.6877149250457;-0.199859619140625;-0.0026092529296875;7.66999998063511;768;1 A
29.6977149250205;-0.19989013671875;-0.002606201171875;7.67999998060986;769;1 A
29.7077149249952;-0.19989013671875;-0.0026123046875;7.68999998058462;770;1 A
29.71771492497;-0.199951171875;-0.0026092529296875;7.69999998055937;771;1 A
29.7277149249447;-0.199920654296875;-0.0026123046875;7.70999998053412;772;1 A
29.7377149249195;-0.19989013671875;-0.00261535644531249;7.71999998050887;773;1 A
29.7477149248942;-0.199920654296875;-0.0026092529296875;7.72999998048363;774;1 A
29.757714924869;-0.199920654296875;-0.00261535644531249;7.73999998045838;775;1 A
29.7677149248437;-0.199951171875;-0.002606201171875;7.74999998043313;776;1 A
29.7777149248185;-0.199920654296875;-0.0026123046875;7.75999998040788;777;1 A
29.7877149247932;-0.199920654296875;-0.0026123046875;7.76999998038264;778;1 A
29.797714924768;-0.199920654296875;-0.002606201171875;7.77999998035739;779;1 A
29.8077149247428;-0.19989013671875;-0.0026092529296875;7.78999998033214;780;1 A
29.8177149247175;-0.199951171875;-0.0026092529296875;7.79999998030689;781;1 A
29.8277149246923;-0.19989013671875;-0.00261535644531249;7.80999998028165;782;1 A
29.837714924667;-0.199920654296875;-0.00261840820312501;7.8199999802564;783;1 A
29.8477149246418;-0.199920654296875;-0.002606201171875;7.82999998023115;784;1 A
29.8577149246165;-0.199951171875;-0.0026123046875;7.8399999802059;785;1 A
29.8677149245913;-0.19989013671875;-0.0026092529296875;7.84999998018066;786;1 A
29.877714924566;-0.199920654296875;-0.0026123046875;7.85999998015541;787;1 A
29.8877149245408;-0.199951171875;-0.0026092529296875;7.86999998013016;788;1 A
29.8977149245155;-0.199920654296875;-0.00260314941406251;7.87999998010491;789;1 A
29.9077149244903;-0.199920654296875;-0.0026123046875;7.88999998007966;790;1 A
29.917714924465;-0.19989013671875;-0.002606201171875;7.89999998005442;791;1 A
29.9277149244398;-0.199859619140625;-0.00261535644531249;7.90999998002917;792;1 A
29.9377149244145;-0.19989013671875;-0.002606201171875;7.91999998000392;793;1 A
29.9477149243893;-0.199920654296875;-0.0026092529296875;7.92999997997867;794;1 A
29.957714924364;-0.19989013671875;-0.00261535644531249;7.93999997995343;795;1 A
29.9677149243388;-0.199920654296875;-0.00260314941406251;7.94999997992818;796;1 A
29.9777149243135;-0.199920654296875;-0.0026092529296875;7.95999997990293;797;1 A
29.9877149242883;-0.199859619140625;-0.002606201171875;7.96999997987768;798;1 A
29.9977149242631;-0.199920654296875;-0.002606201171875;7.97999997985244;799;1 A
30.0077149242378;-0.199920654296875;-0.0026092529296875;7.98999997982719;800;1 A
30.0177149242126;-0.199920654296875;-0.00260314941406251;7.99999997980194;801;1 A
30.0277149241873;-0.1998291015625;-0.00261840820312501;8.00999997977669;802;1 A
30.0377149241621;-0.19989013671875;-0.0026092529296875;8.01999997975145;803;1 A
30.0477149241368;-0.1998291015625;-0.002606201171875;8.0299999797262;804;1 A
30.0577149241116;-0.1998291015625;-0.0026123046875;8.03999997970095;805;1 A
30.0677149240863;-0.19989013671875;-0.0026092529296875;8.0499999796757;806;1 A
30.0777149240611;-0.199951171875;-0.0026214599609375;8.05999997965046;807;1 A
30.0877149240358;-0.199920654296875;-0.0026123046875;8.06999997962521;808;1 A
30.0977149240106;-0.19989013671875;-0.0026123046875;8.07999997959996;809;1 A
30.1077149239853;-0.199920654296875;-0.00261535644531249;8.08999997957471;810;1 A
30.1177149239601;-0.199859619140625;-0.00261840820312501;8.09999997954947;811;1 A
30.1277149239348;-0.199920654296875;-0.0026214599609375;8.10999997952422;812;1 A
30.1377149239096;-0.199859619140625;-0.00261535644531249;8.11999997949897;813;1 A
30.1477149238843;-0.19989013671875;-0.0026214599609375;8.12999997947372;814;1 A
30.1577149238591;-0.19989013671875;-0.00262451171875;8.13999997944848;815;1 A
30.1677149238338;-0.19989013671875;-0.00262451171875;8.14999997942323;816;1 A
30.1777149238086;-0.199920654296875;-0.00263061523437499;8.15999997939798;817;1 A
30.1877149237833;-0.199981689453125;-0.0026275634765625;8.16999997937273;818;1 A
30.1977149237581;-0.199920654296875;-0.00263366699218751;8.17999997934749;819;1 A
30.2077149237329;-0.199859619140625;-0.00263061523437499;8.18999997932224;820;1 A
30.2177149237076;-0.199920654296875;-0.00263061523437499;8.19999997929699;821;1 A
30.2277149236824;-0.199859619140625;-0.00263671875;8.20999997927174;822;1 A
30.2377149236571;-0.199920654296875;-0.00263366699218751;8.2199999792465;823;1 A
30.2477149236319;-0.19989013671875;-0.00263366699218751;8.22999997922125;824;1 A
30.2577149236066;-0.199920654296875;-0.00263366699218751;8.239999979196;825;1 A
30.2677149235814;-0.199859619140625;-0.00263671875;8.24999997917075;826;1 A
30.2777149235561;-0.199951171875;-0.00263671875;8.2599999791455;827;1 A
30.2877149235309;-0.199920654296875;-0.00263671875;8.26999997912026;828;1 A
30.2977149235056;-0.199951171875;-0.00263366699218751;8.27999997909501;829;1 A
30.3077149234804;-0.199859619140625;-0.0026397705078125;8.28999997906976;830;1 A
30.3177149234551;-0.199981689453125;-0.002642822265625;8.29999997904451;831;1 A
30.3277149234299;-0.19989013671875;-0.00264587402343749;8.30999997901927;832;1 A
30.3377149234046;-0.19989013671875;-0.00264587402343749;8.31999997899402;833;1 A
30.3477149233794;-0.199859619140625;-0.002642822265625;8.32999997896877;834;1 A
30.3577149233541;-0.199859619140625;-0.00264892578125001;8.33999997894352;835;1 A
30.3677149233289;-0.19989013671875;-0.002642822265625;8.34999997891828;836;1 A
30.3777149233036;-0.19989013671875;-0.0026397705078125;8.35999997889303;837;1 A
30.3877149232784;-0.19989013671875;-0.00264587402343749;8.36999997886778;838;1 A
30.3977149232531;-0.19989013671875;-0.002642822265625;8.37999997884253;839;1 A
30.4077149232279;-0.19989013671875;-0.002642822265625;8.38999997881729;840;1 A
30.4177149232027;-0.19989013671875;-0.00263671875;8.39999997879204;841;1 A
30.4277149231774;-0.199859619140625;-0.002642822265625;8.40999997876679;842;1 A
30.4377149231522;-0.199920654296875;-0.00264587402343749;8.41999997874154;843;1 A
30.4477149231269;-0.19989013671875;-0.00263671875;8.4299999787163;844;1 A
30.4577149231017;-0.199951171875;-0.00263671875;8.43999997869105;845;1 A
30.4677149230764;-0.199981689453125;-0.00263061523437499;8.4499999786658;846;1 A
30.4777149230512;-0.199920654296875;-0.0026397705078125;8.45999997864055;847;1 A
30.4877149230259;-0.19989013671875;-0.00263671875;8.46999997861531;848;1 A
30.4977149230007;-0.19989013671875;-0.00263061523437499;8.47999997859006;849;1 A
30.5077149229754;-0.199920654296875;-0.0026397705078125;8.48999997856481;850;1 A
30.5177149229502;-0.199951171875;-0.00263061523437499;8.49999997853956;851;1 A
30.5277149229249;-0.19989013671875;-0.00263671875;8.50999997851432;852;1 A
30.5377149228997;-0.199920654296875;-0.0026275634765625;8.51999997848907;853;1 A
30.5477149228744;-0.19989013671875;-0.0026275634765625;8.52999997846382;854;1 A
30.5577149228492;-0.1998291015625;-0.0026275634765625;8.53999997843857;855;1 A
30.5677149228239;-0.199981689453125;-0.00262451171875;8.54999997841333;856;1 A
30.5777149227987;-0.19989013671875;-0.00263061523437499;8.55999997838808;857;1 A
30.5877149227734;-0.199920654296875;-0.00262451171875;8.56999997836283;858;1 A
30.5977149227482;-0.199920654296875;-0.00263061523437499;8.57999997833758;859;1 A
30.6077149227229;-0.19989013671875;-0.00263366699218751;8.58999997831233;860;1 A
30.6177149226977;-0.199951171875;-0.00262451171875;8.59999997828709;861;1 A
30.6277149226725;-0.199951171875;-0.00263366699218751;8.60999997826184;862;1 A
30.6377149226472;-0.199920654296875;-0.0026275634765625;8.61999997823659;863;1 A
30.647714922622;-0.19989013671875;-0.00263061523437499;8.62999997821134;864;1 A
30.6577149225967;-0.199951171875;-0.0026275634765625;8.6399999781861;865;1 A
30.6677149225715;-0.199920654296875;-0.00262451171875;8.64999997816085;866;1 A
30.6777149225462;-0.199951171875;-0.00263061523437499;8.6599999781356;867;1 A
30.687714922521;-0.199920654296875;-0.0026275634765625;8.66999997811035;868;1 A
30.6977149224957;-0.199920654296875;-0.00262451171875;8.67999997808511;869;1 A
30.7077149224705;-0.199859619140625;-0.00263061523437499;8.68999997805986;870;1 A
30.7177149224452;-0.19989013671875;-0.0026214599609375;8.69999997803461;871;1 A
30.72771492242;-0.19989013671875;-0.00263061523437499;8.70999997800936;872;1 A
30.7377149223947;-0.199951171875;-0.00262451171875;8.71999997798412;873;1 A
30.7477149223695;-0.199920654296875;-0.00263061523437499;8.72999997795887;874;1 A
30.7577149223442;-0.199859619140625;-0.00263366699218751;8.73999997793362;875;1 A
30.767714922319;-0.199920654296875;-0.00263061523437499;8.74999997790837;876;1 A
30.7777149222937;-0.199951171875;-0.00263061523437499;8.75999997788313;877;1 A
30.7877149222685;-0.199920654296875;-0.0026275634765625;8.76999997785788;878;1 A
30.7977149222432;-0.199920654296875;-0.00262451171875;8.77999997783263;879;1 A
30.807714922218;-0.199920654296875;-0.00263061523437499;8.78999997780738;880;1 A
30.8177149221927;-0.199920654296875;-0.00262451171875;8.79999997778214;881;1 A
30.8277149221675;-0.199951171875;-0.00263061523437499;8.80999997775689;882;1 A
30.8377149221423;-0.199981689453125;-0.0026275634765625;8.81999997773164;883;1 A
30.847714922117;-0.19989013671875;-0.0026275634765625;8.82999997770639;884;1 A
30.8577149220918;-0.19989013671875;-0.00262451171875;8.83999997768115;885;1 A
30.8677149220665;-0.199859619140625;-0.0026214599609375;8.8499999776559;886;1 A
30.8777149220413;-0.199951171875;-0.00262451171875;8.85999997763065;887;1 A
30.887714922016;-0.199920654296875;-0.0026214599609375;8.8699999776054;888;1 A
30.8977149219908;-0.199981689453125;-0.00261535644531249;8.87999997758016;889;1 A
30.9077149219655;-0.199859619140625;-0.00261840820312501;8.88999997755491;890;1 A
30.9177149219403;-0.199920654296875;-0.0026092529296875;8.89999997752966;891;1 A
30.927714921915;-0.199859619140625;-0.00261535644531249;8.90999997750441;892;1 A
30.9377149218898;-0.199920654296875;-0.00261535644531249;8.91999997747916;893;1 A
30.9477149218645;-0.19989013671875;-0.0026123046875;8.92999997745392;894;1 A
30.9577149218393;-0.199859619140625;-0.0026092529296875;8.93999997742867;895;1 A
30.967714921814;-0.19989013671875;-0.00260009765624999;8.94999997740342;896;1 A
30.9777149217888;-0.199920654296875;-0.00260009765624999;8.95999997737817;897;1 A
30.9877149217635;-0.199920654296875;-0.00260009765624999;8.96999997735293;898;1 A
30.9977149217383;-0.199951171875;-0.002593994140625;8.97999997732768;899;1 A
31.007714921713;-0.199920654296875;-0.0025970458984375;8.98999997730243;900;1 A
31.0177149216878;-0.199859619140625;-0.0025909423828125;8.99999997727718;901;1 A
31.0277149216626;-0.199920654296875;-0.00260009765624999;9.00999997725194;902;1 A
31.0377149216373;-0.199920654296875;-0.0025909423828125;9.01999997722669;903;1 A
31.0477149216121;-0.199951171875;-0.0025909423828125;9.02999997720144;904;1 A
31.0577149215868;-0.199859619140625;-0.00258789062500001;9.03999997717619;905;1 A
31.0677149215616;-0.19989013671875;-0.00258789062500001;9.04999997715095;906;1 A
31.0777149215363;-0.19989013671875;-0.0025909423828125;9.0599999771257;907;1 A
31.0877149215111;-0.199951171875;-0.002581787109375;9.06999997710045;908;1 A
31.0977149214858;-0.199859619140625;-0.0025787353515625;9.0799999770752;909;1 A
31.1077149214606;-0.199920654296875;-0.002581787109375;9.08999997704996;910;1 A
31.1177149214353;-0.199859619140625;-0.00256958007812499;9.09999997702471;911;1 A
31.1277149214101;-0.19989013671875;-0.00257568359375;9.10999997699946;912;1 A
31.1377149213848;-0.19989013671875;-0.0025634765625;9.11999997697421;913;1 A
31.1477149213596;-0.199951171875;-0.00255737304687501;9.12999997694897;914;1 A
31.1577149213343;-0.19989013671875;-0.00255126953125;9.13999997692372;915;1 A
31.1677149213091;-0.19989013671875;-0.002545166015625;9.14999997689847;916;1 A
31.1777149212838;-0.199951171875;-0.0025482177734375;9.15999997687322;917;1 A
31.1877149212586;-0.19989013671875;-0.00253906249999999;9.16999997684798;918;1 A
31.1977149212333;-0.199951171875;-0.002532958984375;9.17999997682273;919;1 A
31.2077149212081;-0.19989013671875;-0.002532958984375;9.18999997679748;920;1 A
31.2177149211828;-0.19989013671875;-0.00252380371093749;9.19999997677223;921;1 A
31.2277149211576;-0.199920654296875;-0.002532958984375;9.20999997674699;922;1 A
31.2377149211324;-0.19989013671875;-0.002520751953125;9.21999997672174;923;1 A
31.2477149211071;-0.199981689453125;-0.002520751953125;9.22999997669649;924;1 A
31.2577149210819;-0.19989013671875;-0.0025177001953125;9.23999997667124;925;1 A
31.2677149210566;-0.1998291015625;-0.0025146484375;9.249999976646;926;1 A
31.2777149210314;-0.1998291015625;-0.0025177001953125;9.25999997662075;927;1 A
31.2877149210061;-0.199920654296875;-0.00250854492187499;9.2699999765955;928;1 A
31.2977149209809;-0.199859619140625;-0.0025054931640625;9.27999997657025;929;1 A
31.3077149209556;-0.199981689453125;-0.00250244140625;9.289999976545;930;1 A
31.3177149209304;-0.19989013671875;-0.00249633789062501;9.29999997651976;931;1 A
31.3277149209051;-0.19989013671875;-0.0024993896484375;9.30999997649451;932;1 A
31.3377149208799;-0.199920654296875;-0.00249328613281249;9.31999997646926;933;1 A
31.3477149208546;-0.19989013671875;-0.002484130859375;9.32999997644401;934;1 A
31.3577149208294;-0.19989013671875;-0.00248107910156251;9.33999997641877;935;1 A
31.3677149208041;-0.19989013671875;-0.0024749755859375;9.34999997639352;936;1 A
31.3777149207789;-0.199920654296875;-0.0024749755859375;9.35999997636827;937;1 A
31.3877149207536;-0.199981689453125;-0.002471923828125;9.36999997634302;938;1 A
31.3977149207284;-0.19989013671875;-0.00246582031250001;9.37999997631778;939;1 A
31.4077149207031;-0.199951171875;-0.0024688720703125;9.38999997629253;940;1 A
31.4177149206779;-0.199951171875;-0.00246276855468749;9.39999997626728;941;1 A
31.4277149206526;-0.199859619140625;-0.002471923828125;9.40999997624203;942;1 A
31.4377149206274;-0.199981689453125;-0.0024688720703125;9.41999997621679;943;1 A
31.4477149206022;-0.19989013671875;-0.00246276855468749;9.42999997619154;944;1 A
31.4577149205769;-0.19989013671875;-0.0024688720703125;9.43999997616629;945;1 A
31.4677149205517;-0.19989013671875;-0.00246582031250001;9.44999997614104;946;1 A
31.4777149205264;-0.199859619140625;-0.002471923828125;9.4599999761158;947;1 A
31.4877149205012;-0.19989013671875;-0.0024688720703125;9.46999997609055;948;1 A
31.4977149204759;-0.19989013671875;-0.00246276855468749;9.4799999760653;949;1 A
31.5077149204507;-0.199859619140625;-0.0024688720703125;9.48999997604005;950;1 A
31.5177149204254;-0.199859619140625;-0.00246276855468749;9.49999997601481;951;1 A
31.5277149204002;-0.199859619140625;-0.002471923828125;9.50999997598956;952;1 A
31.5377149203749;-0.199951171875;-0.0024688720703125;9.51999997596431;953;1 A
31.5477149203497;-0.199920654296875;-0.002471923828125;9.52999997593906;954;1 A
31.5577149203244;-0.19989013671875;-0.0024749755859375;9.53999997591382;955;1 A
31.5677149202992;-0.19989013671875;-0.002471923828125;9.54999997588857;956;1 A
31.5777149202739;-0.199920654296875;-0.0024749755859375;9.55999997586332;957;1 A
31.5877149202487;-0.199951171875;-0.0024688720703125;9.56999997583807;958;1 A
31.5977149202234;-0.199920654296875;-0.00246582031250001;9.57999997581283;959;1 A
31.6077149201982;-0.199859619140625;-0.0024688720703125;9.58999997578758;960;1 A
31.6177149201729;-0.199920654296875;-0.00246276855468749;9.59999997576233;961;1 A
31.6277149201477;-0.19989013671875;-0.002471923828125;9.60999997573708;962;1 A
31.6377149201224;-0.199951171875;-0.0024566650390625;9.61999997571183;963;1 A
31.6477149200972;-0.199920654296875;-0.002459716796875;9.62999997568659;964;1 A
31.657714920072;-0.19989013671875;-0.00246582031250001;9.63999997566134;965;1 A
31.6677149200467;-0.19989013671875;-0.002459716796875;9.64999997563609;966;1 A
31.6777149200215;-0.199951171875;-0.002459716796875;9.65999997561084;967;1 A
31.6877149199962;-0.199920654296875;-0.00245056152343751;9.6699999755856;968;1 A
31.697714919971;-0.199920654296875;-0.00245361328125;9.67999997556035;969;1 A
31.7077149199457;-0.19989013671875;-0.00245056152343751;9.6899999755351;970;1 A
31.7177149199205;-0.199859619140625;-0.0024444580078125;9.69999997550985;971;1 A
31.7277149198952;-0.19989013671875;-0.00244140625;9.70999997548461;972;1 A
31.73771491987;-0.199951171875;-0.00242919921875;9.71999997545936;973;1 A
31.7477149198447;-0.199920654296875;-0.002423095703125;9.72999997543411;974;1 A
31.7577149198195;-0.199951171875;-0.00242004394531251;9.73999997540886;975;1 A
31.7677149197942;-0.199951171875;-0.002410888671875;9.74999997538362;976;1 A
31.777714919769;-0.199920654296875;-0.00241699218749999;9.75999997535837;977;1 A
31.7877149197437;-0.199920654296875;-0.0024078369140625;9.76999997533312;978;1 A
31.7977149197185;-0.199920654296875;-0.00240478515625001;9.77999997530787;979;1 A
31.8077149196932;-0.1998291015625;-0.00240478515625001;9.78999997528263;980;1 A
31.817714919668;-0.199859619140625;-0.002398681640625;9.79999997525738;981;1 A
31.8277149196427;-0.199920654296875;-0.00240173339843749;9.80999997523213;982;1 A
31.8377149196175;-0.19989013671875;-0.00238952636718751;9.81999997520688;983;1 A
31.8477149195922;-0.19989013671875;-0.00238647460937499;9.82999997518164;984;1 A
31.857714919567;-0.199920654296875;-0.0023834228515625;9.83999997515639;985;1 A
31.8677149195418;-0.19989013671875;-0.0023773193359375;9.84999997513114;986;1 A
31.8777149195165;-0.19989013671875;-0.00237426757812501;9.85999997510589;987;1 A
31.8877149194913;-0.19989013671875;-0.0023651123046875;9.86999997508065;988;1 A
31.897714919466;-0.199920654296875;-0.002362060546875;9.8799999750554;989;1 A
31.9077149194408;-0.199859619140625;-0.002362060546875;9.88999997503015;990;1 A
31.9177149194155;-0.199859619140625;-0.0023529052734375;9.8999999750049;991;1 A
31.9277149193903;-0.19989013671875;-0.00235900878906251;9.90999997497966;992;1 A
31.937714919365;-0.199951171875;-0.0023529052734375;9.91999997495441;993;1 A
31.9477149193398;-0.199951171875;-0.002349853515625;9.92999997492916;994;1 A
31.9577149193145;-0.19989013671875;-0.002349853515625;9.93999997490391;995;1 A
31.9677149192893;-0.19989013671875;-0.002337646484375;9.94999997487866;996;1 A
31.977714919264;-0.199920654296875;-0.00234069824218749;9.95999997485342;997;1 A
31.9877149192388;-0.199920654296875;-0.002337646484375;9.96999997482817;998;1 A
31.9977149192135;-0.199951171875;-0.00232849121093751;9.97999997480292;999;1 A
32.0077149191883;-0.199920654296875;-0.0023345947265625;9.98999997477767;1000;1 A
