Time (s);WE(1).Potential (V);WE(1).Current (A);Corrected time (s);Index;Current range
32.4860019179807;0.60101318359375;1.06201171875;0;1;1 A
32.4960019179555;0.59991455078125;0.75775146484375;0.00999999997475243;2;1 A
32.5060019179302;0.599700927734375;0.62286376953125;0.0199999999495049;3;1 A
32.516001917905;0.59967041015625;0.54168701171875;0.0299999999242573;4;1 A
32.5260019178797;0.59967041015625;0.48614501953125;0.0399999998990097;5;1 A
32.5360019178545;0.599578857421875;0.44500732421875;0.0499999998737621;6;1 A
32.5460019178292;0.59967041015625;0.41278076171875;0.0599999998485146;7;1 A
32.556001917804;0.59967041015625;0.38677978515625;0.069999999823267;8;1 A
32.5660019177787;0.599639892578125;0.36517333984375;0.0799999997980194;9;1 A
32.5760019177535;0.599517822265625;0.346923828125;0.0899999997727718;10;1 A
32.5860019177283;0.599609375;0.33111572265625;0.0999999997475243;11;1 A
32.596001917703;0.599578857421875;0.317352294921875;0.109999999722277;12;1 A
32.6060019176778;0.599609375;0.305206298828125;0.119999999697029;13;1 A
32.6160019176525;0.599609375;0.29437255859375;0.129999999671782;14;1 A
32.6260019176273;0.59954833984375;0.28466796875;0.139999999646534;15;1 A
32.636001917602;0.599578857421875;0.275970458984375;0.149999999621286;16;1 A
32.6460019175768;0.599578857421875;0.268096923828125;0.159999999596039;17;1 A
32.6560019175515;0.599609375;0.260955810546875;0.169999999570791;18;1 A
32.6660019175263;0.599639892578125;0.25433349609375;0.179999999545544;19;1 A
32.676001917501;0.599700927734375;0.248291015625;0.189999999520296;20;1 A
32.6860019174758;0.599609375;0.24267578125;0.199999999495049;21;1 A
32.6960019174505;0.59954833984375;0.237548828125;0.209999999469801;22;1 A
32.7060019174253;0.599609375;0.23272705078125;0.219999999444553;23;1 A
32.7160019174;0.599609375;0.228302001953125;0.229999999419306;24;1 A
32.7260019173748;0.599578857421875;0.22418212890625;0.239999999394058;25;1 A
32.7360019173495;0.599578857421875;0.220306396484375;0.249999999368811;26;1 A
32.7460019173243;0.59954833984375;0.216705322265625;0.259999999343563;27;1 A
32.756001917299;0.599578857421875;0.213348388671875;0.269999999318316;28;1 A
32.7660019172738;0.599609375;0.210113525390625;0.279999999293068;29;1 A
32.7760019172485;0.599609375;0.2071533203125;0.28999999926782;30;1 A
32.7860019172233;0.599609375;0.2042236328125;0.299999999242573;31;1 A
32.7960019171981;0.599639892578125;0.2015380859375;0.309999999217325;32;1 A
32.8060019171728;0.599578857421875;0.198974609375;0.319999999192078;33;1 A
32.8160019171476;0.599578857421875;0.196563720703125;0.32999999916683;34;1 A
32.8260019171223;0.59954833984375;0.194244384765625;0.339999999141583;35;1 A
32.8360019170971;0.599578857421875;0.191986083984375;0.349999999116335;36;1 A
32.8460019170718;0.599609375;0.189849853515625;0.359999999091087;37;1 A
32.8560019170466;0.59954833984375;0.187713623046875;0.36999999906584;38;1 A
32.8660019170213;0.59954833984375;0.185760498046875;0.379999999040592;39;1 A
32.8760019169961;0.599578857421875;0.183868408203125;0.389999999015345;40;1 A
32.8860019169708;0.59954833984375;0.182037353515625;0.399999998990097;41;1 A
32.8960019169456;0.599609375;0.180419921875;0.40999999896485;42;1 A
32.9060019169203;0.599609375;0.178741455078125;0.419999998939602;43;1 A
32.9160019168951;0.599578857421875;0.177215576171875;0.429999998914354;44;1 A
32.9260019168698;0.599639892578125;0.17578125;0.439999998889107;45;1 A
32.9360019168446;0.599517822265625;0.1744384765625;0.449999998863859;46;1 A
32.9460019168193;0.599578857421875;0.173187255859375;0.459999998838612;47;1 A
32.9560019167941;0.599609375;0.171966552734375;0.469999998813364;48;1 A
32.9660019167688;0.59954833984375;0.170867919921875;0.479999998788116;49;1 A
32.9760019167436;0.59954833984375;0.169647216796875;0.489999998762869;50;1 A
32.9860019167184;0.599578857421875;0.16851806640625;0.499999998737621;51;1 A
32.9960019166931;0.599578857421875;0.16729736328125;0.509999998712374;52;1 A
33.0060019166679;0.599578857421875;0.166229248046875;0.519999998687126;53;1 A
33.0160019166426;0.599578857421875;0.165283203125;0.529999998661879;54;1 A
33.0260019166174;0.599609375;0.164337158203125;0.539999998636631;55;1 A
33.0360019165921;0.599578857421875;0.16351318359375;0.549999998611383;56;1 A
33.0460019165669;0.599578857421875;0.1627197265625;0.559999998586136;57;1 A
33.0560019165416;0.599609375;0.1619873046875;0.569999998560888;58;1 A
33.0660019165164;0.599639892578125;0.161224365234375;0.579999998535641;59;1 A
33.0760019164911;0.599609375;0.160552978515625;0.589999998510393;60;1 A
33.0860019164659;0.599639892578125;0.159912109375;0.599999998485146;61;1 A
33.0960019164406;0.59967041015625;0.159271240234375;0.609999998459898;62;1 A
33.1060019164154;0.599578857421875;0.158599853515625;0.61999999843465;63;1 A
33.1160019163901;0.599609375;0.157958984375;0.629999998409403;64;1 A
33.1260019163649;0.599609375;0.15728759765625;0.639999998384155;65;1 A
33.1360019163396;0.599578857421875;0.15673828125;0.649999998358908;66;1 A
33.1460019163144;0.599609375;0.156097412109375;0.65999999833366;67;1 A
33.1560019162891;0.59954833984375;0.155548095703125;0.669999998308413;68;1 A
33.1660019162639;0.599609375;0.15509033203125;0.679999998283165;69;1 A
33.1760019162386;0.599639892578125;0.154693603515625;0.689999998257917;70;1 A
33.1860019162134;0.599609375;0.154205322265625;0.69999999823267;71;1 A
33.1960019161882;0.599609375;0.15374755859375;0.709999998207422;72;1 A
33.2060019161629;0.599609375;0.153228759765625;0.719999998182175;73;1 A
33.2160019161377;0.599578857421875;0.15277099609375;0.729999998156927;74;1 A
33.2260019161124;0.59954833984375;0.15216064453125;0.73999999813168;75;1 A
33.2360019160872;0.59954833984375;0.151702880859375;0.749999998106432;76;1 A
33.2460019160619;0.599609375;0.151153564453125;0.759999998081184;77;1 A
33.2560019160367;0.599639892578125;0.150848388671875;0.769999998055937;78;1 A
33.2660019160114;0.599578857421875;0.1502685546875;0.779999998030689;79;1 A
33.2760019159862;0.599700927734375;0.14984130859375;0.789999998005442;80;1 A
33.2860019159609;0.599578857421875;0.14935302734375;0.799999997980194;81;1 A
33.2960019159357;0.599578857421875;0.14892578125;0.809999997954947;82;1 A
33.3060019159104;0.59967041015625;0.1484375;0.819999997929699;83;1 A
33.3160019158852;0.599609375;0.148040771484375;0.829999997904451;84;1 A
33.3260019158599;0.59954833984375;0.14764404296875;0.839999997879204;85;1 A
33.3360019158347;0.599700927734375;0.14727783203125;0.849999997853956;86;1 A
33.3460019158094;0.599578857421875;0.146820068359375;0.859999997828709;87;1 A
33.3560019157842;0.599517822265625;0.146453857421875;0.869999997803461;88;1 A
33.3660019157589;0.599609375;0.14593505859375;0.879999997778214;89;1 A
33.3760019157337;0.599609375;0.14569091796875;0.889999997752966;90;1 A
33.3860019157084;0.599609375;0.145233154296875;0.899999997727718;91;1 A
33.3960019156832;0.59954833984375;0.144927978515625;0.909999997702471;92;1 A
33.406001915658;0.599639892578125;0.1446533203125;0.919999997677223;93;1 A
33.4160019156327;0.599639892578125;0.144439697265625;0.929999997651976;94;1 A
33.4260019156075;0.599609375;0.144195556640625;0.939999997626728;95;1 A
33.4360019155822;0.599609375;0.144012451171875;0.949999997601481;96;1 A
33.446001915557;0.599578857421875;0.143798828125;0.959999997576233;97;1 A
33.4560019155317;0.599639892578125;0.14361572265625;0.969999997550985;98;1 A
33.4660019155065;0.599609375;0.143341064453125;0.979999997525738;99;1 A
33.4760019154812;0.599578857421875;0.1431884765625;0.98999999750049;100;1 A
33.486001915456;0.599609375;0.143035888671875;0.999999997475243;101;1 A
33.4960019154307;0.599639892578125;0.14300537109375;1.00999999745;102;1 A
33.5060019154055;0.599578857421875;0.1427001953125;1.01999999742475;103;1 A
33.5160019153802;0.59954833984375;0.142608642578125;1.0299999973995;104;1 A
33.526001915355;0.599639892578125;0.14239501953125;1.03999999737425;105;1 A
33.5360019153297;0.599609375;0.142242431640625;1.049999997349;106;1 A
33.5460019153045;0.599609375;0.142059326171875;1.05999999732376;107;1 A
33.5560019152792;0.599578857421875;0.141845703125;1.06999999729851;108;1 A
33.566001915254;0.599578857421875;0.1416015625;1.07999999727326;109;1 A
33.5760019152287;0.599609375;0.141387939453125;1.08999999724801;110;1 A
33.5860019152035;0.599639892578125;0.141082763671875;1.09999999722277;111;1 A
33.5960019151782;0.59954833984375;0.140716552734375;1.10999999719752;112;1 A
33.606001915153;0.599639892578125;0.14044189453125;1.11999999717227;113;1 A
33.6160019151278;0.599609375;0.1402587890625;1.12999999714702;114;1 A
33.6260019151025;0.599578857421875;0.139892578125;1.13999999712178;115;1 A
33.6360019150773;0.599578857421875;0.13958740234375;1.14999999709653;116;1 A
33.646001915052;0.599578857421875;0.139251708984375;1.15999999707128;117;1 A
33.6560019150268;0.599609375;0.138916015625;1.16999999704603;118;1 A
33.6660019150015;0.599609375;0.138427734375;1.17999999702079;119;1 A
33.6760019149763;0.599609375;0.13800048828125;1.18999999699554;120;1 A
33.686001914951;0.599578857421875;0.137542724609375;1.19999999697029;121;1 A
33.6960019149258;0.599639892578125;0.1370849609375;1.20999999694504;122;1 A
33.7060019149005;0.599609375;0.136566162109375;1.2199999969198;123;1 A
33.7160019148753;0.599609375;0.136260986328125;1.22999999689455;124;1 A
33.72600191485;0.599578857421875;0.135894775390625;1.2399999968693;125;1 A
33.7360019148248;0.599609375;0.135711669921875;1.24999999684405;126;1 A
33.7460019147995;0.59954833984375;0.135345458984375;1.25999999681881;127;1 A
33.7560019147743;0.599609375;0.135162353515625;1.26999999679356;128;1 A
33.766001914749;0.599639892578125;0.13507080078125;1.27999999676831;129;1 A
33.7760019147238;0.599609375;0.135009765625;1.28999999674306;130;1 A
33.7860019146985;0.599578857421875;0.13482666015625;1.29999999671782;131;1 A
33.7960019146733;0.599609375;0.1346435546875;1.30999999669257;132;1 A
33.806001914648;0.599609375;0.1343994140625;1.31999999666732;133;1 A
33.8160019146228;0.599700927734375;0.134185791015625;1.32999999664207;134;1 A
33.8260019145976;0.599639892578125;0.134063720703125;1.33999999661683;135;1 A
33.8360019145723;0.59954833984375;0.1339111328125;1.34999999659158;136;1 A
33.8460019145471;0.599609375;0.133819580078125;1.35999999656633;137;1 A
33.8560019145218;0.599578857421875;0.13385009765625;1.36999999654108;138;1 A
33.8660019144966;0.599578857421875;0.13360595703125;1.37999999651583;139;1 A
33.8760019144713;0.599578857421875;0.1334228515625;1.38999999649059;140;1 A
33.8860019144461;0.59954833984375;0.133270263671875;1.39999999646534;141;1 A
33.8960019144208;0.599639892578125;0.13311767578125;1.40999999644009;142;1 A
33.9060019143956;0.599639892578125;0.1329345703125;1.41999999641484;143;1 A
33.9160019143703;0.599609375;0.13275146484375;1.4299999963896;144;1 A
33.9260019143451;0.599578857421875;0.132537841796875;1.43999999636435;145;1 A
33.9360019143198;0.599517822265625;0.132354736328125;1.4499999963391;146;1 A
33.9460019142946;0.599609375;0.132232666015625;1.45999999631385;147;1 A
33.9560019142693;0.599578857421875;0.13214111328125;1.46999999628861;148;1 A
33.9660019142441;0.599578857421875;0.131988525390625;1.47999999626336;149;1 A
33.9760019142188;0.599578857421875;0.132049560546875;1.48999999623811;150;1 A
33.9860019141936;0.599517822265625;0.1318359375;1.49999999621286;151;1 A
33.9960019141683;0.5994873046875;0.131805419921875;1.50999999618762;152;1 A
34.0060019141431;0.599578857421875;0.1317138671875;1.51999999616237;153;1 A
34.0160019141179;0.599609375;0.1317138671875;1.52999999613712;154;1 A
34.0260019140926;0.599639892578125;0.131622314453125;1.53999999611187;155;1 A
34.0360019140674;0.59954833984375;0.13153076171875;1.54999999608663;156;1 A
34.0460019140421;0.599578857421875;0.131378173828125;1.55999999606138;157;1 A
34.0560019140169;0.599639892578125;0.13134765625;1.56999999603613;158;1 A
34.0660019139916;0.599639892578125;0.1312255859375;1.57999999601088;159;1 A
34.0760019139664;0.599456787109375;0.131256103515625;1.58999999598564;160;1 A
34.0860019139411;0.599578857421875;0.131195068359375;1.59999999596039;161;1 A
34.0960019139159;0.599639892578125;0.13128662109375;1.60999999593514;162;1 A
34.1060019138906;0.59954833984375;0.131011962890625;1.61999999590989;163;1 A
34.1160019138654;0.599517822265625;0.131011962890625;1.62999999588465;164;1 A
34.1260019138401;0.599609375;0.130859375;1.6399999958594;165;1 A
34.1360019138149;0.599609375;0.130859375;1.64999999583415;166;1 A
34.1460019137896;0.599578857421875;0.130706787109375;1.6599999958089;167;1 A
34.1560019137644;0.599609375;0.130645751953125;1.66999999578366;168;1 A
34.1660019137391;0.599609375;0.130401611328125;1.67999999575841;169;1 A
34.1760019137139;0.599578857421875;0.13031005859375;1.68999999573316;170;1 A
34.1860019136886;0.599578857421875;0.130126953125;1.69999999570791;171;1 A
34.1960019136634;0.59942626953125;0.130035400390625;1.70999999568267;172;1 A
34.2060019136381;0.599609375;0.129913330078125;1.71999999565742;173;1 A
34.2160019136129;0.599639892578125;0.129974365234375;1.72999999563217;174;1 A
34.2260019135877;0.599639892578125;0.129730224609375;1.73999999560692;175;1 A
34.2360019135624;0.599517822265625;0.129730224609375;1.74999999558167;176;1 A
34.2460019135372;0.599578857421875;0.129669189453125;1.75999999555643;177;1 A
34.2560019135119;0.599609375;0.1297607421875;1.76999999553118;178;1 A
34.2660019134867;0.599639892578125;0.129608154296875;1.77999999550593;179;1 A
34.2760019134614;0.59954833984375;0.129608154296875;1.78999999548068;180;1 A
34.2860019134362;0.599639892578125;0.129486083984375;1.79999999545544;181;1 A
34.2960019134109;0.599578857421875;0.129547119140625;1.80999999543019;182;1 A
34.3060019133857;0.599578857421875;0.129486083984375;1.81999999540494;183;1 A
34.3160019133604;0.5994873046875;0.129608154296875;1.82999999537969;184;1 A
34.3260019133352;0.599578857421875;0.12957763671875;1.83999999535445;185;1 A
34.3360019133099;0.599609375;0.12982177734375;1.8499999953292;186;1 A
34.3460019132847;0.599578857421875;0.129730224609375;1.85999999530395;187;1 A
34.3560019132594;0.5994873046875;0.1298828125;1.8699999952787;188;1 A
34.3660019132342;0.599609375;0.1300048828125;1.87999999525346;189;1 A
34.3760019132089;0.599609375;0.130157470703125;1.88999999522821;190;1 A
34.3860019131837;0.599609375;0.130157470703125;1.89999999520296;191;1 A
34.3960019131584;0.599578857421875;0.13018798828125;1.90999999517771;192;1 A
34.4060019131332;0.59954833984375;0.130157470703125;1.91999999515247;193;1 A
34.4160019131079;0.599578857421875;0.130157470703125;1.92999999512722;194;1 A
34.4260019130827;0.599639892578125;0.1302490234375;1.93999999510197;195;1 A
34.4360019130575;0.599700927734375;0.13031005859375;1.94999999507672;196;1 A
34.4460019130322;0.599609375;0.130462646484375;1.95999999505148;197;1 A
34.456001913007;0.599639892578125;0.1307373046875;1.96999999502623;198;1 A
34.4660019129817;0.599639892578125;0.1307373046875;1.97999999500098;199;1 A
34.4760019129565;0.599639892578125;0.130859375;1.98999999497573;200;1 A
34.4860019129312;0.599578857421875;0.1309814453125;1.99999999495049;201;1 A
34.496001912906;0.599609375;0.131134033203125;2.00999999492524;202;1 A
34.5060019128807;0.599639892578125;0.131256103515625;2.01999999489999;203;1 A
34.5160019128555;0.599578857421875;0.13134765625;2.02999999487474;204;1 A
34.5260019128302;0.599578857421875;0.131439208984375;2.0399999948495;205;1 A
34.536001912805;0.599578857421875;0.13153076171875;2.04999999482425;206;1 A
34.5460019127797;0.59954833984375;0.1317138671875;2.059999994799;207;1 A
34.5560019127545;0.599609375;0.131805419921875;2.06999999477375;208;1 A
34.5660019127292;0.599609375;0.1319580078125;2.0799999947485;209;1 A
34.576001912704;0.599578857421875;0.132171630859375;2.08999999472326;210;1 A
34.5860019126787;0.59954833984375;0.132171630859375;2.09999999469801;211;1 A
34.5960019126535;0.59954833984375;0.13232421875;2.10999999467276;212;1 A
34.6060019126282;0.599578857421875;0.132415771484375;2.11999999464751;213;1 A
34.616001912603;0.599578857421875;0.132568359375;2.12999999462227;214;1 A
34.6260019125777;0.599639892578125;0.132659912109375;2.13999999459702;215;1 A
34.6360019125525;0.599578857421875;0.132720947265625;2.14999999457177;216;1 A
34.6460019125273;0.599639892578125;0.13275146484375;2.15999999454652;217;1 A
34.656001912502;0.59954833984375;0.1329345703125;2.16999999452128;218;1 A
34.6660019124768;0.599578857421875;0.133056640625;2.17999999449603;219;1 A
34.6760019124515;0.599639892578125;0.13323974609375;2.18999999447078;220;1 A
34.6860019124263;0.599609375;0.133392333984375;2.19999999444553;221;1 A
34.696001912401;0.59954833984375;0.1336669921875;2.20999999442029;222;1 A
34.7060019123758;0.599578857421875;0.1336669921875;2.21999999439504;223;1 A
34.7160019123505;0.599609375;0.13385009765625;2.22999999436979;224;1 A
34.7260019123253;0.599639892578125;0.13397216796875;2.23999999434454;225;1 A
34.7360019123;0.599609375;0.13421630859375;2.2499999943193;226;1 A
34.7460019122748;0.599639892578125;0.134368896484375;2.25999999429405;227;1 A
34.7560019122495;0.599578857421875;0.13458251953125;2.2699999942688;228;1 A
34.7660019122243;0.599609375;0.134735107421875;2.27999999424355;229;1 A
34.776001912199;0.599609375;0.134979248046875;2.28999999421831;230;1 A
34.7860019121738;0.599609375;0.135162353515625;2.29999999419306;231;1 A
34.7960019121485;0.599609375;0.135467529296875;2.30999999416781;232;1 A
34.8060019121233;0.599609375;0.1357421875;2.31999999414256;233;1 A
34.816001912098;0.599578857421875;0.13623046875;2.32999999411732;234;1 A
34.8260019120728;0.599578857421875;0.136474609375;2.33999999409207;235;1 A
34.8360019120475;0.59967041015625;0.13677978515625;2.34999999406682;236;1 A
34.8460019120223;0.599609375;0.137054443359375;2.35999999404157;237;1 A
34.8560019119971;0.599578857421875;0.1373291015625;2.36999999401633;238;1 A
34.8660019119718;0.599639892578125;0.137420654296875;2.37999999399108;239;1 A
34.8760019119466;0.59954833984375;0.137664794921875;2.38999999396583;240;1 A
34.8860019119213;0.599609375;0.137786865234375;2.39999999394058;241;1 A
34.8960019118961;0.599578857421875;0.13800048828125;2.40999999391533;242;1 A
34.9060019118708;0.599578857421875;0.13812255859375;2.41999999389009;243;1 A
34.9160019118456;0.5997314453125;0.138397216796875;2.42999999386484;244;1 A
34.9260019118203;0.59954833984375;0.138519287109375;2.43999999383959;245;1 A
34.9360019117951;0.59954833984375;0.138916015625;2.44999999381434;246;1 A
34.9460019117698;0.599578857421875;0.139007568359375;2.4599999937891;247;1 A
34.9560019117446;0.599578857421875;0.139251708984375;2.46999999376385;248;1 A
34.9660019117193;0.599609375;0.139495849609375;2.4799999937386;249;1 A
34.9760019116941;0.599578857421875;0.13970947265625;2.48999999371335;250;1 A
34.9860019116688;0.599609375;0.1397705078125;2.49999999368811;251;1 A
34.9960019116436;0.599578857421875;0.139862060546875;2.50999999366286;252;1 A
35.0060019116183;0.599578857421875;0.139862060546875;2.51999999363761;253;1 A
35.0160019115931;0.59954833984375;0.139892578125;2.52999999361236;254;1 A
35.0260019115678;0.59954833984375;0.139984130859375;2.53999999358712;255;1 A
35.0360019115426;0.599578857421875;0.140045166015625;2.54999999356187;256;1 A
35.0460019115174;0.599609375;0.14013671875;2.55999999353662;257;1 A
35.0560019114921;0.59954833984375;0.140411376953125;2.56999999351137;258;1 A
35.0660019114669;0.599578857421875;0.140350341796875;2.57999999348613;259;1 A
35.0760019114416;0.599578857421875;0.140380859375;2.58999999346088;260;1 A
35.0860019114164;0.599578857421875;0.140380859375;2.59999999343563;261;1 A
35.0960019113911;0.599609375;0.140411376953125;2.60999999341038;262;1 A
35.1060019113659;0.599609375;0.140350341796875;2.61999999338514;263;1 A
35.1160019113406;0.599578857421875;0.1402587890625;2.62999999335989;264;1 A
35.1260019113154;0.59954833984375;0.14007568359375;2.63999999333464;265;1 A
35.1360019112901;0.599609375;0.139923095703125;2.64999999330939;266;1 A
35.1460019112649;0.599517822265625;0.139892578125;2.65999999328415;267;1 A
35.1560019112396;0.59967041015625;0.13983154296875;2.6699999932589;268;1 A
35.1660019112144;0.599639892578125;0.139801025390625;2.67999999323365;269;1 A
35.1760019111891;0.599578857421875;0.139862060546875;2.6899999932084;270;1 A
35.1860019111639;0.599578857421875;0.139739990234375;2.69999999318316;271;1 A
35.1960019111386;0.599609375;0.1397705078125;2.70999999315791;272;1 A
35.2060019111134;0.599609375;0.1397705078125;2.71999999313266;273;1 A
35.2160019110881;0.599639892578125;0.139862060546875;2.72999999310741;274;1 A
35.2260019110629;0.599517822265625;0.1397705078125;2.73999999308217;275;1 A
35.2360019110376;0.599609375;0.13970947265625;2.74999999305692;276;1 A
35.2460019110124;0.599639892578125;0.13958740234375;2.75999999303167;277;1 A
35.2560019109872;0.599578857421875;0.13958740234375;2.76999999300642;278;1 A
35.2660019109619;0.599578857421875;0.139556884765625;2.77999999298117;279;1 A
35.2760019109367;0.599578857421875;0.139678955078125;2.78999999295593;280;1 A
35.2860019109114;0.599578857421875;0.1397705078125;2.79999999293068;281;1 A
35.2960019108862;0.59954833984375;0.1400146484375;2.80999999290543;282;1 A
35.3060019108609;0.599578857421875;0.139984130859375;2.81999999288018;283;1 A
35.3160019108357;0.599609375;0.140106201171875;2.82999999285494;284;1 A
35.3260019108104;0.599609375;0.14013671875;2.83999999282969;285;1 A
35.3360019107852;0.599517822265625;0.14031982421875;2.84999999280444;286;1 A
35.3460019107599;0.599609375;0.140289306640625;2.85999999277919;287;1 A
35.3560019107347;0.599609375;0.140350341796875;2.86999999275395;288;1 A
35.3660019107094;0.59954833984375;0.140289306640625;2.8799999927287;289;1 A
35.3760019106842;0.59954833984375;0.14031982421875;2.88999999270345;290;1 A
35.3860019106589;0.59954833984375;0.1402587890625;2.8999999926782;291;1 A
35.3960019106337;0.599517822265625;0.140380859375;2.90999999265296;292;1 A
35.4060019106084;0.599578857421875;0.14044189453125;2.91999999262771;293;1 A
35.4160019105832;0.599609375;0.140716552734375;2.92999999260246;294;1 A
35.4260019105579;0.59954833984375;0.140777587890625;2.93999999257721;295;1 A
35.4360019105327;0.599609375;0.140899658203125;2.94999999255197;296;1 A
35.4460019105074;0.599609375;0.140960693359375;2.95999999252672;297;1 A
35.4560019104822;0.599578857421875;0.14111328125;2.96999999250147;298;1 A
35.466001910457;0.599639892578125;0.141082763671875;2.97999999247622;299;1 A
35.4760019104317;0.599609375;0.14117431640625;2.98999999245098;300;1 A
35.4860019104065;0.599609375;0.14117431640625;2.99999999242573;301;1 A
35.4960019103812;0.599609375;0.141265869140625;3.00999999240048;302;1 A
35.506001910356;0.599609375;0.141265869140625;3.01999999237523;303;1 A
35.5160019103307;0.599609375;0.1414794921875;3.02999999234999;304;1 A
35.5260019103055;0.599578857421875;0.1416015625;3.03999999232474;305;1 A
35.5360019102802;0.599639892578125;0.1419677734375;3.04999999229949;306;1 A
35.546001910255;0.59954833984375;0.14208984375;3.05999999227424;307;1 A
35.5560019102297;0.599609375;0.14239501953125;3.069999992249;308;1 A
35.5660019102045;0.599609375;0.142730712890625;3.07999999222375;309;1 A
35.5760019101792;0.59954833984375;0.14306640625;3.0899999921985;310;1 A
35.586001910154;0.599517822265625;0.143280029296875;3.09999999217325;311;1 A
35.5960019101287;0.599609375;0.14349365234375;3.109999992148;312;1 A
35.6060019101035;0.59954833984375;0.143585205078125;3.11999999212276;313;1 A
35.6160019100782;0.599578857421875;0.1436767578125;3.12999999209751;314;1 A
35.626001910053;0.599609375;0.143890380859375;3.13999999207226;315;1 A
35.6360019100277;0.59954833984375;0.14404296875;3.14999999204701;316;1 A
35.6460019100025;0.599609375;0.144256591796875;3.15999999202177;317;1 A
35.6560019099772;0.599578857421875;0.144561767578125;3.16999999199652;318;1 A
35.666001909952;0.599639892578125;0.144561767578125;3.17999999197127;319;1 A
35.6760019099268;0.59967041015625;0.144683837890625;3.18999999194602;320;1 A
35.6860019099015;0.599578857421875;0.144775390625;3.19999999192078;321;1 A
35.6960019098763;0.599578857421875;0.1448974609375;3.20999999189553;322;1 A
35.706001909851;0.59967041015625;0.144989013671875;3.21999999187028;323;1 A
35.7160019098258;0.599639892578125;0.145050048828125;3.22999999184503;324;1 A
35.7260019098005;0.599609375;0.145050048828125;3.23999999181979;325;1 A
35.7360019097753;0.599578857421875;0.145050048828125;3.24999999179454;326;1 A
35.74600190975;0.599609375;0.145172119140625;3.25999999176929;327;1 A
35.7560019097248;0.599609375;0.145233154296875;3.26999999174404;328;1 A
35.7660019096995;0.599578857421875;0.14532470703125;3.2799999917188;329;1 A
35.7760019096743;0.599578857421875;0.1455078125;3.28999999169355;330;1 A
35.786001909649;0.599578857421875;0.14556884765625;3.2999999916683;331;1 A
35.7960019096238;0.599639892578125;0.145721435546875;3.30999999164305;332;1 A
35.8060019095985;0.599639892578125;0.145843505859375;3.31999999161781;333;1 A
35.8160019095733;0.59967041015625;0.145965576171875;3.32999999159256;334;1 A
35.826001909548;0.599578857421875;0.14599609375;3.33999999156731;335;1 A
35.8360019095228;0.599578857421875;0.14599609375;3.34999999154206;336;1 A
35.8460019094975;0.599578857421875;0.14593505859375;3.35999999151682;337;1 A
35.8560019094723;0.599639892578125;0.14593505859375;3.36999999149157;338;1 A
35.866001909447;0.599639892578125;0.145904541015625;3.37999999146632;339;1 A
35.8760019094218;0.599578857421875;0.14593505859375;3.38999999144107;340;1 A
35.8860019093966;0.599639892578125;0.145904541015625;3.39999999141583;341;1 A
35.8960019093713;0.599639892578125;0.146026611328125;3.40999999139058;342;1 A
35.9060019093461;0.599639892578125;0.145965576171875;3.41999999136533;343;1 A
35.9160019093208;0.599639892578125;0.14599609375;3.42999999134008;344;1 A
35.9260019092956;0.599609375;0.14605712890625;3.43999999131483;345;1 A
35.9360019092703;0.599578857421875;0.14617919921875;3.44999999128959;346;1 A
35.9460019092451;0.599578857421875;0.146148681640625;3.45999999126434;347;1 A
35.9560019092198;0.599639892578125;0.14617919921875;3.46999999123909;348;1 A
35.9660019091946;0.59954833984375;0.14605712890625;3.47999999121384;349;1 A
35.9760019091693;0.599578857421875;0.14599609375;3.4899999911886;350;1 A
35.9860019091441;0.599609375;0.145843505859375;3.49999999116335;351;1 A
35.9960019091188;0.599578857421875;0.1458740234375;3.5099999911381;352;1 A
36.0060019090936;0.599609375;0.14581298828125;3.51999999111285;353;1 A
36.0160019090683;0.599609375;0.14593505859375;3.52999999108761;354;1 A
36.0260019090431;0.599578857421875;0.145843505859375;3.53999999106236;355;1 A
36.0360019090178;0.599578857421875;0.145843505859375;3.54999999103711;356;1 A
36.0460019089926;0.599517822265625;0.145782470703125;3.55999999101186;357;1 A
36.0560019089673;0.599609375;0.145751953125;3.56999999098662;358;1 A
36.0660019089421;0.599609375;0.145599365234375;3.57999999096137;359;1 A
36.0760019089169;0.599609375;0.14556884765625;3.58999999093612;360;1 A
36.0860019088916;0.599578857421875;0.145416259765625;3.59999999091087;361;1 A
36.0960019088664;0.599639892578125;0.145355224609375;3.60999999088563;362;1 A
36.1060019088411;0.59954833984375;0.145263671875;3.61999999086038;363;1 A
36.1160019088159;0.599609375;0.145355224609375;3.62999999083513;364;1 A
36.1260019087906;0.599609375;0.145294189453125;3.63999999080988;365;1 A
36.1360019087654;0.59967041015625;0.145477294921875;3.64999999078464;366;1 A
36.1460019087401;0.599609375;0.145416259765625;3.65999999075939;367;1 A
36.1560019087149;0.599609375;0.1455078125;3.66999999073414;368;1 A
36.1660019086896;0.599609375;0.1456298828125;3.67999999070889;369;1 A
36.1760019086644;0.599578857421875;0.145751953125;3.68999999068365;370;1 A
36.1860019086391;0.59954833984375;0.145721435546875;3.6999999906584;371;1 A
36.1960019086139;0.599578857421875;0.145751953125;3.70999999063315;372;1 A
36.2060019085886;0.599609375;0.1456298828125;3.7199999906079;373;1 A
36.2160019085634;0.599700927734375;0.145538330078125;3.72999999058266;374;1 A
36.2260019085381;0.599609375;0.1455078125;3.73999999055741;375;1 A
36.2360019085129;0.599456787109375;0.145477294921875;3.74999999053216;376;1 A
36.2460019084876;0.59954833984375;0.1455078125;3.75999999050691;377;1 A
36.2560019084624;0.599609375;0.145599365234375;3.76999999048167;378;1 A
36.2660019084371;0.599609375;0.14544677734375;3.77999999045642;379;1 A
36.2760019084119;0.599639892578125;0.145416259765625;3.78999999043117;380;1 A
36.2860019083867;0.599609375;0.145355224609375;3.79999999040592;381;1 A
36.2960019083614;0.599639892578125;0.145355224609375;3.80999999038067;382;1 A
36.3060019083362;0.599609375;0.145294189453125;3.81999999035543;383;1 A
36.3160019083109;0.599609375;0.145263671875;3.82999999033018;384;1 A
36.3260019082857;0.599609375;0.145172119140625;3.83999999030493;385;1 A
36.3360019082604;0.599639892578125;0.1451416015625;3.84999999027968;386;1 A
36.3460019082352;0.59954833984375;0.1451416015625;3.85999999025444;387;1 A
36.3560019082099;0.59954833984375;0.145172119140625;3.86999999022919;388;1 A
36.3660019081847;0.59954833984375;0.145263671875;3.87999999020394;389;1 A
36.3760019081594;0.59954833984375;0.145477294921875;3.88999999017869;390;1 A
36.3860019081342;0.599609375;0.145538330078125;3.89999999015345;391;1 A
36.3960019081089;0.59954833984375;0.145751953125;3.9099999901282;392;1 A
36.4060019080837;0.599609375;0.145843505859375;3.91999999010295;393;1 A
36.4160019080584;0.599578857421875;0.146026611328125;3.9299999900777;394;1 A
36.4260019080332;0.59954833984375;0.14599609375;3.93999999005246;395;1 A
36.4360019080079;0.599578857421875;0.14599609375;3.94999999002721;396;1 A
36.4460019079827;0.599639892578125;0.14593505859375;3.95999999000196;397;1 A
36.4560019079574;0.599609375;0.145904541015625;3.96999998997671;398;1 A
36.4660019079322;0.599609375;0.1458740234375;3.97999998995147;399;1 A
36.4760019079069;0.59954833984375;0.14593505859375;3.98999998992622;400;1 A
36.4860019078817;0.599578857421875;0.145904541015625;3.99999998990097;401;1 A
36.4960019078565;0.599578857421875;0.146026611328125;4.00999998987572;402;1 A
36.5060019078312;0.599639892578125;0.14593505859375;4.01999998985048;403;1 A
36.516001907806;0.599639892578125;0.14593505859375;4.02999998982523;404;1 A
36.5260019077807;0.599578857421875;0.14593505859375;4.03999998979998;405;1 A
36.5360019077555;0.599578857421875;0.14599609375;4.04999998977473;406;1 A
36.5460019077302;0.599639892578125;0.14593505859375;4.05999998974949;407;1 A
36.556001907705;0.599578857421875;0.14593505859375;4.06999998972424;408;1 A
36.5660019076797;0.599609375;0.145843505859375;4.07999998969899;409;1 A
36.5760019076545;0.599578857421875;0.145843505859375;4.08999998967374;410;1 A
36.5860019076292;0.599578857421875;0.145782470703125;4.0999999896485;411;1 A
36.596001907604;0.599609375;0.1458740234375;4.10999998962325;412;1 A
36.6060019075787;0.599517822265625;0.145965576171875;4.119999989598;413;1 A
36.6160019075535;0.599609375;0.146209716796875;4.12999998957275;414;1 A
36.6260019075282;0.599609375;0.146270751953125;4.1399999895475;415;1 A
36.636001907503;0.599578857421875;0.1463623046875;4.14999998952226;416;1 A
36.6460019074777;0.599639892578125;0.146453857421875;4.15999998949701;417;1 A
36.6560019074525;0.599609375;0.14654541015625;4.16999998947176;418;1 A
36.6660019074272;0.599578857421875;0.146514892578125;4.17999998944651;419;1 A
36.676001907402;0.599578857421875;0.146575927734375;4.18999998942127;420;1 A
36.6860019073767;0.599578857421875;0.146514892578125;4.19999998939602;421;1 A
36.6960019073515;0.599578857421875;0.146575927734375;4.20999998937077;422;1 A
36.7060019073263;0.599578857421875;0.146575927734375;4.21999998934552;423;1 A
36.716001907301;0.599517822265625;0.146697998046875;4.22999998932028;424;1 A
36.7260019072758;0.59954833984375;0.146728515625;4.23999998929503;425;1 A
36.7360019072505;0.599578857421875;0.146942138671875;4.24999998926978;426;1 A
36.7460019072253;0.599578857421875;0.14691162109375;4.25999998924453;427;1 A
36.7560019072;0.599639892578125;0.14697265625;4.26999998921929;428;1 A
36.7660019071748;0.599639892578125;0.14703369140625;4.27999998919404;429;1 A
36.7760019071495;0.59954833984375;0.147125244140625;4.28999998916879;430;1 A
36.7860019071243;0.599639892578125;0.1470947265625;4.29999998914354;431;1 A
36.796001907099;0.599639892578125;0.147064208984375;4.3099999891183;432;1 A
36.8060019070738;0.599609375;0.146942138671875;4.31999998909305;433;1 A
36.8160019070485;0.599578857421875;0.146881103515625;4.3299999890678;434;1 A
36.8260019070233;0.599609375;0.14691162109375;4.33999998904255;435;1 A
36.836001906998;0.599578857421875;0.146942138671875;4.34999998901731;436;1 A
36.8460019069728;0.599578857421875;0.147064208984375;4.35999998899206;437;1 A
36.8560019069475;0.599578857421875;0.14727783203125;4.36999998896681;438;1 A
36.8660019069223;0.599639892578125;0.147247314453125;4.37999998894156;439;1 A
36.876001906897;0.599578857421875;0.1473388671875;4.38999998891632;440;1 A
36.8860019068718;0.599517822265625;0.147369384765625;4.39999998889107;441;1 A
36.8960019068465;0.599639892578125;0.147491455078125;4.40999998886582;442;1 A
36.9060019068213;0.599578857421875;0.14752197265625;4.41999998884057;443;1 A
36.9160019067961;0.599639892578125;0.14752197265625;4.42999998881533;444;1 A
36.9260019067708;0.599639892578125;0.147430419921875;4.43999998879008;445;1 A
36.9360019067456;0.599609375;0.1473388671875;4.44999998876483;446;1 A
36.9460019067203;0.599609375;0.1473388671875;4.45999998873958;447;1 A
36.9560019066951;0.599609375;0.14727783203125;4.46999998871433;448;1 A
36.9660019066698;0.599639892578125;0.14727783203125;4.47999998868909;449;1 A
36.9760019066446;0.59954833984375;0.147369384765625;4.48999998866384;450;1 A
36.9860019066193;0.599578857421875;0.147308349609375;4.49999998863859;451;1 A
36.9960019065941;0.599517822265625;0.147308349609375;4.50999998861334;452;1 A
37.0060019065688;0.599609375;0.14727783203125;4.5199999885881;453;1 A
37.0160019065436;0.599609375;0.14727783203125;4.52999998856285;454;1 A
37.0260019065183;0.599609375;0.1470947265625;4.5399999885376;455;1 A
37.0360019064931;0.59954833984375;0.146942138671875;4.54999998851235;456;1 A
37.0460019064678;0.599639892578125;0.146728515625;4.55999998848711;457;1 A
37.0560019064426;0.599578857421875;0.146514892578125;4.56999998846186;458;1 A
37.0660019064173;0.599578857421875;0.146392822265625;4.57999998843661;459;1 A
37.0760019063921;0.59954833984375;0.14630126953125;4.58999998841136;460;1 A
37.0860019063668;0.59954833984375;0.14617919921875;4.59999998838612;461;1 A
37.0960019063416;0.59954833984375;0.14617919921875;4.60999998836087;462;1 A
37.1060019063164;0.599517822265625;0.145965576171875;4.61999998833562;463;1 A
37.1160019062911;0.599639892578125;0.1458740234375;4.62999998831037;464;1 A
37.1260019062659;0.599517822265625;0.145782470703125;4.63999998828513;465;1 A
37.1360019062406;0.59954833984375;0.145721435546875;4.64999998825988;466;1 A
37.1460019062154;0.599578857421875;0.145477294921875;4.65999998823463;467;1 A
37.1560019061901;0.59954833984375;0.145263671875;4.66999998820938;468;1 A
37.1660019061649;0.599639892578125;0.1448974609375;4.67999998818414;469;1 A
37.1760019061396;0.599609375;0.14459228515625;4.68999998815889;470;1 A
37.1860019061144;0.599639892578125;0.144287109375;4.69999998813364;471;1 A
37.1960019060891;0.599578857421875;0.14410400390625;4.70999998810839;472;1 A
37.2060019060639;0.599609375;0.14385986328125;4.71999998808315;473;1 A
37.2160019060386;0.599609375;0.143798828125;4.7299999880579;474;1 A
37.2260019060134;0.599609375;0.143524169921875;4.73999998803265;475;1 A
37.2360019059881;0.599609375;0.143280029296875;4.7499999880074;476;1 A
37.2460019059629;0.599609375;0.14306640625;4.75999998798216;477;1 A
37.2560019059376;0.599578857421875;0.142822265625;4.76999998795691;478;1 A
37.2660019059124;0.599609375;0.142486572265625;4.77999998793166;479;1 A
37.2760019058871;0.599578857421875;0.1422119140625;4.78999998790641;480;1 A
37.2860019058619;0.599609375;0.14178466796875;4.79999998788116;481;1 A
37.2960019058366;0.599639892578125;0.141448974609375;4.80999998785592;482;1 A
37.3060019058114;0.599639892578125;0.14117431640625;4.81999998783067;483;1 A
37.3160019057862;0.599609375;0.14093017578125;4.82999998780542;484;1 A
37.3260019057609;0.59954833984375;0.14068603515625;4.83999998778017;485;1 A
37.3360019057357;0.599639892578125;0.140625;4.84999998775493;486;1 A
37.3460019057104;0.599609375;0.140350341796875;4.85999998772968;487;1 A
37.3560019056852;0.599639892578125;0.140228271484375;4.86999998770443;488;1 A
37.3660019056599;0.599609375;0.14007568359375;4.87999998767918;489;1 A
37.3760019056347;0.599517822265625;0.139923095703125;4.88999998765394;490;1 A
37.3860019056094;0.599609375;0.1396484375;4.89999998762869;491;1 A
37.3960019055842;0.599609375;0.139404296875;4.90999998760344;492;1 A
37.4060019055589;0.599609375;0.13897705078125;4.91999998757819;493;1 A
37.4160019055337;0.599609375;0.138702392578125;4.92999998755295;494;1 A
37.4260019055084;0.599609375;0.138427734375;4.9399999875277;495;1 A
37.4360019054832;0.59954833984375;0.138275146484375;4.94999998750245;496;1 A
37.4460019054579;0.599609375;0.13818359375;4.9599999874772;497;1 A
37.4560019054327;0.59954833984375;0.138153076171875;4.96999998745196;498;1 A
37.4660019054074;0.599578857421875;0.137847900390625;4.97999998742671;499;1 A
37.4760019053822;0.59954833984375;0.137786865234375;4.98999998740146;500;1 A
37.4860019053569;0.599578857421875;0.1376953125;4.99999998737621;501;1 A
37.4960019053317;0.599609375;0.137664794921875;5.00999998735097;502;1 A
37.5060019053064;0.599609375;0.13751220703125;5.01999998732572;503;1 A
37.5160019052812;0.599578857421875;0.13739013671875;5.02999998730047;504;1 A
37.526001905256;0.599578857421875;0.137115478515625;5.03999998727522;505;1 A
37.5360019052307;0.599578857421875;0.136932373046875;5.04999998724998;506;1 A
37.5460019052055;0.599609375;0.13677978515625;5.05999998722473;507;1 A
37.5560019051802;0.599639892578125;0.13665771484375;5.06999998719948;508;1 A
37.566001905155;0.599578857421875;0.136505126953125;5.07999998717423;509;1 A
37.5760019051297;0.599578857421875;0.136566162109375;5.08999998714899;510;1 A
37.5860019051045;0.59954833984375;0.136322021484375;5.09999998712374;511;1 A
37.5960019050792;0.599609375;0.13629150390625;5.10999998709849;512;1 A
37.606001905054;0.599578857421875;0.136199951171875;5.11999998707324;513;1 A
37.6160019050287;0.59954833984375;0.1361083984375;5.129999987048;514;1 A
37.6260019050035;0.599578857421875;0.135772705078125;5.13999998702275;515;1 A
37.6360019049782;0.599578857421875;0.13555908203125;5.1499999869975;516;1 A
37.646001904953;0.599639892578125;0.13519287109375;5.15999998697225;517;1 A
37.6560019049277;0.599578857421875;0.1348876953125;5.169999986947;518;1 A
37.6660019049025;0.599517822265625;0.134552001953125;5.17999998692176;519;1 A
37.6760019048772;0.599609375;0.1343994140625;5.18999998689651;520;1 A
37.686001904852;0.599578857421875;0.134124755859375;5.19999998687126;521;1 A
37.6960019048267;0.599609375;0.134063720703125;5.20999998684601;522;1 A
37.7060019048015;0.599609375;0.1336669921875;5.21999998682077;523;1 A
37.7160019047762;0.599609375;0.133544921875;5.22999998679552;524;1 A
37.726001904751;0.59954833984375;0.133453369140625;5.23999998677027;525;1 A
37.7360019047258;0.59967041015625;0.13336181640625;5.24999998674502;526;1 A
37.7460019047005;0.599578857421875;0.133209228515625;5.25999998671978;527;1 A
37.7560019046753;0.599700927734375;0.133056640625;5.26999998669453;528;1 A
37.76600190465;0.59954833984375;0.1328125;5.27999998666928;529;1 A
37.7760019046248;0.599578857421875;0.13262939453125;5.28999998664403;530;1 A
37.7860019045995;0.599609375;0.132537841796875;5.29999998661879;531;1 A
37.7960019045743;0.599639892578125;0.13250732421875;5.30999998659354;532;1 A
37.806001904549;0.599578857421875;0.132537841796875;5.31999998656829;533;1 A
37.8160019045238;0.599578857421875;0.132720947265625;5.32999998654304;534;1 A
37.8260019044985;0.59967041015625;0.132598876953125;5.3399999865178;535;1 A
37.8360019044733;0.599609375;0.132659912109375;5.34999998649255;536;1 A
37.846001904448;0.599609375;0.132659912109375;5.3599999864673;537;1 A
37.8560019044228;0.59954833984375;0.1326904296875;5.36999998644205;538;1 A
37.8660019043975;0.599609375;0.132720947265625;5.37999998641681;539;1 A
37.8760019043723;0.59954833984375;0.13275146484375;5.38999998639156;540;1 A
37.886001904347;0.599609375;0.132659912109375;5.39999998636631;541;1 A
37.8960019043218;0.599609375;0.132598876953125;5.40999998634106;542;1 A
37.9060019042965;0.599639892578125;0.13262939453125;5.41999998631582;543;1 A
37.9160019042713;0.599578857421875;0.1326904296875;5.42999998629057;544;1 A
37.926001904246;0.599639892578125;0.132781982421875;5.43999998626532;545;1 A
37.9360019042208;0.599578857421875;0.13299560546875;5.44999998624007;546;1 A
37.9460019041956;0.59954833984375;0.132965087890625;5.45999998621483;547;1 A
37.9560019041703;0.59967041015625;0.133087158203125;5.46999998618958;548;1 A
37.9660019041451;0.599578857421875;0.13311767578125;5.47999998616433;549;1 A
37.9760019041198;0.599578857421875;0.133209228515625;5.48999998613908;550;1 A
37.9860019040946;0.59967041015625;0.1331787109375;5.49999998611383;551;1 A
37.9960019040693;0.599761962890625;0.133209228515625;5.50999998608859;552;1 A
38.0060019040441;0.59954833984375;0.133056640625;5.51999998606334;553;1 A
38.0160019040188;0.599578857421875;0.133056640625;5.52999998603809;554;1 A
38.0260019039936;0.599578857421875;0.133056640625;5.53999998601284;555;1 A
38.0360019039683;0.599578857421875;0.133148193359375;5.5499999859876;556;1 A
38.0460019039431;0.599639892578125;0.13323974609375;5.55999998596235;557;1 A
38.0560019039178;0.599456787109375;0.133392333984375;5.5699999859371;558;1 A
38.0660019038926;0.599609375;0.13323974609375;5.57999998591185;559;1 A
38.0760019038673;0.599609375;0.13330078125;5.58999998588661;560;1 A
38.0860019038421;0.599609375;0.13330078125;5.59999998586136;561;1 A
38.0960019038168;0.599639892578125;0.13336181640625;5.60999998583611;562;1 A
38.1060019037916;0.59954833984375;0.13330078125;5.61999998581086;563;1 A
38.1160019037663;0.5994873046875;0.13330078125;5.62999998578562;564;1 A
38.1260019037411;0.599578857421875;0.13311767578125;5.63999998576037;565;1 A
38.1360019037159;0.599609375;0.13299560546875;5.64999998573512;566;1 A
38.1460019036906;0.599578857421875;0.1329345703125;5.65999998570987;567;1 A
38.1560019036654;0.599609375;0.1329345703125;5.66999998568463;568;1 A
38.1660019036401;0.599578857421875;0.132843017578125;5.67999998565938;569;1 A
38.1760019036149;0.599456787109375;0.13299560546875;5.68999998563413;570;1 A
38.1860019035896;0.599609375;0.13287353515625;5.69999998560888;571;1 A
38.1960019035644;0.599639892578125;0.1329345703125;5.70999998558364;572;1 A
38.2060019035391;0.599578857421875;0.132965087890625;5.71999998555839;573;1 A
38.2160019035139;0.599578857421875;0.133026123046875;5.72999998553314;574;1 A
38.2260019034886;0.599609375;0.1329345703125;5.73999998550789;575;1 A
38.2360019034634;0.5994873046875;0.13299560546875;5.74999998548265;576;1 A
38.2460019034381;0.599609375;0.1329345703125;5.7599999854574;577;1 A
38.2560019034129;0.599639892578125;0.1329345703125;5.76999998543215;578;1 A
38.2660019033876;0.599609375;0.132965087890625;5.7799999854069;579;1 A
38.2760019033624;0.599578857421875;0.1331787109375;5.78999998538166;580;1 A
38.2860019033371;0.599517822265625;0.133209228515625;5.79999998535641;581;1 A
38.2960019033119;0.59954833984375;0.13348388671875;5.80999998533116;582;1 A
38.3060019032866;0.599578857421875;0.1334228515625;5.81999998530591;583;1 A
38.3160019032614;0.59954833984375;0.133575439453125;5.82999998528066;584;1 A
38.3260019032361;0.599609375;0.133758544921875;5.83999998525542;585;1 A
38.3360019032109;0.599639892578125;0.133819580078125;5.84999998523017;586;1 A
38.3460019031857;0.599639892578125;0.133758544921875;5.85999998520492;587;1 A
38.3560019031604;0.5994873046875;0.133636474609375;5.86999998517967;588;1 A
38.3660019031352;0.599609375;0.13336181640625;5.87999998515443;589;1 A
38.3760019031099;0.599517822265625;0.133148193359375;5.88999998512918;590;1 A
38.3860019030847;0.599609375;0.132965087890625;5.89999998510393;591;1 A
38.3960019030594;0.599609375;0.1328125;5.90999998507868;592;1 A
38.4060019030342;0.599609375;0.132720947265625;5.91999998505344;593;1 A
38.4160019030089;0.59967041015625;0.13275146484375;5.92999998502819;594;1 A
38.4260019029837;0.59954833984375;0.13250732421875;5.93999998500294;595;1 A
38.4360019029584;0.599578857421875;0.132415771484375;5.94999998497769;596;1 A
38.4460019029332;0.599609375;0.132293701171875;5.95999998495245;597;1 A
38.4560019029079;0.59954833984375;0.1322021484375;5.9699999849272;598;1 A
38.4660019028827;0.599609375;0.132110595703125;5.97999998490195;599;1 A
38.4760019028574;0.599456787109375;0.131988525390625;5.9899999848767;600;1 A
38.4860019028322;0.599639892578125;0.131744384765625;5.99999998485146;601;1 A
38.4960019028069;0.599639892578125;0.131561279296875;6.00999998482621;602;1 A
38.5060019027817;0.599639892578125;0.13153076171875;6.01999998480096;603;1 A
38.5160019027564;0.599578857421875;0.1314697265625;6.02999998477571;604;1 A
38.5260019027312;0.599578857421875;0.1314697265625;6.03999998475047;605;1 A
38.5360019027059;0.599578857421875;0.131591796875;6.04999998472522;606;1 A
38.5460019026807;0.599609375;0.1314697265625;6.05999998469997;607;1 A
38.5560019026555;0.599639892578125;0.131500244140625;6.06999998467472;608;1 A
38.5660019026302;0.599578857421875;0.1314697265625;6.07999998464948;609;1 A
38.576001902605;0.599609375;0.131500244140625;6.08999998462423;610;1 A
38.5860019025797;0.599609375;0.131317138671875;6.09999998459898;611;1 A
38.5960019025545;0.599456787109375;0.131256103515625;6.10999998457373;612;1 A
38.6060019025292;0.59954833984375;0.131011962890625;6.11999998454849;613;1 A
38.616001902504;0.599609375;0.13092041015625;6.12999998452324;614;1 A
38.6260019024787;0.599609375;0.130767822265625;6.13999998449799;615;1 A
38.6360019024535;0.599609375;0.130828857421875;6.14999998447274;616;1 A
38.6460019024282;0.599578857421875;0.13092041015625;6.1599999844475;617;1 A
38.656001902403;0.599700927734375;0.131072998046875;6.16999998442225;618;1 A
38.6660019023777;0.599578857421875;0.130950927734375;6.179999984397;619;1 A
38.6760019023525;0.599609375;0.13104248046875;6.18999998437175;620;1 A
38.6860019023272;0.599578857421875;0.131072998046875;6.1999999843465;621;1 A
38.696001902302;0.599609375;0.131195068359375;6.20999998432126;622;1 A
38.7060019022767;0.599578857421875;0.131072998046875;6.21999998429601;623;1 A
38.7160019022515;0.59954833984375;0.13104248046875;6.22999998427076;624;1 A
38.7260019022262;0.599639892578125;0.1307373046875;6.23999998424551;625;1 A
38.736001902201;0.599609375;0.130523681640625;6.24999998422027;626;1 A
38.7460019021757;0.599609375;0.130279541015625;6.25999998419502;627;1 A
38.7560019021505;0.599639892578125;0.130279541015625;6.26999998416977;628;1 A
38.7660019021253;0.59954833984375;0.130218505859375;6.27999998414452;629;1 A
38.7760019021;0.59967041015625;0.130401611328125;6.28999998411928;630;1 A
38.7860019020748;0.599578857421875;0.1302490234375;6.29999998409403;631;1 A
38.7960019020495;0.599609375;0.13031005859375;6.30999998406878;632;1 A
38.8060019020243;0.599609375;0.130401611328125;6.31999998404353;633;1 A
38.816001901999;0.59954833984375;0.1304931640625;6.32999998401829;634;1 A
38.8260019019738;0.599578857421875;0.13037109375;6.33999998399304;635;1 A
38.8360019019485;0.599456787109375;0.130401611328125;6.34999998396779;636;1 A
38.8460019019233;0.59954833984375;0.1302490234375;6.35999998394254;637;1 A
38.856001901898;0.599578857421875;0.13018798828125;6.3699999839173;638;1 A
38.8660019018728;0.599639892578125;0.13006591796875;6.37999998389205;639;1 A
38.8760019018475;0.599609375;0.130218505859375;6.3899999838668;640;1 A
38.8860019018223;0.599609375;0.1302490234375;6.39999998384155;641;1 A
38.896001901797;0.59967041015625;0.13055419921875;6.40999998381631;642;1 A
38.9060019017718;0.599609375;0.1304931640625;6.41999998379106;643;1 A
38.9160019017465;0.599609375;0.130706787109375;6.42999998376581;644;1 A
38.9260019017213;0.599639892578125;0.1309814453125;6.43999998374056;645;1 A
38.936001901696;0.5997314453125;0.131134033203125;6.44999998371532;646;1 A
38.9460019016708;0.599609375;0.13116455078125;6.45999998369007;647;1 A
38.9560019016455;0.599456787109375;0.131195068359375;6.46999998366482;648;1 A
38.9660019016203;0.599578857421875;0.13104248046875;6.47999998363957;649;1 A
38.9760019015951;0.599578857421875;0.130950927734375;6.48999998361433;650;1 A
38.9860019015698;0.599609375;0.130950927734375;6.49999998358908;651;1 A
38.9960019015446;0.599578857421875;0.1309814453125;6.50999998356383;652;1 A
39.0060019015193;0.599609375;0.131103515625;6.51999998353858;653;1 A
39.0160019014941;0.599639892578125;0.131317138671875;6.52999998351333;654;1 A
39.0260019014688;0.599609375;0.131256103515625;6.53999998348809;655;1 A
39.0360019014436;0.599609375;0.131317138671875;6.54999998346284;656;1 A
39.0460019014183;0.599609375;0.13134765625;6.55999998343759;657;1 A
39.0560019013931;0.599578857421875;0.131378173828125;6.56999998341234;658;1 A
39.0660019013678;0.599578857421875;0.131378173828125;6.5799999833871;659;1 A
39.0760019013426;0.599639892578125;0.131256103515625;6.58999998336185;660;1 A
39.0860019013173;0.599578857421875;0.131011962890625;6.5999999833366;661;1 A
39.0960019012921;0.599609375;0.130828857421875;6.60999998331135;662;1 A
39.1060019012668;0.599639892578125;0.1307373046875;6.61999998328611;663;1 A
39.1160019012416;0.599578857421875;0.13067626953125;6.62999998326086;664;1 A
39.1260019012163;0.59967041015625;0.130706787109375;6.63999998323561;665;1 A
39.1360019011911;0.59967041015625;0.130828857421875;6.64999998321036;666;1 A
39.1460019011658;0.599517822265625;0.130767822265625;6.65999998318512;667;1 A
39.1560019011406;0.599578857421875;0.130889892578125;6.66999998315987;668;1 A
39.1660019011154;0.59954833984375;0.130950927734375;6.67999998313462;669;1 A
39.1760019010901;0.599609375;0.131103515625;6.68999998310937;670;1 A
39.1860019010649;0.599609375;0.131072998046875;6.69999998308413;671;1 A
39.1960019010396;0.599456787109375;0.131134033203125;6.70999998305888;672;1 A
39.2060019010144;0.59967041015625;0.131011962890625;6.71999998303363;673;1 A
39.2160019009891;0.599578857421875;0.13104248046875;6.72999998300838;674;1 A
39.2260019009639;0.599609375;0.131072998046875;6.73999998298314;675;1 A
39.2360019009386;0.599609375;0.131256103515625;6.74999998295789;676;1 A
39.2460019009134;0.599578857421875;0.13140869140625;6.75999998293264;677;1 A
39.2560019008881;0.599639892578125;0.13165283203125;6.76999998290739;678;1 A
39.2660019008629;0.59954833984375;0.131622314453125;6.77999998288215;679;1 A
39.2760019008376;0.599578857421875;0.13177490234375;6.7899999828569;680;1 A
39.2860019008124;0.599639892578125;0.1318359375;6.79999998283165;681;1 A
39.2960019007871;0.599609375;0.13201904296875;6.8099999828064;682;1 A
39.3060019007619;0.599578857421875;0.131988525390625;6.81999998278116;683;1 A
39.3160019007366;0.599578857421875;0.13201904296875;6.82999998275591;684;1 A
39.3260019007114;0.599609375;0.13189697265625;6.83999998273066;685;1 A
39.3360019006861;0.599639892578125;0.1318359375;6.84999998270541;686;1 A
39.3460019006609;0.599609375;0.131805419921875;6.85999998268016;687;1 A
39.3560019006356;0.599578857421875;0.131927490234375;6.86999998265492;688;1 A
39.3660019006104;0.599639892578125;0.132049560546875;6.87999998262967;689;1 A
39.3760019005852;0.599700927734375;0.132415771484375;6.88999998260442;690;1 A
39.3860019005599;0.599609375;0.132415771484375;6.89999998257917;691;1 A
39.3960019005347;0.599609375;0.132598876953125;6.90999998255393;692;1 A
39.4060019005094;0.599578857421875;0.1328125;6.91999998252868;693;1 A
39.4160019004842;0.599609375;0.133026123046875;6.92999998250343;694;1 A
39.4260019004589;0.599609375;0.133056640625;6.93999998247818;695;1 A
39.4360019004337;0.599639892578125;0.13323974609375;6.94999998245294;696;1 A
39.4460019004084;0.599609375;0.13323974609375;6.95999998242769;697;1 A
39.4560019003832;0.599578857421875;0.13330078125;6.96999998240244;698;1 A
39.4660019003579;0.599517822265625;0.13336181640625;6.97999998237719;699;1 A
39.4760019003327;0.599578857421875;0.133575439453125;6.98999998235195;700;1 A
39.4860019003074;0.599609375;0.13360595703125;6.9999999823267;701;1 A
39.4960019002822;0.599609375;0.133941650390625;7.00999998230145;702;1 A
39.5060019002569;0.599609375;0.13385009765625;7.0199999822762;703;1 A
39.5160019002317;0.599609375;0.134033203125;7.02999998225096;704;1 A
39.5260019002064;0.599609375;0.134307861328125;7.03999998222571;705;1 A
39.5360019001812;0.59967041015625;0.1343994140625;7.04999998220046;706;1 A
39.5460019001559;0.599609375;0.13433837890625;7.05999998217521;707;1 A
39.5560019001307;0.599639892578125;0.134307861328125;7.06999998214997;708;1 A
39.5660019001054;0.599578857421875;0.13397216796875;7.07999998212472;709;1 A
39.5760019000802;0.599639892578125;0.1337890625;7.08999998209947;710;1 A
39.586001900055;0.599609375;0.1336669921875;7.09999998207422;711;1 A
39.5960019000297;0.599578857421875;0.1336669921875;7.10999998204898;712;1 A
39.6060019000045;0.599639892578125;0.1336669921875;7.11999998202373;713;1 A
39.6160018999792;0.599639892578125;0.1337890625;7.12999998199848;714;1 A
39.626001899954;0.599578857421875;0.133544921875;7.13999998197323;715;1 A
39.6360018999287;0.599609375;0.133575439453125;7.14999998194799;716;1 A
39.6460018999035;0.59954833984375;0.133575439453125;7.15999998192274;717;1 A
39.6560018998782;0.599578857421875;0.13360595703125;7.16999998189749;718;1 A
39.666001899853;0.599609375;0.13360595703125;7.17999998187224;719;1 A
39.6760018998277;0.599639892578125;0.133514404296875;7.189999981847;720;1 A
39.6860018998025;0.599578857421875;0.13311767578125;7.19999998182175;721;1 A
39.6960018997772;0.599609375;0.1329345703125;7.2099999817965;722;1 A
39.706001899752;0.599578857421875;0.1328125;7.21999998177125;723;1 A
39.7160018997267;0.599609375;0.132781982421875;7.229999981746;724;1 A
39.7260018997015;0.599609375;0.1328125;7.23999998172076;725;1 A
39.7360018996762;0.599578857421875;0.132904052734375;7.24999998169551;726;1 A
39.746001899651;0.599609375;0.132781982421875;7.25999998167026;727;1 A
39.7560018996257;0.59954833984375;0.132904052734375;7.26999998164501;728;1 A
39.7660018996005;0.599517822265625;0.132965087890625;7.27999998161977;729;1 A
39.7760018995752;0.599639892578125;0.13311767578125;7.28999998159452;730;1 A
39.78600189955;0.599609375;0.13299560546875;7.29999998156927;731;1 A
39.7960018995248;0.599578857421875;0.133026123046875;7.30999998154402;732;1 A
39.8060018994995;0.599639892578125;0.1328125;7.31999998151878;733;1 A
39.8160018994743;0.599578857421875;0.132781982421875;7.32999998149353;734;1 A
39.826001899449;0.599609375;0.132720947265625;7.33999998146828;735;1 A
39.8360018994238;0.599639892578125;0.13275146484375;7.34999998144303;736;1 A
39.8460018993985;0.599578857421875;0.13275146484375;7.35999998141779;737;1 A
39.8560018993733;0.59967041015625;0.13287353515625;7.36999998139254;738;1 A
39.866001899348;0.599609375;0.13275146484375;7.37999998136729;739;1 A
39.8760018993228;0.599609375;0.1328125;7.38999998134204;740;1 A
39.8860018992975;0.59954833984375;0.132781982421875;7.3999999813168;741;1 A
39.8960018992723;0.599609375;0.1328125;7.40999998129155;742;1 A
39.906001899247;0.599639892578125;0.132598876953125;7.4199999812663;743;1 A
39.9160018992218;0.59967041015625;0.132476806640625;7.42999998124105;744;1 A
39.9260018991965;0.59954833984375;0.132171630859375;7.43999998121581;745;1 A
39.9360018991713;0.59954833984375;0.131988525390625;7.44999998119056;746;1 A
39.946001899146;0.59954833984375;0.131805419921875;7.45999998116531;747;1 A
39.9560018991208;0.59954833984375;0.131744384765625;7.46999998114006;748;1 A
39.9660018990955;0.599609375;0.131683349609375;7.47999998111482;749;1 A
39.9760018990703;0.59954833984375;0.1318359375;7.48999998108957;750;1 A
39.986001899045;0.599609375;0.131683349609375;7.49999998106432;751;1 A
39.9960018990198;0.599578857421875;0.1317138671875;7.50999998103907;752;1 A
40.0060018989946;0.59954833984375;0.131744384765625;7.51999998101383;753;1 A
40.0160018989693;0.599639892578125;0.131805419921875;7.52999998098858;754;1 A
40.0260018989441;0.599639892578125;0.13177490234375;7.53999998096333;755;1 A
40.0360018989188;0.599639892578125;0.1318359375;7.54999998093808;756;1 A
40.0460018988936;0.599609375;0.1318359375;7.55999998091283;757;1 A
40.0560018988683;0.599578857421875;0.13189697265625;7.56999998088759;758;1 A
40.0660018988431;0.599639892578125;0.1319580078125;7.57999998086234;759;1 A
40.0760018988178;0.599578857421875;0.132110595703125;7.58999998083709;760;1 A
40.0860018987926;0.599578857421875;0.132171630859375;7.59999998081184;761;1 A
40.0960018987673;0.599517822265625;0.13250732421875;7.6099999807866;762;1 A
40.1060018987421;0.599578857421875;0.132476806640625;7.61999998076135;763;1 A
40.1160018987168;0.599609375;0.1326904296875;7.6299999807361;764;1 A
40.1260018986916;0.599609375;0.13287353515625;7.63999998071085;765;1 A
40.1360018986663;0.599578857421875;0.133056640625;7.64999998068561;766;1 A
40.1460018986411;0.59954833984375;0.133056640625;7.65999998066036;767;1 A
40.1560018986158;0.599609375;0.133148193359375;7.66999998063511;768;1 A
40.1660018985906;0.599609375;0.133026123046875;7.67999998060986;769;1 A
40.1760018985653;0.599609375;0.13311767578125;7.68999998058462;770;1 A
40.1860018985401;0.599578857421875;0.13323974609375;7.69999998055937;771;1 A
40.1960018985149;0.59954833984375;0.133544921875;7.70999998053412;772;1 A
40.2060018984896;0.599609375;0.13385009765625;7.71999998050887;773;1 A
40.2160018984644;0.599578857421875;0.134307861328125;7.72999998048363;774;1 A
40.2260018984391;0.599578857421875;0.1343994140625;7.73999998045838;775;1 A
40.2360018984139;0.599578857421875;0.134796142578125;7.74999998043313;776;1 A
40.2460018983886;0.599578857421875;0.13507080078125;7.75999998040788;777;1 A
40.2560018983634;0.599609375;0.135406494140625;7.76999998038264;778;1 A
40.2660018983381;0.599609375;0.13555908203125;7.77999998035739;779;1 A
40.2760018983129;0.599609375;0.135772705078125;7.78999998033214;780;1 A
40.2860018982876;0.599578857421875;0.135650634765625;7.79999998030689;781;1 A
40.2960018982624;0.599517822265625;0.135772705078125;7.80999998028165;782;1 A
40.3060018982371;0.599609375;0.1358642578125;7.8199999802564;783;1 A
40.3160018982119;0.599578857421875;0.136077880859375;7.82999998023115;784;1 A
40.3260018981866;0.59967041015625;0.136260986328125;7.8399999802059;785;1 A
40.3360018981614;0.599578857421875;0.1365966796875;7.84999998018066;786;1 A
40.3460018981361;0.59954833984375;0.13671875;7.85999998015541;787;1 A
40.3560018981109;0.599578857421875;0.13702392578125;7.86999998013016;788;1 A
40.3660018980856;0.599639892578125;0.137420654296875;7.87999998010491;789;1 A
40.3760018980604;0.599639892578125;0.1376953125;7.88999998007966;790;1 A
40.3860018980351;0.599609375;0.13775634765625;7.89999998005442;791;1 A
40.3960018980099;0.599609375;0.137939453125;7.90999998002917;792;1 A
40.4060018979847;0.599609375;0.13800048828125;7.91999998000392;793;1 A
40.4160018979594;0.59967041015625;0.13818359375;7.92999997997867;794;1 A
40.4260018979342;0.599578857421875;0.138397216796875;7.93999997995343;795;1 A
40.4360018979089;0.599609375;0.138763427734375;7.94999997992818;796;1 A
40.4460018978837;0.599639892578125;0.139068603515625;7.95999997990293;797;1 A
40.4560018978584;0.599609375;0.13946533203125;7.96999997987768;798;1 A
40.4660018978332;0.599609375;0.139617919921875;7.97999997985244;799;1 A
40.4760018978079;0.599609375;0.139923095703125;7.98999997982719;800;1 A
40.4860018977827;0.599639892578125;0.1402587890625;7.99999997980194;801;1 A
40.4960018977574;0.599578857421875;0.1405029296875;8.00999997977669;802;1 A
40.5060018977322;0.599609375;0.14056396484375;8.01999997975145;803;1 A
40.5160018977069;0.59967041015625;0.140625;8.0299999797262;804;1 A
40.5260018976817;0.599609375;0.140533447265625;8.03999997970095;805;1 A
40.5360018976564;0.599578857421875;0.140472412109375;8.0499999796757;806;1 A
40.5460018976312;0.599609375;0.14044189453125;8.05999997965046;807;1 A
40.5560018976059;0.599639892578125;0.140472412109375;8.06999997962521;808;1 A
40.5660018975807;0.599639892578125;0.1405029296875;8.07999997959996;809;1 A
40.5760018975554;0.59954833984375;0.140716552734375;8.08999997957471;810;1 A
40.5860018975302;0.599609375;0.140594482421875;8.09999997954947;811;1 A
40.5960018975049;0.599517822265625;0.14068603515625;8.10999997952422;812;1 A
40.6060018974797;0.599609375;0.14080810546875;8.11999997949897;813;1 A
40.6160018974545;0.599609375;0.140869140625;8.12999997947372;814;1 A
40.6260018974292;0.59954833984375;0.14080810546875;8.13999997944848;815;1 A
40.636001897404;0.599609375;0.140838623046875;8.14999997942323;816;1 A
40.6460018973787;0.599639892578125;0.140777587890625;8.15999997939798;817;1 A
40.6560018973535;0.599578857421875;0.140777587890625;8.16999997937273;818;1 A
40.6660018973282;0.599578857421875;0.14080810546875;8.17999997934749;819;1 A
40.676001897303;0.599578857421875;0.140899658203125;8.18999997932224;820;1 A
40.6860018972777;0.59954833984375;0.14093017578125;8.19999997929699;821;1 A
40.6960018972525;0.59954833984375;0.141204833984375;8.20999997927174;822;1 A
40.7060018972272;0.59967041015625;0.14117431640625;8.2199999792465;823;1 A
40.716001897202;0.599609375;0.141357421875;8.22999997922125;824;1 A
40.7260018971767;0.599578857421875;0.141571044921875;8.239999979196;825;1 A
40.7360018971515;0.599578857421875;0.141693115234375;8.24999997917075;826;1 A
40.7460018971262;0.599639892578125;0.14166259765625;8.2599999791455;827;1 A
40.756001897101;0.59967041015625;0.14166259765625;8.26999997912026;828;1 A
40.7660018970757;0.59967041015625;0.1414794921875;8.27999997909501;829;1 A
40.7760018970505;0.599578857421875;0.1414794921875;8.28999997906976;830;1 A
40.7860018970252;0.599609375;0.14141845703125;8.29999997904451;831;1 A
40.796001897;0.599639892578125;0.141571044921875;8.30999997901927;832;1 A
40.8060018969747;0.59954833984375;0.141693115234375;8.31999997899402;833;1 A
40.8160018969495;0.59954833984375;0.141937255859375;8.32999997896877;834;1 A
40.8260018969243;0.59954833984375;0.141876220703125;8.33999997894352;835;1 A
40.836001896899;0.599609375;0.142120361328125;8.34999997891828;836;1 A
40.8460018968738;0.599609375;0.142425537109375;8.35999997889303;837;1 A
40.8560018968485;0.599639892578125;0.14263916015625;8.36999997886778;838;1 A
40.8660018968233;0.599639892578125;0.14263916015625;8.37999997884253;839;1 A
40.876001896798;0.59954833984375;0.142730712890625;8.38999997881729;840;1 A
40.8860018967728;0.599639892578125;0.142547607421875;8.39999997879204;841;1 A
40.8960018967475;0.599578857421875;0.142547607421875;8.40999997876679;842;1 A
40.9060018967223;0.599639892578125;0.14251708984375;8.41999997874154;843;1 A
40.916001896697;0.599609375;0.142547607421875;8.4299999787163;844;1 A
40.9260018966718;0.599578857421875;0.14251708984375;8.43999997869105;845;1 A
40.9360018966465;0.599639892578125;0.14263916015625;8.4499999786658;846;1 A
40.9460018966213;0.599639892578125;0.14251708984375;8.45999997864055;847;1 A
40.956001896596;0.599578857421875;0.14251708984375;8.46999997861531;848;1 A
40.9660018965708;0.599639892578125;0.14263916015625;8.47999997859006;849;1 A
40.9760018965455;0.59954833984375;0.14263916015625;8.48999997856481;850;1 A
40.9860018965203;0.599639892578125;0.142303466796875;8.49999997853956;851;1 A
40.996001896495;0.599609375;0.1422119140625;8.50999997851432;852;1 A
41.0060018964698;0.599609375;0.141876220703125;8.51999997848907;853;1 A
41.0160018964445;0.599639892578125;0.1417236328125;8.52999997846382;854;1 A
41.0260018964193;0.599578857421875;0.14154052734375;8.53999997843857;855;1 A
41.0360018963941;0.599578857421875;0.14154052734375;8.54999997841333;856;1 A
41.0460018963688;0.599578857421875;0.141448974609375;8.55999997838808;857;1 A
41.0560018963436;0.599517822265625;0.14154052734375;8.56999997836283;858;1 A
41.0660018963183;0.599578857421875;0.141387939453125;8.57999997833758;859;1 A
41.0760018962931;0.599578857421875;0.141510009765625;8.58999997831233;860;1 A
41.0860018962678;0.599609375;0.141693115234375;8.59999997828709;861;1 A
41.0960018962426;0.599609375;0.141876220703125;8.60999997826184;862;1 A
41.1060018962173;0.59954833984375;0.141845703125;8.61999997823659;863;1 A
41.1160018961921;0.599517822265625;0.14190673828125;8.62999997821134;864;1 A
41.1260018961668;0.599609375;0.14178466796875;8.6399999781861;865;1 A
41.1360018961416;0.599578857421875;0.141754150390625;8.64999997816085;866;1 A
41.1460018961163;0.59967041015625;0.141754150390625;8.6599999781356;867;1 A
41.1560018960911;0.599578857421875;0.141754150390625;8.66999997811035;868;1 A
41.1660018960658;0.599578857421875;0.141815185546875;8.67999997808511;869;1 A
41.1760018960406;0.59954833984375;0.142059326171875;8.68999997805986;870;1 A
41.1860018960153;0.599609375;0.141998291015625;8.69999997803461;871;1 A
41.1960018959901;0.599578857421875;0.142120361328125;8.70999997800936;872;1 A
41.2060018959648;0.599609375;0.14227294921875;8.71999997798412;873;1 A
41.2160018959396;0.59954833984375;0.14239501953125;8.72999997795887;874;1 A
41.2260018959144;0.59954833984375;0.142425537109375;8.73999997793362;875;1 A
41.2360018958891;0.599578857421875;0.142486572265625;8.74999997790837;876;1 A
41.2460018958639;0.599609375;0.142425537109375;8.75999997788313;877;1 A
41.2560018958386;0.599609375;0.142425537109375;8.76999997785788;878;1 A
41.2660018958134;0.599578857421875;0.142425537109375;8.77999997783263;879;1 A
41.2760018957881;0.59954833984375;0.142364501953125;8.78999997780738;880;1 A
41.2860018957629;0.599578857421875;0.142364501953125;8.79999997778214;881;1 A
41.2960018957376;0.599609375;0.142486572265625;8.80999997775689;882;1 A
41.3060018957124;0.599578857421875;0.142333984375;8.81999997773164;883;1 A
41.3160018956871;0.599609375;0.142425537109375;8.82999997770639;884;1 A
41.3260018956619;0.599578857421875;0.142547607421875;8.83999997768115;885;1 A
41.3360018956366;0.599639892578125;0.142578125;8.8499999776559;886;1 A
41.3460018956114;0.599639892578125;0.142486572265625;8.85999997763065;887;1 A
41.3560018955861;0.59954833984375;0.142425537109375;8.8699999776054;888;1 A
41.3660018955609;0.599609375;0.142059326171875;8.87999997758016;889;1 A
41.3760018955356;0.599517822265625;0.141998291015625;8.88999997755491;890;1 A
41.3860018955104;0.599639892578125;0.14190673828125;8.89999997752966;891;1 A
41.3960018954851;0.599639892578125;0.1419677734375;8.90999997750441;892;1 A
41.4060018954599;0.59967041015625;0.14202880859375;8.91999997747916;893;1 A
41.4160018954346;0.59954833984375;0.1422119140625;8.92999997745392;894;1 A
41.4260018954094;0.599639892578125;0.14208984375;8.93999997742867;895;1 A
41.4360018953842;0.599578857421875;0.142181396484375;8.94999997740342;896;1 A
41.4460018953589;0.599578857421875;0.142242431640625;8.95999997737817;897;1 A
41.4560018953337;0.599609375;0.1422119140625;8.96999997735293;898;1 A
41.4660018953084;0.599609375;0.14202880859375;8.97999997732768;899;1 A
41.4760018952832;0.59954833984375;0.141937255859375;8.98999997730243;900;1 A
41.4860018952579;0.599639892578125;0.14154052734375;8.99999997727718;901;1 A
41.4960018952327;0.599609375;0.141326904296875;9.00999997725194;902;1 A
41.5060018952074;0.59967041015625;0.14117431640625;9.01999997722669;903;1 A
41.5160018951822;0.599609375;0.141143798828125;9.02999997720144;904;1 A
41.5260018951569;0.599517822265625;0.14111328125;9.03999997717619;905;1 A
41.5360018951317;0.599609375;0.141265869140625;9.04999997715095;906;1 A
41.5460018951064;0.599609375;0.14129638671875;9.0599999771257;907;1 A
41.5560018950812;0.599639892578125;0.1414794921875;9.06999997710045;908;1 A
41.5660018950559;0.599609375;0.141815185546875;9.0799999770752;909;1 A
41.5760018950307;0.59954833984375;0.141876220703125;9.08999997704996;910;1 A
41.5860018950054;0.59954833984375;0.1417236328125;9.09999997702471;911;1 A
41.5960018949802;0.59954833984375;0.141815185546875;9.10999997699946;912;1 A
41.6060018949549;0.599609375;0.1417236328125;9.11999997697421;913;1 A
41.6160018949297;0.599609375;0.141815185546875;9.12999997694897;914;1 A
41.6260018949044;0.599609375;0.14190673828125;9.13999997692372;915;1 A
41.6360018948792;0.599639892578125;0.14215087890625;9.14999997689847;916;1 A
41.646001894854;0.59954833984375;0.142242431640625;9.15999997687322;917;1 A
41.6560018948287;0.599639892578125;0.14263916015625;9.16999997684798;918;1 A
41.6660018948035;0.599578857421875;0.142730712890625;9.17999997682273;919;1 A
41.6760018947782;0.599578857421875;0.14312744140625;9.18999997679748;920;1 A
41.686001894753;0.59954833984375;0.143768310546875;9.19999997677223;921;1 A
41.6960018947277;0.599517822265625;0.144012451171875;9.20999997674699;922;1 A
41.7060018947025;0.599639892578125;0.144073486328125;9.21999997672174;923;1 A
41.7160018946772;0.599578857421875;0.14422607421875;9.22999997669649;924;1 A
41.726001894652;0.599578857421875;0.144073486328125;9.23999997667124;925;1 A
41.7360018946267;0.59954833984375;0.144134521484375;9.249999976646;926;1 A
41.7460018946015;0.599578857421875;0.1441650390625;9.25999997662075;927;1 A
41.7560018945762;0.599609375;0.144256591796875;9.2699999765955;928;1 A
41.766001894551;0.59967041015625;0.144378662109375;9.27999997657025;929;1 A
41.7760018945257;0.599639892578125;0.144683837890625;9.289999976545;930;1 A
41.7860018945005;0.599609375;0.144622802734375;9.29999997651976;931;1 A
41.7960018944752;0.599578857421875;0.144805908203125;9.30999997649451;932;1 A
41.80600189445;0.599609375;0.145050048828125;9.31999997646926;933;1 A
41.8160018944247;0.599639892578125;0.145050048828125;9.32999997644401;934;1 A
41.8260018943995;0.59967041015625;0.144989013671875;9.33999997641877;935;1 A
41.8360018943742;0.599517822265625;0.144927978515625;9.34999997639352;936;1 A
41.846001894349;0.59954833984375;0.144744873046875;9.35999997636827;937;1 A
41.8560018943238;0.599578857421875;0.144683837890625;9.36999997634302;938;1 A
41.8660018942985;0.599609375;0.14471435546875;9.37999997631778;939;1 A
41.8760018942733;0.599609375;0.144744873046875;9.38999997629253;940;1 A
41.886001894248;0.59954833984375;0.144805908203125;9.39999997626728;941;1 A
41.8960018942228;0.59954833984375;0.144989013671875;9.40999997624203;942;1 A
41.9060018941975;0.599639892578125;0.144989013671875;9.41999997621679;943;1 A
41.9160018941723;0.599578857421875;0.14520263671875;9.42999997619154;944;1 A
41.926001894147;0.599639892578125;0.145477294921875;9.43999997616629;945;1 A
41.9360018941218;0.599609375;0.145599365234375;9.44999997614104;946;1 A
41.9460018940965;0.599578857421875;0.1455078125;9.4599999761158;947;1 A
41.9560018940713;0.599578857421875;0.145477294921875;9.46999997609055;948;1 A
41.966001894046;0.599609375;0.145263671875;9.4799999760653;949;1 A
41.9760018940208;0.599578857421875;0.145263671875;9.48999997604005;950;1 A
41.9860018939955;0.59954833984375;0.1451416015625;9.49999997601481;951;1 A
41.9960018939703;0.599609375;0.145233154296875;9.50999997598956;952;1 A
42.006001893945;0.599609375;0.14520263671875;9.51999997596431;953;1 A
42.0160018939198;0.599578857421875;0.14532470703125;9.52999997593906;954;1 A
42.0260018938945;0.599578857421875;0.1451416015625;9.53999997591382;955;1 A
42.0360018938693;0.59954833984375;0.145233154296875;9.54999997588857;956;1 A
42.046001893844;0.599578857421875;0.145294189453125;9.55999997586332;957;1 A
42.0560018938188;0.599609375;0.145355224609375;9.56999997583807;958;1 A
42.0660018937936;0.599578857421875;0.1451416015625;9.57999997581283;959;1 A
42.0760018937683;0.59954833984375;0.14508056640625;9.58999997578758;960;1 A
42.0860018937431;0.599578857421875;0.14471435546875;9.59999997576233;961;1 A
42.0960018937178;0.59954833984375;0.144622802734375;9.60999997573708;962;1 A
42.1060018936926;0.599578857421875;0.14447021484375;9.61999997571183;963;1 A
42.1160018936673;0.599578857421875;0.14447021484375;9.62999997568659;964;1 A
42.1260018936421;0.599578857421875;0.1444091796875;9.63999997566134;965;1 A
42.1360018936168;0.599639892578125;0.14459228515625;9.64999997563609;966;1 A
42.1460018935916;0.59954833984375;0.144561767578125;9.65999997561084;967;1 A
42.1560018935663;0.599609375;0.144744873046875;9.6699999755856;968;1 A
42.1660018935411;0.599578857421875;0.14508056640625;9.67999997556035;969;1 A
42.1760018935158;0.599609375;0.14520263671875;9.6899999755351;970;1 A
42.1860018934906;0.599578857421875;0.14508056640625;9.69999997550985;971;1 A
42.1960018934653;0.599578857421875;0.1451416015625;9.70999997548461;972;1 A
42.2060018934401;0.599609375;0.144989013671875;9.71999997545936;973;1 A
42.2160018934148;0.599609375;0.144989013671875;9.72999997543411;974;1 A
42.2260018933896;0.59954833984375;0.144866943359375;9.73999997540886;975;1 A
42.2360018933643;0.59954833984375;0.14495849609375;9.74999997538362;976;1 A
42.2460018933391;0.59954833984375;0.14483642578125;9.75999997535837;977;1 A
42.2560018933139;0.599639892578125;0.144989013671875;9.76999997533312;978;1 A
42.2660018932886;0.599578857421875;0.14483642578125;9.77999997530787;979;1 A
42.2760018932634;0.599578857421875;0.14495849609375;9.78999997528263;980;1 A
42.2860018932381;0.59954833984375;0.145263671875;9.79999997525738;981;1 A
42.2960018932129;0.599517822265625;0.14532470703125;9.80999997523213;982;1 A
42.3060018931876;0.599609375;0.145172119140625;9.81999997520688;983;1 A
42.3160018931624;0.59954833984375;0.1451416015625;9.82999997518164;984;1 A
42.3260018931371;0.599578857421875;0.144866943359375;9.83999997515639;985;1 A
42.3360018931119;0.599517822265625;0.144744873046875;9.84999997513114;986;1 A
42.3460018930866;0.59954833984375;0.1446533203125;9.85999997510589;987;1 A
42.3560018930614;0.59967041015625;0.144561767578125;9.86999997508065;988;1 A
42.3660018930361;0.59967041015625;0.144561767578125;9.8799999750554;989;1 A
42.3760018930109;0.599578857421875;0.14471435546875;9.88999997503015;990;1 A
42.3860018929856;0.599609375;0.144561767578125;9.8999999750049;991;1 A
42.3960018929604;0.599578857421875;0.1446533203125;9.90999997497966;992;1 A
42.4060018929351;0.599639892578125;0.144744873046875;9.91999997495441;993;1 A
42.4160018929099;0.59967041015625;0.14483642578125;9.92999997492916;994;1 A
42.4260018928846;0.599578857421875;0.144805908203125;9.93999997490391;995;1 A
42.4360018928594;0.599609375;0.144805908203125;9.94999997487866;996;1 A
42.4460018928341;0.599578857421875;0.14471435546875;9.95999997485342;997;1 A
42.4560018928089;0.599609375;0.1446533203125;9.96999997482817;998;1 A
42.4660018927837;0.599639892578125;0.144683837890625;9.97999997480292;999;1 A
42.4760018927584;0.59954833984375;0.1446533203125;9.98999997477767;1000;1 A
