Time (s);WE(1).Potential (V);WE(1).Current (A);Corrected time (s);Index;Current range
63.3323258401012;0.650665283203125;1.03729248046875;0;1;1 A
63.342325840076;0.64990234375;0.7476806640625;0.00999999997475243;2;1 A
63.3523258400508;0.649810791015625;0.6170654296875;0.0199999999495049;3;1 A
63.3623258400255;0.649749755859375;0.5377197265625;0.0299999999242573;4;1 A
63.3723258400003;0.649658203125;0.48309326171875;0.0399999998990097;5;1 A
63.382325839975;0.649688720703125;0.4427490234375;0.0499999998737621;6;1 A
63.3923258399498;0.649627685546875;0.41107177734375;0.0599999998485146;7;1 A
63.4023258399245;0.649658203125;0.3853759765625;0.069999999823267;8;1 A
63.4123258398993;0.64959716796875;0.36407470703125;0.0799999997980194;9;1 A
63.422325839874;0.64959716796875;0.345947265625;0.0899999997727718;10;1 A
63.4323258398488;0.64959716796875;0.330169677734375;0.0999999997475243;11;1 A
63.4423258398235;0.64959716796875;0.3165283203125;0.109999999722277;12;1 A
63.4523258397983;0.649627685546875;0.30450439453125;0.119999999697029;13;1 A
63.462325839773;0.649627685546875;0.2939453125;0.129999999671782;14;1 A
63.4723258397478;0.649566650390625;0.284515380859375;0.139999999646534;15;1 A
63.4823258397225;0.6495361328125;0.276031494140625;0.149999999621286;16;1 A
63.4923258396973;0.649658203125;0.268463134765625;0.159999999596039;17;1 A
63.502325839672;0.649566650390625;0.2615966796875;0.169999999570791;18;1 A
63.5123258396468;0.64959716796875;0.25531005859375;0.179999999545544;19;1 A
63.5223258396215;0.649627685546875;0.249420166015625;0.189999999520296;20;1 A
63.5323258395963;0.6495361328125;0.243988037109375;0.199999999495049;21;1 A
63.542325839571;0.64959716796875;0.238922119140625;0.209999999469801;22;1 A
63.5523258395458;0.64959716796875;0.234161376953125;0.219999999444553;23;1 A
63.5623258395206;0.649566650390625;0.229705810546875;0.229999999419306;24;1 A
63.5723258394953;0.64959716796875;0.22552490234375;0.239999999394058;25;1 A
63.5823258394701;0.64959716796875;0.22161865234375;0.249999999368811;26;1 A
63.5923258394448;0.649627685546875;0.218017578125;0.259999999343563;27;1 A
63.6023258394196;0.649658203125;0.21466064453125;0.269999999318316;28;1 A
63.6123258393943;0.649627685546875;0.211578369140625;0.279999999293068;29;1 A
63.6223258393691;0.649627685546875;0.208740234375;0.28999999926782;30;1 A
63.6323258393438;0.64959716796875;0.20611572265625;0.299999999242573;31;1 A
63.6423258393186;0.649566650390625;0.20355224609375;0.309999999217325;32;1 A
63.6523258392933;0.649627685546875;0.20111083984375;0.319999999192078;33;1 A
63.6623258392681;0.649627685546875;0.19873046875;0.32999999916683;34;1 A
63.6723258392428;0.649566650390625;0.1964111328125;0.339999999141583;35;1 A
63.6823258392176;0.649627685546875;0.1942138671875;0.349999999116335;36;1 A
63.6923258391923;0.64959716796875;0.192108154296875;0.359999999091087;37;1 A
63.7023258391671;0.649627685546875;0.19012451171875;0.36999999906584;38;1 A
63.7123258391418;0.649627685546875;0.1883544921875;0.379999999040592;39;1 A
63.7223258391166;0.64959716796875;0.186614990234375;0.389999999015345;40;1 A
63.7323258390913;0.649627685546875;0.18505859375;0.399999998990097;41;1 A
63.7423258390661;0.649566650390625;0.18359375;0.40999999896485;42;1 A
63.7523258390409;0.649658203125;0.1822509765625;0.419999998939602;43;1 A
63.7623258390156;0.649658203125;0.180938720703125;0.429999998914354;44;1 A
63.7723258389904;0.649658203125;0.17962646484375;0.439999998889107;45;1 A
63.7823258389651;0.64959716796875;0.178314208984375;0.449999998863859;46;1 A
63.7923258389399;0.649566650390625;0.176910400390625;0.459999998838612;47;1 A
63.8023258389146;0.649566650390625;0.175567626953125;0.469999998813364;48;1 A
63.8123258388894;0.649566650390625;0.17425537109375;0.479999998788116;49;1 A
63.8223258388641;0.649627685546875;0.173004150390625;0.489999998762869;50;1 A
63.8323258388389;0.64959716796875;0.17193603515625;0.499999998737621;51;1 A
63.8423258388136;0.649505615234375;0.17083740234375;0.509999998712374;52;1 A
63.8523258387884;0.64959716796875;0.16986083984375;0.519999998687126;53;1 A
63.8623258387631;0.649566650390625;0.168975830078125;0.529999998661879;54;1 A
63.8723258387379;0.649658203125;0.16815185546875;0.539999998636631;55;1 A
63.8823258387126;0.64959716796875;0.16729736328125;0.549999998611383;56;1 A
63.8923258386874;0.649627685546875;0.16644287109375;0.559999998586136;57;1 A
63.9023258386621;0.649658203125;0.16552734375;0.569999998560888;58;1 A
63.9123258386369;0.649627685546875;0.16461181640625;0.579999998535641;59;1 A
63.9223258386116;0.64959716796875;0.163604736328125;0.589999998510393;60;1 A
63.9323258385864;0.649658203125;0.162750244140625;0.599999998485146;61;1 A
63.9423258385611;0.6495361328125;0.161956787109375;0.609999998459898;62;1 A
63.9523258385359;0.64959716796875;0.16131591796875;0.61999999843465;63;1 A
63.9623258385107;0.649566650390625;0.16058349609375;0.629999998409403;64;1 A
63.9723258384854;0.649627685546875;0.160003662109375;0.639999998384155;65;1 A
63.9823258384602;0.649658203125;0.159515380859375;0.649999998358908;66;1 A
63.9923258384349;0.649566650390625;0.15911865234375;0.65999999833366;67;1 A
64.0023258384097;0.649566650390625;0.158721923828125;0.669999998308413;68;1 A
64.0123258383844;0.649658203125;0.1583251953125;0.679999998283165;69;1 A
64.0223258383592;0.6495361328125;0.1578369140625;0.689999998257917;70;1 A
64.0323258383339;0.649566650390625;0.157196044921875;0.69999999823267;71;1 A
64.0423258383087;0.64959716796875;0.156494140625;0.709999998207422;72;1 A
64.0523258382834;0.649566650390625;0.15594482421875;0.719999998182175;73;1 A
64.0623258382582;0.649627685546875;0.155487060546875;0.729999998156927;74;1 A
64.0723258382329;0.649658203125;0.155120849609375;0.73999999813168;75;1 A
64.0823258382077;0.64959716796875;0.154754638671875;0.749999998106432;76;1 A
64.0923258381824;0.64959716796875;0.154449462890625;0.759999998081184;77;1 A
64.1023258381572;0.649566650390625;0.154205322265625;0.769999998055937;78;1 A
64.1123258381319;0.64959716796875;0.153961181640625;0.779999998030689;79;1 A
64.1223258381067;0.64959716796875;0.153594970703125;0.789999998005442;80;1 A
64.1323258380814;0.64959716796875;0.15325927734375;0.799999997980194;81;1 A
64.1423258380562;0.64959716796875;0.152801513671875;0.809999997954947;82;1 A
64.1523258380309;0.649566650390625;0.152313232421875;0.819999997929699;83;1 A
64.1623258380057;0.649658203125;0.15191650390625;0.829999997904451;84;1 A
64.1723258379805;0.649627685546875;0.151641845703125;0.839999997879204;85;1 A
64.1823258379552;0.649566650390625;0.1512451171875;0.849999997853956;86;1 A
64.19232583793;0.649566650390625;0.1510009765625;0.859999997828709;87;1 A
64.2023258379047;0.64959716796875;0.15069580078125;0.869999997803461;88;1 A
64.2123258378795;0.64959716796875;0.15045166015625;0.879999997778214;89;1 A
64.2223258378542;0.64959716796875;0.150390625;0.889999997752966;90;1 A
64.232325837829;0.64959716796875;0.1502685546875;0.899999997727718;91;1 A
64.2423258378037;0.6495361328125;0.150115966796875;0.909999997702471;92;1 A
64.2523258377785;0.649627685546875;0.149932861328125;0.919999997677223;93;1 A
64.2623258377532;0.649566650390625;0.149627685546875;0.929999997651976;94;1 A
64.272325837728;0.649566650390625;0.149322509765625;0.939999997626728;95;1 A
64.2823258377027;0.64959716796875;0.149169921875;0.949999997601481;96;1 A
64.2923258376775;0.64959716796875;0.14892578125;0.959999997576233;97;1 A
64.3023258376522;0.649566650390625;0.14874267578125;0.969999997550985;98;1 A
64.312325837627;0.64959716796875;0.148712158203125;0.979999997525738;99;1 A
64.3223258376017;0.649627685546875;0.1485595703125;0.98999999750049;100;1 A
64.3323258375765;0.649566650390625;0.148406982421875;0.999999997475243;101;1 A
64.3423258375512;0.649566650390625;0.148345947265625;1.00999999745;102;1 A
64.352325837526;0.649566650390625;0.14825439453125;1.01999999742475;103;1 A
64.3623258375007;0.649566650390625;0.148193359375;1.0299999973995;104;1 A
64.3723258374755;0.649688720703125;0.148040771484375;1.03999999737425;105;1 A
64.3823258374503;0.64959716796875;0.14788818359375;1.049999997349;106;1 A
64.392325837425;0.649566650390625;0.1475830078125;1.05999999732376;107;1 A
64.4023258373998;0.64959716796875;0.147552490234375;1.06999999729851;108;1 A
64.4123258373745;0.649627685546875;0.147369384765625;1.07999999727326;109;1 A
64.4223258373493;0.649658203125;0.147247314453125;1.08999999724801;110;1 A
64.432325837324;0.649627685546875;0.147186279296875;1.09999999722277;111;1 A
64.4423258372988;0.64959716796875;0.147064208984375;1.10999999719752;112;1 A
64.4523258372735;0.64959716796875;0.147003173828125;1.11999999717227;113;1 A
64.4623258372483;0.649566650390625;0.147003173828125;1.12999999714702;114;1 A
64.472325837223;0.64959716796875;0.147003173828125;1.13999999712178;115;1 A
64.4823258371978;0.64959716796875;0.14697265625;1.14999999709653;116;1 A
64.4923258371725;0.649566650390625;0.146820068359375;1.15999999707128;117;1 A
64.5023258371473;0.649658203125;0.1466064453125;1.16999999704603;118;1 A
64.512325837122;0.649627685546875;0.1463623046875;1.17999999702079;119;1 A
64.5223258370968;0.64959716796875;0.146026611328125;1.18999999699554;120;1 A
64.5323258370715;0.649658203125;0.145751953125;1.19999999697029;121;1 A
64.5423258370463;0.64959716796875;0.145660400390625;1.20999999694504;122;1 A
64.552325837021;0.64959716796875;0.14569091796875;1.2199999969198;123;1 A
64.5623258369958;0.649566650390625;0.145538330078125;1.22999999689455;124;1 A
64.5723258369705;0.64959716796875;0.1455078125;1.2399999968693;125;1 A
64.5823258369453;0.64959716796875;0.1455078125;1.24999999684405;126;1 A
64.5923258369201;0.6495361328125;0.14556884765625;1.25999999681881;127;1 A
64.6023258368948;0.649566650390625;0.1455078125;1.26999999679356;128;1 A
64.6123258368696;0.649566650390625;0.145477294921875;1.27999999676831;129;1 A
64.6223258368443;0.64959716796875;0.145111083984375;1.28999999674306;130;1 A
64.6323258368191;0.649566650390625;0.14471435546875;1.29999999671782;131;1 A
64.6423258367938;0.64959716796875;0.144195556640625;1.30999999669257;132;1 A
64.6523258367686;0.649658203125;0.14404296875;1.31999999666732;133;1 A
64.6623258367433;0.649688720703125;0.143890380859375;1.32999999664207;134;1 A
64.6723258367181;0.649658203125;0.1439208984375;1.33999999661683;135;1 A
64.6823258366928;0.64959716796875;0.143768310546875;1.34999999659158;136;1 A
64.6923258366676;0.64959716796875;0.143707275390625;1.35999999656633;137;1 A
64.7023258366423;0.649566650390625;0.143646240234375;1.36999999654108;138;1 A
64.7123258366171;0.649627685546875;0.143646240234375;1.37999999651583;139;1 A
64.7223258365918;0.649658203125;0.14349365234375;1.38999999649059;140;1 A
64.7323258365666;0.649627685546875;0.14349365234375;1.39999999646534;141;1 A
64.7423258365413;0.649566650390625;0.14324951171875;1.40999999644009;142;1 A
64.7523258365161;0.64959716796875;0.1431884765625;1.41999999641484;143;1 A
64.7623258364908;0.649566650390625;0.143035888671875;1.4299999963896;144;1 A
64.7723258364656;0.649658203125;0.143035888671875;1.43999999636435;145;1 A
64.7823258364404;0.64959716796875;0.142852783203125;1.4499999963391;146;1 A
64.7923258364151;0.649566650390625;0.142974853515625;1.45999999631385;147;1 A
64.8023258363899;0.649566650390625;0.142852783203125;1.46999999628861;148;1 A
64.8123258363646;0.64959716796875;0.142852783203125;1.47999999626336;149;1 A
64.8223258363394;0.649627685546875;0.1429443359375;1.48999999623811;150;1 A
64.8323258363141;0.64959716796875;0.143096923828125;1.49999999621286;151;1 A
64.8423258362889;0.6495361328125;0.14306640625;1.50999999618762;152;1 A
64.8523258362636;0.6495361328125;0.143035888671875;1.51999999616237;153;1 A
64.8623258362384;0.649627685546875;0.142822265625;1.52999999613712;154;1 A
64.8723258362131;0.649627685546875;0.14263916015625;1.53999999611187;155;1 A
64.8823258361879;0.649627685546875;0.142547607421875;1.54999999608663;156;1 A
64.8923258361626;0.64959716796875;0.142486572265625;1.55999999606138;157;1 A
64.9023258361374;0.64959716796875;0.142547607421875;1.56999999603613;158;1 A
64.9123258361121;0.649627685546875;0.142730712890625;1.57999999601088;159;1 A
64.9223258360869;0.649658203125;0.142608642578125;1.58999999598564;160;1 A
64.9323258360616;0.64959716796875;0.142669677734375;1.59999999596039;161;1 A
64.9423258360364;0.649566650390625;0.1427001953125;1.60999999593514;162;1 A
64.9523258360111;0.6495361328125;0.142791748046875;1.61999999590989;163;1 A
64.9623258359859;0.64959716796875;0.142852783203125;1.62999999588465;164;1 A
64.9723258359606;0.649658203125;0.142791748046875;1.6399999958594;165;1 A
64.9823258359354;0.64959716796875;0.142669677734375;1.64999999583415;166;1 A
64.9923258359102;0.649566650390625;0.142486572265625;1.6599999958089;167;1 A
65.0023258358849;0.649566650390625;0.142547607421875;1.66999999578366;168;1 A
65.0123258358597;0.64959716796875;0.142425537109375;1.67999999575841;169;1 A
65.0223258358344;0.649688720703125;0.142486572265625;1.68999999573316;170;1 A
65.0323258358092;0.649627685546875;0.142608642578125;1.69999999570791;171;1 A
65.0423258357839;0.64959716796875;0.142578125;1.70999999568267;172;1 A
65.0523258357587;0.6494140625;0.142669677734375;1.71999999565742;173;1 A
65.0623258357334;0.6495361328125;0.1427001953125;1.72999999563217;174;1 A
65.0723258357082;0.649627685546875;0.142822265625;1.73999999560692;175;1 A
65.0823258356829;0.649627685546875;0.142791748046875;1.74999999558167;176;1 A
65.0923258356577;0.649627685546875;0.142791748046875;1.75999999555643;177;1 A
65.1023258356324;0.64959716796875;0.1427001953125;1.76999999553118;178;1 A
65.1123258356072;0.649627685546875;0.14276123046875;1.77999999550593;179;1 A
65.1223258355819;0.649658203125;0.142822265625;1.78999999548068;180;1 A
65.1323258355567;0.649658203125;0.142974853515625;1.79999999545544;181;1 A
65.1423258355314;0.64959716796875;0.1431884765625;1.80999999543019;182;1 A
65.1523258355062;0.64959716796875;0.143402099609375;1.81999999540494;183;1 A
65.1623258354809;0.64959716796875;0.1434326171875;1.82999999537969;184;1 A
65.1723258354557;0.6494140625;0.143585205078125;1.83999999535445;185;1 A
65.1823258354304;0.649627685546875;0.1436767578125;1.8499999953292;186;1 A
65.1923258354052;0.64959716796875;0.143829345703125;1.85999999530395;187;1 A
65.20232583538;0.6495361328125;0.143829345703125;1.8699999952787;188;1 A
65.2123258353547;0.649658203125;0.14385986328125;1.87999999525346;189;1 A
65.2223258353295;0.64959716796875;0.143646240234375;1.88999999522821;190;1 A
65.2323258353042;0.64959716796875;0.1435546875;1.89999999520296;191;1 A
65.242325835279;0.64959716796875;0.1434326171875;1.90999999517771;192;1 A
65.2523258352537;0.64959716796875;0.143463134765625;1.91999999515247;193;1 A
65.2623258352285;0.649658203125;0.143463134765625;1.92999999512722;194;1 A
65.2723258352032;0.64959716796875;0.143707275390625;1.93999999510197;195;1 A
65.282325835178;0.649627685546875;0.1436767578125;1.94999999507672;196;1 A
65.2923258351527;0.64959716796875;0.143768310546875;1.95999999505148;197;1 A
65.3023258351275;0.649627685546875;0.1439208984375;1.96999999502623;198;1 A
65.3123258351022;0.64959716796875;0.144073486328125;1.97999999500098;199;1 A
65.322325835077;0.649627685546875;0.14410400390625;1.98999999497573;200;1 A
65.3323258350517;0.64959716796875;0.144195556640625;1.99999999495049;201;1 A
65.3423258350265;0.64959716796875;0.14410400390625;2.00999999492524;202;1 A
65.3523258350012;0.649627685546875;0.1441650390625;2.01999999489999;203;1 A
65.362325834976;0.6495361328125;0.144195556640625;2.02999999487474;204;1 A
65.3723258349507;0.649566650390625;0.1444091796875;2.0399999948495;205;1 A
65.3823258349255;0.649627685546875;0.144500732421875;2.04999999482425;206;1 A
65.3923258349002;0.64959716796875;0.14483642578125;2.059999994799;207;1 A
65.402325834875;0.64959716796875;0.144927978515625;2.06999999477375;208;1 A
65.4123258348498;0.64959716796875;0.14520263671875;2.0799999947485;209;1 A
65.4223258348245;0.649566650390625;0.145477294921875;2.08999999472326;210;1 A
65.4323258347993;0.64959716796875;0.145721435546875;2.09999999469801;211;1 A
65.442325834774;0.649566650390625;0.145782470703125;2.10999999467276;212;1 A
65.4523258347488;0.6495361328125;0.145782470703125;2.11999999464751;213;1 A
65.4623258347235;0.64959716796875;0.1453857421875;2.12999999462227;214;1 A
65.4723258346983;0.64959716796875;0.145172119140625;2.13999999459702;215;1 A
65.482325834673;0.649627685546875;0.145172119140625;2.14999999457177;216;1 A
65.4923258346478;0.649566650390625;0.1451416015625;2.15999999454652;217;1 A
65.5023258346225;0.64959716796875;0.145233154296875;2.16999999452128;218;1 A
65.5123258345973;0.649627685546875;0.1453857421875;2.17999999449603;219;1 A
65.522325834572;0.64959716796875;0.145294189453125;2.18999999447078;220;1 A
65.5323258345468;0.649658203125;0.145599365234375;2.19999999444553;221;1 A
65.5423258345215;0.649627685546875;0.145599365234375;2.20999999442029;222;1 A
65.5523258344963;0.64959716796875;0.145721435546875;2.21999999439504;223;1 A
65.562325834471;0.649566650390625;0.145751953125;2.22999999436979;224;1 A
65.5723258344458;0.649627685546875;0.145751953125;2.23999999434454;225;1 A
65.5823258344205;0.64959716796875;0.14556884765625;2.2499999943193;226;1 A
65.5923258343953;0.64959716796875;0.14544677734375;2.25999999429405;227;1 A
65.60232583437;0.64959716796875;0.14556884765625;2.2699999942688;228;1 A
65.6123258343448;0.64959716796875;0.14556884765625;2.27999999424355;229;1 A
65.6223258343196;0.64959716796875;0.145721435546875;2.28999999421831;230;1 A
65.6323258342943;0.64959716796875;0.14593505859375;2.29999999419306;231;1 A
65.6423258342691;0.649627685546875;0.14605712890625;2.30999999416781;232;1 A
65.6523258342438;0.649566650390625;0.1463623046875;2.31999999414256;233;1 A
65.6623258342186;0.649566650390625;0.146484375;2.32999999411732;234;1 A
65.6723258341933;0.649627685546875;0.146728515625;2.33999999409207;235;1 A
65.6823258341681;0.64959716796875;0.14678955078125;2.34999999406682;236;1 A
65.6923258341428;0.649566650390625;0.146881103515625;2.35999999404157;237;1 A
65.7023258341176;0.64959716796875;0.1468505859375;2.36999999401633;238;1 A
65.7123258340923;0.649566650390625;0.146942138671875;2.37999999399108;239;1 A
65.7223258340671;0.649688720703125;0.14697265625;2.38999999396583;240;1 A
65.7323258340418;0.64959716796875;0.147064208984375;2.39999999394058;241;1 A
65.7423258340166;0.649505615234375;0.147186279296875;2.40999999391533;242;1 A
65.7523258339913;0.649566650390625;0.147369384765625;2.41999999389009;243;1 A
65.7623258339661;0.649658203125;0.147369384765625;2.42999999386484;244;1 A
65.7723258339408;0.649566650390625;0.147552490234375;2.43999999383959;245;1 A
65.7823258339156;0.64959716796875;0.1475830078125;2.44999999381434;246;1 A
65.7923258338903;0.649627685546875;0.147705078125;2.4599999937891;247;1 A
65.8023258338651;0.649566650390625;0.147674560546875;2.46999999376385;248;1 A
65.8123258338399;0.64959716796875;0.147613525390625;2.4799999937386;249;1 A
65.8223258338146;0.64959716796875;0.147430419921875;2.48999999371335;250;1 A
65.8323258337894;0.649627685546875;0.14739990234375;2.49999999368811;251;1 A
65.8423258337641;0.649566650390625;0.14727783203125;2.50999999366286;252;1 A
65.8523258337389;0.649566650390625;0.147308349609375;2.51999999363761;253;1 A
65.8623258337136;0.64959716796875;0.147308349609375;2.52999999361236;254;1 A
65.8723258336884;0.64959716796875;0.1474609375;2.53999999358712;255;1 A
65.8823258336631;0.649627685546875;0.147369384765625;2.54999999356187;256;1 A
65.8923258336379;0.649688720703125;0.14739990234375;2.55999999353662;257;1 A
65.9023258336126;0.64959716796875;0.14739990234375;2.56999999351137;258;1 A
65.9123258335874;0.649658203125;0.147369384765625;2.57999999348613;259;1 A
65.9223258335621;0.64959716796875;0.147216796875;2.58999999346088;260;1 A
65.9323258335369;0.649566650390625;0.1470947265625;2.59999999343563;261;1 A
65.9423258335116;0.64959716796875;0.1468505859375;2.60999999341038;262;1 A
65.9523258334864;0.64959716796875;0.146728515625;2.61999999338514;263;1 A
65.9623258334611;0.649566650390625;0.14654541015625;2.62999999335989;264;1 A
65.9723258334359;0.649627685546875;0.14654541015625;2.63999999333464;265;1 A
65.9823258334106;0.649627685546875;0.146453857421875;2.64999999330939;266;1 A
65.9923258333854;0.64959716796875;0.14654541015625;2.65999999328415;267;1 A
66.0023258333601;0.649566650390625;0.1463623046875;2.6699999932589;268;1 A
66.0123258333349;0.649627685546875;0.1463623046875;2.67999999323365;269;1 A
66.0223258333097;0.64959716796875;0.146331787109375;2.6899999932084;270;1 A
66.0323258332844;0.64959716796875;0.14630126953125;2.69999999318316;271;1 A
66.0423258332592;0.64959716796875;0.14617919921875;2.70999999315791;272;1 A
66.0523258332339;0.649566650390625;0.14605712890625;2.71999999313266;273;1 A
66.0623258332087;0.649658203125;0.14581298828125;2.72999999310741;274;1 A
66.0723258331834;0.64959716796875;0.14569091796875;2.73999999308217;275;1 A
66.0823258331582;0.64959716796875;0.145660400390625;2.74999999305692;276;1 A
66.0923258331329;0.649566650390625;0.145721435546875;2.75999999303167;277;1 A
66.1023258331077;0.649566650390625;0.1458740234375;2.76999999300642;278;1 A
66.1123258330824;0.64959716796875;0.14605712890625;2.77999999298117;279;1 A
66.1223258330572;0.64959716796875;0.146026611328125;2.78999999295593;280;1 A
66.1323258330319;0.649688720703125;0.14630126953125;2.79999999293068;281;1 A
66.1423258330067;0.64959716796875;0.146331787109375;2.80999999290543;282;1 A
66.1523258329814;0.649505615234375;0.146392822265625;2.81999999288018;283;1 A
66.1623258329562;0.64959716796875;0.146392822265625;2.82999999285494;284;1 A
66.1723258329309;0.64959716796875;0.146331787109375;2.83999999282969;285;1 A
66.1823258329057;0.64959716796875;0.1461181640625;2.84999999280444;286;1 A
66.1923258328804;0.649627685546875;0.145965576171875;2.85999999277919;287;1 A
66.2023258328552;0.64959716796875;0.145965576171875;2.86999999275395;288;1 A
66.2123258328299;0.64959716796875;0.145904541015625;2.8799999927287;289;1 A
66.2223258328047;0.64959716796875;0.145904541015625;2.88999999270345;290;1 A
66.2323258327795;0.649566650390625;0.14593505859375;2.8999999926782;291;1 A
66.2423258327542;0.649627685546875;0.145782470703125;2.90999999265296;292;1 A
66.252325832729;0.649688720703125;0.14581298828125;2.91999999262771;293;1 A
66.2623258327037;0.64959716796875;0.14569091796875;2.92999999260246;294;1 A
66.2723258326785;0.649566650390625;0.145599365234375;2.93999999257721;295;1 A
66.2823258326532;0.64959716796875;0.145355224609375;2.94999999255197;296;1 A
66.292325832628;0.649566650390625;0.145111083984375;2.95999999252672;297;1 A
66.3023258326027;0.6495361328125;0.144866943359375;2.96999999250147;298;1 A
66.3123258325775;0.649658203125;0.144683837890625;2.97999999247622;299;1 A
66.3223258325522;0.649627685546875;0.14453125;2.98999999245098;300;1 A
66.332325832527;0.649658203125;0.144500732421875;2.99999999242573;301;1 A
66.3423258325017;0.649566650390625;0.14447021484375;3.00999999240048;302;1 A
66.3523258324765;0.64959716796875;0.14453125;3.01999999237523;303;1 A
66.3623258324512;0.64959716796875;0.1444091796875;3.02999999234999;304;1 A
66.372325832426;0.649688720703125;0.144500732421875;3.03999999232474;305;1 A
66.3823258324007;0.649627685546875;0.14447021484375;3.04999999229949;306;1 A
66.3923258323755;0.649566650390625;0.14447021484375;3.05999999227424;307;1 A
66.4023258323502;0.649627685546875;0.144378662109375;3.069999992249;308;1 A
66.412325832325;0.649627685546875;0.144287109375;3.07999999222375;309;1 A
66.4223258322997;0.64959716796875;0.14410400390625;3.0899999921985;310;1 A
66.4323258322745;0.649627685546875;0.144073486328125;3.09999999217325;311;1 A
66.4423258322493;0.64959716796875;0.144073486328125;3.109999992148;312;1 A
66.452325832224;0.649505615234375;0.144195556640625;3.11999999212276;313;1 A
66.4623258321988;0.649566650390625;0.14434814453125;3.12999999209751;314;1 A
66.4723258321735;0.649566650390625;0.1446533203125;3.13999999207226;315;1 A
66.4823258321483;0.649566650390625;0.14471435546875;3.14999999204701;316;1 A
66.492325832123;0.649658203125;0.144866943359375;3.15999999202177;317;1 A
66.5023258320978;0.649658203125;0.144989013671875;3.16999999199652;318;1 A
66.5123258320725;0.64959716796875;0.14508056640625;3.17999999197127;319;1 A
66.5223258320473;0.64959716796875;0.14508056640625;3.18999999194602;320;1 A
66.532325832022;0.64959716796875;0.145050048828125;3.19999999192078;321;1 A
66.5423258319968;0.649566650390625;0.1448974609375;3.20999999189553;322;1 A
66.5523258319715;0.649627685546875;0.14483642578125;3.21999999187028;323;1 A
66.5623258319463;0.649627685546875;0.144775390625;3.22999999184503;324;1 A
66.572325831921;0.649627685546875;0.144744873046875;3.23999999181979;325;1 A
66.5823258318958;0.649566650390625;0.1446533203125;3.24999999179454;326;1 A
66.5923258318705;0.64959716796875;0.144744873046875;3.25999999176929;327;1 A
66.6023258318453;0.649627685546875;0.144561767578125;3.26999999174404;328;1 A
66.61232583182;0.649627685546875;0.14459228515625;3.2799999917188;329;1 A
66.6223258317948;0.649658203125;0.14459228515625;3.28999999169355;330;1 A
66.6323258317695;0.64959716796875;0.144561767578125;3.2999999916683;331;1 A
66.6423258317443;0.649566650390625;0.14447021484375;3.30999999164305;332;1 A
66.6523258317191;0.64959716796875;0.144287109375;3.31999999161781;333;1 A
66.6623258316938;0.64959716796875;0.14404296875;3.32999999159256;334;1 A
66.6723258316686;0.649627685546875;0.143951416015625;3.33999999156731;335;1 A
66.6823258316433;0.64959716796875;0.1439208984375;3.34999999154206;336;1 A
66.6923258316181;0.64959716796875;0.143951416015625;3.35999999151682;337;1 A
66.7023258315928;0.6495361328125;0.144073486328125;3.36999999149157;338;1 A
66.7123258315676;0.649566650390625;0.144256591796875;3.37999999146632;339;1 A
66.7223258315423;0.64959716796875;0.1441650390625;3.38999999144107;340;1 A
66.7323258315171;0.649658203125;0.144500732421875;3.39999999141583;341;1 A
66.7423258314918;0.64959716796875;0.144500732421875;3.40999999139058;342;1 A
66.7523258314666;0.649566650390625;0.14459228515625;3.41999999136533;343;1 A
66.7623258314413;0.64959716796875;0.14453125;3.42999999134008;344;1 A
66.7723258314161;0.649627685546875;0.144439697265625;3.43999999131483;345;1 A
66.7823258313908;0.64959716796875;0.14410400390625;3.44999999128959;346;1 A
66.7923258313656;0.64971923828125;0.144012451171875;3.45999999126434;347;1 A
66.8023258313403;0.649658203125;0.14398193359375;3.46999999123909;348;1 A
66.8123258313151;0.649566650390625;0.14404296875;3.47999999121384;349;1 A
66.8223258312898;0.649627685546875;0.14410400390625;3.4899999911886;350;1 A
66.8323258312646;0.64959716796875;0.144287109375;3.49999999116335;351;1 A
66.8423258312394;0.64959716796875;0.14422607421875;3.5099999911381;352;1 A
66.8523258312141;0.64959716796875;0.1444091796875;3.51999999111285;353;1 A
66.8623258311889;0.64959716796875;0.14434814453125;3.52999999108761;354;1 A
66.8723258311636;0.64959716796875;0.144256591796875;3.53999999106236;355;1 A
66.8823258311384;0.649627685546875;0.14385986328125;3.54999999103711;356;1 A
66.8923258311131;0.649566650390625;0.143646240234375;3.55999999101186;357;1 A
66.9023258310879;0.649627685546875;0.14324951171875;3.56999999098662;358;1 A
66.9123258310626;0.649566650390625;0.143035888671875;3.57999999096137;359;1 A
66.9223258310374;0.649627685546875;0.142822265625;3.58999999093612;360;1 A
66.9323258310121;0.649658203125;0.14276123046875;3.59999999091087;361;1 A
66.9423258309869;0.649566650390625;0.142578125;3.60999999088563;362;1 A
66.9523258309616;0.64959716796875;0.14263916015625;3.61999999086038;363;1 A
66.9623258309364;0.649627685546875;0.1424560546875;3.62999999083513;364;1 A
66.9723258309111;0.649627685546875;0.1427001953125;3.63999999080988;365;1 A
66.9823258308859;0.64959716796875;0.142669677734375;3.64999999078464;366;1 A
66.9923258308606;0.6495361328125;0.142669677734375;3.65999999075939;367;1 A
67.0023258308354;0.64959716796875;0.14251708984375;3.66999999073414;368;1 A
67.0123258308101;0.649658203125;0.14239501953125;3.67999999070889;369;1 A
67.0223258307849;0.649566650390625;0.142120361328125;3.68999999068365;370;1 A
67.0323258307596;0.6495361328125;0.14202880859375;3.6999999906584;371;1 A
67.0423258307344;0.649658203125;0.141937255859375;3.70999999063315;372;1 A
67.0523258307092;0.649627685546875;0.141998291015625;3.7199999906079;373;1 A
67.0623258306839;0.64959716796875;0.14215087890625;3.72999999058266;374;1 A
67.0723258306587;0.649627685546875;0.1424560546875;3.73999999055741;375;1 A
67.0823258306334;0.649627685546875;0.14251708984375;3.74999999053216;376;1 A
67.0923258306082;0.649566650390625;0.14276123046875;3.75999999050691;377;1 A
67.1023258305829;0.649627685546875;0.142852783203125;3.76999999048167;378;1 A
67.1123258305577;0.649627685546875;0.142913818359375;3.77999999045642;379;1 A
67.1223258305324;0.649627685546875;0.14288330078125;3.78999999043117;380;1 A
67.1323258305072;0.64959716796875;0.142791748046875;3.79999999040592;381;1 A
67.1423258304819;0.64959716796875;0.142608642578125;3.80999999038067;382;1 A
67.1523258304567;0.649658203125;0.142486572265625;3.81999999035543;383;1 A
67.1623258304314;0.64959716796875;0.1424560546875;3.82999999033018;384;1 A
67.1723258304062;0.649658203125;0.1424560546875;3.83999999030493;385;1 A
67.1823258303809;0.64959716796875;0.142486572265625;3.84999999027968;386;1 A
67.1923258303557;0.649566650390625;0.142669677734375;3.85999999025444;387;1 A
67.2023258303304;0.6495361328125;0.14263916015625;3.86999999022919;388;1 A
67.2123258303052;0.649505615234375;0.142822265625;3.87999999020394;389;1 A
67.2223258302799;0.64959716796875;0.142974853515625;3.88999999017869;390;1 A
67.2323258302547;0.649627685546875;0.1431884765625;3.89999999015345;391;1 A
67.2423258302294;0.649566650390625;0.143280029296875;3.9099999901282;392;1 A
67.2523258302042;0.649658203125;0.14337158203125;3.91999999010295;393;1 A
67.262325830179;0.6495361328125;0.143341064453125;3.9299999900777;394;1 A
67.2723258301537;0.649566650390625;0.14349365234375;3.93999999005246;395;1 A
67.2823258301285;0.64959716796875;0.1436767578125;3.94999999002721;396;1 A
67.2923258301032;0.649688720703125;0.143951416015625;3.95999999000196;397;1 A
67.302325830078;0.649658203125;0.144317626953125;3.96999998997671;398;1 A
67.3123258300527;0.649627685546875;0.144744873046875;3.97999998995147;399;1 A
67.3223258300275;0.649566650390625;0.144866943359375;3.98999998992622;400;1 A
67.3323258300022;0.64959716796875;0.14532470703125;3.99999998990097;401;1 A
67.342325829977;0.64959716796875;0.145538330078125;4.00999998987572;402;1 A
67.3523258299517;0.6495361328125;0.145904541015625;4.01999998985048;403;1 A
67.3623258299265;0.64959716796875;0.146087646484375;4.02999998982523;404;1 A
67.3723258299012;0.649627685546875;0.146331787109375;4.03999998979998;405;1 A
67.382325829876;0.649627685546875;0.14630126953125;4.04999998977473;406;1 A
67.3923258298507;0.64971923828125;0.146484375;4.05999998974949;407;1 A
67.4023258298255;0.649566650390625;0.14666748046875;4.06999998972424;408;1 A
67.4123258298002;0.64959716796875;0.146942138671875;4.07999998969899;409;1 A
67.422325829775;0.649566650390625;0.147216796875;4.08999998967374;410;1 A
67.4323258297497;0.64959716796875;0.147674560546875;4.0999999896485;411;1 A
67.4423258297245;0.64959716796875;0.14788818359375;4.10999998962325;412;1 A
67.4523258296992;0.6495361328125;0.1483154296875;4.119999989598;413;1 A
67.462325829674;0.6495361328125;0.1485595703125;4.12999998957275;414;1 A
67.4723258296488;0.649658203125;0.148895263671875;4.1399999895475;415;1 A
67.4823258296235;0.6495361328125;0.14898681640625;4.14999998952226;416;1 A
67.4923258295983;0.64959716796875;0.149169921875;4.15999998949701;417;1 A
67.502325829573;0.649627685546875;0.149200439453125;4.16999998947176;418;1 A
67.5123258295478;0.649627685546875;0.149383544921875;4.17999998944651;419;1 A
67.5223258295225;0.64959716796875;0.1495361328125;4.18999998942127;420;1 A
67.5323258294973;0.64959716796875;0.149871826171875;4.19999998939602;421;1 A
67.542325829472;0.649566650390625;0.150054931640625;4.20999998937077;422;1 A
67.5523258294468;0.649627685546875;0.150482177734375;4.21999998934552;423;1 A
67.5623258294215;0.6495361328125;0.150665283203125;4.22999998932028;424;1 A
67.5723258293963;0.64959716796875;0.15118408203125;4.23999998929503;425;1 A
67.582325829371;0.649658203125;0.151519775390625;4.24999998926978;426;1 A
67.5923258293458;0.649566650390625;0.15179443359375;4.25999998924453;427;1 A
67.6023258293205;0.649566650390625;0.151885986328125;4.26999998921929;428;1 A
67.6123258292953;0.649627685546875;0.1519775390625;4.27999998919404;429;1 A
67.62232582927;0.649566650390625;0.15185546875;4.28999998916879;430;1 A
67.6323258292448;0.649749755859375;0.151885986328125;4.29999998914354;431;1 A
67.6423258292195;0.649627685546875;0.152008056640625;4.3099999891183;432;1 A
67.6523258291943;0.64959716796875;0.152130126953125;4.31999998909305;433;1 A
67.662325829169;0.649658203125;0.152313232421875;4.3299999890678;434;1 A
67.6723258291438;0.649627685546875;0.152618408203125;4.33999998904255;435;1 A
67.6823258291186;0.649566650390625;0.1527099609375;4.34999998901731;436;1 A
67.6923258290933;0.64959716796875;0.153167724609375;4.35999998899206;437;1 A
67.7023258290681;0.649627685546875;0.153289794921875;4.36999998896681;438;1 A
67.7123258290428;0.649627685546875;0.15338134765625;4.37999998894156;439;1 A
67.7223258290176;0.649627685546875;0.153411865234375;4.38999998891632;440;1 A
67.7323258289923;0.649566650390625;0.153350830078125;4.39999998889107;441;1 A
67.7423258289671;0.649627685546875;0.153106689453125;4.40999998886582;442;1 A
67.7523258289418;0.649505615234375;0.152923583984375;4.41999998884057;443;1 A
67.7623258289166;0.64959716796875;0.1529541015625;4.42999998881533;444;1 A
67.7723258288913;0.649627685546875;0.152984619140625;4.43999998879008;445;1 A
67.7823258288661;0.649566650390625;0.153045654296875;4.44999998876483;446;1 A
67.7923258288408;0.649627685546875;0.153167724609375;4.45999998873958;447;1 A
67.8023258288156;0.649566650390625;0.15313720703125;4.46999998871433;448;1 A
67.8123258287903;0.649566650390625;0.153411865234375;4.47999998868909;449;1 A
67.8223258287651;0.64959716796875;0.153472900390625;4.48999998866384;450;1 A
67.8323258287398;0.64959716796875;0.153564453125;4.49999998863859;451;1 A
67.8423258287146;0.649566650390625;0.153472900390625;4.50999998861334;452;1 A
67.8523258286893;0.64959716796875;0.153350830078125;4.5199999885881;453;1 A
67.8623258286641;0.64959716796875;0.153106689453125;4.52999998856285;454;1 A
67.8723258286388;0.649627685546875;0.153045654296875;4.5399999885376;455;1 A
67.8823258286136;0.649566650390625;0.15301513671875;4.54999998851235;456;1 A
67.8923258285884;0.649505615234375;0.153106689453125;4.55999998848711;457;1 A
67.9023258285631;0.649658203125;0.15325927734375;4.56999998846186;458;1 A
67.9123258285379;0.64959716796875;0.1534423828125;4.57999998843661;459;1 A
67.9223258285126;0.649627685546875;0.1534423828125;4.58999998841136;460;1 A
67.9323258284874;0.6495361328125;0.153778076171875;4.59999998838612;461;1 A
67.9423258284621;0.649627685546875;0.15374755859375;4.60999998836087;462;1 A
67.9523258284369;0.649627685546875;0.15386962890625;4.61999998833562;463;1 A
67.9623258284116;0.649658203125;0.15380859375;4.62999998831037;464;1 A
67.9723258283864;0.649627685546875;0.15374755859375;4.63999998828513;465;1 A
67.9823258283611;0.64959716796875;0.153411865234375;4.64999998825988;466;1 A
67.9923258283359;0.64959716796875;0.153350830078125;4.65999998823463;467;1 A
68.0023258283106;0.649566650390625;0.1531982421875;4.66999998820938;468;1 A
68.0123258282854;0.649627685546875;0.15325927734375;4.67999998818414;469;1 A
68.0223258282601;0.649658203125;0.1533203125;4.68999998815889;470;1 A
68.0323258282349;0.649658203125;0.153564453125;4.69999998813364;471;1 A
68.0423258282096;0.649627685546875;0.153594970703125;4.70999998810839;472;1 A
68.0523258281844;0.649566650390625;0.153961181640625;4.71999998808315;473;1 A
68.0623258281591;0.64959716796875;0.154083251953125;4.7299999880579;474;1 A
68.0723258281339;0.649627685546875;0.154205322265625;4.73999998803265;475;1 A
68.0823258281087;0.64959716796875;0.154083251953125;4.7499999880074;476;1 A
68.0923258280834;0.649566650390625;0.154052734375;4.75999998798216;477;1 A
68.1023258280582;0.64959716796875;0.153778076171875;4.76999998795691;478;1 A
68.1123258280329;0.649627685546875;0.153778076171875;4.77999998793166;479;1 A
68.1223258280077;0.649627685546875;0.15362548828125;4.78999998790641;480;1 A
68.1323258279824;0.649566650390625;0.153778076171875;4.79999998788116;481;1 A
68.1423258279572;0.649627685546875;0.153717041015625;4.80999998785592;482;1 A
68.1523258279319;0.649658203125;0.1539306640625;4.81999998783067;483;1 A
68.1623258279067;0.649658203125;0.153900146484375;4.82999998780542;484;1 A
68.1723258278814;0.64959716796875;0.154205322265625;4.83999998778017;485;1 A
68.1823258278562;0.64959716796875;0.154327392578125;4.84999998775493;486;1 A
68.1923258278309;0.64959716796875;0.154327392578125;4.85999998772968;487;1 A
68.2023258278057;0.64959716796875;0.154144287109375;4.86999998770443;488;1 A
68.2123258277804;0.649627685546875;0.153961181640625;4.87999998767918;489;1 A
68.2223258277552;0.649627685546875;0.153533935546875;4.88999998765394;490;1 A
68.2323258277299;0.649566650390625;0.153289794921875;4.89999998762869;491;1 A
68.2423258277047;0.6495361328125;0.153167724609375;4.90999998760344;492;1 A
68.2523258276794;0.649658203125;0.153076171875;4.91999998757819;493;1 A
68.2623258276542;0.649627685546875;0.153045654296875;4.92999998755295;494;1 A
68.2723258276289;0.64959716796875;0.153106689453125;4.9399999875277;495;1 A
68.2823258276037;0.64959716796875;0.1529541015625;4.94999998750245;496;1 A
68.2923258275785;0.64959716796875;0.153228759765625;4.9599999874772;497;1 A
68.3023258275532;0.64959716796875;0.153106689453125;4.96999998745196;498;1 A
68.312325827528;0.64959716796875;0.153045654296875;4.97999998742671;499;1 A
68.3223258275027;0.649627685546875;0.1529541015625;4.98999998740146;500;1 A
68.3323258274775;0.649566650390625;0.152801513671875;4.99999998737621;501;1 A
68.3423258274522;0.649688720703125;0.1524658203125;5.00999998735097;502;1 A
68.352325827427;0.64947509765625;0.152313232421875;5.01999998732572;503;1 A
68.3623258274017;0.649627685546875;0.152435302734375;5.02999998730047;504;1 A
68.3723258273765;0.64959716796875;0.1524658203125;5.03999998727522;505;1 A
68.3823258273512;0.64959716796875;0.152587890625;5.04999998724998;506;1 A
68.392325827326;0.64959716796875;0.15283203125;5.05999998722473;507;1 A
68.4023258273007;0.649566650390625;0.152923583984375;5.06999998719948;508;1 A
68.4123258272755;0.64959716796875;0.153411865234375;5.07999998717423;509;1 A
68.4223258272502;0.64959716796875;0.15350341796875;5.08999998714899;510;1 A
68.432325827225;0.649566650390625;0.153656005859375;5.09999998712374;511;1 A
68.4423258271997;0.649566650390625;0.153594970703125;5.10999998709849;512;1 A
68.4523258271745;0.64959716796875;0.153411865234375;5.11999998707324;513;1 A
68.4623258271492;0.649627685546875;0.153167724609375;5.129999987048;514;1 A
68.472325827124;0.6495361328125;0.153076171875;5.13999998702275;515;1 A
68.4823258270987;0.649566650390625;0.152984619140625;5.1499999869975;516;1 A
68.4923258270735;0.649627685546875;0.1529541015625;5.15999998697225;517;1 A
68.5023258270483;0.649566650390625;0.152923583984375;5.169999986947;518;1 A
68.512325827023;0.649627685546875;0.15301513671875;5.17999998692176;519;1 A
68.5223258269978;0.649627685546875;0.152923583984375;5.18999998689651;520;1 A
68.5323258269725;0.64959716796875;0.1531982421875;5.19999998687126;521;1 A
68.5423258269473;0.64959716796875;0.15301513671875;5.20999998684601;522;1 A
68.552325826922;0.64959716796875;0.152984619140625;5.21999998682077;523;1 A
68.5623258268968;0.64959716796875;0.15277099609375;5.22999998679552;524;1 A
68.5723258268715;0.6495361328125;0.152587890625;5.23999998677027;525;1 A
68.5823258268463;0.649627685546875;0.152099609375;5.24999998674502;526;1 A
68.592325826821;0.649566650390625;0.151885986328125;5.25999998671978;527;1 A
68.6023258267958;0.649566650390625;0.15167236328125;5.26999998669453;528;1 A
68.6123258267705;0.649658203125;0.151641845703125;5.27999998666928;529;1 A
68.6223258267453;0.649627685546875;0.151580810546875;5.28999998664403;530;1 A
68.63232582672;0.649566650390625;0.151763916015625;5.29999998661879;531;1 A
68.6423258266948;0.649627685546875;0.15167236328125;5.30999998659354;532;1 A
68.6523258266695;0.649566650390625;0.15191650390625;5.31999998656829;533;1 A
68.6623258266443;0.649627685546875;0.15179443359375;5.32999998654304;534;1 A
68.672325826619;0.649566650390625;0.151702880859375;5.3399999865178;535;1 A
68.6823258265938;0.649566650390625;0.151519775390625;5.34999998649255;536;1 A
68.6923258265685;0.64959716796875;0.151458740234375;5.3599999864673;537;1 A
68.7023258265433;0.64959716796875;0.15130615234375;5.36999998644205;538;1 A
68.7123258265181;0.649505615234375;0.15130615234375;5.37999998641681;539;1 A
68.7223258264928;0.64959716796875;0.1512451171875;5.38999998639156;540;1 A
68.7323258264676;0.649627685546875;0.15142822265625;5.39999998636631;541;1 A
68.7423258264423;0.649627685546875;0.151458740234375;5.40999998634106;542;1 A
68.7523258264171;0.649627685546875;0.15179443359375;5.41999998631582;543;1 A
68.7623258263918;0.649566650390625;0.15191650390625;5.42999998629057;544;1 A
68.7723258263666;0.649627685546875;0.152252197265625;5.43999998626532;545;1 A
68.7823258263413;0.649627685546875;0.152496337890625;5.44999998624007;546;1 A
68.7923258263161;0.649566650390625;0.152587890625;5.45999998621483;547;1 A
68.8023258262908;0.649566650390625;0.152557373046875;5.46999998618958;548;1 A
68.8123258262656;0.649627685546875;0.1524658203125;5.47999998616433;549;1 A
68.8223258262403;0.649627685546875;0.152130126953125;5.48999998613908;550;1 A
68.8323258262151;0.649505615234375;0.152008056640625;5.49999998611383;551;1 A
68.8423258261898;0.6495361328125;0.15203857421875;5.50999998608859;552;1 A
68.8523258261646;0.649627685546875;0.152130126953125;5.51999998606334;553;1 A
68.8623258261393;0.649627685546875;0.152252197265625;5.52999998603809;554;1 A
68.8723258261141;0.6495361328125;0.152496337890625;5.53999998601284;555;1 A
68.8823258260888;0.64959716796875;0.152435302734375;5.5499999859876;556;1 A
68.8923258260636;0.649658203125;0.152984619140625;5.55999998596235;557;1 A
68.9023258260383;0.64959716796875;0.152984619140625;5.5699999859371;558;1 A
68.9123258260131;0.649627685546875;0.153045654296875;5.57999998591185;559;1 A
68.9223258259879;0.649566650390625;0.153045654296875;5.58999998588661;560;1 A
68.9323258259626;0.649627685546875;0.152984619140625;5.59999998586136;561;1 A
68.9423258259374;0.649566650390625;0.152801513671875;5.60999998583611;562;1 A
68.9523258259121;0.64959716796875;0.152801513671875;5.61999998581086;563;1 A
68.9623258258869;0.64959716796875;0.15301513671875;5.62999998578562;564;1 A
68.9723258258616;0.649627685546875;0.1531982421875;5.63999998576037;565;1 A
68.9823258258364;0.64959716796875;0.153533935546875;5.64999998573512;566;1 A
68.9923258258111;0.64959716796875;0.1539306640625;5.65999998570987;567;1 A
69.0023258257859;0.64959716796875;0.154205322265625;5.66999998568463;568;1 A
69.0123258257606;0.6495361328125;0.1549072265625;5.67999998565938;569;1 A
69.0223258257354;0.64959716796875;0.155029296875;5.68999998563413;570;1 A
69.0323258257101;0.649627685546875;0.155181884765625;5.69999998560888;571;1 A
69.0423258256849;0.649566650390625;0.15509033203125;5.70999998558364;572;1 A
69.0523258256596;0.649566650390625;0.155059814453125;5.71999998555839;573;1 A
69.0623258256344;0.649627685546875;0.15484619140625;5.72999998553314;574;1 A
69.0723258256091;0.649505615234375;0.1549072265625;5.73999998550789;575;1 A
69.0823258255839;0.64959716796875;0.154998779296875;5.74999998548265;576;1 A
69.0923258255586;0.64959716796875;0.155181884765625;5.7599999854574;577;1 A
69.1023258255334;0.649627685546875;0.1553955078125;5.76999998543215;578;1 A
69.1123258255082;0.649566650390625;0.155670166015625;5.7799999854069;579;1 A
69.1223258254829;0.64959716796875;0.15582275390625;5.78999998538166;580;1 A
69.1323258254577;0.64971923828125;0.156463623046875;5.79999998535641;581;1 A
69.1423258254324;0.649566650390625;0.156524658203125;5.80999998533116;582;1 A
69.1523258254072;0.649566650390625;0.156768798828125;5.81999998530591;583;1 A
69.1623258253819;0.649566650390625;0.156829833984375;5.82999998528066;584;1 A
69.1723258253567;0.6495361328125;0.15692138671875;5.83999998525542;585;1 A
69.1823258253314;0.649566650390625;0.15673828125;5.84999998523017;586;1 A
69.1923258253062;0.649505615234375;0.156829833984375;5.85999998520492;587;1 A
69.2023258252809;0.64959716796875;0.15692138671875;5.86999998517967;588;1 A
69.2123258252557;0.649566650390625;0.157135009765625;5.87999998515443;589;1 A
69.2223258252304;0.649627685546875;0.1573486328125;5.88999998512918;590;1 A
69.2323258252052;0.64959716796875;0.15777587890625;5.89999998510393;591;1 A
69.2423258251799;0.649627685546875;0.15789794921875;5.90999998507868;592;1 A
69.2523258251547;0.64959716796875;0.15838623046875;5.91999998505344;593;1 A
69.2623258251294;0.64959716796875;0.158660888671875;5.92999998502819;594;1 A
69.2723258251042;0.649627685546875;0.158905029296875;5.93999998500294;595;1 A
69.2823258250789;0.649566650390625;0.158935546875;5.94999998497769;596;1 A
69.2923258250537;0.64959716796875;0.15899658203125;5.95999998495245;597;1 A
69.3023258250284;0.64959716796875;0.158935546875;5.9699999849272;598;1 A
69.3123258250032;0.649627685546875;0.15899658203125;5.97999998490195;599;1 A
69.322325824978;0.64959716796875;0.15899658203125;5.9899999848767;600;1 A
69.3323258249527;0.64959716796875;0.15924072265625;5.99999998485146;601;1 A
69.3423258249275;0.64959716796875;0.15936279296875;6.00999998482621;602;1 A
69.3523258249022;0.649627685546875;0.159698486328125;6.01999998480096;603;1 A
69.362325824877;0.649566650390625;0.15985107421875;6.02999998477571;604;1 A
69.3723258248517;0.64959716796875;0.16033935546875;6.03999998475047;605;1 A
69.3823258248265;0.64959716796875;0.16070556640625;6.04999998472522;606;1 A
69.3923258248012;0.649627685546875;0.160888671875;6.05999998469997;607;1 A
69.402325824776;0.649566650390625;0.16094970703125;6.06999998467472;608;1 A
69.4123258247507;0.649627685546875;0.160888671875;6.07999998464948;609;1 A
69.4223258247255;0.6495361328125;0.16058349609375;6.08999998462423;610;1 A
69.4323258247002;0.6495361328125;0.160614013671875;6.09999998459898;611;1 A
69.442325824675;0.649566650390625;0.160797119140625;6.10999998457373;612;1 A
69.4523258246497;0.6495361328125;0.160980224609375;6.11999998454849;613;1 A
69.4623258246245;0.649566650390625;0.161224365234375;6.12999998452324;614;1 A
69.4723258245992;0.64959716796875;0.161529541015625;6.13999998449799;615;1 A
69.482325824574;0.649627685546875;0.161712646484375;6.14999998447274;616;1 A
69.4923258245487;0.649566650390625;0.16265869140625;6.1599999844475;617;1 A
69.5023258245235;0.64959716796875;0.162811279296875;6.16999998442225;618;1 A
69.5123258244982;0.64959716796875;0.16302490234375;6.179999984397;619;1 A
69.522325824473;0.64959716796875;0.163177490234375;6.18999998437175;620;1 A
69.5323258244478;0.649627685546875;0.163238525390625;6.1999999843465;621;1 A
69.5423258244225;0.649566650390625;0.16290283203125;6.20999998432126;622;1 A
69.5523258243973;0.649688720703125;0.16290283203125;6.21999998429601;623;1 A
69.562325824372;0.6495361328125;0.16314697265625;6.22999998427076;624;1 A
69.5723258243468;0.6495361328125;0.163360595703125;6.23999998424551;625;1 A
69.5823258243215;0.64959716796875;0.16363525390625;6.24999998422027;626;1 A
69.5923258242963;0.64959716796875;0.163909912109375;6.25999998419502;627;1 A
69.602325824271;0.649566650390625;0.164093017578125;6.26999998416977;628;1 A
69.6123258242458;0.64959716796875;0.1646728515625;6.27999998414452;629;1 A
69.6223258242205;0.64959716796875;0.164794921875;6.28999998411928;630;1 A
69.6323258241953;0.64959716796875;0.164794921875;6.29999998409403;631;1 A
69.64232582417;0.649566650390625;0.16461181640625;6.30999998406878;632;1 A
69.6523258241448;0.64959716796875;0.1644287109375;6.31999998404353;633;1 A
69.6623258241195;0.64959716796875;0.1640625;6.32999998401829;634;1 A
69.6723258240943;0.649658203125;0.163970947265625;6.33999998399304;635;1 A
69.682325824069;0.649627685546875;0.163970947265625;6.34999998396779;636;1 A
69.6923258240438;0.64959716796875;0.163970947265625;6.35999998394254;637;1 A
69.7023258240185;0.64959716796875;0.163970947265625;6.3699999839173;638;1 A
69.7123258239933;0.649566650390625;0.164031982421875;6.37999998389205;639;1 A
69.722325823968;0.649566650390625;0.1640625;6.3899999838668;640;1 A
69.7323258239428;0.64959716796875;0.16448974609375;6.39999998384155;641;1 A
69.7423258239176;0.649627685546875;0.164306640625;6.40999998381631;642;1 A
69.7523258238923;0.649658203125;0.16424560546875;6.41999998379106;643;1 A
69.7623258238671;0.64959716796875;0.1640625;6.42999998376581;644;1 A
69.7723258238418;0.649566650390625;0.163848876953125;6.43999998374056;645;1 A
69.7823258238166;0.6495361328125;0.163421630859375;6.44999998371532;646;1 A
69.7923258237913;0.649566650390625;0.163238525390625;6.45999998369007;647;1 A
69.8023258237661;0.64959716796875;0.163116455078125;6.46999998366482;648;1 A
69.8123258237408;0.649566650390625;0.1630859375;6.47999998363957;649;1 A
69.8223258237156;0.6495361328125;0.163055419921875;6.48999998361433;650;1 A
69.8323258236903;0.64959716796875;0.1632080078125;6.49999998358908;651;1 A
69.8423258236651;0.64959716796875;0.163055419921875;6.50999998356383;652;1 A
69.8523258236398;0.649566650390625;0.16326904296875;6.51999998353858;653;1 A
69.8623258236146;0.64959716796875;0.16314697265625;6.52999998351333;654;1 A
69.8723258235893;0.6495361328125;0.162994384765625;6.53999998348809;655;1 A
69.8823258235641;0.64959716796875;0.1627197265625;6.54999998346284;656;1 A
69.8923258235388;0.649566650390625;0.162445068359375;6.55999998343759;657;1 A
69.9023258235136;0.64959716796875;0.1619873046875;6.56999998341234;658;1 A
69.9123258234883;0.649627685546875;0.161712646484375;6.5799999833871;659;1 A
69.9223258234631;0.649658203125;0.1614990234375;6.58999998336185;660;1 A
69.9323258234378;0.649505615234375;0.161346435546875;6.5999999833366;661;1 A
69.9423258234126;0.649627685546875;0.161163330078125;6.60999998331135;662;1 A
69.9523258233874;0.6495361328125;0.161163330078125;6.61999998328611;663;1 A
69.9623258233621;0.649658203125;0.160980224609375;6.62999998326086;664;1 A
69.9723258233369;0.649566650390625;0.161224365234375;6.63999998323561;665;1 A
69.9823258233116;0.64959716796875;0.161102294921875;6.64999998321036;666;1 A
69.9923258232864;0.649566650390625;0.16094970703125;6.65999998318512;667;1 A
70.0023258232611;0.649627685546875;0.16070556640625;6.66999998315987;668;1 A
70.0123258232359;0.649505615234375;0.160400390625;6.67999998313462;669;1 A
70.0223258232106;0.64959716796875;0.159759521484375;6.68999998310937;670;1 A
70.0323258231854;0.649627685546875;0.159454345703125;6.69999998308413;671;1 A
70.0423258231601;0.64959716796875;0.159271240234375;6.70999998305888;672;1 A
70.0523258231349;0.649566650390625;0.159210205078125;6.71999998303363;673;1 A
70.0623258231096;0.649566650390625;0.15911865234375;6.72999998300838;674;1 A
70.0723258230844;0.64959716796875;0.15911865234375;6.73999998298314;675;1 A
70.0823258230591;0.64959716796875;0.158905029296875;6.74999998295789;676;1 A
70.0923258230339;0.64959716796875;0.159332275390625;6.75999998293264;677;1 A
70.1023258230086;0.649566650390625;0.158905029296875;6.76999998290739;678;1 A
70.1123258229834;0.649658203125;0.158660888671875;6.77999998288215;679;1 A
70.1223258229581;0.649566650390625;0.1583251953125;6.7899999828569;680;1 A
70.1323258229329;0.6495361328125;0.15802001953125;6.79999998283165;681;1 A
70.1423258229077;0.64959716796875;0.157318115234375;6.8099999828064;682;1 A
70.1523258228824;0.649627685546875;0.15704345703125;6.81999998278116;683;1 A
70.1623258228572;0.649566650390625;0.15692138671875;6.82999998275591;684;1 A
70.1723258228319;0.649505615234375;0.156768798828125;6.83999998273066;685;1 A
70.1823258228067;0.649658203125;0.156646728515625;6.84999998270541;686;1 A
70.1923258227814;0.649658203125;0.156707763671875;6.85999998268016;687;1 A
70.2023258227562;0.649566650390625;0.156707763671875;6.86999998265492;688;1 A
70.2123258227309;0.64959716796875;0.157257080078125;6.87999998262967;689;1 A
70.2223258227057;0.649566650390625;0.1571044921875;6.88999998260442;690;1 A
70.2323258226804;0.6495361328125;0.157073974609375;6.89999998257917;691;1 A
70.2423258226552;0.64959716796875;0.15679931640625;6.90999998255393;692;1 A
70.2523258226299;0.64959716796875;0.15667724609375;6.91999998252868;693;1 A
70.2623258226047;0.649566650390625;0.15625;6.92999998250343;694;1 A
70.2723258225794;0.64959716796875;0.156158447265625;6.93999998247818;695;1 A
70.2823258225542;0.64959716796875;0.156097412109375;6.94999998245294;696;1 A
70.2923258225289;0.649627685546875;0.156158447265625;6.95999998242769;697;1 A
70.3023258225037;0.64959716796875;0.156158447265625;6.96999998240244;698;1 A
70.3123258224784;0.649566650390625;0.15631103515625;6.97999998237719;699;1 A
70.3223258224532;0.649627685546875;0.156341552734375;6.98999998235195;700;1 A
70.3323258224279;0.649627685546875;0.15679931640625;6.9999999823267;701;1 A
70.3423258224027;0.64959716796875;0.15667724609375;7.00999998230145;702;1 A
70.3523258223775;0.64959716796875;0.1566162109375;7.0199999822762;703;1 A
70.3623258223522;0.64959716796875;0.156402587890625;7.02999998225096;704;1 A
70.372325822327;0.64959716796875;0.156219482421875;7.03999998222571;705;1 A
70.3823258223017;0.649627685546875;0.155731201171875;7.04999998220046;706;1 A
70.3923258222765;0.649627685546875;0.155609130859375;7.05999998217521;707;1 A
70.4023258222512;0.649566650390625;0.155517578125;7.06999998214997;708;1 A
70.412325822226;0.649627685546875;0.155517578125;7.07999998212472;709;1 A
70.4223258222007;0.649566650390625;0.15557861328125;7.08999998209947;710;1 A
70.4323258221755;0.64959716796875;0.155853271484375;7.09999998207422;711;1 A
70.4423258221502;0.649566650390625;0.1558837890625;7.10999998204898;712;1 A
70.452325822125;0.64959716796875;0.156158447265625;7.11999998202373;713;1 A
70.4623258220997;0.64959716796875;0.15618896484375;7.12999998199848;714;1 A
70.4723258220745;0.649566650390625;0.156219482421875;7.13999998197323;715;1 A
70.4823258220492;0.649566650390625;0.15618896484375;7.14999998194799;716;1 A
70.492325822024;0.649658203125;0.156158447265625;7.15999998192274;717;1 A
70.5023258219987;0.649627685546875;0.15606689453125;7.16999998189749;718;1 A
70.5123258219735;0.64959716796875;0.156036376953125;7.17999998187224;719;1 A
70.5223258219482;0.64959716796875;0.156097412109375;7.189999981847;720;1 A
70.532325821923;0.6495361328125;0.15618896484375;7.19999998182175;721;1 A
70.5423258218977;0.64959716796875;0.15631103515625;7.2099999817965;722;1 A
70.5523258218725;0.64959716796875;0.1566162109375;7.21999998177125;723;1 A
70.5623258218473;0.64959716796875;0.15673828125;7.229999981746;724;1 A
70.572325821822;0.6495361328125;0.157135009765625;7.23999998172076;725;1 A
70.5823258217968;0.6495361328125;0.157379150390625;7.24999998169551;726;1 A
70.5923258217715;0.649627685546875;0.15753173828125;7.25999998167026;727;1 A
70.6023258217463;0.649566650390625;0.157562255859375;7.26999998164501;728;1 A
70.612325821721;0.649566650390625;0.157501220703125;7.27999998161977;729;1 A
70.6223258216958;0.649627685546875;0.1572265625;7.28999998159452;730;1 A
70.6323258216705;0.64959716796875;0.15716552734375;7.29999998156927;731;1 A
70.6423258216453;0.64959716796875;0.1571044921875;7.30999998154402;732;1 A
70.65232582162;0.649688720703125;0.1571044921875;7.31999998151878;733;1 A
70.6623258215948;0.649566650390625;0.157135009765625;7.32999998149353;734;1 A
70.6723258215695;0.64959716796875;0.157196044921875;7.33999998146828;735;1 A
70.6823258215443;0.64959716796875;0.157073974609375;7.34999998144303;736;1 A
70.692325821519;0.649566650390625;0.157501220703125;7.35999998141779;737;1 A
70.7023258214938;0.649627685546875;0.15728759765625;7.36999998139254;738;1 A
70.7123258214685;0.649627685546875;0.157257080078125;7.37999998136729;739;1 A
70.7223258214433;0.649566650390625;0.157012939453125;7.38999998134204;740;1 A
70.732325821418;0.64959716796875;0.156829833984375;7.3999999813168;741;1 A
70.7423258213928;0.6495361328125;0.15625;7.40999998129155;742;1 A
70.7523258213675;0.649627685546875;0.15606689453125;7.4199999812663;743;1 A
70.7623258213423;0.649627685546875;0.15594482421875;7.42999998124105;744;1 A
70.7723258213171;0.64959716796875;0.155914306640625;7.43999998121581;745;1 A
70.7823258212918;0.64959716796875;0.1558837890625;7.44999998119056;746;1 A
70.7923258212666;0.649627685546875;0.156005859375;7.45999998116531;747;1 A
70.8023258212413;0.64959716796875;0.15606689453125;7.46999998114006;748;1 A
70.8123258212161;0.649566650390625;0.1563720703125;7.47999998111482;749;1 A
70.8223258211908;0.649566650390625;0.156463623046875;7.48999998108957;750;1 A
70.8323258211656;0.64959716796875;0.156463623046875;7.49999998106432;751;1 A
70.8423258211403;0.649627685546875;0.156158447265625;7.50999998103907;752;1 A
70.8523258211151;0.64959716796875;0.15606689453125;7.51999998101383;753;1 A
70.8623258210898;0.649688720703125;0.155670166015625;7.52999998098858;754;1 A
70.8723258210646;0.649566650390625;0.155609130859375;7.53999998096333;755;1 A
70.8823258210393;0.649627685546875;0.155548095703125;7.54999998093808;756;1 A
70.8923258210141;0.64971923828125;0.155670166015625;7.55999998091283;757;1 A
70.9023258209888;0.649566650390625;0.1556396484375;7.56999998088759;758;1 A
70.9123258209636;0.64959716796875;0.15582275390625;7.57999998086234;759;1 A
70.9223258209383;0.6495361328125;0.155914306640625;7.58999998083709;760;1 A
70.9323258209131;0.64959716796875;0.1563720703125;7.59999998081184;761;1 A
70.9423258208878;0.649566650390625;0.156341552734375;7.6099999807866;762;1 A
70.9523258208626;0.649505615234375;0.15643310546875;7.61999998076135;763;1 A
70.9623258208373;0.64959716796875;0.156341552734375;7.6299999807361;764;1 A
70.9723258208121;0.64959716796875;0.156219482421875;7.63999998071085;765;1 A
70.9823258207869;0.649627685546875;0.155853271484375;7.64999998068561;766;1 A
70.9923258207616;0.649627685546875;0.15570068359375;7.65999998066036;767;1 A
71.0023258207364;0.649566650390625;0.155670166015625;7.66999998063511;768;1 A
71.0123258207111;0.649627685546875;0.1556396484375;7.67999998060986;769;1 A
71.0223258206859;0.649627685546875;0.15570068359375;7.68999998058462;770;1 A
71.0323258206606;0.64959716796875;0.155853271484375;7.69999998055937;771;1 A
71.0423258206354;0.649627685546875;0.15576171875;7.70999998053412;772;1 A
71.0523258206101;0.649627685546875;0.156341552734375;7.71999998050887;773;1 A
71.0623258205849;0.64959716796875;0.156097412109375;7.72999998048363;774;1 A
71.0723258205596;0.649627685546875;0.155975341796875;7.73999998045838;775;1 A
71.0823258205344;0.64959716796875;0.155853271484375;7.74999998043313;776;1 A
71.0923258205091;0.649627685546875;0.15570068359375;7.75999998040788;777;1 A
71.1023258204839;0.64959716796875;0.15533447265625;7.76999998038264;778;1 A
71.1123258204586;0.6495361328125;0.15509033203125;7.77999998035739;779;1 A
71.1223258204334;0.649566650390625;0.155059814453125;7.78999998033214;780;1 A
71.1323258204081;0.649566650390625;0.155029296875;7.79999998030689;781;1 A
71.1423258203829;0.649566650390625;0.155029296875;7.80999998028165;782;1 A
71.1523258203576;0.649566650390625;0.155120849609375;7.8199999802564;783;1 A
71.1623258203324;0.649566650390625;0.15509033203125;7.82999998023115;784;1 A
71.1723258203072;0.649627685546875;0.155487060546875;7.8399999802059;785;1 A
71.1823258202819;0.649627685546875;0.1553955078125;7.84999998018066;786;1 A
71.1923258202567;0.649566650390625;0.15545654296875;7.85999998015541;787;1 A
71.2023258202314;0.64959716796875;0.1553955078125;7.86999998013016;788;1 A
71.2123258202062;0.649627685546875;0.1552734375;7.87999998010491;789;1 A
71.2223258201809;0.649658203125;0.154937744140625;7.88999998007966;790;1 A
71.2323258201557;0.6495361328125;0.154937744140625;7.89999998005442;791;1 A
71.2423258201304;0.649627685546875;0.1549072265625;7.90999998002917;792;1 A
71.2523258201052;0.64959716796875;0.155029296875;7.91999998000392;793;1 A
71.2623258200799;0.649627685546875;0.1551513671875;7.92999997997867;794;1 A
71.2723258200547;0.64959716796875;0.15533447265625;7.93999997995343;795;1 A
71.2823258200294;0.649627685546875;0.15545654296875;7.94999997992818;796;1 A
71.2923258200042;0.64959716796875;0.155914306640625;7.95999997990293;797;1 A
71.3023258199789;0.6495361328125;0.155853271484375;7.96999997987768;798;1 A
71.3123258199537;0.649505615234375;0.155975341796875;7.97999997985244;799;1 A
71.3223258199284;0.649658203125;0.156005859375;7.98999997982719;800;1 A
71.3323258199032;0.6495361328125;0.1561279296875;7.99999997980194;801;1 A
71.3423258198779;0.649566650390625;0.15582275390625;8.00999997977669;802;1 A
71.3523258198527;0.649566650390625;0.1558837890625;8.01999997975145;803;1 A
71.3623258198274;0.64959716796875;0.155914306640625;8.0299999797262;804;1 A
71.3723258198022;0.649658203125;0.156158447265625;8.03999997970095;805;1 A
71.382325819777;0.6495361328125;0.156341552734375;8.0499999796757;806;1 A
71.3923258197517;0.64959716796875;0.15667724609375;8.05999997965046;807;1 A
71.4023258197265;0.649566650390625;0.156890869140625;8.06999997962521;808;1 A
71.4123258197012;0.6495361328125;0.157470703125;8.07999997959996;809;1 A
71.422325819676;0.64959716796875;0.15753173828125;8.08999997957471;810;1 A
71.4323258196507;0.649566650390625;0.157684326171875;8.09999997954947;811;1 A
71.4423258196255;0.649566650390625;0.157623291015625;8.10999997952422;812;1 A
71.4523258196002;0.64959716796875;0.15771484375;8.11999997949897;813;1 A
71.462325819575;0.64959716796875;0.157470703125;8.12999997947372;814;1 A
71.4723258195497;0.64959716796875;0.1575927734375;8.13999997944848;815;1 A
71.4823258195245;0.649627685546875;0.157623291015625;8.14999997942323;816;1 A
71.4923258194992;0.649658203125;0.15789794921875;8.15999997939798;817;1 A
71.502325819474;0.649658203125;0.158050537109375;8.16999997937273;818;1 A
71.5123258194487;0.649566650390625;0.158416748046875;8.17999997934749;819;1 A
71.5223258194235;0.64959716796875;0.15869140625;8.18999997932224;820;1 A
71.5323258193982;0.649566650390625;0.1591796875;8.19999997929699;821;1 A
71.542325819373;0.64959716796875;0.15936279296875;8.20999997927174;822;1 A
71.5523258193477;0.6495361328125;0.15960693359375;8.2199999792465;823;1 A
71.5623258193225;0.64959716796875;0.159637451171875;8.22999997922125;824;1 A
71.5723258192972;0.649627685546875;0.15966796875;8.239999979196;825;1 A
71.582325819272;0.64959716796875;0.15936279296875;8.24999997917075;826;1 A
71.5923258192468;0.6495361328125;0.15936279296875;8.2599999791455;827;1 A
71.6023258192215;0.64959716796875;0.159423828125;8.26999997912026;828;1 A
71.6123258191963;0.649505615234375;0.159515380859375;8.27999997909501;829;1 A
71.622325819171;0.649566650390625;0.159637451171875;8.28999997906976;830;1 A
71.6323258191458;0.649505615234375;0.159881591796875;8.29999997904451;831;1 A
71.6423258191205;0.6495361328125;0.159942626953125;8.30999997901927;832;1 A
71.6523258190953;0.64959716796875;0.160675048828125;8.31999997899402;833;1 A
71.66232581907;0.649566650390625;0.160491943359375;8.32999997896877;834;1 A
71.6723258190448;0.649505615234375;0.1605224609375;8.33999997894352;835;1 A
71.6823258190195;0.64959716796875;0.1605224609375;8.34999997891828;836;1 A
71.6923258189943;0.649505615234375;0.160369873046875;8.35999997889303;837;1 A
71.702325818969;0.64959716796875;0.160003662109375;8.36999997886778;838;1 A
71.7123258189438;0.649566650390625;0.15985107421875;8.37999997884253;839;1 A
71.7223258189185;0.649566650390625;0.159912109375;8.38999997881729;840;1 A
71.7323258188933;0.649627685546875;0.15985107421875;8.39999997879204;841;1 A
71.742325818868;0.649627685546875;0.15985107421875;8.40999997876679;842;1 A
71.7523258188428;0.649566650390625;0.159942626953125;8.41999997874154;843;1 A
71.7623258188175;0.649566650390625;0.159881591796875;8.4299999787163;844;1 A
71.7723258187923;0.649627685546875;0.160308837890625;8.43999997869105;845;1 A
71.782325818767;0.649658203125;0.160186767578125;8.4499999786658;846;1 A
71.7923258187418;0.64959716796875;0.160003662109375;8.45999997864055;847;1 A
71.8023258187166;0.649627685546875;0.15966796875;8.46999997861531;848;1 A
71.8123258186913;0.649658203125;0.159271240234375;8.47999997859006;849;1 A
71.8223258186661;0.649658203125;0.158721923828125;8.48999997856481;850;1 A
71.8323258186408;0.64959716796875;0.15850830078125;8.49999997853956;851;1 A
71.8423258186156;0.649566650390625;0.158294677734375;8.50999997851432;852;1 A
71.8523258185903;0.649566650390625;0.158203125;8.51999997848907;853;1 A
71.8623258185651;0.649627685546875;0.158111572265625;8.52999997846382;854;1 A
71.8723258185398;0.64947509765625;0.1580810546875;8.53999997843857;855;1 A
71.8823258185146;0.649566650390625;0.157989501953125;8.54999997841333;856;1 A
71.8923258184893;0.649627685546875;0.1583251953125;8.55999997838808;857;1 A
71.9023258184641;0.6495361328125;0.1580810546875;8.56999997836283;858;1 A
71.9123258184388;0.64959716796875;0.15802001953125;8.57999997833758;859;1 A
71.9223258184136;0.649627685546875;0.157806396484375;8.58999997831233;860;1 A
71.9323258183883;0.64947509765625;0.1575927734375;8.59999997828709;861;1 A
71.9423258183631;0.649658203125;0.157073974609375;8.60999997826184;862;1 A
71.9523258183378;0.64959716796875;0.156890869140625;8.61999997823659;863;1 A
71.9623258183126;0.649566650390625;0.15667724609375;8.62999997821134;864;1 A
71.9723258182873;0.649566650390625;0.1566162109375;8.6399999781861;865;1 A
71.9823258182621;0.649566650390625;0.156524658203125;8.64999997816085;866;1 A
71.9923258182368;0.64947509765625;0.156646728515625;8.6599999781356;867;1 A
72.0023258182116;0.649627685546875;0.15655517578125;8.66999997811035;868;1 A
72.0123258181864;0.649566650390625;0.15667724609375;8.67999997808511;869;1 A
72.0223258181611;0.649627685546875;0.156707763671875;8.68999997805986;870;1 A
72.0323258181359;0.649658203125;0.156585693359375;8.69999997803461;871;1 A
72.0423258181106;0.64959716796875;0.156341552734375;8.70999997800936;872;1 A
72.0523258180854;0.64947509765625;0.156219482421875;8.71999997798412;873;1 A
72.0623258180601;0.649566650390625;0.1558837890625;8.72999997795887;874;1 A
72.0723258180349;0.649627685546875;0.15576171875;8.73999997793362;875;1 A
72.0823258180096;0.649566650390625;0.1556396484375;8.74999997790837;876;1 A
72.0923258179844;0.6495361328125;0.15570068359375;8.75999997788313;877;1 A
72.1023258179591;0.649627685546875;0.1556396484375;8.76999997785788;878;1 A
72.1123258179339;0.649658203125;0.15582275390625;8.77999997783263;879;1 A
72.1223258179086;0.649627685546875;0.15582275390625;8.78999997780738;880;1 A
72.1323258178834;0.649566650390625;0.15625;8.79999997778214;881;1 A
72.1423258178581;0.649658203125;0.15631103515625;8.80999997775689;882;1 A
72.1523258178329;0.649658203125;0.15631103515625;8.81999997773164;883;1 A
72.1623258178076;0.64959716796875;0.156219482421875;8.82999997770639;884;1 A
72.1723258177824;0.649505615234375;0.156158447265625;8.83999997768115;885;1 A
72.1823258177571;0.649566650390625;0.15570068359375;8.8499999776559;886;1 A
72.1923258177319;0.64959716796875;0.155548095703125;8.85999997763065;887;1 A
72.2023258177067;0.64959716796875;0.155609130859375;8.8699999776054;888;1 A
72.2123258176814;0.649566650390625;0.155670166015625;8.87999997758016;889;1 A
72.2223258176562;0.64959716796875;0.15582275390625;8.88999997755491;890;1 A
72.2323258176309;0.649658203125;0.156097412109375;8.89999997752966;891;1 A
72.2423258176057;0.649566650390625;0.156097412109375;8.90999997750441;892;1 A
72.2523258175804;0.64959716796875;0.1568603515625;8.91999997747916;893;1 A
72.2623258175552;0.649627685546875;0.15673828125;8.92999997745392;894;1 A
72.2723258175299;0.649566650390625;0.15667724609375;8.93999997742867;895;1 A
72.2823258175047;0.6495361328125;0.156524658203125;8.94999997740342;896;1 A
72.2923258174794;0.649505615234375;0.1563720703125;8.95999997737817;897;1 A
72.3023258174542;0.649566650390625;0.155853271484375;8.96999997735293;898;1 A
72.3123258174289;0.649627685546875;0.155548095703125;8.97999997732768;899;1 A
72.3223258174037;0.649627685546875;0.155548095703125;8.98999997730243;900;1 A
72.3323258173784;0.6495361328125;0.15545654296875;8.99999997727718;901;1 A
72.3423258173532;0.64959716796875;0.1553955078125;9.00999997725194;902;1 A
72.3523258173279;0.649566650390625;0.15545654296875;9.01999997722669;903;1 A
72.3623258173027;0.649566650390625;0.15533447265625;9.02999997720144;904;1 A
72.3723258172774;0.64959716796875;0.155670166015625;9.03999997717619;905;1 A
72.3823258172522;0.64959716796875;0.15570068359375;9.04999997715095;906;1 A
72.3923258172269;0.64959716796875;0.155609130859375;9.0599999771257;907;1 A
72.4023258172017;0.64959716796875;0.155303955078125;9.06999997710045;908;1 A
72.4123258171765;0.649505615234375;0.155059814453125;9.0799999770752;909;1 A
72.4223258171512;0.649627685546875;0.15460205078125;9.08999997704996;910;1 A
72.432325817126;0.64959716796875;0.154388427734375;9.09999997702471;911;1 A
72.4423258171007;0.64959716796875;0.15423583984375;9.10999997699946;912;1 A
72.4523258170755;0.64959716796875;0.15423583984375;9.11999997697421;913;1 A
72.4623258170502;0.64959716796875;0.1541748046875;9.12999997694897;914;1 A
72.472325817025;0.649658203125;0.15423583984375;9.13999997692372;915;1 A
72.4823258169997;0.64959716796875;0.15423583984375;9.14999997689847;916;1 A
72.4923258169745;0.6495361328125;0.15460205078125;9.15999997687322;917;1 A
72.5023258169492;0.64959716796875;0.154296875;9.16999997684798;918;1 A
72.512325816924;0.649658203125;0.154144287109375;9.17999997682273;919;1 A
72.5223258168987;0.649566650390625;0.15380859375;9.18999997679748;920;1 A
72.5323258168735;0.6495361328125;0.153533935546875;9.19999997677223;921;1 A
72.5423258168482;0.64959716796875;0.15289306640625;9.20999997674699;922;1 A
72.552325816823;0.64959716796875;0.152587890625;9.21999997672174;923;1 A
72.5623258167977;0.649658203125;0.152191162109375;9.22999997669649;924;1 A
72.5723258167725;0.649627685546875;0.152099609375;9.23999997667124;925;1 A
72.5823258167472;0.649627685546875;0.151947021484375;9.249999976646;926;1 A
72.592325816722;0.649688720703125;0.15203857421875;9.25999997662075;927;1 A
72.6023258166967;0.649658203125;0.15191650390625;9.2699999765955;928;1 A
72.6123258166715;0.649566650390625;0.152099609375;9.27999997657025;929;1 A
72.6223258166463;0.649627685546875;0.151947021484375;9.289999976545;930;1 A
72.632325816621;0.64959716796875;0.151641845703125;9.29999997651976;931;1 A
72.6423258165958;0.649627685546875;0.1512451171875;9.30999997649451;932;1 A
72.6523258165705;0.649566650390625;0.151031494140625;9.31999997646926;933;1 A
72.6623258165453;0.649627685546875;0.15057373046875;9.32999997644401;934;1 A
72.67232581652;0.649627685546875;0.15045166015625;9.33999997641877;935;1 A
72.6823258164948;0.64959716796875;0.150299072265625;9.34999997639352;936;1 A
72.6923258164695;0.649566650390625;0.150360107421875;9.35999997636827;937;1 A
72.7023258164443;0.64959716796875;0.150299072265625;9.36999997634302;938;1 A
72.712325816419;0.649658203125;0.150543212890625;9.37999997631778;939;1 A
72.7223258163938;0.64959716796875;0.150634765625;9.38999997629253;940;1 A
72.7323258163685;0.64959716796875;0.15087890625;9.39999997626728;941;1 A
72.7423258163433;0.649566650390625;0.150848388671875;9.40999997624203;942;1 A
72.752325816318;0.649658203125;0.15081787109375;9.41999997621679;943;1 A
72.7623258162928;0.649658203125;0.15057373046875;9.42999997619154;944;1 A
72.7723258162675;0.6495361328125;0.15032958984375;9.43999997616629;945;1 A
72.7823258162423;0.649566650390625;0.149749755859375;9.44999997614104;946;1 A
72.792325816217;0.649627685546875;0.149505615234375;9.4599999761158;947;1 A
72.8023258161918;0.64959716796875;0.14935302734375;9.46999997609055;948;1 A
72.8123258161665;0.649627685546875;0.14923095703125;9.4799999760653;949;1 A
72.8223258161413;0.6495361328125;0.149139404296875;9.48999997604005;950;1 A
72.8323258161161;0.649627685546875;0.149200439453125;9.49999997601481;951;1 A
72.8423258160908;0.649627685546875;0.149078369140625;9.50999997598956;952;1 A
72.8523258160656;0.649627685546875;0.149627685546875;9.51999997596431;953;1 A
72.8623258160403;0.649658203125;0.1492919921875;9.52999997593906;954;1 A
72.8723258160151;0.649627685546875;0.149169921875;9.53999997591382;955;1 A
72.8823258159898;0.649566650390625;0.148895263671875;9.54999997588857;956;1 A
72.8923258159646;0.649688720703125;0.148651123046875;9.55999997586332;957;1 A
72.9023258159393;0.649627685546875;0.14801025390625;9.56999997583807;958;1 A
72.9123258159141;0.64959716796875;0.147735595703125;9.57999997581283;959;1 A
72.9223258158888;0.64959716796875;0.147674560546875;9.58999997578758;960;1 A
72.9323258158636;0.6495361328125;0.1475830078125;9.59999997576233;961;1 A
72.9423258158383;0.649566650390625;0.14752197265625;9.60999997573708;962;1 A
72.9523258158131;0.649627685546875;0.14764404296875;9.61999997571183;963;1 A
72.9623258157878;0.649627685546875;0.147705078125;9.62999997568659;964;1 A
72.9723258157626;0.649627685546875;0.14825439453125;9.63999997566134;965;1 A
72.9823258157373;0.64959716796875;0.148040771484375;9.64999997563609;966;1 A
72.9923258157121;0.64959716796875;0.147918701171875;9.65999997561084;967;1 A
73.0023258156868;0.649627685546875;0.147613525390625;9.6699999755856;968;1 A
73.0123258156616;0.6495361328125;0.147369384765625;9.67999997556035;969;1 A
73.0223258156363;0.64959716796875;0.14691162109375;9.6899999755351;970;1 A
73.0323258156111;0.649566650390625;0.146820068359375;9.69999997550985;971;1 A
73.0423258155859;0.64959716796875;0.14678955078125;9.70999997548461;972;1 A
73.0523258155606;0.649627685546875;0.146942138671875;9.71999997545936;973;1 A
73.0623258155354;0.649566650390625;0.146942138671875;9.72999997543411;974;1 A
73.0723258155101;0.649566650390625;0.147125244140625;9.73999997540886;975;1 A
73.0823258154849;0.649627685546875;0.147247314453125;9.74999997538362;976;1 A
73.0923258154596;0.64959716796875;0.147491455078125;9.75999997535837;977;1 A
73.1023258154344;0.649566650390625;0.147430419921875;9.76999997533312;978;1 A
73.1123258154091;0.649658203125;0.147491455078125;9.77999997530787;979;1 A
73.1223258153839;0.64959716796875;0.14739990234375;9.78999997528263;980;1 A
73.1323258153586;0.649688720703125;0.1473388671875;9.79999997525738;981;1 A
73.1423258153334;0.64959716796875;0.147003173828125;9.80999997523213;982;1 A
73.1523258153081;0.649627685546875;0.147003173828125;9.81999997520688;983;1 A
73.1623258152829;0.649566650390625;0.14703369140625;9.82999997518164;984;1 A
73.1723258152576;0.64959716796875;0.14715576171875;9.83999997515639;985;1 A
73.1823258152324;0.649627685546875;0.14727783203125;9.84999997513114;986;1 A
73.1923258152071;0.649627685546875;0.147552490234375;9.85999997510589;987;1 A
73.2023258151819;0.649627685546875;0.147552490234375;9.86999997508065;988;1 A
73.2123258151566;0.64959716796875;0.147918701171875;9.8799999750554;989;1 A
73.2223258151314;0.649566650390625;0.147857666015625;9.88999997503015;990;1 A
73.2323258151062;0.649566650390625;0.1478271484375;9.8999999750049;991;1 A
73.2423258150809;0.64959716796875;0.147705078125;9.90999997497966;992;1 A
73.2523258150557;0.649658203125;0.147613525390625;9.91999997495441;993;1 A
73.2623258150304;0.64959716796875;0.1473388671875;9.92999997492916;994;1 A
73.2723258150052;0.6495361328125;0.14727783203125;9.93999997490391;995;1 A
73.2823258149799;0.6495361328125;0.1473388671875;9.94999997487866;996;1 A
73.2923258149547;0.649627685546875;0.147491455078125;9.95999997485342;997;1 A
73.3023258149294;0.649627685546875;0.1475830078125;9.96999997482817;998;1 A
73.3123258149042;0.6495361328125;0.147857666015625;9.97999997480292;999;1 A
73.3223258148789;0.64959716796875;0.147918701171875;9.98999997477767;1000;1 A
