Time (s);WE(1).Potential (V);WE(1).Current (A);Corrected time (s);Index;Current range
95.2571087594989;0.70111083984375;1.0614013671875;0;1;1 A
95.2671087594737;0.699951171875;0.7611083984375;0.00999999997475243;2;1 A
95.2771087594484;0.6998291015625;0.6280517578125;0.0199999999495049;3;1 A
95.2871087594232;0.69976806640625;0.5474853515625;0.0299999999242573;4;1 A
95.2971087593979;0.699676513671875;0.49224853515625;0.0399999998990097;5;1 A
95.3071087593727;0.699615478515625;0.451171875;0.0499999998737621;6;1 A
95.3171087593474;0.699676513671875;0.4189453125;0.0599999998485146;7;1 A
95.3271087593222;0.69964599609375;0.392791748046875;0.069999999823267;8;1 A
95.3371087592969;0.69970703125;0.371307373046875;0.0799999997980194;9;1 A
95.3471087592717;0.699615478515625;0.35321044921875;0.0899999997727718;10;1 A
95.3571087592464;0.699676513671875;0.337677001953125;0.0999999997475243;11;1 A
95.3671087592212;0.6995849609375;0.32415771484375;0.109999999722277;12;1 A
95.3771087591959;0.69964599609375;0.312286376953125;0.119999999697029;13;1 A
95.3871087591707;0.6995849609375;0.301788330078125;0.129999999671782;14;1 A
95.3971087591455;0.699676513671875;0.29248046875;0.139999999646534;15;1 A
95.4071087591202;0.699615478515625;0.284088134765625;0.149999999621286;16;1 A
95.417108759095;0.69964599609375;0.27642822265625;0.159999999596039;17;1 A
95.4271087590697;0.69964599609375;0.2694091796875;0.169999999570791;18;1 A
95.4371087590445;0.69964599609375;0.26287841796875;0.179999999545544;19;1 A
95.4471087590192;0.699676513671875;0.256439208984375;0.189999999520296;20;1 A
95.457108758994;0.699615478515625;0.250823974609375;0.199999999495049;21;1 A
95.4671087589687;0.699615478515625;0.245574951171875;0.209999999469801;22;1 A
95.4771087589435;0.69964599609375;0.24090576171875;0.219999999444553;23;1 A
95.4871087589182;0.69970703125;0.236602783203125;0.229999999419306;24;1 A
95.497108758893;0.69964599609375;0.232635498046875;0.239999999394058;25;1 A
95.5071087588677;0.69964599609375;0.22894287109375;0.249999999368811;26;1 A
95.5171087588425;0.69964599609375;0.2255859375;0.259999999343563;27;1 A
95.5271087588172;0.69970703125;0.222412109375;0.269999999318316;28;1 A
95.537108758792;0.699737548828125;0.21942138671875;0.279999999293068;29;1 A
95.5471087587667;0.69964599609375;0.216552734375;0.28999999926782;30;1 A
95.5571087587415;0.699676513671875;0.213836669921875;0.299999999242573;31;1 A
95.5671087587162;0.69964599609375;0.211181640625;0.309999999217325;32;1 A
95.577108758691;0.6995849609375;0.208740234375;0.319999999192078;33;1 A
95.5871087586657;0.69964599609375;0.2064208984375;0.32999999916683;34;1 A
95.5971087586405;0.699554443359375;0.204193115234375;0.339999999141583;35;1 A
95.6071087586153;0.69964599609375;0.202178955078125;0.349999999116335;36;1 A
95.61710875859;0.699615478515625;0.2003173828125;0.359999999091087;37;1 A
95.6271087585648;0.699615478515625;0.198516845703125;0.36999999906584;38;1 A
95.6371087585395;0.699615478515625;0.196929931640625;0.379999999040592;39;1 A
95.6471087585143;0.699676513671875;0.195404052734375;0.389999999015345;40;1 A
95.657108758489;0.699615478515625;0.193939208984375;0.399999998990097;41;1 A
95.6671087584638;0.69964599609375;0.192413330078125;0.40999999896485;42;1 A
95.6771087584385;0.69964599609375;0.19097900390625;0.419999998939602;43;1 A
95.6871087584133;0.699676513671875;0.189453125;0.429999998914354;44;1 A
95.697108758388;0.699615478515625;0.188079833984375;0.439999998889107;45;1 A
95.7071087583628;0.69964599609375;0.186798095703125;0.449999998863859;46;1 A
95.7171087583375;0.6995849609375;0.185577392578125;0.459999998838612;47;1 A
95.7271087583123;0.69970703125;0.18450927734375;0.469999998813364;48;1 A
95.737108758287;0.699676513671875;0.18353271484375;0.479999998788116;49;1 A
95.7471087582618;0.69970703125;0.18255615234375;0.489999998762869;50;1 A
95.7571087582365;0.699676513671875;0.181793212890625;0.499999998737621;51;1 A
95.7671087582113;0.69964599609375;0.1810302734375;0.509999998712374;52;1 A
95.777108758186;0.69964599609375;0.1802978515625;0.519999998687126;53;1 A
95.7871087581608;0.69970703125;0.17950439453125;0.529999998661879;54;1 A
95.7971087581356;0.69964599609375;0.178741455078125;0.539999998636631;55;1 A
95.8071087581103;0.69964599609375;0.177978515625;0.549999998611383;56;1 A
95.8171087580851;0.699615478515625;0.17730712890625;0.559999998586136;57;1 A
95.8271087580598;0.69964599609375;0.176666259765625;0.569999998560888;58;1 A
95.8371087580346;0.699676513671875;0.176025390625;0.579999998535641;59;1 A
95.8471087580093;0.699676513671875;0.175445556640625;0.589999998510393;60;1 A
95.8571087579841;0.699737548828125;0.174957275390625;0.599999998485146;61;1 A
95.8671087579588;0.699615478515625;0.174407958984375;0.609999998459898;62;1 A
95.8771087579336;0.69964599609375;0.174041748046875;0.61999999843465;63;1 A
95.8871087579083;0.69970703125;0.173583984375;0.629999998409403;64;1 A
95.8971087578831;0.69970703125;0.173126220703125;0.639999998384155;65;1 A
95.9071087578578;0.69964599609375;0.172454833984375;0.649999998358908;66;1 A
95.9171087578326;0.69964599609375;0.17181396484375;0.65999999833366;67;1 A
95.9271087578073;0.699676513671875;0.171112060546875;0.669999998308413;68;1 A
95.9371087577821;0.699615478515625;0.170654296875;0.679999998283165;69;1 A
95.9471087577568;0.699676513671875;0.170166015625;0.689999998257917;70;1 A
95.9571087577316;0.6995849609375;0.169769287109375;0.69999999823267;71;1 A
95.9671087577063;0.6995849609375;0.16943359375;0.709999998207422;72;1 A
95.9771087576811;0.699615478515625;0.1690673828125;0.719999998182175;73;1 A
95.9871087576558;0.699615478515625;0.16876220703125;0.729999998156927;74;1 A
95.9971087576306;0.69964599609375;0.168609619140625;0.73999999813168;75;1 A
96.0071087576054;0.699676513671875;0.16839599609375;0.749999998106432;76;1 A
96.0171087575801;0.69964599609375;0.168182373046875;0.759999998081184;77;1 A
96.0271087575549;0.699615478515625;0.1678466796875;0.769999998055937;78;1 A
96.0371087575296;0.69964599609375;0.167266845703125;0.779999998030689;79;1 A
96.0471087575044;0.699615478515625;0.16650390625;0.789999998005442;80;1 A
96.0571087574791;0.699676513671875;0.166046142578125;0.799999997980194;81;1 A
96.0671087574539;0.699615478515625;0.165618896484375;0.809999997954947;82;1 A
96.0771087574286;0.69964599609375;0.16552734375;0.819999997929699;83;1 A
96.0871087574034;0.69964599609375;0.165435791015625;0.829999997904451;84;1 A
96.0971087573781;0.6995849609375;0.1654052734375;0.839999997879204;85;1 A
96.1071087573529;0.69964599609375;0.16534423828125;0.849999997853956;86;1 A
96.1171087573276;0.699676513671875;0.165374755859375;0.859999997828709;87;1 A
96.1271087573024;0.699676513671875;0.165283203125;0.869999997803461;88;1 A
96.1371087572771;0.69964599609375;0.1651611328125;0.879999997778214;89;1 A
96.1471087572519;0.699676513671875;0.1649169921875;0.889999997752966;90;1 A
96.1571087572266;0.69964599609375;0.16473388671875;0.899999997727718;91;1 A
96.1671087572014;0.69964599609375;0.164398193359375;0.909999997702471;92;1 A
96.1771087571761;0.69964599609375;0.164031982421875;0.919999997677223;93;1 A
96.1871087571509;0.69964599609375;0.1636962890625;0.929999997651976;94;1 A
96.1971087571256;0.69964599609375;0.163421630859375;0.939999997626728;95;1 A
96.2071087571004;0.699615478515625;0.163238525390625;0.949999997601481;96;1 A
96.2171087570752;0.699554443359375;0.16302490234375;0.959999997576233;97;1 A
96.2271087570499;0.699676513671875;0.16278076171875;0.969999997550985;98;1 A
96.2371087570247;0.69964599609375;0.162689208984375;0.979999997525738;99;1 A
96.2471087569994;0.69964599609375;0.162506103515625;0.98999999750049;100;1 A
96.2571087569742;0.699676513671875;0.162322998046875;0.999999997475243;101;1 A
96.2671087569489;0.699676513671875;0.1619873046875;1.00999999745;102;1 A
96.2771087569237;0.69964599609375;0.161712646484375;1.01999999742475;103;1 A
96.2871087568984;0.69964599609375;0.161285400390625;1.0299999973995;104;1 A
96.2971087568732;0.69964599609375;0.161041259765625;1.03999999737425;105;1 A
96.3071087568479;0.69964599609375;0.160797119140625;1.049999997349;106;1 A
96.3171087568227;0.699615478515625;0.160675048828125;1.05999999732376;107;1 A
96.3271087567974;0.6995849609375;0.160675048828125;1.06999999729851;108;1 A
96.3371087567722;0.69964599609375;0.16064453125;1.07999999727326;109;1 A
96.3471087567469;0.699676513671875;0.1605224609375;1.08999999724801;110;1 A
96.3571087567217;0.69964599609375;0.160552978515625;1.09999999722277;111;1 A
96.3671087566964;0.69964599609375;0.16046142578125;1.10999999719752;112;1 A
96.3771087566712;0.69964599609375;0.160430908203125;1.11999999717227;113;1 A
96.3871087566459;0.69970703125;0.160247802734375;1.12999999714702;114;1 A
96.3971087566207;0.69964599609375;0.16009521484375;1.13999999712178;115;1 A
96.4071087565954;0.69970703125;0.1597900390625;1.14999999709653;116;1 A
96.4171087565702;0.69964599609375;0.15972900390625;1.15999999707128;117;1 A
96.427108756545;0.69964599609375;0.159576416015625;1.16999999704603;118;1 A
96.4371087565197;0.699676513671875;0.15948486328125;1.17999999702079;119;1 A
96.4471087564945;0.69970703125;0.159454345703125;1.18999999699554;120;1 A
96.4571087564692;0.699676513671875;0.159454345703125;1.19999999697029;121;1 A
96.467108756444;0.699676513671875;0.159393310546875;1.20999999694504;122;1 A
96.4771087564187;0.699615478515625;0.159393310546875;1.2199999969198;123;1 A
96.4871087563935;0.699676513671875;0.159332275390625;1.22999999689455;124;1 A
96.4971087563682;0.699615478515625;0.15924072265625;1.2399999968693;125;1 A
96.507108756343;0.69970703125;0.15887451171875;1.24999999684405;126;1 A
96.5171087563177;0.69964599609375;0.158416748046875;1.25999999681881;127;1 A
96.5271087562925;0.69964599609375;0.157989501953125;1.26999999679356;128;1 A
96.5371087562672;0.699676513671875;0.15765380859375;1.27999999676831;129;1 A
96.547108756242;0.69964599609375;0.157440185546875;1.28999999674306;130;1 A
96.5571087562167;0.69964599609375;0.157257080078125;1.29999999671782;131;1 A
96.5671087561915;0.6995849609375;0.157073974609375;1.30999999669257;132;1 A
96.5771087561662;0.69964599609375;0.156890869140625;1.31999999666732;133;1 A
96.587108756141;0.699615478515625;0.15679931640625;1.32999999664207;134;1 A
96.5971087561157;0.69964599609375;0.15667724609375;1.33999999661683;135;1 A
96.6071087560905;0.699615478515625;0.15667724609375;1.34999999659158;136;1 A
96.6171087560652;0.699615478515625;0.156585693359375;1.35999999656633;137;1 A
96.62710875604;0.69964599609375;0.15643310546875;1.36999999654108;138;1 A
96.6371087560148;0.6995849609375;0.156036376953125;1.37999999651583;139;1 A
96.6471087559895;0.69970703125;0.155670166015625;1.38999999649059;140;1 A
96.6571087559643;0.699676513671875;0.155303955078125;1.39999999646534;141;1 A
96.667108755939;0.69964599609375;0.155242919921875;1.40999999644009;142;1 A
96.6771087559138;0.69964599609375;0.1552734375;1.41999999641484;143;1 A
96.6871087558885;0.699676513671875;0.155426025390625;1.4299999963896;144;1 A
96.6971087558633;0.699676513671875;0.155609130859375;1.43999999636435;145;1 A
96.707108755838;0.699615478515625;0.155792236328125;1.4499999963391;146;1 A
96.7171087558128;0.699676513671875;0.156036376953125;1.45999999631385;147;1 A
96.7271087557875;0.6995849609375;0.15625;1.46999999628861;148;1 A
96.7371087557623;0.699554443359375;0.156341552734375;1.47999999626336;149;1 A
96.747108755737;0.69970703125;0.1563720703125;1.48999999623811;150;1 A
96.7571087557118;0.69964599609375;0.15643310546875;1.49999999621286;151;1 A
96.7671087556865;0.699615478515625;0.156463623046875;1.50999999618762;152;1 A
96.7771087556613;0.6995849609375;0.15643310546875;1.51999999616237;153;1 A
96.787108755636;0.6995849609375;0.15655517578125;1.52999999613712;154;1 A
96.7971087556108;0.69964599609375;0.156524658203125;1.53999999611187;155;1 A
96.8071087555855;0.69964599609375;0.156707763671875;1.54999999608663;156;1 A
96.8171087555603;0.6995849609375;0.156768798828125;1.55999999606138;157;1 A
96.8271087555351;0.699676513671875;0.156829833984375;1.56999999603613;158;1 A
96.8371087555098;0.69964599609375;0.157012939453125;1.57999999601088;159;1 A
96.8471087554846;0.6995849609375;0.1571044921875;1.58999999598564;160;1 A
96.8571087554593;0.699615478515625;0.157196044921875;1.59999999596039;161;1 A
96.8671087554341;0.699615478515625;0.15704345703125;1.60999999593514;162;1 A
96.8771087554088;0.699615478515625;0.156829833984375;1.61999999590989;163;1 A
96.8871087553836;0.699615478515625;0.156280517578125;1.62999999588465;164;1 A
96.8971087553583;0.699676513671875;0.156158447265625;1.6399999958594;165;1 A
96.9071087553331;0.699676513671875;0.15606689453125;1.64999999583415;166;1 A
96.9171087553078;0.699676513671875;0.15618896484375;1.6599999958089;167;1 A
96.9271087552826;0.699615478515625;0.156341552734375;1.66999999578366;168;1 A
96.9371087552573;0.69964599609375;0.156463623046875;1.67999999575841;169;1 A
96.9471087552321;0.69964599609375;0.156585693359375;1.68999999573316;170;1 A
96.9571087552068;0.699615478515625;0.15679931640625;1.69999999570791;171;1 A
96.9671087551816;0.699676513671875;0.1568603515625;1.70999999568267;172;1 A
96.9771087551563;0.69964599609375;0.156951904296875;1.71999999565742;173;1 A
96.9871087551311;0.699676513671875;0.156707763671875;1.72999999563217;174;1 A
96.9971087551058;0.699615478515625;0.156463623046875;1.73999999560692;175;1 A
97.0071087550806;0.699615478515625;0.1558837890625;1.74999999558167;176;1 A
97.0171087550553;0.69964599609375;0.155731201171875;1.75999999555643;177;1 A
97.0271087550301;0.699615478515625;0.155426025390625;1.76999999553118;178;1 A
97.0371087550049;0.69964599609375;0.155303955078125;1.77999999550593;179;1 A
97.0471087549796;0.69964599609375;0.155181884765625;1.78999999548068;180;1 A
97.0571087549544;0.69964599609375;0.15509033203125;1.79999999545544;181;1 A
97.0671087549291;0.699676513671875;0.155120849609375;1.80999999543019;182;1 A
97.0771087549039;0.69964599609375;0.155059814453125;1.81999999540494;183;1 A
97.0871087548786;0.69964599609375;0.154998779296875;1.82999999537969;184;1 A
97.0971087548534;0.699615478515625;0.15484619140625;1.83999999535445;185;1 A
97.1071087548281;0.699615478515625;0.154541015625;1.8499999953292;186;1 A
97.1171087548029;0.69964599609375;0.154266357421875;1.85999999530395;187;1 A
97.1271087547776;0.69970703125;0.154022216796875;1.8699999952787;188;1 A
97.1371087547524;0.6995849609375;0.15386962890625;1.87999999525346;189;1 A
97.1471087547271;0.69964599609375;0.15374755859375;1.88999999522821;190;1 A
97.1571087547019;0.69964599609375;0.153778076171875;1.89999999520296;191;1 A
97.1671087546766;0.699615478515625;0.15374755859375;1.90999999517771;192;1 A
97.1771087546514;0.69964599609375;0.153656005859375;1.91999999515247;193;1 A
97.1871087546261;0.699615478515625;0.153839111328125;1.92999999512722;194;1 A
97.1971087546009;0.6995849609375;0.1536865234375;1.93999999510197;195;1 A
97.2071087545756;0.699615478515625;0.153656005859375;1.94999999507672;196;1 A
97.2171087545504;0.69964599609375;0.153533935546875;1.95999999505148;197;1 A
97.2271087545251;0.6995849609375;0.1533203125;1.96999999502623;198;1 A
97.2371087544999;0.699615478515625;0.15301513671875;1.97999999500098;199;1 A
97.2471087544747;0.699615478515625;0.152740478515625;1.98999999497573;200;1 A
97.2571087544494;0.69970703125;0.152587890625;1.99999999495049;201;1 A
97.2671087544242;0.69964599609375;0.152557373046875;2.00999999492524;202;1 A
97.2771087543989;0.699615478515625;0.15252685546875;2.01999999489999;203;1 A
97.2871087543737;0.699615478515625;0.152679443359375;2.02999999487474;204;1 A
97.2971087543484;0.69970703125;0.1527099609375;2.0399999948495;205;1 A
97.3071087543232;0.69964599609375;0.152923583984375;2.04999999482425;206;1 A
97.3171087542979;0.69964599609375;0.152984619140625;2.059999994799;207;1 A
97.3271087542727;0.699615478515625;0.153076171875;2.06999999477375;208;1 A
97.3371087542474;0.699615478515625;0.15301513671875;2.0799999947485;209;1 A
97.3471087542222;0.699676513671875;0.1529541015625;2.08999999472326;210;1 A
97.3571087541969;0.699737548828125;0.15283203125;2.09999999469801;211;1 A
97.3671087541717;0.699676513671875;0.152740478515625;2.10999999467276;212;1 A
97.3771087541464;0.699676513671875;0.152618408203125;2.11999999464751;213;1 A
97.3871087541212;0.6995849609375;0.152740478515625;2.12999999462227;214;1 A
97.3971087540959;0.699676513671875;0.1527099609375;2.13999999459702;215;1 A
97.4071087540707;0.69970703125;0.152923583984375;2.14999999457177;216;1 A
97.4171087540454;0.69964599609375;0.15289306640625;2.15999999454652;217;1 A
97.4271087540202;0.699615478515625;0.153167724609375;2.16999999452128;218;1 A
97.4371087539949;0.69964599609375;0.153228759765625;2.17999999449603;219;1 A
97.4471087539697;0.69964599609375;0.153228759765625;2.18999999447078;220;1 A
97.4571087539445;0.699615478515625;0.153045654296875;2.19999999444553;221;1 A
97.4671087539192;0.699615478515625;0.152679443359375;2.20999999442029;222;1 A
97.477108753894;0.699615478515625;0.152191162109375;2.21999999439504;223;1 A
97.4871087538687;0.699615478515625;0.151641845703125;2.22999999436979;224;1 A
97.4971087538435;0.69970703125;0.151458740234375;2.23999999434454;225;1 A
97.5071087538182;0.69964599609375;0.1512451171875;2.2499999943193;226;1 A
97.517108753793;0.699676513671875;0.151214599609375;2.25999999429405;227;1 A
97.5271087537677;0.69964599609375;0.151275634765625;2.2699999942688;228;1 A
97.5371087537425;0.69964599609375;0.151153564453125;2.27999999424355;229;1 A
97.5471087537172;0.69964599609375;0.151641845703125;2.28999999421831;230;1 A
97.557108753692;0.699615478515625;0.15142822265625;2.29999999419306;231;1 A
97.5671087536667;0.6995849609375;0.151397705078125;2.30999999416781;232;1 A
97.5771087536415;0.699615478515625;0.151275634765625;2.31999999414256;233;1 A
97.5871087536162;0.69964599609375;0.1510009765625;2.32999999411732;234;1 A
97.597108753591;0.699615478515625;0.150634765625;2.33999999409207;235;1 A
97.6071087535657;0.69964599609375;0.150299072265625;2.34999999406682;236;1 A
97.6171087535405;0.69970703125;0.150299072265625;2.35999999404157;237;1 A
97.6271087535152;0.699676513671875;0.150238037109375;2.36999999401633;238;1 A
97.63710875349;0.6995849609375;0.150360107421875;2.37999999399108;239;1 A
97.6471087534647;0.699676513671875;0.150543212890625;2.38999999396583;240;1 A
97.6571087534395;0.69970703125;0.150665283203125;2.39999999394058;241;1 A
97.6671087534143;0.699615478515625;0.151214599609375;2.40999999391533;242;1 A
97.677108753389;0.69964599609375;0.15130615234375;2.41999999389009;243;1 A
97.6871087533638;0.69964599609375;0.1513671875;2.42999999386484;244;1 A
97.6971087533385;0.69964599609375;0.151275634765625;2.43999999383959;245;1 A
97.7071087533133;0.699615478515625;0.1510009765625;2.44999999381434;246;1 A
97.717108753288;0.69964599609375;0.1507568359375;2.4599999937891;247;1 A
97.7271087532628;0.699676513671875;0.15057373046875;2.46999999376385;248;1 A
97.7371087532375;0.69970703125;0.150604248046875;2.4799999937386;249;1 A
97.7471087532123;0.69964599609375;0.15069580078125;2.48999999371335;250;1 A
97.757108753187;0.699676513671875;0.150909423828125;2.49999999368811;251;1 A
97.7671087531618;0.699676513671875;0.151092529296875;2.50999999366286;252;1 A
97.7771087531365;0.69964599609375;0.151214599609375;2.51999999363761;253;1 A
97.7871087531113;0.699615478515625;0.1517333984375;2.52999999361236;254;1 A
97.797108753086;0.699615478515625;0.151641845703125;2.53999999358712;255;1 A
97.8071087530608;0.69976806640625;0.151702880859375;2.54999999356187;256;1 A
97.8171087530355;0.699676513671875;0.151611328125;2.55999999353662;257;1 A
97.8271087530103;0.699615478515625;0.151397705078125;2.56999999351137;258;1 A
97.837108752985;0.69964599609375;0.151031494140625;2.57999999348613;259;1 A
97.8471087529598;0.69964599609375;0.1507568359375;2.58999999346088;260;1 A
97.8571087529346;0.69964599609375;0.15057373046875;2.59999999343563;261;1 A
97.8671087529093;0.699676513671875;0.15057373046875;2.60999999341038;262;1 A
97.8771087528841;0.69964599609375;0.15057373046875;2.61999999338514;263;1 A
97.8871087528588;0.699615478515625;0.150848388671875;2.62999999335989;264;1 A
97.8971087528336;0.69964599609375;0.15093994140625;2.63999999333464;265;1 A
97.9071087528083;0.69964599609375;0.15118408203125;2.64999999330939;266;1 A
97.9171087527831;0.699676513671875;0.151336669921875;2.65999999328415;267;1 A
97.9271087527578;0.69964599609375;0.15142822265625;2.6699999932589;268;1 A
97.9371087527326;0.699615478515625;0.1513671875;2.67999999323365;269;1 A
97.9471087527073;0.6995849609375;0.15130615234375;2.6899999932084;270;1 A
97.9571087526821;0.69964599609375;0.15118408203125;2.69999999318316;271;1 A
97.9671087526568;0.69964599609375;0.151123046875;2.70999999315791;272;1 A
97.9771087526316;0.699676513671875;0.15106201171875;2.71999999313266;273;1 A
97.9871087526063;0.69970703125;0.1512451171875;2.72999999310741;274;1 A
97.9971087525811;0.69964599609375;0.15130615234375;2.73999999308217;275;1 A
98.0071087525558;0.699676513671875;0.151641845703125;2.74999999305692;276;1 A
98.0171087525306;0.699676513671875;0.151763916015625;2.75999999303167;277;1 A
98.0271087525053;0.69964599609375;0.15216064453125;2.76999999300642;278;1 A
98.0371087524801;0.699615478515625;0.15240478515625;2.77999999298117;279;1 A
98.0471087524548;0.69964599609375;0.15252685546875;2.78999999295593;280;1 A
98.0571087524296;0.699676513671875;0.152496337890625;2.79999999293068;281;1 A
98.0671087524044;0.699676513671875;0.15234375;2.80999999290543;282;1 A
98.0771087523791;0.699615478515625;0.152008056640625;2.81999999288018;283;1 A
98.0871087523539;0.699615478515625;0.1517333984375;2.82999999285494;284;1 A
98.0971087523286;0.69964599609375;0.151702880859375;2.83999999282969;285;1 A
98.1071087523034;0.699615478515625;0.15167236328125;2.84999999280444;286;1 A
98.1171087522781;0.69964599609375;0.151763916015625;2.85999999277919;287;1 A
98.1271087522529;0.6995849609375;0.151885986328125;2.86999999275395;288;1 A
98.1371087522276;0.69964599609375;0.151885986328125;2.8799999927287;289;1 A
98.1471087522024;0.6995849609375;0.1524658203125;2.88999999270345;290;1 A
98.1571087521771;0.699615478515625;0.152313232421875;2.8999999926782;291;1 A
98.1671087521519;0.69964599609375;0.15228271484375;2.90999999265296;292;1 A
98.1771087521266;0.699615478515625;0.152252197265625;2.91999999262771;293;1 A
98.1871087521014;0.69964599609375;0.151947021484375;2.92999999260246;294;1 A
98.1971087520761;0.69964599609375;0.15155029296875;2.93999999257721;295;1 A
98.2071087520509;0.69964599609375;0.151092529296875;2.94999999255197;296;1 A
98.2171087520256;0.69964599609375;0.151092529296875;2.95999999252672;297;1 A
98.2271087520004;0.699676513671875;0.1510009765625;2.96999999250147;298;1 A
98.2371087519751;0.699615478515625;0.15106201171875;2.97999999247622;299;1 A
98.2471087519499;0.699676513671875;0.151153564453125;2.98999999245098;300;1 A
98.2571087519246;0.69964599609375;0.151214599609375;2.99999999242573;301;1 A
98.2671087518994;0.69964599609375;0.151824951171875;3.00999999240048;302;1 A
98.2771087518742;0.69976806640625;0.151763916015625;3.01999999237523;303;1 A
98.2871087518489;0.69964599609375;0.151641845703125;3.02999999234999;304;1 A
98.2971087518237;0.69964599609375;0.151275634765625;3.03999999232474;305;1 A
98.3071087517984;0.69964599609375;0.150848388671875;3.04999999229949;306;1 A
98.3171087517732;0.699676513671875;0.150238037109375;3.05999999227424;307;1 A
98.3271087517479;0.699676513671875;0.149749755859375;3.069999992249;308;1 A
98.3371087517227;0.699676513671875;0.14959716796875;3.07999999222375;309;1 A
98.3471087516974;0.699615478515625;0.1495361328125;3.0899999921985;310;1 A
98.3571087516722;0.69964599609375;0.149566650390625;3.09999999217325;311;1 A
98.3671087516469;0.69964599609375;0.149658203125;3.109999992148;312;1 A
98.3771087516217;0.699615478515625;0.14971923828125;3.11999999212276;313;1 A
98.3871087515964;0.69964599609375;0.15045166015625;3.12999999209751;314;1 A
98.3971087515712;0.69964599609375;0.150299072265625;3.13999999207226;315;1 A
98.4071087515459;0.69964599609375;0.15032958984375;3.14999999204701;316;1 A
98.4171087515207;0.699676513671875;0.150146484375;3.15999999202177;317;1 A
98.4271087514954;0.699615478515625;0.149871826171875;3.16999999199652;318;1 A
98.4371087514702;0.69964599609375;0.149383544921875;3.17999999197127;319;1 A
98.4471087514449;0.69970703125;0.14898681640625;3.18999999194602;320;1 A
98.4571087514197;0.69964599609375;0.148834228515625;3.19999999192078;321;1 A
98.4671087513944;0.69970703125;0.148773193359375;3.20999999189553;322;1 A
98.4771087513692;0.699676513671875;0.148773193359375;3.21999999187028;323;1 A
98.487108751344;0.699615478515625;0.148956298828125;3.22999999184503;324;1 A
98.4971087513187;0.699615478515625;0.148895263671875;3.23999999181979;325;1 A
98.5071087512935;0.699676513671875;0.14910888671875;3.24999999179454;326;1 A
98.5171087512682;0.69964599609375;0.149017333984375;3.25999999176929;327;1 A
98.527108751243;0.699615478515625;0.148956298828125;3.26999999174404;328;1 A
98.5371087512177;0.69964599609375;0.14874267578125;3.2799999917188;329;1 A
98.5471087511925;0.699676513671875;0.148529052734375;3.28999999169355;330;1 A
98.5571087511672;0.69964599609375;0.148223876953125;3.2999999916683;331;1 A
98.567108751142;0.69964599609375;0.147918701171875;3.30999999164305;332;1 A
98.5771087511167;0.69964599609375;0.147735595703125;3.31999999161781;333;1 A
98.5871087510915;0.699615478515625;0.147674560546875;3.32999999159256;334;1 A
98.5971087510662;0.6995849609375;0.147613525390625;3.33999999156731;335;1 A
98.607108751041;0.69964599609375;0.14776611328125;3.34999999154206;336;1 A
98.6171087510157;0.699615478515625;0.147735595703125;3.35999999151682;337;1 A
98.6271087509905;0.699676513671875;0.148162841796875;3.36999999149157;338;1 A
98.6371087509652;0.699676513671875;0.148345947265625;3.37999999146632;339;1 A
98.64710875094;0.699615478515625;0.148406982421875;3.38999999144107;340;1 A
98.6571087509147;0.69970703125;0.148345947265625;3.39999999141583;341;1 A
98.6671087508895;0.699676513671875;0.148223876953125;3.40999999139058;342;1 A
98.6771087508642;0.699737548828125;0.14788818359375;3.41999999136533;343;1 A
98.687108750839;0.699676513671875;0.147735595703125;3.42999999134008;344;1 A
98.6971087508138;0.69964599609375;0.147674560546875;3.43999999131483;345;1 A
98.7071087507885;0.69964599609375;0.1478271484375;3.44999999128959;346;1 A
98.7171087507633;0.699676513671875;0.14801025390625;3.45999999126434;347;1 A
98.727108750738;0.699676513671875;0.148223876953125;3.46999999123909;348;1 A
98.7371087507128;0.699676513671875;0.148223876953125;3.47999999121384;349;1 A
98.7471087506875;0.69964599609375;0.1490478515625;3.4899999911886;350;1 A
98.7571087506623;0.69964599609375;0.148773193359375;3.49999999116335;351;1 A
98.767108750637;0.699676513671875;0.1488037109375;3.5099999911381;352;1 A
98.7771087506118;0.699676513671875;0.148651123046875;3.51999999111285;353;1 A
98.7871087505865;0.69964599609375;0.148406982421875;3.52999999108761;354;1 A
98.7971087505613;0.699737548828125;0.147857666015625;3.53999999106236;355;1 A
98.807108750536;0.699676513671875;0.1474609375;3.54999999103711;356;1 A
98.8171087505108;0.699615478515625;0.1473388671875;3.55999999101186;357;1 A
98.8271087504855;0.699676513671875;0.147247314453125;3.56999999098662;358;1 A
98.8371087504603;0.699676513671875;0.147308349609375;3.57999999096137;359;1 A
98.847108750435;0.69964599609375;0.147430419921875;3.58999999093612;360;1 A
98.8571087504098;0.699737548828125;0.1474609375;3.59999999091087;361;1 A
98.8671087503845;0.6995849609375;0.148040771484375;3.60999999088563;362;1 A
98.8771087503593;0.69970703125;0.147979736328125;3.61999999086038;363;1 A
98.8871087503341;0.69964599609375;0.148040771484375;3.62999999083513;364;1 A
98.8971087503088;0.69964599609375;0.1478271484375;3.63999999080988;365;1 A
98.9071087502836;0.699676513671875;0.14764404296875;3.64999999078464;366;1 A
98.9171087502583;0.69964599609375;0.14727783203125;3.65999999075939;367;1 A
98.9271087502331;0.699615478515625;0.147003173828125;3.66999999073414;368;1 A
98.9371087502078;0.69964599609375;0.146942138671875;3.67999999070889;369;1 A
98.9471087501826;0.699615478515625;0.14697265625;3.68999999068365;370;1 A
98.9571087501573;0.699615478515625;0.147064208984375;3.6999999906584;371;1 A
98.9671087501321;0.69970703125;0.147186279296875;3.70999999063315;372;1 A
98.9771087501068;0.69964599609375;0.147186279296875;3.7199999906079;373;1 A
98.9871087500816;0.69964599609375;0.1478271484375;3.72999999058266;374;1 A
98.9971087500563;0.69964599609375;0.147674560546875;3.73999999055741;375;1 A
99.0071087500311;0.699615478515625;0.1478271484375;3.74999999053216;376;1 A
99.0171087500058;0.69970703125;0.147735595703125;3.75999999050691;377;1 A
99.0271087499806;0.699676513671875;0.147552490234375;3.76999999048167;378;1 A
99.0371087499553;0.699676513671875;0.1473388671875;3.77999999045642;379;1 A
99.0471087499301;0.69964599609375;0.1470947265625;3.78999999043117;380;1 A
99.0571087499048;0.69964599609375;0.14715576171875;3.79999999040592;381;1 A
99.0671087498796;0.699676513671875;0.1473388671875;3.80999999038067;382;1 A
99.0771087498543;0.699615478515625;0.1475830078125;3.81999999035543;383;1 A
99.0871087498291;0.699676513671875;0.147979736328125;3.82999999033018;384;1 A
99.0971087498039;0.699676513671875;0.148193359375;3.83999999030493;385;1 A
99.1071087497786;0.699676513671875;0.148681640625;3.84999999027968;386;1 A
99.1171087497534;0.69964599609375;0.148773193359375;3.85999999025444;387;1 A
99.1271087497281;0.69964599609375;0.14886474609375;3.86999999022919;388;1 A
99.1371087497029;0.699615478515625;0.14892578125;3.87999999020394;389;1 A
99.1471087496776;0.69964599609375;0.1488037109375;3.88999999017869;390;1 A
99.1571087496524;0.699615478515625;0.14874267578125;3.89999999015345;391;1 A
99.1671087496271;0.69964599609375;0.14849853515625;3.9099999901282;392;1 A
99.1771087496019;0.699676513671875;0.1485595703125;3.91999999010295;393;1 A
99.1871087495766;0.699615478515625;0.148651123046875;3.9299999900777;394;1 A
99.1971087495514;0.69964599609375;0.14874267578125;3.93999999005246;395;1 A
99.2071087495261;0.699676513671875;0.148956298828125;3.94999999002721;396;1 A
99.2171087495009;0.69964599609375;0.149017333984375;3.95999999000196;397;1 A
99.2271087494756;0.699615478515625;0.149566650390625;3.96999998997671;398;1 A
99.2371087494504;0.699676513671875;0.149688720703125;3.97999998995147;399;1 A
99.2471087494251;0.699615478515625;0.149871826171875;3.98999998992622;400;1 A
99.2571087493999;0.69970703125;0.14984130859375;3.99999998990097;401;1 A
99.2671087493746;0.69964599609375;0.149658203125;4.00999998987572;402;1 A
99.2771087493494;0.69970703125;0.1494140625;4.01999998985048;403;1 A
99.2871087493241;0.69964599609375;0.149200439453125;4.02999998982523;404;1 A
99.2971087492989;0.699676513671875;0.149261474609375;4.03999998979998;405;1 A
99.3071087492737;0.69970703125;0.14935302734375;4.04999998977473;406;1 A
99.3171087492484;0.69964599609375;0.149566650390625;4.05999998974949;407;1 A
99.3271087492232;0.69964599609375;0.1497802734375;4.06999998972424;408;1 A
99.3371087491979;0.699676513671875;0.149749755859375;4.07999998969899;409;1 A
99.3471087491727;0.69964599609375;0.150604248046875;4.08999998967374;410;1 A
99.3571087491474;0.699615478515625;0.150360107421875;4.0999999896485;411;1 A
99.3671087491222;0.699615478515625;0.150421142578125;4.10999998962325;412;1 A
99.3771087490969;0.69970703125;0.150299072265625;4.119999989598;413;1 A
99.3871087490717;0.699615478515625;0.150146484375;4.12999998957275;414;1 A
99.3971087490464;0.699615478515625;0.149658203125;4.1399999895475;415;1 A
99.4071087490212;0.69964599609375;0.149383544921875;4.14999998952226;416;1 A
99.4171087489959;0.69964599609375;0.149383544921875;4.15999998949701;417;1 A
99.4271087489707;0.699676513671875;0.149383544921875;4.16999998947176;418;1 A
99.4371087489454;0.6995849609375;0.14947509765625;4.17999998944651;419;1 A
99.4471087489202;0.69964599609375;0.149658203125;4.18999998942127;420;1 A
99.4571087488949;0.69964599609375;0.1497802734375;4.19999998939602;421;1 A
99.4671087488697;0.699615478515625;0.150787353515625;4.20999998937077;422;1 A
99.4771087488444;0.699676513671875;0.15081787109375;4.21999998934552;423;1 A
99.4871087488192;0.699615478515625;0.150970458984375;4.22999998932028;424;1 A
99.4971087487939;0.699676513671875;0.15069580078125;4.23999998929503;425;1 A
99.5071087487687;0.69964599609375;0.150482177734375;4.24999998926978;426;1 A
99.5171087487435;0.699676513671875;0.14990234375;4.25999998924453;427;1 A
99.5271087487182;0.69964599609375;0.149566650390625;4.26999998921929;428;1 A
99.537108748693;0.69964599609375;0.149444580078125;4.27999998919404;429;1 A
99.5471087486677;0.699615478515625;0.149566650390625;4.28999998916879;430;1 A
99.5571087486425;0.699615478515625;0.149627685546875;4.29999998914354;431;1 A
99.5671087486172;0.69970703125;0.14984130859375;4.3099999891183;432;1 A
99.577108748592;0.69964599609375;0.14984130859375;4.31999998909305;433;1 A
99.5871087485667;0.6995849609375;0.150970458984375;4.3299999890678;434;1 A
99.5971087485415;0.69964599609375;0.15087890625;4.33999998904255;435;1 A
99.6071087485162;0.69964599609375;0.1510009765625;4.34999998901731;436;1 A
99.617108748491;0.69970703125;0.1507568359375;4.35999998899206;437;1 A
99.6271087484657;0.699615478515625;0.150482177734375;4.36999998896681;438;1 A
99.6371087484405;0.699676513671875;0.1500244140625;4.37999998894156;439;1 A
99.6471087484152;0.69964599609375;0.149627685546875;4.38999998891632;440;1 A
99.65710874839;0.699676513671875;0.149658203125;4.39999998889107;441;1 A
99.6671087483647;0.69964599609375;0.149688720703125;4.40999998886582;442;1 A
99.6771087483395;0.699615478515625;0.1497802734375;4.41999998884057;443;1 A
99.6871087483142;0.69964599609375;0.1500244140625;4.42999998881533;444;1 A
99.697108748289;0.699676513671875;0.150177001953125;4.43999998879008;445;1 A
99.7071087482637;0.69964599609375;0.1512451171875;4.44999998876483;446;1 A
99.7171087482385;0.699676513671875;0.15106201171875;4.45999998873958;447;1 A
99.7271087482133;0.69970703125;0.151123046875;4.46999998871433;448;1 A
99.737108748188;0.699615478515625;0.151092529296875;4.47999998868909;449;1 A
99.7471087481628;0.69964599609375;0.150909423828125;4.48999998866384;450;1 A
99.7571087481375;0.699676513671875;0.150634765625;4.49999998863859;451;1 A
99.7671087481123;0.69964599609375;0.150360107421875;4.50999998861334;452;1 A
99.777108748087;0.699676513671875;0.15045166015625;4.5199999885881;453;1 A
99.7871087480618;0.699615478515625;0.150543212890625;4.52999998856285;454;1 A
99.7971087480365;0.69970703125;0.150787353515625;4.5399999885376;455;1 A
99.8071087480113;0.699615478515625;0.151092529296875;4.54999998851235;456;1 A
99.817108747986;0.699676513671875;0.151214599609375;4.55999998848711;457;1 A
99.8271087479608;0.69964599609375;0.15203857421875;4.56999998846186;458;1 A
99.8371087479355;0.69964599609375;0.15203857421875;4.57999998843661;459;1 A
99.8471087479103;0.699615478515625;0.152191162109375;4.58999998841136;460;1 A
99.857108747885;0.699615478515625;0.1522216796875;4.59999998838612;461;1 A
99.8671087478598;0.69970703125;0.152130126953125;4.60999998836087;462;1 A
99.8771087478345;0.699615478515625;0.15191650390625;4.61999998833562;463;1 A
99.8871087478093;0.69964599609375;0.15191650390625;4.62999998831037;464;1 A
99.897108747784;0.69964599609375;0.152008056640625;4.63999998828513;465;1 A
99.9071087477588;0.69964599609375;0.152252197265625;4.64999998825988;466;1 A
99.9171087477336;0.699615478515625;0.152587890625;4.65999998823463;467;1 A
99.9271087477083;0.69964599609375;0.1529541015625;4.66999998820938;468;1 A
99.9371087476831;0.699676513671875;0.153076171875;4.67999998818414;469;1 A
99.9471087476578;0.699615478515625;0.154144287109375;4.68999998815889;470;1 A
99.9571087476326;0.6995849609375;0.15399169921875;4.69999998813364;471;1 A
99.9671087476073;0.699676513671875;0.154205322265625;4.70999998810839;472;1 A
99.9771087475821;0.699676513671875;0.154296875;4.71999998808315;473;1 A
99.9871087475568;0.69964599609375;0.15435791015625;4.7299999880579;474;1 A
99.9971087475316;0.699615478515625;0.154083251953125;4.73999998803265;475;1 A
100.007108747506;0.69964599609375;0.154083251953125;4.7499999880074;476;1 A
100.017108747481;0.69964599609375;0.1541748046875;4.75999998798216;477;1 A
100.027108747456;0.69964599609375;0.154388427734375;4.76999998795691;478;1 A
100.037108747431;0.699615478515625;0.1546630859375;4.77999998793166;479;1 A
100.047108747405;0.699615478515625;0.15509033203125;4.78999998790641;480;1 A
100.05710874738;0.69970703125;0.15533447265625;4.79999998788116;481;1 A
100.067108747355;0.699676513671875;0.1561279296875;4.80999998785592;482;1 A
100.07710874733;0.699737548828125;0.156097412109375;4.81999998783067;483;1 A
100.087108747304;0.699615478515625;0.1561279296875;4.82999998780542;484;1 A
100.097108747279;0.6995849609375;0.155975341796875;4.83999998778017;485;1 A
100.107108747254;0.69964599609375;0.1558837890625;4.84999998775493;486;1 A
100.117108747229;0.69964599609375;0.15557861328125;4.85999998772968;487;1 A
100.127108747203;0.69964599609375;0.155517578125;4.86999998770443;488;1 A
100.137108747178;0.69964599609375;0.155426025390625;4.87999998767918;489;1 A
100.147108747153;0.699615478515625;0.155548095703125;4.88999998765394;490;1 A
100.157108747128;0.699615478515625;0.155609130859375;4.89999998762869;491;1 A
100.167108747102;0.69964599609375;0.1558837890625;4.90999998760344;492;1 A
100.177108747077;0.699676513671875;0.15606689453125;4.91999998757819;493;1 A
100.187108747052;0.699676513671875;0.15692138671875;4.92999998755295;494;1 A
100.197108747027;0.69964599609375;0.156951904296875;4.9399999875277;495;1 A
100.207108747001;0.69964599609375;0.15704345703125;4.94999998750245;496;1 A
100.217108746976;0.699615478515625;0.156982421875;4.9599999874772;497;1 A
100.227108746951;0.699676513671875;0.156768798828125;4.96999998745196;498;1 A
100.237108746926;0.699676513671875;0.156524658203125;4.97999998742671;499;1 A
100.2471087469;0.699676513671875;0.156280517578125;4.98999998740146;500;1 A
100.257108746875;0.699615478515625;0.1563720703125;4.99999998737621;501;1 A
100.26710874685;0.699676513671875;0.156402587890625;5.00999998735097;502;1 A
100.277108746825;0.69964599609375;0.156524658203125;5.01999998732572;503;1 A
100.287108746799;0.699615478515625;0.15673828125;5.02999998730047;504;1 A
100.297108746774;0.699615478515625;0.156829833984375;5.03999998727522;505;1 A
100.307108746749;0.69964599609375;0.15771484375;5.04999998724998;506;1 A
100.317108746724;0.699676513671875;0.15740966796875;5.05999998722473;507;1 A
100.327108746698;0.69964599609375;0.157257080078125;5.06999998719948;508;1 A
100.337108746673;0.6995849609375;0.15704345703125;5.07999998717423;509;1 A
100.347108746648;0.699676513671875;0.156524658203125;5.08999998714899;510;1 A
100.357108746623;0.69970703125;0.156097412109375;5.09999998712374;511;1 A
100.367108746597;0.69964599609375;0.15557861328125;5.10999998709849;512;1 A
100.377108746572;0.69964599609375;0.155517578125;5.11999998707324;513;1 A
100.387108746547;0.69964599609375;0.155364990234375;5.129999987048;514;1 A
100.397108746522;0.699676513671875;0.155303955078125;5.13999998702275;515;1 A
100.407108746496;0.699676513671875;0.155303955078125;5.1499999869975;516;1 A
100.417108746471;0.699676513671875;0.155364990234375;5.15999998697225;517;1 A
100.427108746446;0.69964599609375;0.156036376953125;5.169999986947;518;1 A
100.437108746421;0.699737548828125;0.156036376953125;5.17999998692176;519;1 A
100.447108746395;0.69964599609375;0.156005859375;5.18999998689651;520;1 A
100.45710874637;0.699615478515625;0.15576171875;5.19999998687126;521;1 A
100.467108746345;0.69964599609375;0.155303955078125;5.20999998684601;522;1 A
100.47710874632;0.69964599609375;0.15496826171875;5.21999998682077;523;1 A
100.487108746294;0.69964599609375;0.154693603515625;5.22999998679552;524;1 A
100.497108746269;0.6995849609375;0.15460205078125;5.23999998677027;525;1 A
100.507108746244;0.69964599609375;0.154571533203125;5.24999998674502;526;1 A
100.517108746219;0.69970703125;0.15460205078125;5.25999998671978;527;1 A
100.527108746193;0.69964599609375;0.154693603515625;5.26999998669453;528;1 A
100.537108746168;0.699615478515625;0.154693603515625;5.27999998666928;529;1 A
100.547108746143;0.69964599609375;0.15533447265625;5.28999998664403;530;1 A
100.557108746118;0.69964599609375;0.155242919921875;5.29999998661879;531;1 A
100.567108746092;0.699676513671875;0.155242919921875;5.30999998659354;532;1 A
100.577108746067;0.69964599609375;0.155029296875;5.31999998656829;533;1 A
100.587108746042;0.69970703125;0.154693603515625;5.32999998654304;534;1 A
100.597108746017;0.69964599609375;0.15423583984375;5.3399999865178;535;1 A
100.607108745991;0.69970703125;0.15399169921875;5.34999998649255;536;1 A
100.617108745966;0.699676513671875;0.153778076171875;5.3599999864673;537;1 A
100.627108745941;0.699676513671875;0.1536865234375;5.36999998644205;538;1 A
100.637108745916;0.6995849609375;0.15362548828125;5.37999998641681;539;1 A
100.64710874589;0.69964599609375;0.153717041015625;5.38999998639156;540;1 A
100.657108745865;0.6995849609375;0.153717041015625;5.39999998636631;541;1 A
100.66710874584;0.69964599609375;0.1541748046875;5.40999998634106;542;1 A
100.677108745815;0.699676513671875;0.154022216796875;5.41999998631582;543;1 A
100.687108745789;0.699676513671875;0.153778076171875;5.42999998629057;544;1 A
100.697108745764;0.69964599609375;0.15325927734375;5.43999998626532;545;1 A
100.707108745739;0.699615478515625;0.15283203125;5.44999998624007;546;1 A
100.717108745714;0.69970703125;0.152130126953125;5.45999998621483;547;1 A
100.727108745688;0.699676513671875;0.15167236328125;5.46999998618958;548;1 A
100.737108745663;0.69964599609375;0.15118408203125;5.47999998616433;549;1 A
100.747108745638;0.699676513671875;0.15093994140625;5.48999998613908;550;1 A
100.757108745613;0.699615478515625;0.15057373046875;5.49999998611383;551;1 A
100.767108745588;0.69970703125;0.150482177734375;5.50999998608859;552;1 A
100.777108745562;0.699676513671875;0.15032958984375;5.51999998606334;553;1 A
100.787108745537;0.699676513671875;0.150848388671875;5.52999998603809;554;1 A
100.797108745512;0.699615478515625;0.150726318359375;5.53999998601284;555;1 A
100.807108745487;0.699615478515625;0.150543212890625;5.5499999859876;556;1 A
100.817108745461;0.69970703125;0.15020751953125;5.55999998596235;557;1 A
100.827108745436;0.699676513671875;0.149810791015625;5.5699999859371;558;1 A
100.837108745411;0.699615478515625;0.149200439453125;5.57999998591185;559;1 A
100.847108745386;0.699676513671875;0.148773193359375;5.58999998588661;560;1 A
100.85710874536;0.6995849609375;0.14862060546875;5.59999998586136;561;1 A
100.867108745335;0.69970703125;0.1484375;5.60999998583611;562;1 A
100.87710874531;0.699737548828125;0.148406982421875;5.61999998581086;563;1 A
100.887108745285;0.69964599609375;0.1484375;5.62999998578562;564;1 A
100.897108745259;0.699676513671875;0.1483154296875;5.63999998576037;565;1 A
100.907108745234;0.699615478515625;0.149169921875;5.64999998573512;566;1 A
100.917108745209;0.69964599609375;0.148834228515625;5.65999998570987;567;1 A
100.927108745184;0.699737548828125;0.148681640625;5.66999998568463;568;1 A
100.937108745158;0.69964599609375;0.14849853515625;5.67999998565938;569;1 A
100.947108745133;0.69964599609375;0.148193359375;5.68999998563413;570;1 A
100.957108745108;0.699615478515625;0.147735595703125;5.69999998560888;571;1 A
100.967108745083;0.699615478515625;0.147369384765625;5.70999998558364;572;1 A
100.977108745057;0.69964599609375;0.1474609375;5.71999998555839;573;1 A
100.987108745032;0.699676513671875;0.14752197265625;5.72999998553314;574;1 A
100.997108745007;0.699615478515625;0.147705078125;5.73999998550789;575;1 A
101.007108744982;0.69964599609375;0.147979736328125;5.74999998548265;576;1 A
101.017108744956;0.69964599609375;0.14825439453125;5.7599999854574;577;1 A
101.027108744931;0.69964599609375;0.14898681640625;5.76999998543215;578;1 A
101.037108744906;0.699676513671875;0.149322509765625;5.7799999854069;579;1 A
101.047108744881;0.69964599609375;0.149505615234375;5.78999998538166;580;1 A
101.057108744855;0.699615478515625;0.149444580078125;5.79999998535641;581;1 A
101.06710874483;0.69970703125;0.1492919921875;5.80999998533116;582;1 A
101.077108744805;0.69964599609375;0.14910888671875;5.81999998530591;583;1 A
101.08710874478;0.69964599609375;0.149017333984375;5.82999998528066;584;1 A
101.097108744754;0.69964599609375;0.149017333984375;5.83999998525542;585;1 A
101.107108744729;0.699615478515625;0.149078369140625;5.84999998523017;586;1 A
101.117108744704;0.699676513671875;0.149200439453125;5.85999998520492;587;1 A
101.127108744679;0.69964599609375;0.149383544921875;5.86999998517967;588;1 A
101.137108744653;0.69964599609375;0.149505615234375;5.87999998515443;589;1 A
101.147108744628;0.699676513671875;0.150390625;5.88999998512918;590;1 A
101.157108744603;0.69964599609375;0.150390625;5.89999998510393;591;1 A
101.167108744578;0.699676513671875;0.15057373046875;5.90999998507868;592;1 A
101.177108744552;0.69970703125;0.1505126953125;5.91999998505344;593;1 A
101.187108744527;0.699615478515625;0.150421142578125;5.92999998502819;594;1 A
101.197108744502;0.699676513671875;0.150146484375;5.93999998500294;595;1 A
101.207108744477;0.69964599609375;0.1500244140625;5.94999998497769;596;1 A
101.217108744451;0.699615478515625;0.14990234375;5.95999998495245;597;1 A
101.227108744426;0.69964599609375;0.149993896484375;5.9699999849272;598;1 A
101.237108744401;0.699676513671875;0.150054931640625;5.97999998490195;599;1 A
101.247108744376;0.699615478515625;0.150360107421875;5.9899999848767;600;1 A
101.25710874435;0.699676513671875;0.150421142578125;5.99999998485146;601;1 A
101.267108744325;0.699676513671875;0.15087890625;6.00999998482621;602;1 A
101.2771087443;0.699676513671875;0.150909423828125;6.01999998480096;603;1 A
101.287108744275;0.699615478515625;0.150787353515625;6.02999998477571;604;1 A
101.297108744249;0.699615478515625;0.15045166015625;6.03999998475047;605;1 A
101.307108744224;0.699615478515625;0.150177001953125;6.04999998472522;606;1 A
101.317108744199;0.699676513671875;0.149749755859375;6.05999998469997;607;1 A
101.327108744174;0.69964599609375;0.1494140625;6.06999998467472;608;1 A
101.337108744148;0.69964599609375;0.149139404296875;6.07999998464948;609;1 A
101.347108744123;0.69964599609375;0.149078369140625;6.08999998462423;610;1 A
101.357108744098;0.699676513671875;0.14898681640625;6.09999998459898;611;1 A
101.367108744073;0.699737548828125;0.149169921875;6.10999998457373;612;1 A
101.377108744047;0.699676513671875;0.149169921875;6.11999998454849;613;1 A
101.387108744022;0.69964599609375;0.149566650390625;6.12999998452324;614;1 A
101.397108743997;0.69964599609375;0.149810791015625;6.13999998449799;615;1 A
101.407108743972;0.699615478515625;0.14990234375;6.14999998447274;616;1 A
101.417108743946;0.699676513671875;0.14984130859375;6.1599999844475;617;1 A
101.427108743921;0.699737548828125;0.1497802734375;6.16999998442225;618;1 A
101.437108743896;0.69964599609375;0.149505615234375;6.179999984397;619;1 A
101.447108743871;0.69964599609375;0.149322509765625;6.18999998437175;620;1 A
101.457108743845;0.699615478515625;0.1494140625;6.1999999843465;621;1 A
101.46710874382;0.699676513671875;0.1495361328125;6.20999998432126;622;1 A
101.477108743795;0.699676513671875;0.149810791015625;6.21999998429601;623;1 A
101.48710874377;0.699615478515625;0.150115966796875;6.22999998427076;624;1 A
101.497108743744;0.69970703125;0.15020751953125;6.23999998424551;625;1 A
101.507108743719;0.699615478515625;0.151123046875;6.24999998422027;626;1 A
101.517108743694;0.699615478515625;0.15093994140625;6.25999998419502;627;1 A
101.527108743669;0.69970703125;0.150970458984375;6.26999998416977;628;1 A
101.537108743643;0.69964599609375;0.150970458984375;6.27999998414452;629;1 A
101.547108743618;0.699615478515625;0.150787353515625;6.28999998411928;630;1 A
101.557108743593;0.69970703125;0.150390625;6.29999998409403;631;1 A
101.567108743568;0.69964599609375;0.1500244140625;6.30999998406878;632;1 A
101.577108743542;0.6995849609375;0.150146484375;6.31999998404353;633;1 A
101.587108743517;0.699615478515625;0.15020751953125;6.32999998401829;634;1 A
101.597108743492;0.699615478515625;0.1505126953125;6.33999998399304;635;1 A
101.607108743467;0.699676513671875;0.150848388671875;6.34999998396779;636;1 A
101.617108743441;0.69964599609375;0.151123046875;6.35999998394254;637;1 A
101.627108743416;0.69964599609375;0.152069091796875;6.3699999839173;638;1 A
101.637108743391;0.699676513671875;0.152252197265625;6.37999998389205;639;1 A
101.647108743366;0.6995849609375;0.152374267578125;6.3899999838668;640;1 A
101.65710874334;0.69964599609375;0.152191162109375;6.39999998384155;641;1 A
101.667108743315;0.69964599609375;0.151947021484375;6.40999998381631;642;1 A
101.67710874329;0.699676513671875;0.151519775390625;6.41999998379106;643;1 A
101.687108743265;0.699615478515625;0.15118408203125;6.42999998376581;644;1 A
101.697108743239;0.69964599609375;0.151092529296875;6.43999998374056;645;1 A
101.707108743214;0.6995849609375;0.15106201171875;6.44999998371532;646;1 A
101.717108743189;0.69970703125;0.151092529296875;6.45999998369007;647;1 A
101.727108743164;0.69964599609375;0.151214599609375;6.46999998366482;648;1 A
101.737108743138;0.69964599609375;0.151214599609375;6.47999998363957;649;1 A
101.747108743113;0.699615478515625;0.15203857421875;6.48999998361433;650;1 A
101.757108743088;0.699615478515625;0.15185546875;6.49999998358908;651;1 A
101.767108743063;0.6995849609375;0.15191650390625;6.50999998356383;652;1 A
101.777108743038;0.699676513671875;0.1517333984375;6.51999998353858;653;1 A
101.787108743012;0.699615478515625;0.151519775390625;6.52999998351333;654;1 A
101.797108742987;0.69964599609375;0.151092529296875;6.53999998348809;655;1 A
101.807108742962;0.699615478515625;0.150787353515625;6.54999998346284;656;1 A
101.817108742937;0.699676513671875;0.15069580078125;6.55999998343759;657;1 A
101.827108742911;0.69964599609375;0.150726318359375;6.56999998341234;658;1 A
101.837108742886;0.699615478515625;0.150787353515625;6.5799999833871;659;1 A
101.847108742861;0.69964599609375;0.1510009765625;6.58999998336185;660;1 A
101.857108742836;0.69964599609375;0.150970458984375;6.5999999833366;661;1 A
101.86710874281;0.69964599609375;0.1514892578125;6.60999998331135;662;1 A
101.877108742785;0.699676513671875;0.15142822265625;6.61999998328611;663;1 A
101.88710874276;0.69964599609375;0.151397705078125;6.62999998326086;664;1 A
101.897108742735;0.69964599609375;0.1512451171875;6.63999998323561;665;1 A
101.907108742709;0.69964599609375;0.151153564453125;6.64999998321036;666;1 A
101.917108742684;0.69964599609375;0.150909423828125;6.65999998318512;667;1 A
101.927108742659;0.699615478515625;0.1507568359375;6.66999998315987;668;1 A
101.937108742634;0.699676513671875;0.1507568359375;6.67999998313462;669;1 A
101.947108742608;0.6995849609375;0.15093994140625;6.68999998310937;670;1 A
101.957108742583;0.69964599609375;0.151031494140625;6.69999998308413;671;1 A
101.967108742558;0.699676513671875;0.15130615234375;6.70999998305888;672;1 A
101.977108742533;0.699615478515625;0.151397705078125;6.71999998303363;673;1 A
101.987108742507;0.699676513671875;0.152099609375;6.72999998300838;674;1 A
101.997108742482;0.699615478515625;0.15216064453125;6.73999998298314;675;1 A
102.007108742457;0.69964599609375;0.152069091796875;6.74999998295789;676;1 A
102.017108742432;0.69970703125;0.15185546875;6.75999998293264;677;1 A
102.027108742406;0.69964599609375;0.151580810546875;6.76999998290739;678;1 A
102.037108742381;0.699615478515625;0.1510009765625;6.77999998288215;679;1 A
102.047108742356;0.699615478515625;0.150604248046875;6.7899999828569;680;1 A
102.057108742331;0.699676513671875;0.150390625;6.79999998283165;681;1 A
102.067108742305;0.69964599609375;0.150299072265625;6.8099999828064;682;1 A
102.07710874228;0.699615478515625;0.1502685546875;6.81999998278116;683;1 A
102.087108742255;0.699676513671875;0.150299072265625;6.82999998275591;684;1 A
102.09710874223;0.69964599609375;0.15008544921875;6.83999998273066;685;1 A
102.107108742204;0.6995849609375;0.150909423828125;6.84999998270541;686;1 A
102.117108742179;0.699615478515625;0.150390625;6.85999998268016;687;1 A
102.127108742154;0.69964599609375;0.150115966796875;6.86999998265492;688;1 A
102.137108742129;0.699615478515625;0.149749755859375;6.87999998262967;689;1 A
102.147108742103;0.699615478515625;0.14935302734375;6.88999998260442;690;1 A
102.157108742078;0.69964599609375;0.1485595703125;6.89999998257917;691;1 A
102.167108742053;0.699615478515625;0.1480712890625;6.90999998255393;692;1 A
102.177108742028;0.699676513671875;0.147918701171875;6.91999998252868;693;1 A
102.187108742002;0.69964599609375;0.147796630859375;6.92999998250343;694;1 A
102.197108741977;0.699615478515625;0.1478271484375;6.93999998247818;695;1 A
102.207108741952;0.699676513671875;0.1480712890625;6.94999998245294;696;1 A
102.217108741927;0.69964599609375;0.14813232421875;6.95999998242769;697;1 A
102.227108741901;0.6995849609375;0.1490478515625;6.96999998240244;698;1 A
102.237108741876;0.699676513671875;0.149017333984375;6.97999998237719;699;1 A
102.247108741851;0.6995849609375;0.149139404296875;6.98999998235195;700;1 A
102.257108741826;0.699676513671875;0.149017333984375;6.9999999823267;701;1 A
102.2671087418;0.69970703125;0.148956298828125;7.00999998230145;702;1 A
102.277108741775;0.699676513671875;0.148651123046875;7.0199999822762;703;1 A
102.28710874175;0.69964599609375;0.148590087890625;7.02999998225096;704;1 A
102.297108741725;0.69964599609375;0.148712158203125;7.03999998222571;705;1 A
102.307108741699;0.69964599609375;0.148956298828125;7.04999998220046;706;1 A
102.317108741674;0.69970703125;0.14923095703125;7.05999998217521;707;1 A
102.327108741649;0.69964599609375;0.14959716796875;7.06999998214997;708;1 A
102.337108741624;0.69970703125;0.1497802734375;7.07999998212472;709;1 A
102.347108741598;0.69970703125;0.150848388671875;7.08999998209947;710;1 A
102.357108741573;0.699615478515625;0.15081787109375;7.09999998207422;711;1 A
102.367108741548;0.69964599609375;0.150970458984375;7.10999998204898;712;1 A
102.377108741523;0.69964599609375;0.15087890625;7.11999998202373;713;1 A
102.387108741497;0.699676513671875;0.150665283203125;7.12999998199848;714;1 A
102.397108741472;0.69970703125;0.15032958984375;7.13999998197323;715;1 A
102.407108741447;0.699676513671875;0.1500244140625;7.14999998194799;716;1 A
102.417108741422;0.699676513671875;0.1500244140625;7.15999998192274;717;1 A
102.427108741396;0.699676513671875;0.150115966796875;7.16999998189749;718;1 A
102.437108741371;0.69964599609375;0.1502685546875;7.17999998187224;719;1 A
102.447108741346;0.69970703125;0.15057373046875;7.189999981847;720;1 A
102.457108741321;0.699615478515625;0.150604248046875;7.19999998182175;721;1 A
102.467108741295;0.69964599609375;0.151153564453125;7.2099999817965;722;1 A
102.47710874127;0.699676513671875;0.150970458984375;7.21999998177125;723;1 A
102.487108741245;0.69964599609375;0.15087890625;7.229999981746;724;1 A
102.49710874122;0.69964599609375;0.15069580078125;7.23999998172076;725;1 A
102.507108741194;0.6995849609375;0.15032958984375;7.24999998169551;726;1 A
102.517108741169;0.699615478515625;0.14996337890625;7.25999998167026;727;1 A
102.527108741144;0.699615478515625;0.14947509765625;7.26999998164501;728;1 A
102.537108741119;0.699676513671875;0.1492919921875;7.27999998161977;729;1 A
102.547108741093;0.6995849609375;0.14910888671875;7.28999998159452;730;1 A
102.557108741068;0.69970703125;0.14898681640625;7.29999998156927;731;1 A
102.567108741043;0.699615478515625;0.148956298828125;7.30999998154402;732;1 A
102.577108741018;0.699615478515625;0.148681640625;7.31999998151878;733;1 A
102.587108740992;0.69964599609375;0.14898681640625;7.32999998149353;734;1 A
102.597108740967;0.699615478515625;0.14874267578125;7.33999998146828;735;1 A
102.607108740942;0.69964599609375;0.148468017578125;7.34999998144303;736;1 A
102.617108740917;0.69970703125;0.14794921875;7.35999998141779;737;1 A
102.627108740891;0.69964599609375;0.14739990234375;7.36999998139254;738;1 A
102.637108740866;0.699615478515625;0.14678955078125;7.37999998136729;739;1 A
102.647108740841;0.69964599609375;0.14630126953125;7.38999998134204;740;1 A
102.657108740816;0.699615478515625;0.146148681640625;7.3999999813168;741;1 A
102.66710874079;0.69964599609375;0.146087646484375;7.40999998129155;742;1 A
102.677108740765;0.69964599609375;0.146148681640625;7.4199999812663;743;1 A
102.68710874074;0.699615478515625;0.146331787109375;7.42999998124105;744;1 A
102.697108740715;0.69964599609375;0.146240234375;7.43999998121581;745;1 A
102.707108740689;0.69964599609375;0.14727783203125;7.44999998119056;746;1 A
102.717108740664;0.69964599609375;0.1468505859375;7.45999998116531;747;1 A
102.727108740639;0.699615478515625;0.14678955078125;7.46999998114006;748;1 A
102.737108740614;0.69964599609375;0.14654541015625;7.47999998111482;749;1 A
102.747108740588;0.69964599609375;0.146331787109375;7.48999998108957;750;1 A
102.757108740563;0.69964599609375;0.145660400390625;7.49999998106432;751;1 A
102.767108740538;0.69964599609375;0.14532470703125;7.50999998103907;752;1 A
102.777108740513;0.699676513671875;0.145233154296875;7.51999998101383;753;1 A
102.787108740487;0.699615478515625;0.14520263671875;7.52999998098858;754;1 A
102.797108740462;0.699676513671875;0.145294189453125;7.53999998096333;755;1 A
102.807108740437;0.699676513671875;0.145599365234375;7.54999998093808;756;1 A
102.817108740412;0.69964599609375;0.145751953125;7.55999998091283;757;1 A
102.827108740387;0.69964599609375;0.146942138671875;7.56999998088759;758;1 A
102.837108740361;0.69964599609375;0.146942138671875;7.57999998086234;759;1 A
102.847108740336;0.699615478515625;0.147003173828125;7.58999998083709;760;1 A
102.857108740311;0.69970703125;0.14678955078125;7.59999998081184;761;1 A
102.867108740286;0.69970703125;0.146728515625;7.6099999807866;762;1 A
102.87710874026;0.69970703125;0.146270751953125;7.61999998076135;763;1 A
102.887108740235;0.69964599609375;0.146209716796875;7.6299999807361;764;1 A
102.89710874021;0.69964599609375;0.146209716796875;7.63999998071085;765;1 A
102.907108740185;0.69964599609375;0.14642333984375;7.64999998068561;766;1 A
102.917108740159;0.699676513671875;0.146514892578125;7.65999998066036;767;1 A
102.927108740134;0.69964599609375;0.1468505859375;7.66999998063511;768;1 A
102.937108740109;0.69964599609375;0.14703369140625;7.67999998060986;769;1 A
102.947108740084;0.699615478515625;0.14825439453125;7.68999998058462;770;1 A
102.957108740058;0.69964599609375;0.1483154296875;7.69999998055937;771;1 A
102.967108740033;0.699676513671875;0.1484375;7.70999998053412;772;1 A
102.977108740008;0.699615478515625;0.148284912109375;7.71999998050887;773;1 A
102.987108739983;0.699676513671875;0.14813232421875;7.72999998048363;774;1 A
102.997108739957;0.699615478515625;0.147735595703125;7.73999998045838;775;1 A
103.007108739932;0.699676513671875;0.147491455078125;7.74999998043313;776;1 A
103.017108739907;0.69970703125;0.147613525390625;7.75999998040788;777;1 A
103.027108739882;0.699676513671875;0.147735595703125;7.76999998038264;778;1 A
103.037108739856;0.699615478515625;0.147918701171875;7.77999998035739;779;1 A
103.047108739831;0.69964599609375;0.148284912109375;7.78999998033214;780;1 A
103.057108739806;0.69964599609375;0.1484375;7.79999998030689;781;1 A
103.067108739781;0.69964599609375;0.14923095703125;7.80999998028165;782;1 A
103.077108739755;0.699676513671875;0.149261474609375;7.8199999802564;783;1 A
103.08710873973;0.699615478515625;0.149444580078125;7.82999998023115;784;1 A
103.097108739705;0.699676513671875;0.1495361328125;7.8399999802059;785;1 A
103.10710873968;0.699615478515625;0.149505615234375;7.84999998018066;786;1 A
103.117108739654;0.69970703125;0.14935302734375;7.85999998015541;787;1 A
103.127108739629;0.699615478515625;0.149169921875;7.86999998013016;788;1 A
103.137108739604;0.699676513671875;0.1492919921875;7.87999998010491;789;1 A
103.147108739579;0.69964599609375;0.149383544921875;7.88999998007966;790;1 A
103.157108739553;0.69964599609375;0.149505615234375;7.89999998005442;791;1 A
103.167108739528;0.69964599609375;0.149688720703125;7.90999998002917;792;1 A
103.177108739503;0.699676513671875;0.149688720703125;7.91999998000392;793;1 A
103.187108739478;0.69964599609375;0.150299072265625;7.92999997997867;794;1 A
103.197108739452;0.69964599609375;0.1502685546875;7.93999997995343;795;1 A
103.207108739427;0.699676513671875;0.15020751953125;7.94999997992818;796;1 A
103.217108739402;0.699737548828125;0.14990234375;7.95999997990293;797;1 A
103.227108739377;0.699554443359375;0.1495361328125;7.96999997987768;798;1 A
103.237108739351;0.69964599609375;0.148956298828125;7.97999997985244;799;1 A
103.247108739326;0.699615478515625;0.148590087890625;7.98999997982719;800;1 A
103.257108739301;0.69964599609375;0.14825439453125;7.99999997980194;801;1 A
103.267108739276;0.69970703125;0.148101806640625;8.00999997977669;802;1 A
103.27710873925;0.699615478515625;0.14794921875;8.01999997975145;803;1 A
103.287108739225;0.69964599609375;0.147918701171875;8.0299999797262;804;1 A
103.2971087392;0.69964599609375;0.14764404296875;8.03999997970095;805;1 A
103.307108739175;0.699554443359375;0.148284912109375;8.0499999796757;806;1 A
103.317108739149;0.69964599609375;0.147857666015625;8.05999997965046;807;1 A
103.327108739124;0.699615478515625;0.147705078125;8.06999997962521;808;1 A
103.337108739099;0.69964599609375;0.1473388671875;8.07999997959996;809;1 A
103.347108739074;0.69964599609375;0.147125244140625;8.08999997957471;810;1 A
103.357108739048;0.69964599609375;0.146575927734375;8.09999997954947;811;1 A
103.367108739023;0.6995849609375;0.146392822265625;8.10999997952422;812;1 A
103.377108738998;0.69964599609375;0.146209716796875;8.11999997949897;813;1 A
103.387108738973;0.699615478515625;0.146331787109375;8.12999997947372;814;1 A
103.397108738947;0.69964599609375;0.146453857421875;8.13999997944848;815;1 A
103.407108738922;0.69964599609375;0.146820068359375;8.14999997942323;816;1 A
103.417108738897;0.699615478515625;0.14691162109375;8.15999997939798;817;1 A
103.427108738872;0.69964599609375;0.1478271484375;8.16999997937273;818;1 A
103.437108738846;0.699676513671875;0.147796630859375;8.17999997934749;819;1 A
103.447108738821;0.699615478515625;0.1478271484375;8.18999997932224;820;1 A
103.457108738796;0.699615478515625;0.147705078125;8.19999997929699;821;1 A
103.467108738771;0.699676513671875;0.147705078125;8.20999997927174;822;1 A
103.477108738745;0.69964599609375;0.147430419921875;8.2199999792465;823;1 A
103.48710873872;0.69964599609375;0.1474609375;8.22999997922125;824;1 A
103.497108738695;0.6995849609375;0.147552490234375;8.239999979196;825;1 A
103.50710873867;0.699676513671875;0.147918701171875;8.24999997917075;826;1 A
103.517108738644;0.69964599609375;0.148101806640625;8.2599999791455;827;1 A
103.527108738619;0.699615478515625;0.148529052734375;8.26999997912026;828;1 A
103.537108738594;0.699615478515625;0.148590087890625;8.27999997909501;829;1 A
103.547108738569;0.69964599609375;0.1494140625;8.28999997906976;830;1 A
103.557108738543;0.69964599609375;0.14959716796875;8.29999997904451;831;1 A
103.567108738518;0.69970703125;0.149688720703125;8.30999997901927;832;1 A
103.577108738493;0.699676513671875;0.149627685546875;8.31999997899402;833;1 A
103.587108738468;0.699676513671875;0.149505615234375;8.32999997896877;834;1 A
103.597108738442;0.699676513671875;0.149200439453125;8.33999997894352;835;1 A
103.607108738417;0.69964599609375;0.149017333984375;8.34999997891828;836;1 A
103.617108738392;0.699676513671875;0.149169921875;8.35999997889303;837;1 A
103.627108738367;0.69964599609375;0.149383544921875;8.36999997886778;838;1 A
103.637108738341;0.69964599609375;0.149688720703125;8.37999997884253;839;1 A
103.647108738316;0.699676513671875;0.150115966796875;8.38999997881729;840;1 A
103.657108738291;0.699737548828125;0.15020751953125;8.39999997879204;841;1 A
103.667108738266;0.69964599609375;0.15118408203125;8.40999997876679;842;1 A
103.67710873824;0.69970703125;0.15106201171875;8.41999997874154;843;1 A
103.687108738215;0.69964599609375;0.151123046875;8.4299999787163;844;1 A
103.69710873819;0.699676513671875;0.151092529296875;8.43999997869105;845;1 A
103.707108738165;0.69970703125;0.15087890625;8.4499999786658;846;1 A
103.717108738139;0.69964599609375;0.150482177734375;8.45999997864055;847;1 A
103.727108738114;0.699615478515625;0.15008544921875;8.46999997861531;848;1 A
103.737108738089;0.699676513671875;0.150177001953125;8.47999997859006;849;1 A
103.747108738064;0.69964599609375;0.150238037109375;8.48999997856481;850;1 A
103.757108738038;0.699737548828125;0.15045166015625;8.49999997853956;851;1 A
103.767108738013;0.69970703125;0.150665283203125;8.50999997851432;852;1 A
103.777108737988;0.699615478515625;0.150726318359375;8.51999997848907;853;1 A
103.787108737963;0.699615478515625;0.15155029296875;8.52999997846382;854;1 A
103.797108737937;0.699676513671875;0.151611328125;8.53999997843857;855;1 A
103.807108737912;0.699676513671875;0.151824951171875;8.54999997841333;856;1 A
103.817108737887;0.699676513671875;0.1517333984375;8.55999997838808;857;1 A
103.827108737862;0.69970703125;0.151611328125;8.56999997836283;858;1 A
103.837108737837;0.69964599609375;0.151336669921875;8.57999997833758;859;1 A
103.847108737811;0.69970703125;0.151214599609375;8.58999997831233;860;1 A
103.857108737786;0.69964599609375;0.151275634765625;8.59999997828709;861;1 A
103.867108737761;0.69964599609375;0.1514892578125;8.60999997826184;862;1 A
103.877108737736;0.699615478515625;0.151763916015625;8.61999997823659;863;1 A
103.88710873771;0.69964599609375;0.15203857421875;8.62999997821134;864;1 A
103.897108737685;0.699676513671875;0.152099609375;8.6399999781861;865;1 A
103.90710873766;0.6995849609375;0.153228759765625;8.64999997816085;866;1 A
103.917108737635;0.699737548828125;0.153045654296875;8.6599999781356;867;1 A
103.927108737609;0.69964599609375;0.15313720703125;8.66999997811035;868;1 A
103.937108737584;0.699615478515625;0.153045654296875;8.67999997808511;869;1 A
103.947108737559;0.69964599609375;0.152862548828125;8.68999997805986;870;1 A
103.957108737534;0.69964599609375;0.15234375;8.69999997803461;871;1 A
103.967108737508;0.699615478515625;0.152130126953125;8.70999997800936;872;1 A
103.977108737483;0.699615478515625;0.15216064453125;8.71999997798412;873;1 A
103.987108737458;0.69964599609375;0.152313232421875;8.72999997795887;874;1 A
103.997108737433;0.699676513671875;0.152496337890625;8.73999997793362;875;1 A
104.007108737407;0.69964599609375;0.152923583984375;8.74999997790837;876;1 A
104.017108737382;0.699676513671875;0.1531982421875;8.75999997788313;877;1 A
104.027108737357;0.699615478515625;0.1544189453125;8.76999997785788;878;1 A
104.037108737332;0.699615478515625;0.154632568359375;8.77999997783263;879;1 A
104.047108737306;0.699676513671875;0.1546630859375;8.78999997780738;880;1 A
104.057108737281;0.699676513671875;0.15447998046875;8.79999997778214;881;1 A
104.067108737256;0.69964599609375;0.154388427734375;8.80999997775689;882;1 A
104.077108737231;0.6995849609375;0.153839111328125;8.81999997773164;883;1 A
104.087108737205;0.699615478515625;0.15362548828125;8.82999997770639;884;1 A
104.09710873718;0.699615478515625;0.15350341796875;8.83999997768115;885;1 A
104.107108737155;0.69970703125;0.153717041015625;8.8499999776559;886;1 A
104.11710873713;0.699615478515625;0.153717041015625;8.85999997763065;887;1 A
104.127108737104;0.699615478515625;0.154052734375;8.8699999776054;888;1 A
104.137108737079;0.699676513671875;0.15411376953125;8.87999997758016;889;1 A
104.147108737054;0.69964599609375;0.15509033203125;8.88999997755491;890;1 A
104.157108737029;0.69964599609375;0.15545654296875;8.89999997752966;891;1 A
104.167108737003;0.699615478515625;0.1553955078125;8.90999997750441;892;1 A
104.177108736978;0.69964599609375;0.1551513671875;8.91999997747916;893;1 A
104.187108736953;0.69964599609375;0.154876708984375;8.92999997745392;894;1 A
104.197108736928;0.699676513671875;0.15423583984375;8.93999997742867;895;1 A
104.207108736902;0.69964599609375;0.15386962890625;8.94999997740342;896;1 A
104.217108736877;0.699615478515625;0.153961181640625;8.95999997737817;897;1 A
104.227108736852;0.69964599609375;0.15411376953125;8.96999997735293;898;1 A
104.237108736827;0.69964599609375;0.154388427734375;8.97999997732768;899;1 A
104.247108736801;0.69970703125;0.15472412109375;8.98999997730243;900;1 A
104.257108736776;0.69964599609375;0.154815673828125;8.99999997727718;901;1 A
104.267108736751;0.699615478515625;0.156158447265625;9.00999997725194;902;1 A
104.277108736726;0.699676513671875;0.15606689453125;9.01999997722669;903;1 A
104.2871087367;0.699676513671875;0.156005859375;9.02999997720144;904;1 A
104.297108736675;0.69964599609375;0.15594482421875;9.03999997717619;905;1 A
104.30710873665;0.69964599609375;0.155792236328125;9.04999997715095;906;1 A
104.317108736625;0.699615478515625;0.155303955078125;9.0599999771257;907;1 A
104.327108736599;0.699676513671875;0.1549072265625;9.06999997710045;908;1 A
104.337108736574;0.69964599609375;0.15509033203125;9.0799999770752;909;1 A
104.347108736549;0.69964599609375;0.15521240234375;9.08999997704996;910;1 A
104.357108736524;0.69964599609375;0.155426025390625;9.09999997702471;911;1 A
104.367108736498;0.699615478515625;0.15570068359375;9.10999997699946;912;1 A
104.377108736473;0.6995849609375;0.156036376953125;9.11999997697421;913;1 A
104.387108736448;0.69964599609375;0.157257080078125;9.12999997694897;914;1 A
104.397108736423;0.69964599609375;0.157379150390625;9.13999997692372;915;1 A
104.407108736397;0.699676513671875;0.157501220703125;9.14999997689847;916;1 A
104.417108736372;0.699615478515625;0.157196044921875;9.15999997687322;917;1 A
104.427108736347;0.69964599609375;0.156951904296875;9.16999997684798;918;1 A
104.437108736322;0.699676513671875;0.156402587890625;9.17999997682273;919;1 A
104.447108736296;0.699676513671875;0.1561279296875;9.18999997679748;920;1 A
104.457108736271;0.69964599609375;0.1561279296875;9.19999997677223;921;1 A
104.467108736246;0.69964599609375;0.156219482421875;9.20999997674699;922;1 A
104.477108736221;0.69964599609375;0.1563720703125;9.21999997672174;923;1 A
104.487108736195;0.699676513671875;0.156646728515625;9.22999997669649;924;1 A
104.49710873617;0.69964599609375;0.156768798828125;9.23999997667124;925;1 A
104.507108736145;0.69964599609375;0.15771484375;9.249999976646;926;1 A
104.51710873612;0.69970703125;0.157470703125;9.25999997662075;927;1 A
104.527108736094;0.6995849609375;0.157501220703125;9.2699999765955;928;1 A
104.537108736069;0.6995849609375;0.1573486328125;9.27999997657025;929;1 A
104.547108736044;0.699676513671875;0.1572265625;9.289999976545;930;1 A
104.557108736019;0.699737548828125;0.156707763671875;9.29999997651976;931;1 A
104.567108735993;0.699615478515625;0.156494140625;9.30999997649451;932;1 A
104.577108735968;0.6995849609375;0.15631103515625;9.31999997646926;933;1 A
104.587108735943;0.69964599609375;0.15631103515625;9.32999997644401;934;1 A
104.597108735918;0.699676513671875;0.15631103515625;9.33999997641877;935;1 A
104.607108735892;0.69964599609375;0.156524658203125;9.34999997639352;936;1 A
104.617108735867;0.69970703125;0.15643310546875;9.35999997636827;937;1 A
104.627108735842;0.69964599609375;0.1571044921875;9.36999997634302;938;1 A
104.637108735817;0.69964599609375;0.1568603515625;9.37999997631778;939;1 A
104.647108735791;0.69964599609375;0.15667724609375;9.38999997629253;940;1 A
104.657108735766;0.699676513671875;0.15631103515625;9.39999997626728;941;1 A
104.667108735741;0.6995849609375;0.156036376953125;9.40999997624203;942;1 A
104.677108735716;0.699676513671875;0.155517578125;9.41999997621679;943;1 A
104.68710873569;0.69970703125;0.155303955078125;9.42999997619154;944;1 A
104.697108735665;0.699676513671875;0.15509033203125;9.43999997616629;945;1 A
104.70710873564;0.699615478515625;0.155181884765625;9.44999997614104;946;1 A
104.717108735615;0.699615478515625;0.1551513671875;9.4599999761158;947;1 A
104.727108735589;0.69964599609375;0.155364990234375;9.46999997609055;948;1 A
104.737108735564;0.699676513671875;0.15533447265625;9.4799999760653;949;1 A
104.747108735539;0.699676513671875;0.156005859375;9.48999997604005;950;1 A
104.757108735514;0.69970703125;0.15625;9.49999997601481;951;1 A
104.767108735488;0.6995849609375;0.156036376953125;9.50999997598956;952;1 A
104.777108735463;0.69964599609375;0.15570068359375;9.51999997596431;953;1 A
104.787108735438;0.69964599609375;0.1552734375;9.52999997593906;954;1 A
104.797108735413;0.69964599609375;0.154571533203125;9.53999997591382;955;1 A
104.807108735387;0.699676513671875;0.154052734375;9.54999997588857;956;1 A
104.817108735362;0.69964599609375;0.15399169921875;9.55999997586332;957;1 A
104.827108735337;0.699615478515625;0.15399169921875;9.56999997583807;958;1 A
104.837108735312;0.69964599609375;0.15411376953125;9.57999997581283;959;1 A
104.847108735286;0.69970703125;0.154266357421875;9.58999997578758;960;1 A
104.857108735261;0.69964599609375;0.15411376953125;9.59999997576233;961;1 A
104.867108735236;0.699676513671875;0.1552734375;9.60999997573708;962;1 A
104.877108735211;0.699615478515625;0.15472412109375;9.61999997571183;963;1 A
104.887108735186;0.69964599609375;0.154510498046875;9.62999997568659;964;1 A
104.89710873516;0.699676513671875;0.1541748046875;9.63999997566134;965;1 A
104.907108735135;0.699615478515625;0.153717041015625;9.64999997563609;966;1 A
104.91710873511;0.699676513671875;0.1529541015625;9.65999997561084;967;1 A
104.927108735085;0.69964599609375;0.152313232421875;9.6699999755856;968;1 A
104.937108735059;0.69970703125;0.1522216796875;9.67999997556035;969;1 A
104.947108735034;0.699676513671875;0.152069091796875;9.6899999755351;970;1 A
104.957108735009;0.699615478515625;0.152069091796875;9.69999997550985;971;1 A
104.967108734984;0.699615478515625;0.152191162109375;9.70999997548461;972;1 A
104.977108734958;0.69964599609375;0.152191162109375;9.71999997545936;973;1 A
104.987108734933;0.69964599609375;0.15301513671875;9.72999997543411;974;1 A
104.997108734908;0.699676513671875;0.152679443359375;9.73999997540886;975;1 A
105.007108734883;0.69964599609375;0.152587890625;9.74999997538362;976;1 A
105.017108734857;0.6995849609375;0.15216064453125;9.75999997535837;977;1 A
105.027108734832;0.699615478515625;0.15179443359375;9.76999997533312;978;1 A
105.037108734807;0.699676513671875;0.151153564453125;9.77999997530787;979;1 A
105.047108734782;0.6995849609375;0.150787353515625;9.78999997528263;980;1 A
105.057108734756;0.699615478515625;0.150604248046875;9.79999997525738;981;1 A
105.067108734731;0.699676513671875;0.1505126953125;9.80999997523213;982;1 A
105.077108734706;0.69964599609375;0.15045166015625;9.81999997520688;983;1 A
105.087108734681;0.699615478515625;0.15045166015625;9.82999997518164;984;1 A
105.097108734655;0.699615478515625;0.150299072265625;9.83999997515639;985;1 A
105.10710873463;0.699676513671875;0.151153564453125;9.84999997513114;986;1 A
105.117108734605;0.69964599609375;0.1505126953125;9.85999997510589;987;1 A
105.12710873458;0.6995849609375;0.15032958984375;9.86999997508065;988;1 A
105.137108734554;0.69970703125;0.149993896484375;9.8799999750554;989;1 A
105.147108734529;0.699676513671875;0.149688720703125;9.88999997503015;990;1 A
105.157108734504;0.69964599609375;0.149078369140625;9.8999999750049;991;1 A
105.167108734479;0.699676513671875;0.148773193359375;9.90999997497966;992;1 A
105.177108734453;0.699676513671875;0.148590087890625;9.91999997495441;993;1 A
105.187108734428;0.699676513671875;0.148590087890625;9.92999997492916;994;1 A
105.197108734403;0.69964599609375;0.148590087890625;9.93999997490391;995;1 A
105.207108734378;0.69970703125;0.148773193359375;9.94999997487866;996;1 A
105.217108734352;0.69964599609375;0.148712158203125;9.95999997485342;997;1 A
105.227108734327;0.69964599609375;0.14935302734375;9.96999997482817;998;1 A
105.237108734302;0.69964599609375;0.149017333984375;9.97999997480292;999;1 A
105.247108734277;0.699676513671875;0.14886474609375;9.98999997477767;1000;1 A
