,Time / s,WE(1).Potential / V,Corrected time / s,Index,WE(1).Current / A
0,0.487261998769782,-0.212066650390625,0.0,1,-0.20013427734375
1,0.497261998744534,-0.24285888671875,0.00999999997475243,2,-0.199981689453125
2,0.507261998719287,-0.271392822265625,0.0199999999495049,3,-0.199981689453125
3,0.517261998694039,-0.300872802734375,0.0299999999242573,4,-0.19989013671875
4,0.527261998668791,-0.334075927734375,0.0399999998990097,5,-0.19989013671875
5,0.537261998643544,-0.376373291015625,0.0499999998737621,6,-0.199920654296875
6,0.547261998618296,-0.439178466796875,0.0599999998485146,7,-0.199920654296875
7,0.557261998593049,-0.5419921875,0.069999999823267,8,-0.1998291015625
8,0.567261998567801,-0.660400390625,0.0799999997980194,9,-0.199798583984375
9,0.577261998542554,-0.7708740234375,0.0899999997727718,10,-0.199798583984375
10,0.587261998517306,-0.8551025390625,0.0999999997475243,11,-0.1998291015625
11,0.597261998492058,-0.91064453125,0.109999999722277,12,-0.199859619140625
12,0.607261998466811,-0.948486328125,0.119999999697029,13,-0.199859619140625
13,0.617261998441563,-0.9747314453125,0.129999999671782,14,-0.199920654296875
14,0.627261998416316,-0.994873046875,0.139999999646534,15,-0.199859619140625
15,0.637261998391068,-1.01104736328125,0.149999999621286,16,-0.19989013671875
16,0.647261998365821,-1.02386474609375,0.159999999596039,17,-0.19989013671875
17,0.657261998340573,-1.0345458984375,0.169999999570791,18,-0.199920654296875
18,0.667261998315325,-1.04248046875,0.179999999545544,19,-0.199920654296875
19,0.677261998290078,-1.05010986328125,0.189999999520296,20,-0.199951171875
20,0.68726199826483,-1.05560302734375,0.199999999495049,21,-0.199951171875
21,0.697261998239583,-1.0595703125,0.209999999469801,22,-0.199920654296875
22,0.707261998214335,-1.0638427734375,0.219999999444553,23,-0.19989013671875
23,0.717261998189088,-1.06658935546875,0.229999999419306,24,-0.199951171875
24,0.72726199816384,-1.06842041015625,0.239999999394058,25,-0.199951171875
25,0.737261998138592,-1.070556640625,0.249999999368811,26,-0.19989013671875
26,0.747261998113345,-1.07269287109375,0.259999999343563,27,-0.199951171875
27,0.757261998088097,-1.0748291015625,0.269999999318316,28,-0.199920654296875
28,0.76726199806285,-1.07666015625,0.279999999293068,29,-0.199981689453125
29,0.777261998037602,-1.0791015625,0.28999999926782,30,-0.199951171875
30,0.787261998012355,-1.0809326171875,0.299999999242573,31,-0.199981689453125
31,0.797261997987107,-1.08245849609375,0.309999999217325,32,-0.199920654296875
32,0.807261997961859,-1.08428955078125,0.319999999192078,33,-0.19989013671875
33,0.817261997936612,-1.0858154296875,0.32999999916683,34,-0.199951171875
34,0.827261997911364,-1.08734130859375,0.339999999141583,35,-0.199951171875
35,0.837261997886117,-1.0888671875,0.349999999116335,36,-0.199981689453125
36,0.847261997860869,-1.09039306640625,0.359999999091087,37,-0.199920654296875
37,0.857261997835622,-1.09161376953125,0.36999999906584,38,-0.199920654296875
38,0.867261997810374,-1.0931396484375,0.379999999040592,39,-0.199920654296875
39,0.877261997785126,-1.09405517578125,0.389999999015345,40,-0.199951171875
40,0.887261997759879,-1.09527587890625,0.399999998990097,41,-0.199920654296875
41,0.897261997734631,-1.09649658203125,0.40999999896485,42,-0.199920654296875
42,0.907261997709384,-1.097412109375,0.419999998939602,43,-0.199981689453125
43,0.917261997684136,-1.0986328125,0.429999998914354,44,-0.20001220703125
44,0.927261997658889,-1.09954833984375,0.439999998889107,45,-0.199920654296875
45,0.937261997633641,-1.10076904296875,0.449999998863859,46,-0.199951171875
46,0.947261997608393,-1.1016845703125,0.459999998838612,47,-0.199951171875
47,0.957261997583146,-1.10260009765625,0.469999998813364,48,-0.19989013671875
48,0.967261997557898,-1.10382080078125,0.479999998788116,49,-0.199981689453125
49,0.977261997532651,-1.104736328125,0.489999998762869,50,-0.199981689453125
50,0.987261997507403,-1.10595703125,0.499999998737621,51,-0.19989013671875
51,0.997261997482155,-1.10687255859375,0.509999998712374,52,-0.199951171875
52,1.00726199745691,-1.1077880859375,0.519999998687126,53,-0.199981689453125
53,1.01726199743166,-1.1090087890625,0.529999998661879,54,-0.19989013671875
54,1.02726199740641,-1.10992431640625,0.539999998636631,55,-0.199920654296875
55,1.03726199738117,-1.11083984375,0.549999998611383,56,-0.19989013671875
56,1.04726199735592,-1.11175537109375,0.559999998586136,57,-0.199951171875
57,1.05726199733067,-1.11297607421875,0.569999998560888,58,-0.199981689453125
58,1.06726199730542,-1.1138916015625,0.579999998535641,59,-0.199981689453125
59,1.07726199728017,-1.1151123046875,0.589999998510393,60,-0.199951171875
60,1.08726199725493,-1.11602783203125,0.599999998485146,61,-0.199951171875
61,1.09726199722968,-1.11724853515625,0.609999998459898,62,-0.199859619140625
62,1.10726199720443,-1.1181640625,0.61999999843465,63,-0.199920654296875
63,1.11726199717918,-1.11907958984375,0.629999998409403,64,-0.199920654296875
64,1.12726199715394,-1.12030029296875,0.639999998384155,65,-0.199981689453125
65,1.13726199712869,-1.1212158203125,0.649999998358908,66,-0.199920654296875
66,1.14726199710344,-1.1224365234375,0.65999999833366,67,-0.199920654296875
67,1.15726199707819,-1.1236572265625,0.669999998308413,68,-0.199951171875
68,1.16726199705295,-1.1248779296875,0.679999998283165,69,-0.199981689453125
69,1.1772619970277,-1.1260986328125,0.689999998257917,70,-0.199951171875
70,1.18726199700245,-1.12701416015625,0.69999999823267,71,-0.199981689453125
71,1.1972619969772,-1.12823486328125,0.709999998207422,72,-0.199920654296875
72,1.20726199695196,-1.12945556640625,0.719999998182175,73,-0.199951171875
73,1.21726199692671,-1.13067626953125,0.729999998156927,74,-0.19989013671875
74,1.22726199690146,-1.13189697265625,0.73999999813168,75,-0.199981689453125
75,1.23726199687621,-1.13311767578125,0.749999998106432,76,-0.199920654296875
76,1.24726199685097,-1.1346435546875,0.759999998081184,77,-0.199920654296875
77,1.25726199682572,-1.1358642578125,0.769999998055937,78,-0.199951171875
78,1.26726199680047,-1.1370849609375,0.779999998030689,79,-0.199981689453125
79,1.27726199677522,-1.13861083984375,0.789999998005442,80,-0.199981689453125
80,1.28726199674998,-1.14013671875,0.799999997980194,81,-0.199920654296875
81,1.29726199672473,-1.141357421875,0.809999997954947,82,-0.199920654296875
82,1.30726199669948,-1.14288330078125,0.819999997929699,83,-0.199951171875
83,1.31726199667423,-1.14471435546875,0.829999997904451,84,-0.199920654296875
84,1.32726199664899,-1.146240234375,0.839999997879204,85,-0.199981689453125
85,1.33726199662374,-1.14776611328125,0.849999997853956,86,-0.19989013671875
86,1.34726199659849,-1.14959716796875,0.859999997828709,87,-0.199920654296875
87,1.35726199657324,-1.151123046875,0.869999997803461,88,-0.199951171875
88,1.367261996548,-1.15325927734375,0.879999997778214,89,-0.199951171875
89,1.37726199652275,-1.15509033203125,0.889999997752966,90,-0.199951171875
90,1.3872619964975,-1.15692138671875,0.899999997727718,91,-0.199920654296875
91,1.39726199647225,-1.15875244140625,0.909999997702471,92,-0.199951171875
92,1.40726199644701,-1.160888671875,0.919999997677223,93,-0.199920654296875
93,1.41726199642176,-1.16302490234375,0.929999997651976,94,-0.199920654296875
94,1.42726199639651,-1.1651611328125,0.939999997626728,95,-0.199920654296875
95,1.43726199637126,-1.1676025390625,0.949999997601481,96,-0.199951171875
96,1.44726199634601,-1.1700439453125,0.959999997576233,97,-0.199920654296875
97,1.45726199632077,-1.1724853515625,0.969999997550985,98,-0.199951171875
98,1.46726199629552,-1.17523193359375,0.979999997525738,99,-0.199920654296875
99,1.47726199627027,-1.177978515625,0.98999999750049,100,-0.199951171875
100,1.48726199624502,-1.18072509765625,0.999999997475243,101,-0.199951171875
101,1.49726199621978,-1.1834716796875,1.00999999745,102,-0.199920654296875
102,1.50726199619453,-1.18682861328125,1.01999999742475,103,-0.199920654296875
103,1.51726199616928,-1.18988037109375,1.0299999973995,104,-0.199951171875
104,1.52726199614403,-1.1932373046875,1.03999999737425,105,-0.19989013671875
105,1.53726199611879,-1.1968994140625,1.049999997349,106,-0.199981689453125
106,1.54726199609354,-1.2005615234375,1.05999999732376,107,-0.199981689453125
107,1.55726199606829,-1.2042236328125,1.06999999729851,108,-0.199920654296875
108,1.56726199604304,-1.20849609375,1.07999999727326,109,-0.199981689453125
109,1.5772619960178,-1.2127685546875,1.08999999724801,110,-0.199951171875
110,1.58726199599255,-1.217041015625,1.09999999722277,111,-0.19989013671875
111,1.5972619959673,-1.22161865234375,1.10999999719752,112,-0.199951171875
112,1.60726199594205,-1.22650146484375,1.11999999717227,113,-0.199920654296875
113,1.61726199591681,-1.23138427734375,1.12999999714702,114,-0.199981689453125
114,1.62726199589156,-1.236572265625,1.13999999712178,115,-0.199951171875
115,1.63726199586631,-1.24176025390625,1.14999999709653,116,-0.199920654296875
116,1.64726199584106,-1.24725341796875,1.15999999707128,117,-0.199951171875
117,1.65726199581582,-1.25244140625,1.16999999704603,118,-0.199920654296875
118,1.66726199579057,-1.25823974609375,1.17999999702079,119,-0.199920654296875
119,1.67726199576532,-1.26373291015625,1.18999999699554,120,-0.199920654296875
120,1.68726199574007,-1.26953125,1.19999999697029,121,-0.199951171875
121,1.69726199571483,-1.27532958984375,1.20999999694504,122,-0.199951171875
122,1.70726199568958,-1.28143310546875,1.2199999969198,123,-0.199920654296875
123,1.71726199566433,-1.28753662109375,1.22999999689455,124,-0.19989013671875
124,1.72726199563908,-1.29364013671875,1.2399999968693,125,-0.199981689453125
125,1.73726199561384,-1.29974365234375,1.24999999684405,126,-0.199859619140625
126,1.74726199558859,-1.30584716796875,1.25999999681881,127,-0.19989013671875
127,1.75726199556334,-1.31195068359375,1.26999999679356,128,-0.19989013671875
128,1.76726199553809,-1.3177490234375,1.27999999676831,129,-0.199920654296875
129,1.77726199551284,-1.3238525390625,1.28999999674306,130,-0.199920654296875
130,1.7872619954876,-1.329345703125,1.29999999671782,131,-0.19989013671875
131,1.79726199546235,-1.33514404296875,1.30999999669257,132,-0.199951171875
132,1.8072619954371,-1.34033203125,1.31999999666732,133,-0.19989013671875
133,1.81726199541185,-1.34552001953125,1.32999999664207,134,-0.19989013671875
134,1.82726199538661,-1.35040283203125,1.33999999661683,135,-0.199951171875
135,1.83726199536136,-1.3555908203125,1.34999999659158,136,-0.199920654296875
136,1.84726199533611,-1.361083984375,1.35999999656633,137,-0.19989013671875
137,1.85726199531086,-1.36627197265625,1.36999999654108,138,-0.199920654296875
138,1.86726199528562,-1.37176513671875,1.37999999651583,139,-0.199920654296875
139,1.87726199526037,-1.37725830078125,1.38999999649059,140,-0.19989013671875
140,1.88726199523512,-1.3824462890625,1.39999999646534,141,-0.19989013671875
141,1.89726199520987,-1.38763427734375,1.40999999644009,142,-0.19989013671875
142,1.90726199518463,-1.39251708984375,1.41999999641484,143,-0.199920654296875
143,1.91726199515938,-1.3970947265625,1.4299999963896,144,-0.199920654296875
144,1.92726199513413,-1.40167236328125,1.43999999636435,145,-0.199920654296875
145,1.93726199510888,-1.4056396484375,1.4499999963391,146,-0.19989013671875
146,1.94726199508364,-1.40960693359375,1.45999999631385,147,-0.199920654296875
147,1.95726199505839,-1.41387939453125,1.46999999628861,148,-0.19989013671875
148,1.96726199503314,-1.4178466796875,1.47999999626336,149,-0.199859619140625
149,1.97726199500789,-1.42181396484375,1.48999999623811,150,-0.19989013671875
150,1.98726199498265,-1.42608642578125,1.49999999621286,151,-0.199920654296875
151,1.9972619949574,-1.43035888671875,1.50999999618762,152,-0.199859619140625
152,2.00726199493215,-1.434326171875,1.51999999616237,153,-0.1998291015625
153,2.0172619949069,-1.4385986328125,1.52999999613712,154,-0.199920654296875
154,2.02726199488166,-1.44256591796875,1.53999999611187,155,-0.19989013671875
155,2.03726199485641,-1.44683837890625,1.54999999608663,156,-0.19989013671875
156,2.04726199483116,-1.4508056640625,1.55999999606138,157,-0.1998291015625
157,2.05726199480591,-1.4544677734375,1.56999999603613,158,-0.19989013671875
158,2.06726199478067,-1.4581298828125,1.57999999601088,159,-0.19989013671875
159,2.07726199475542,-1.46148681640625,1.58999999598564,160,-0.199859619140625
160,2.08726199473017,-1.46453857421875,1.59999999596039,161,-0.199920654296875
161,2.09726199470492,-1.46728515625,1.60999999593514,162,-0.19989013671875
162,2.10726199467967,-1.47003173828125,1.61999999590989,163,-0.199859619140625
163,2.11726199465443,-1.47308349609375,1.62999999588465,164,-0.199859619140625
164,2.12726199462918,-1.47613525390625,1.6399999958594,165,-0.199859619140625
165,2.13726199460393,-1.47918701171875,1.64999999583415,166,-0.19989013671875
166,2.14726199457868,-1.4825439453125,1.6599999958089,167,-0.19989013671875
167,2.15726199455344,-1.485595703125,1.66999999578366,168,-0.199920654296875
168,2.16726199452819,-1.48895263671875,1.67999999575841,169,-0.199920654296875
169,2.17726199450294,-1.49200439453125,1.68999999573316,170,-0.199951171875
170,2.18726199447769,-1.495361328125,1.69999999570791,171,-0.19989013671875
171,2.19726199445245,-1.4984130859375,1.70999999568267,172,-0.199920654296875
172,2.2072619944272,-1.49810791015625,1.71999999565742,173,-0.199920654296875
173,2.21726199440195,-1.502685546875,1.72999999563217,174,-0.199920654296875
174,2.2272619943767,-1.50543212890625,1.73999999560692,175,-0.19989013671875
175,2.23726199435146,-1.5081787109375,1.74999999558167,176,-0.199859619140625
176,2.24726199432621,-1.51092529296875,1.75999999555643,177,-0.199920654296875
177,2.25726199430096,-1.51336669921875,1.76999999553118,178,-0.1998291015625
178,2.26726199427571,-1.51580810546875,1.77999999550593,179,-0.199859619140625
179,2.27726199425047,-1.5185546875,1.78999999548068,180,-0.19989013671875
180,2.28726199422522,-1.52099609375,1.79999999545544,181,-0.199920654296875
181,2.29726199419997,-1.52374267578125,1.80999999543019,182,-0.19989013671875
182,2.30726199417472,-1.5264892578125,1.81999999540494,183,-0.19989013671875
183,2.31726199414948,-1.52923583984375,1.82999999537969,184,-0.199859619140625
184,2.32726199412423,-1.53167724609375,1.83999999535445,185,-0.19989013671875
185,2.33726199409898,-1.533203125,1.8499999953292,186,-0.199920654296875
186,2.34726199407373,-1.53564453125,1.85999999530395,187,-0.199798583984375
187,2.35726199404849,-1.53656005859375,1.8699999952787,188,-0.1998291015625
188,2.36726199402324,-1.53778076171875,1.87999999525346,189,-0.19989013671875
189,2.37726199399799,-1.53961181640625,1.88999999522821,190,-0.199859619140625
190,2.38726199397274,-1.5411376953125,1.89999999520296,191,-0.19989013671875
191,2.3972619939475,-1.54327392578125,1.90999999517771,192,-0.199859619140625
192,2.40726199392225,-1.54510498046875,1.91999999515247,193,-0.1998291015625
193,2.417261993897,-1.54693603515625,1.92999999512722,194,-0.19989013671875
194,2.42726199387175,-1.549072265625,1.93999999510197,195,-0.199859619140625
195,2.4372619938465,-1.55120849609375,1.94999999507672,196,-0.19989013671875
196,2.44726199382126,-1.55364990234375,1.95999999505148,197,-0.199920654296875
197,2.45726199379601,-1.55609130859375,1.96999999502623,198,-0.1998291015625
198,2.46726199377076,-1.55853271484375,1.97999999500098,199,-0.1998291015625
199,2.47726199374551,-1.5606689453125,1.98999999497573,200,-0.19989013671875
200,2.48726199372027,-1.56280517578125,1.99999999495049,201,-0.1998291015625
201,2.49726199369502,-1.56494140625,2.00999999492524,202,-0.199859619140625
202,2.50726199366977,-1.56707763671875,2.01999999489999,203,-0.199920654296875
203,2.51726199364452,-1.568603515625,2.02999999487474,204,-0.199859619140625
204,2.52726199361928,-1.5704345703125,2.0399999948495,205,-0.199859619140625
205,2.53726199359403,-1.572265625,2.04999999482425,206,-0.19989013671875
206,2.54726199356878,-1.57379150390625,2.059999994799,207,-0.199859619140625
207,2.55726199354353,-1.57562255859375,2.06999999477375,208,-0.199859619140625
208,2.56726199351829,-1.57745361328125,2.0799999947485,209,-0.199859619140625
209,2.57726199349304,-1.57928466796875,2.08999999472326,210,-0.199859619140625
210,2.58726199346779,-1.58172607421875,2.09999999469801,211,-0.1998291015625
211,2.59726199344254,-1.5838623046875,2.10999999467276,212,-0.1998291015625
212,2.6072619934173,-1.5863037109375,2.11999999464751,213,-0.19989013671875
213,2.61726199339205,-1.5887451171875,2.12999999462227,214,-0.199859619140625
214,2.6272619933668,-1.590576171875,2.13999999459702,215,-0.199920654296875
215,2.63726199334155,-1.59271240234375,2.14999999457177,216,-0.199859619140625
216,2.64726199331631,-1.59454345703125,2.15999999454652,217,-0.19989013671875
217,2.65726199329106,-1.5966796875,2.16999999452128,218,-0.199859619140625
218,2.66726199326581,-1.5985107421875,2.17999999449603,219,-0.199920654296875
219,2.67726199324056,-1.600341796875,2.18999999447078,220,-0.199798583984375
220,2.68726199321532,-1.6021728515625,2.19999999444553,221,-0.19989013671875
221,2.69726199319007,-1.60430908203125,2.20999999442029,222,-0.199859619140625
222,2.70726199316482,-1.60614013671875,2.21999999439504,223,-0.1998291015625
223,2.71726199313957,-1.60797119140625,2.22999999436979,224,-0.199859619140625
224,2.72726199311433,-1.610107421875,2.23999999434454,225,-0.19989013671875
225,2.73726199308908,-1.61224365234375,2.2499999943193,226,-0.199859619140625
226,2.74726199306383,-1.6143798828125,2.25999999429405,227,-0.19989013671875
227,2.75726199303858,-1.61651611328125,2.2699999942688,228,-0.19989013671875
228,2.76726199301334,-1.61865234375,2.27999999424355,229,-0.199859619140625
229,2.77726199298809,-1.6204833984375,2.28999999421831,230,-0.199920654296875
230,2.78726199296284,-1.622314453125,2.29999999419306,231,-0.199859619140625
231,2.79726199293759,-1.6241455078125,2.30999999416781,232,-0.19989013671875
232,2.80726199291234,-1.62628173828125,2.31999999414256,233,-0.199859619140625
233,2.8172619928871,-1.62811279296875,2.32999999411732,234,-0.19989013671875
234,2.82726199286185,-1.62994384765625,2.33999999409207,235,-0.199859619140625
235,2.8372619928366,-1.63177490234375,2.34999999406682,236,-0.199859619140625
236,2.84726199281135,-1.63360595703125,2.35999999404157,237,-0.19989013671875
237,2.85726199278611,-1.6351318359375,2.36999999401633,238,-0.199920654296875
238,2.86726199276086,-1.63665771484375,2.37999999399108,239,-0.1998291015625
239,2.87726199273561,-1.63818359375,2.38999999396583,240,-0.199859619140625
240,2.88726199271036,-1.63970947265625,2.39999999394058,241,-0.1998291015625
241,2.89726199268512,-1.64154052734375,2.40999999391533,242,-0.1998291015625
242,2.90726199265987,-1.64306640625,2.41999999389009,243,-0.19989013671875
243,2.91726199263462,-1.6448974609375,2.42999999386484,244,-0.1998291015625
244,2.92726199260937,-1.646728515625,2.43999999383959,245,-0.199859619140625
245,2.93726199258413,-1.6485595703125,2.44999999381434,246,-0.19989013671875
246,2.94726199255888,-1.65069580078125,2.4599999937891,247,-0.199859619140625
247,2.95726199253363,-1.65252685546875,2.46999999376385,248,-0.199859619140625
248,2.96726199250838,-1.65435791015625,2.4799999937386,249,-0.199859619140625
249,2.97726199248314,-1.65618896484375,2.48999999371335,250,-0.199798583984375
250,2.98726199245789,-1.65771484375,2.49999999368811,251,-0.199859619140625
251,2.99726199243264,-1.65924072265625,2.50999999366286,252,-0.199859619140625
252,3.00726199240739,-1.66046142578125,2.51999999363761,253,-0.1998291015625
253,3.01726199238215,-1.6619873046875,2.52999999361236,254,-0.1998291015625
254,3.0272619923569,-1.6632080078125,2.53999999358712,255,-0.19976806640625
255,3.03726199233165,-1.66473388671875,2.54999999356187,256,-0.199920654296875
256,3.0472619923064,-1.66595458984375,2.55999999353662,257,-0.1998291015625
257,3.05726199228116,-1.66748046875,2.56999999351137,258,-0.1998291015625
258,3.06726199225591,-1.66900634765625,2.57999999348613,259,-0.199798583984375
259,3.07726199223066,-1.67083740234375,2.58999999346088,260,-0.199798583984375
260,3.08726199220541,-1.67236328125,2.59999999343563,261,-0.199859619140625
261,3.09726199218017,-1.67388916015625,2.60999999341038,262,-0.19989013671875
262,3.10726199215492,-1.67510986328125,2.61999999338514,263,-0.199798583984375
263,3.11726199212967,-1.6766357421875,2.62999999335989,264,-0.199859619140625
264,3.12726199210442,-1.6778564453125,2.63999999333464,265,-0.1998291015625
265,3.13726199207917,-1.6790771484375,2.64999999330939,266,-0.19989013671875
266,3.14726199205393,-1.6802978515625,2.65999999328415,267,-0.199798583984375
267,3.15726199202868,-1.6815185546875,2.6699999932589,268,-0.199859619140625
268,3.16726199200343,-1.68243408203125,2.67999999323365,269,-0.199859619140625
269,3.17726199197818,-1.683349609375,2.6899999932084,270,-0.1998291015625
270,3.18726199195294,-1.6845703125,2.69999999318316,271,-0.199859619140625
271,3.19726199192769,-1.685791015625,2.70999999315791,272,-0.1998291015625
272,3.20726199190244,-1.68731689453125,2.71999999313266,273,-0.199859619140625
273,3.21726199187719,-1.6888427734375,2.72999999310741,274,-0.199859619140625
274,3.22726199185195,-1.690673828125,2.73999999308217,275,-0.199859619140625
275,3.2372619918267,-1.6925048828125,2.74999999305692,276,-0.1998291015625
276,3.24726199180145,-1.69403076171875,2.75999999303167,277,-0.1998291015625
277,3.2572619917762,-1.695556640625,2.76999999300642,278,-0.199920654296875
278,3.26726199175096,-1.69708251953125,2.77999999298117,279,-0.199859619140625
279,3.27726199172571,-1.6986083984375,2.78999999295593,280,-0.19989013671875
280,3.28726199170046,-1.6998291015625,2.79999999293068,281,-0.199798583984375
281,3.29726199167521,-1.7010498046875,2.80999999290543,282,-0.1998291015625
282,3.30726199164997,-1.7022705078125,2.81999999288018,283,-0.199798583984375
283,3.31726199162472,-1.7034912109375,2.82999999285494,284,-0.199859619140625
284,3.32726199159947,-1.7047119140625,2.83999999282969,285,-0.199798583984375
285,3.33726199157422,-1.7059326171875,2.84999999280444,286,-0.1998291015625
286,3.34726199154898,-1.7071533203125,2.85999999277919,287,-0.199859619140625
287,3.35726199152373,-1.7083740234375,2.86999999275395,288,-0.199859619140625
288,3.36726199149848,-1.70989990234375,2.8799999927287,289,-0.1998291015625
289,3.37726199147323,-1.71112060546875,2.88999999270345,290,-0.1998291015625
290,3.38726199144799,-1.7120361328125,2.8999999926782,291,-0.1998291015625
291,3.39726199142274,-1.71295166015625,2.90999999265296,292,-0.19989013671875
292,3.40726199139749,-1.71356201171875,2.91999999262771,293,-0.1998291015625
293,3.41726199137224,-1.71417236328125,2.92999999260246,294,-0.1998291015625
294,3.427261991347,-1.715087890625,2.93999999257721,295,-0.199798583984375
295,3.43726199132175,-1.7156982421875,2.94999999255197,296,-0.1998291015625
296,3.4472619912965,-1.71661376953125,2.95999999252672,297,-0.1998291015625
297,3.45726199127125,-1.71722412109375,2.96999999250147,298,-0.199859619140625
298,3.467261991246,-1.71783447265625,2.97999999247622,299,-0.199859619140625
299,3.47726199122076,-1.71844482421875,2.98999999245098,300,-0.199798583984375
300,3.48726199119551,-1.71905517578125,2.99999999242573,301,-0.19989013671875
301,3.49726199117026,-1.719970703125,3.00999999240048,302,-0.1998291015625
302,3.50726199114501,-1.72088623046875,3.01999999237523,303,-0.199859619140625
303,3.51726199111977,-1.7218017578125,3.02999999234999,304,-0.199859619140625
304,3.52726199109452,-1.722412109375,3.03999999232474,305,-0.199859619140625
305,3.53726199106927,-1.72332763671875,3.04999999229949,306,-0.1998291015625
306,3.54726199104402,-1.7236328125,3.05999999227424,307,-0.1998291015625
307,3.55726199101878,-1.72454833984375,3.069999992249,308,-0.1998291015625
308,3.56726199099353,-1.72515869140625,3.07999999222375,309,-0.1998291015625
309,3.57726199096828,-1.72607421875,3.0899999921985,310,-0.1998291015625
310,3.58726199094303,-1.72698974609375,3.09999999217325,311,-0.199859619140625
311,3.59726199091779,-1.7279052734375,3.109999992148,312,-0.199859619140625
312,3.60726199089254,-1.72882080078125,3.11999999212276,313,-0.199859619140625
313,3.61726199086729,-1.73004150390625,3.12999999209751,314,-0.19989013671875
314,3.62726199084204,-1.73095703125,3.13999999207226,315,-0.19989013671875
315,3.6372619908168,-1.73187255859375,3.14999999204701,316,-0.199859619140625
316,3.64726199079155,-1.73248291015625,3.15999999202177,317,-0.19976806640625
317,3.6572619907663,-1.7333984375,3.16999999199652,318,-0.1998291015625
318,3.66726199074105,-1.7340087890625,3.17999999197127,319,-0.1998291015625
319,3.67726199071581,-1.73431396484375,3.18999999194602,320,-0.199859619140625
320,3.68726199069056,-1.7352294921875,3.19999999192078,321,-0.1998291015625
321,3.69726199066531,-1.73583984375,3.20999999189553,322,-0.199798583984375
322,3.70726199064006,-1.7364501953125,3.21999999187028,323,-0.1998291015625
323,3.71726199061482,-1.73736572265625,3.22999999184503,324,-0.1998291015625
324,3.72726199058957,-1.73828125,3.23999999181979,325,-0.19989013671875
325,3.73726199056432,-1.7388916015625,3.24999999179454,326,-0.199798583984375
326,3.74726199053907,-1.73980712890625,3.25999999176929,327,-0.199798583984375
327,3.75726199051383,-1.74041748046875,3.26999999174404,328,-0.1998291015625
328,3.76726199048858,-1.7413330078125,3.2799999917188,329,-0.1998291015625
329,3.77726199046333,-1.741943359375,3.28999999169355,330,-0.1998291015625
330,3.78726199043808,-1.74224853515625,3.2999999916683,331,-0.199798583984375
331,3.79726199041284,-1.74224853515625,3.30999999164305,332,-0.19989013671875
332,3.80726199038759,-1.7425537109375,3.31999999161781,333,-0.1998291015625
333,3.81726199036234,-1.7425537109375,3.32999999159256,334,-0.1998291015625
334,3.82726199033709,-1.7425537109375,3.33999999156731,335,-0.199859619140625
335,3.83726199031184,-1.74285888671875,3.34999999154206,336,-0.199859619140625
336,3.8472619902866,-1.7431640625,3.35999999151682,337,-0.1998291015625
337,3.85726199026135,-1.74346923828125,3.36999999149157,338,-0.19976806640625
338,3.8672619902361,-1.74407958984375,3.37999999146632,339,-0.1998291015625
339,3.87726199021085,-1.7449951171875,3.38999999144107,340,-0.199859619140625
340,3.88726199018561,-1.74591064453125,3.39999999141583,341,-0.1998291015625
341,3.89726199016036,-1.74652099609375,3.40999999139058,342,-0.199798583984375
342,3.90726199013511,-1.7474365234375,3.41999999136533,343,-0.1998291015625
343,3.91726199010986,-1.748046875,3.42999999134008,344,-0.199859619140625
344,3.92726199008462,-1.74896240234375,3.43999999131483,345,-0.1998291015625
345,3.93726199005937,-1.74957275390625,3.44999999128959,346,-0.19976806640625
346,3.94726199003412,-1.75048828125,3.45999999126434,347,-0.199859619140625
347,3.95726199000887,-1.7510986328125,3.46999999123909,348,-0.1998291015625
348,3.96726198998363,-1.751708984375,3.47999999121384,349,-0.1998291015625
349,3.97726198995838,-1.75262451171875,3.4899999911886,350,-0.199798583984375
350,3.98726198993313,-1.75323486328125,3.49999999116335,351,-0.1998291015625
351,3.99726198990788,-1.75384521484375,3.5099999911381,352,-0.199798583984375
352,4.00726198988264,-1.75445556640625,3.51999999111285,353,-0.1998291015625
353,4.01726198985739,-1.75506591796875,3.52999999108761,354,-0.19989013671875
354,4.02726198983214,-1.7559814453125,3.53999999106236,355,-0.1998291015625
355,4.03726198980689,-1.75689697265625,3.54999999103711,356,-0.199859619140625
356,4.04726198978165,-1.75811767578125,3.55999999101186,357,-0.199859619140625
357,4.0572619897564,-1.759033203125,3.56999999098662,358,-0.19976806640625
358,4.06726198973115,-1.75994873046875,3.57999999096137,359,-0.19976806640625
359,4.0772619897059,-1.76116943359375,3.58999999093612,360,-0.1998291015625
360,4.08726198968066,-1.7620849609375,3.59999999091087,361,-0.1998291015625
361,4.09726198965541,-1.7626953125,3.60999999088563,362,-0.1998291015625
362,4.10726198963016,-1.76361083984375,3.61999999086038,363,-0.199859619140625
363,4.11726198960491,-1.7645263671875,3.62999999083513,364,-0.19989013671875
364,4.12726198957967,-1.76544189453125,3.63999999080988,365,-0.1998291015625
365,4.13726198955442,-1.766357421875,3.64999999078464,366,-0.1998291015625
366,4.14726198952917,-1.76727294921875,3.65999999075939,367,-0.199798583984375
367,4.15726198950392,-1.7681884765625,3.66999999073414,368,-0.1998291015625
368,4.16726198947867,-1.768798828125,3.67999999070889,369,-0.1998291015625
369,4.17726198945343,-1.76971435546875,3.68999999068365,370,-0.199798583984375
370,4.18726198942818,-1.7706298828125,3.6999999906584,371,-0.199798583984375
371,4.19726198940293,-1.771240234375,3.70999999063315,372,-0.19989013671875
372,4.20726198937768,-1.7718505859375,3.7199999906079,373,-0.199798583984375
373,4.21726198935244,-1.7730712890625,3.72999999058266,374,-0.1998291015625
374,4.22726198932719,-1.77398681640625,3.73999999055741,375,-0.1998291015625
375,4.23726198930194,-1.77490234375,3.74999999053216,376,-0.199798583984375
376,4.24726198927669,-1.77581787109375,3.75999999050691,377,-0.1998291015625
377,4.25726198925145,-1.77642822265625,3.76999999048167,378,-0.1998291015625
378,4.2672619892262,-1.77703857421875,3.77999999045642,379,-0.199859619140625
379,4.27726198920095,-1.77734375,3.78999999043117,380,-0.199798583984375
380,4.2872619891757,-1.7779541015625,3.79999999040592,381,-0.199798583984375
381,4.29726198915046,-1.77886962890625,3.80999999038067,382,-0.19976806640625
382,4.30726198912521,-1.77947998046875,3.81999999035543,383,-0.19976806640625
383,4.31726198909996,-1.7803955078125,3.82999999033018,384,-0.1998291015625
384,4.32726198907471,-1.781005859375,3.83999999030493,385,-0.1998291015625
385,4.33726198904947,-1.78192138671875,3.84999999027968,386,-0.1998291015625
386,4.34726198902422,-1.78253173828125,3.85999999025444,387,-0.1998291015625
387,4.35726198899897,-1.78314208984375,3.86999999022919,388,-0.199859619140625
388,4.36726198897372,-1.78375244140625,3.87999999020394,389,-0.199798583984375
389,4.37726198894848,-1.78436279296875,3.88999999017869,390,-0.19976806640625
390,4.38726198892323,-1.7852783203125,3.89999999015345,391,-0.199798583984375
391,4.39726198889798,-1.785888671875,3.9099999901282,392,-0.199798583984375
392,4.40726198887273,-1.7864990234375,3.91999999010295,393,-0.1998291015625
393,4.41726198884749,-1.78741455078125,3.9299999900777,394,-0.1998291015625
394,4.42726198882224,-1.7877197265625,3.93999999005246,395,-0.199798583984375
395,4.43726198879699,-1.788330078125,3.94999999002721,396,-0.199859619140625
396,4.44726198877174,-1.78863525390625,3.95999999000196,397,-0.199859619140625
397,4.4572619887465,-1.7889404296875,3.96999998997671,398,-0.199859619140625
398,4.46726198872125,-1.7889404296875,3.97999998995147,399,-0.199798583984375
399,4.477261988696,-1.78924560546875,3.98999998992622,400,-0.1998291015625
400,4.48726198867075,-1.78955078125,3.99999998990097,401,-0.199859619140625
401,4.4972619886455,-1.7901611328125,4.00999998987572,402,-0.1998291015625
402,4.50726198862026,-1.790771484375,4.01999998985048,403,-0.199798583984375
403,4.51726198859501,-1.79168701171875,4.02999998982523,404,-0.1998291015625
404,4.52726198856976,-1.79229736328125,4.03999998979998,405,-0.199798583984375
405,4.53726198854451,-1.793212890625,4.04999998977473,406,-0.199859619140625
406,4.54726198851927,-1.7938232421875,4.05999998974949,407,-0.1998291015625
407,4.55726198849402,-1.79412841796875,4.06999998972424,408,-0.19976806640625
408,4.56726198846877,-1.79473876953125,4.07999998969899,409,-0.1998291015625
409,4.57726198844352,-1.7950439453125,4.08999998967374,410,-0.199798583984375
410,4.58726198841828,-1.79534912109375,4.0999999896485,411,-0.1998291015625
411,4.59726198839303,-1.795654296875,4.10999998962325,412,-0.1998291015625
412,4.60726198836778,-1.79595947265625,4.119999989598,413,-0.1998291015625
413,4.61726198834253,-1.79595947265625,4.12999998957275,414,-0.1998291015625
414,4.62726198831729,-1.7962646484375,4.1399999895475,415,-0.199798583984375
415,4.63726198829204,-1.79656982421875,4.14999998952226,416,-0.199798583984375
416,4.64726198826679,-1.79718017578125,4.15999998949701,417,-0.199798583984375
417,4.65726198824154,-1.7974853515625,4.16999998947176,418,-0.19976806640625
418,4.6672619882163,-1.798095703125,4.17999998944651,419,-0.1998291015625
419,4.67726198819105,-1.7987060546875,4.18999998942127,420,-0.199798583984375
420,4.6872619881658,-1.79931640625,4.19999998939602,421,-0.1998291015625
421,4.69726198814055,-1.7999267578125,4.20999998937077,422,-0.199798583984375
422,4.70726198811531,-1.80023193359375,4.21999998934552,423,-0.199859619140625
423,4.71726198809006,-1.800537109375,4.22999998932028,424,-0.19976806640625
424,4.72726198806481,-1.80084228515625,4.23999998929503,425,-0.1998291015625
425,4.73726198803956,-1.8011474609375,4.24999998926978,426,-0.1998291015625
426,4.74726198801432,-1.8011474609375,4.25999998924453,427,-0.199859619140625
427,4.75726198798907,-1.8011474609375,4.26999998921929,428,-0.199798583984375
428,4.76726198796382,-1.80145263671875,4.27999998919404,429,-0.199859619140625
429,4.77726198793857,-1.80206298828125,4.28999998916879,430,-0.1998291015625
430,4.78726198791333,-1.80267333984375,4.29999998914354,431,-0.199798583984375
431,4.79726198788808,-1.80328369140625,4.3099999891183,432,-0.19976806640625
432,4.80726198786283,-1.80389404296875,4.31999998909305,433,-0.199737548828125
433,4.81726198783758,-1.80450439453125,4.3299999890678,434,-0.1998291015625
434,4.82726198781234,-1.8048095703125,4.33999998904255,435,-0.1998291015625
435,4.83726198778709,-1.80511474609375,4.34999998901731,436,-0.1998291015625
436,4.84726198776184,-1.80572509765625,4.35999998899206,437,-0.199798583984375
437,4.85726198773659,-1.80633544921875,4.36999998896681,438,-0.199798583984375
438,4.86726198771134,-1.806640625,4.37999998894156,439,-0.1998291015625
439,4.8772619876861,-1.8072509765625,4.38999998891632,440,-0.199798583984375
440,4.88726198766085,-1.80755615234375,4.39999998889107,441,-0.1998291015625
441,4.8972619876356,-1.80816650390625,4.40999998886582,442,-0.1998291015625
442,4.90726198761035,-1.8084716796875,4.41999998884057,443,-0.1998291015625
443,4.91726198758511,-1.80877685546875,4.42999998881533,444,-0.199798583984375
444,4.92726198755986,-1.80938720703125,4.43999998879008,445,-0.199859619140625
445,4.93726198753461,-1.810302734375,4.44999998876483,446,-0.199798583984375
446,4.94726198750936,-1.8109130859375,4.45999998873958,447,-0.1998291015625
447,4.95726198748412,-1.8115234375,4.46999998871433,448,-0.199798583984375
448,4.96726198745887,-1.8121337890625,4.47999998868909,449,-0.199798583984375
449,4.97726198743362,-1.812744140625,4.48999998866384,450,-0.1998291015625
450,4.98726198740837,-1.8133544921875,4.49999998863859,451,-0.1998291015625
451,4.99726198738313,-1.81396484375,4.50999998861334,452,-0.199798583984375
452,5.00726198735788,-1.8145751953125,4.5199999885881,453,-0.19989013671875
453,5.01726198733263,-1.815185546875,4.52999998856285,454,-0.1998291015625
454,5.02726198730738,-1.8157958984375,4.5399999885376,455,-0.1998291015625
455,5.03726198728214,-1.81640625,4.54999998851235,456,-0.199859619140625
456,5.04726198725689,-1.8170166015625,4.55999998848711,457,-0.199798583984375
457,5.05726198723164,-1.817626953125,4.56999998846186,458,-0.1998291015625
458,5.06726198720639,-1.8182373046875,4.57999998843661,459,-0.199920654296875
459,5.07726198718115,-1.81854248046875,4.58999998841136,460,-0.1998291015625
460,5.0872619871559,-1.81915283203125,4.59999998838612,461,-0.1998291015625
461,5.09726198713065,-1.8194580078125,4.60999998836087,462,-0.199798583984375
462,5.1072619871054,-1.820068359375,4.61999998833562,463,-0.199798583984375
463,5.11726198708016,-1.8206787109375,4.62999998831037,464,-0.199798583984375
464,5.12726198705491,-1.82159423828125,4.63999998828513,465,-0.199798583984375
465,5.13726198702966,-1.822509765625,4.64999998825988,466,-0.199859619140625
466,5.14726198700441,-1.82342529296875,4.65999998823463,467,-0.199798583984375
467,5.15726198697917,-1.82403564453125,4.66999998820938,468,-0.199859619140625
468,5.16726198695392,-1.82464599609375,4.67999998818414,469,-0.19976806640625
469,5.17726198692867,-1.82525634765625,4.68999998815889,470,-0.199859619140625
470,5.18726198690342,-1.82586669921875,4.69999998813364,471,-0.19989013671875
471,5.19726198687817,-1.82647705078125,4.70999998810839,472,-0.199798583984375
472,5.20726198685293,-1.82708740234375,4.71999998808315,473,-0.1998291015625
473,5.21726198682768,-1.8280029296875,4.7299999880579,474,-0.199859619140625
474,5.22726198680243,-1.82891845703125,4.73999998803265,475,-0.1998291015625
475,5.23726198677718,-1.82952880859375,4.7499999880074,476,-0.1998291015625
476,5.24726198675194,-1.83013916015625,4.75999998798216,477,-0.1998291015625
477,5.25726198672669,-1.83074951171875,4.76999998795691,478,-0.1998291015625
478,5.26726198670144,-1.83135986328125,4.77999998793166,479,-0.199859619140625
479,5.27726198667619,-1.83197021484375,4.78999998790641,480,-0.1998291015625
480,5.28726198665095,-1.83258056640625,4.79999998788116,481,-0.1998291015625
481,5.2972619866257,-1.8328857421875,4.80999998785592,482,-0.1998291015625
482,5.30726198660045,-1.83349609375,4.81999998783067,483,-0.199859619140625
483,5.3172619865752,-1.8341064453125,4.82999998780542,484,-0.1998291015625
484,5.32726198654996,-1.83441162109375,4.83999998778017,485,-0.19976806640625
485,5.33726198652471,-1.83502197265625,4.84999998775493,486,-0.1998291015625
486,5.34726198649946,-1.83563232421875,4.85999998772968,487,-0.19976806640625
487,5.35726198647421,-1.83624267578125,4.86999998770443,488,-0.19976806640625
488,5.36726198644897,-1.8365478515625,4.87999998767918,489,-0.199798583984375
489,5.37726198642372,-1.83685302734375,4.88999998765394,490,-0.1998291015625
490,5.38726198639847,-1.837158203125,4.89999998762869,491,-0.19976806640625
491,5.39726198637322,-1.8377685546875,4.90999998760344,492,-0.199859619140625
492,5.40726198634798,-1.83807373046875,4.91999998757819,493,-0.19976806640625
493,5.41726198632273,-1.83868408203125,4.92999998755295,494,-0.199859619140625
494,5.42726198629748,-1.8389892578125,4.9399999875277,495,-0.1998291015625
495,5.43726198627223,-1.839599609375,4.94999998750245,496,-0.199859619140625
496,5.44726198624699,-1.83990478515625,4.9599999874772,497,-0.199859619140625
497,5.45726198622174,-1.8402099609375,4.96999998745196,498,-0.1998291015625
498,5.46726198619649,-1.84051513671875,4.97999998742671,499,-0.199798583984375
499,5.47726198617124,-1.84112548828125,4.98999998740146,500,-0.199798583984375
500,5.487261986146,-1.8414306640625,4.99999998737621,501,-0.199859619140625
501,5.49726198612075,-1.842041015625,5.00999998735097,502,-0.19976806640625
502,5.5072619860955,-1.84234619140625,5.01999998732572,503,-0.1998291015625
503,5.51726198607025,-1.84295654296875,5.02999998730047,504,-0.1998291015625
504,5.527261986045,-1.84326171875,5.03999998727522,505,-0.1998291015625
505,5.53726198601976,-1.8438720703125,5.04999998724998,506,-0.1998291015625
506,5.54726198599451,-1.84417724609375,5.05999998722473,507,-0.199859619140625
507,5.55726198596926,-1.84417724609375,5.06999998719948,508,-0.199798583984375
508,5.56726198594401,-1.844482421875,5.07999998717423,509,-0.1998291015625
509,5.57726198591877,-1.8450927734375,5.08999998714899,510,-0.1998291015625
510,5.58726198589352,-1.84539794921875,5.09999998712374,511,-0.199798583984375
511,5.59726198586827,-1.84600830078125,5.10999998709849,512,-0.1998291015625
512,5.60726198584302,-1.8463134765625,5.11999998707324,513,-0.199798583984375
513,5.61726198581778,-1.846923828125,5.129999987048,514,-0.199798583984375
514,5.62726198579253,-1.84722900390625,5.13999998702275,515,-0.199798583984375
515,5.63726198576728,-1.84783935546875,5.1499999869975,516,-0.19976806640625
516,5.64726198574203,-1.84814453125,5.15999998697225,517,-0.1998291015625
517,5.65726198571679,-1.84844970703125,5.169999986947,518,-0.199798583984375
518,5.66726198569154,-1.8487548828125,5.17999998692176,519,-0.199798583984375
519,5.67726198566629,-1.849365234375,5.18999998689651,520,-0.199798583984375
520,5.68726198564104,-1.84967041015625,5.19999998687126,521,-0.199798583984375
521,5.6972619856158,-1.85028076171875,5.20999998684601,522,-0.19976806640625
522,5.70726198559055,-1.8505859375,5.21999998682077,523,-0.199798583984375
523,5.7172619855653,-1.8511962890625,5.22999998679552,524,-0.1998291015625
524,5.72726198554005,-1.85150146484375,5.23999998677027,525,-0.199859619140625
525,5.73726198551481,-1.851806640625,5.24999998674502,526,-0.199798583984375
526,5.74726198548956,-1.8524169921875,5.25999998671978,527,-0.199798583984375
527,5.75726198546431,-1.85272216796875,5.26999998669453,528,-0.199859619140625
528,5.76726198543906,-1.85333251953125,5.27999998666928,529,-0.1998291015625
529,5.77726198541382,-1.8536376953125,5.28999998664403,530,-0.19976806640625
530,5.78726198538857,-1.85394287109375,5.29999998661879,531,-0.1998291015625
531,5.79726198536332,-1.854248046875,5.30999998659354,532,-0.19976806640625
532,5.80726198533807,-1.85455322265625,5.31999998656829,533,-0.199798583984375
533,5.81726198531283,-1.85455322265625,5.32999998654304,534,-0.1998291015625
534,5.82726198528758,-1.8548583984375,5.3399999865178,535,-0.199798583984375
535,5.83726198526233,-1.85516357421875,5.34999998649255,536,-0.199798583984375
536,5.84726198523708,-1.85577392578125,5.3599999864673,537,-0.1998291015625
537,5.85726198521184,-1.85638427734375,5.36999998644205,538,-0.199798583984375
538,5.86726198518659,-1.85699462890625,5.37999998641681,539,-0.199798583984375
539,5.87726198516134,-1.8572998046875,5.38999998639156,540,-0.1998291015625
540,5.88726198513609,-1.85791015625,5.39999998636631,541,-0.1998291015625
541,5.89726198511084,-1.8585205078125,5.40999998634106,542,-0.1998291015625
542,5.9072619850856,-1.85882568359375,5.41999998631582,543,-0.199798583984375
543,5.91726198506035,-1.859130859375,5.42999998629057,544,-0.199859619140625
544,5.9272619850351,-1.85943603515625,5.43999998626532,545,-0.1998291015625
545,5.93726198500985,-1.8597412109375,5.44999998624007,546,-0.199798583984375
546,5.94726198498461,-1.86004638671875,5.45999998621483,547,-0.1998291015625
547,5.95726198495936,-1.8603515625,5.46999998618958,548,-0.1998291015625
548,5.96726198493411,-1.86065673828125,5.47999998616433,549,-0.1998291015625
549,5.97726198490886,-1.8609619140625,5.48999998613908,550,-0.19989013671875
550,5.98726198488362,-1.8609619140625,5.49999998611383,551,-0.199798583984375
551,5.99726198485837,-1.86126708984375,5.50999998608859,552,-0.19976806640625
552,6.00726198483312,-1.861572265625,5.51999998606334,553,-0.19976806640625
553,6.01726198480787,-1.86187744140625,5.52999998603809,554,-0.1998291015625
554,6.02726198478263,-1.8621826171875,5.53999998601284,555,-0.19976806640625
555,6.03726198475738,-1.86248779296875,5.5499999859876,556,-0.199859619140625
556,6.04726198473213,-1.86309814453125,5.55999998596235,557,-0.199798583984375
557,6.05726198470688,-1.8634033203125,5.5699999859371,558,-0.19976806640625
558,6.06726198468164,-1.864013671875,5.57999998591185,559,-0.19976806640625
559,6.07726198465639,-1.86431884765625,5.58999998588661,560,-0.199798583984375
560,6.08726198463114,-1.8646240234375,5.59999998586136,561,-0.1998291015625
561,6.09726198460589,-1.86492919921875,5.60999998583611,562,-0.19976806640625
562,6.10726198458065,-1.865234375,5.61999998581086,563,-0.1998291015625
563,6.1172619845554,-1.86553955078125,5.62999998578562,564,-0.19976806640625
564,6.12726198453015,-1.86614990234375,5.63999998576037,565,-0.199737548828125
565,6.1372619845049,-1.866455078125,5.64999998573512,566,-0.1998291015625
566,6.14726198447966,-1.86676025390625,5.65999998570987,567,-0.199798583984375
567,6.15726198445441,-1.8670654296875,5.66999998568463,568,-0.1998291015625
568,6.16726198442916,-1.86737060546875,5.67999998565938,569,-0.199798583984375
569,6.17726198440391,-1.86767578125,5.68999998563413,570,-0.19976806640625
570,6.18726198437867,-1.86798095703125,5.69999998560888,571,-0.199798583984375
571,6.19726198435342,-1.86859130859375,5.70999998558364,572,-0.199798583984375
572,6.20726198432817,-1.86920166015625,5.71999998555839,573,-0.199798583984375
573,6.21726198430292,-1.86981201171875,5.72999998553314,574,-0.1998291015625
574,6.22726198427767,-1.87042236328125,5.73999998550789,575,-0.1998291015625
575,6.23726198425243,-1.87103271484375,5.74999998548265,576,-0.199859619140625
576,6.24726198422718,-1.871337890625,5.7599999854574,577,-0.19976806640625
577,6.25726198420193,-1.8719482421875,5.76999998543215,578,-0.199859619140625
578,6.26726198417668,-1.87225341796875,5.7799999854069,579,-0.1998291015625
579,6.27726198415144,-1.87225341796875,5.78999998538166,580,-0.1998291015625
580,6.28726198412619,-1.87225341796875,5.79999998535641,581,-0.1998291015625
581,6.29726198410094,-1.87255859375,5.80999998533116,582,-0.199737548828125
582,6.30726198407569,-1.87255859375,5.81999998530591,583,-0.199798583984375
583,6.31726198405045,-1.87286376953125,5.82999998528066,584,-0.199798583984375
584,6.3272619840252,-1.8731689453125,5.83999998525542,585,-0.199798583984375
585,6.33726198399995,-1.87347412109375,5.84999998523017,586,-0.199798583984375
586,6.3472619839747,-1.873779296875,5.85999998520492,587,-0.19976806640625
587,6.35726198394946,-1.87408447265625,5.86999998517967,588,-0.199798583984375
588,6.36726198392421,-1.87469482421875,5.87999998515443,589,-0.199798583984375
589,6.37726198389896,-1.87530517578125,5.88999998512918,590,-0.1998291015625
590,6.38726198387371,-1.8756103515625,5.89999998510393,591,-0.199798583984375
591,6.39726198384847,-1.876220703125,5.90999998507868,592,-0.199798583984375
592,6.40726198382322,-1.87652587890625,5.91999998505344,593,-0.1998291015625
593,6.41726198379797,-1.87713623046875,5.92999998502819,594,-0.1998291015625
594,6.42726198377272,-1.87744140625,5.93999998500294,595,-0.199798583984375
595,6.43726198374748,-1.87774658203125,5.94999998497769,596,-0.199798583984375
596,6.44726198372223,-1.87774658203125,5.95999998495245,597,-0.1998291015625
597,6.45726198369698,-1.87774658203125,5.9699999849272,598,-0.199798583984375
598,6.46726198367173,-1.8780517578125,5.97999998490195,599,-0.199798583984375
599,6.47726198364649,-1.87835693359375,5.9899999848767,600,-0.199798583984375
600,6.48726198362124,-1.878662109375,5.99999998485146,601,-0.19976806640625
601,6.49726198359599,-1.87896728515625,6.00999998482621,602,-0.199859619140625
602,6.50726198357074,-1.8798828125,6.01999998480096,603,-0.199798583984375
603,6.5172619835455,-1.8804931640625,6.02999998477571,604,-0.1998291015625
604,6.52726198352025,-1.881103515625,6.03999998475047,605,-0.199859619140625
605,6.537261983495,-1.88140869140625,6.04999998472522,606,-0.199737548828125
606,6.54726198346975,-1.8817138671875,6.05999998469997,607,-0.199798583984375
607,6.5572619834445,-1.88201904296875,6.06999998467472,608,-0.199859619140625
608,6.56726198341926,-1.88232421875,6.07999998464948,609,-0.1998291015625
609,6.57726198339401,-1.88262939453125,6.08999998462423,610,-0.199798583984375
610,6.58726198336876,-1.8829345703125,6.09999998459898,611,-0.199798583984375
611,6.59726198334351,-1.88323974609375,6.10999998457373,612,-0.1998291015625
612,6.60726198331827,-1.883544921875,6.11999998454849,613,-0.199798583984375
613,6.61726198329302,-1.88385009765625,6.12999998452324,614,-0.1998291015625
614,6.62726198326777,-1.8841552734375,6.13999998449799,615,-0.199798583984375
615,6.63726198324252,-1.88446044921875,6.14999998447274,616,-0.1998291015625
616,6.64726198321728,-1.88507080078125,6.1599999844475,617,-0.199798583984375
617,6.65726198319203,-1.8853759765625,6.16999998442225,618,-0.199798583984375
618,6.66726198316678,-1.88568115234375,6.179999984397,619,-0.1998291015625
619,6.67726198314153,-1.885986328125,6.18999998437175,620,-0.199798583984375
620,6.68726198311629,-1.8865966796875,6.1999999843465,621,-0.199798583984375
621,6.69726198309104,-1.88690185546875,6.20999998432126,622,-0.19976806640625
622,6.70726198306579,-1.88720703125,6.21999998429601,623,-0.19976806640625
623,6.71726198304054,-1.8878173828125,6.22999998427076,624,-0.199859619140625
624,6.7272619830153,-1.88812255859375,6.23999998424551,625,-0.199798583984375
625,6.73726198299005,-1.888427734375,6.24999998422027,626,-0.199798583984375
626,6.7472619829648,-1.8890380859375,6.25999998419502,627,-0.19976806640625
627,6.75726198293955,-1.88934326171875,6.26999998416977,628,-0.1998291015625
628,6.76726198291431,-1.88995361328125,6.27999998414452,629,-0.199798583984375
629,6.77726198288906,-1.89056396484375,6.28999998411928,630,-0.19976806640625
630,6.78726198286381,-1.89117431640625,6.29999998409403,631,-0.199798583984375
631,6.79726198283856,-1.89178466796875,6.30999998406878,632,-0.199798583984375
632,6.80726198281332,-1.89208984375,6.31999998404353,633,-0.1998291015625
633,6.81726198278807,-1.8927001953125,6.32999998401829,634,-0.199798583984375
634,6.82726198276282,-1.893310546875,6.33999998399304,635,-0.199798583984375
635,6.83726198273757,-1.89361572265625,6.34999998396779,636,-0.19976806640625
636,6.84726198271233,-1.89453125,6.35999998394254,637,-0.199798583984375
637,6.85726198268708,-1.89483642578125,6.3699999839173,638,-0.19976806640625
638,6.86726198266183,-1.895751953125,6.37999998389205,639,-0.19976806640625
639,6.87726198263658,-1.8963623046875,6.3899999838668,640,-0.1998291015625
640,6.88726198261134,-1.89697265625,6.39999998384155,641,-0.199859619140625
641,6.89726198258609,-1.89788818359375,6.40999998381631,642,-0.199798583984375
642,6.90726198256084,-1.8988037109375,6.41999998379106,643,-0.199798583984375
643,6.91726198253559,-1.8994140625,6.42999998376581,644,-0.199798583984375
644,6.92726198251034,-1.90032958984375,6.43999998374056,645,-0.199798583984375
645,6.9372619824851,-1.90093994140625,6.44999998371532,646,-0.199798583984375
646,6.94726198245985,-1.90185546875,6.45999998369007,647,-0.19976806640625
647,6.9572619824346,-1.9024658203125,6.46999998366482,648,-0.19976806640625
648,6.96726198240935,-1.903076171875,6.47999998363957,649,-0.1998291015625
649,6.97726198238411,-1.9036865234375,6.48999998361433,650,-0.19976806640625
650,6.98726198235886,-1.904296875,6.49999998358908,651,-0.199798583984375
651,6.99726198233361,-1.9049072265625,6.50999998356383,652,-0.199798583984375
652,7.00726198230836,-1.905517578125,6.51999998353858,653,-0.19976806640625
653,7.01726198228312,-1.9061279296875,6.52999998351333,654,-0.199798583984375
654,7.02726198225787,-1.90673828125,6.53999998348809,655,-0.199859619140625
655,7.03726198223262,-1.90704345703125,6.54999998346284,656,-0.19976806640625
656,7.04726198220737,-1.90765380859375,6.55999998343759,657,-0.199798583984375
657,7.05726198218213,-1.90826416015625,6.56999998341234,658,-0.1998291015625
658,7.06726198215688,-1.9085693359375,6.5799999833871,659,-0.199798583984375
659,7.07726198213163,-1.90887451171875,6.58999998336185,660,-0.199737548828125
660,7.08726198210638,-1.9091796875,6.5999999833366,661,-0.199798583984375
661,7.09726198208114,-1.90948486328125,6.60999998331135,662,-0.199737548828125
662,7.10726198205589,-1.9097900390625,6.61999998328611,663,-0.199798583984375
663,7.11726198203064,-1.91009521484375,6.62999998326086,664,-0.1998291015625
664,7.12726198200539,-1.910400390625,6.63999998323561,665,-0.19976806640625
665,7.13726198198015,-1.91070556640625,6.64999998321036,666,-0.19976806640625
666,7.1472619819549,-1.9110107421875,6.65999998318512,667,-0.199798583984375
667,7.15726198192965,-1.91131591796875,6.66999998315987,668,-0.19976806640625
668,7.1672619819044,-1.91162109375,6.67999998313462,669,-0.199859619140625
669,7.17726198187916,-1.9122314453125,6.68999998310937,670,-0.1998291015625
670,7.18726198185391,-1.91253662109375,6.69999998308413,671,-0.199798583984375
671,7.19726198182866,-1.91314697265625,6.70999998305888,672,-0.19976806640625
672,7.20726198180341,-1.91375732421875,6.71999998303363,673,-0.199798583984375
673,7.21726198177817,-1.91436767578125,6.72999998300838,674,-0.199798583984375
674,7.22726198175292,-1.9146728515625,6.73999998298314,675,-0.19976806640625
675,7.23726198172767,-1.915283203125,6.74999998295789,676,-0.199737548828125
676,7.24726198170242,-1.9158935546875,6.75999998293264,677,-0.199798583984375
677,7.25726198167717,-1.91619873046875,6.76999998290739,678,-0.199798583984375
678,7.26726198165193,-1.91680908203125,6.77999998288215,679,-0.199798583984375
679,7.27726198162668,-1.91741943359375,6.7899999828569,680,-0.199798583984375
680,7.28726198160143,-1.917724609375,6.79999998283165,681,-0.19976806640625
681,7.29726198157618,-1.91802978515625,6.8099999828064,682,-0.199859619140625
682,7.30726198155094,-1.9183349609375,6.81999998278116,683,-0.199859619140625
683,7.31726198152569,-1.91864013671875,6.82999998275591,684,-0.199798583984375
684,7.32726198150044,-1.9189453125,6.83999998273066,685,-0.199798583984375
685,7.33726198147519,-1.91925048828125,6.84999998270541,686,-0.19976806640625
686,7.34726198144995,-1.9195556640625,6.85999998268016,687,-0.1998291015625
687,7.3572619814247,-1.91986083984375,6.86999998265492,688,-0.1998291015625
688,7.36726198139945,-1.920166015625,6.87999998262967,689,-0.199798583984375
689,7.3772619813742,-1.9207763671875,6.88999998260442,690,-0.19976806640625
690,7.38726198134896,-1.92108154296875,6.89999998257917,691,-0.1998291015625
691,7.39726198132371,-1.92138671875,6.90999998255393,692,-0.199737548828125
692,7.40726198129846,-1.92169189453125,6.91999998252868,693,-0.199798583984375
693,7.41726198127321,-1.9219970703125,6.92999998250343,694,-0.1998291015625
694,7.42726198124797,-1.9219970703125,6.93999998247818,695,-0.199798583984375
695,7.43726198122272,-1.922607421875,6.94999998245294,696,-0.199798583984375
696,7.44726198119747,-1.92230224609375,6.95999998242769,697,-0.1998291015625
697,7.45726198117222,-1.922607421875,6.96999998240244,698,-0.199798583984375
698,7.46726198114698,-1.922607421875,6.97999998237719,699,-0.199798583984375
699,7.47726198112173,-1.92291259765625,6.98999998235195,700,-0.1998291015625
700,7.48726198109648,-1.92291259765625,6.9999999823267,701,-0.199798583984375
701,7.49726198107123,-1.9232177734375,7.00999998230145,702,-0.199859619140625
702,7.50726198104599,-1.92352294921875,7.0199999822762,703,-0.199798583984375
703,7.51726198102074,-1.923828125,7.02999998225096,704,-0.199798583984375
704,7.52726198099549,-1.92413330078125,7.03999998222571,705,-0.199798583984375
705,7.53726198097024,-1.92474365234375,7.04999998220046,706,-0.19976806640625
706,7.547261980945,-1.925048828125,7.05999998217521,707,-0.199798583984375
707,7.55726198091975,-1.92535400390625,7.06999998214997,708,-0.19976806640625
708,7.5672619808945,-1.92535400390625,7.07999998212472,709,-0.1998291015625
709,7.57726198086925,-1.9256591796875,7.08999998209947,710,-0.199798583984375
710,7.587261980844,-1.92596435546875,7.09999998207422,711,-0.199859619140625
711,7.59726198081876,-1.92626953125,7.10999998204898,712,-0.19976806640625
712,7.60726198079351,-1.92657470703125,7.11999998202373,713,-0.199798583984375
713,7.61726198076826,-1.92657470703125,7.12999998199848,714,-0.19976806640625
714,7.62726198074301,-1.9268798828125,7.13999998197323,715,-0.19976806640625
715,7.63726198071777,-1.9268798828125,7.14999998194799,716,-0.199798583984375
716,7.64726198069252,-1.92718505859375,7.15999998192274,717,-0.199798583984375
717,7.65726198066727,-1.927490234375,7.16999998189749,718,-0.199798583984375
718,7.66726198064202,-1.92779541015625,7.17999998187224,719,-0.19976806640625
719,7.67726198061678,-1.9281005859375,7.189999981847,720,-0.199798583984375
720,7.68726198059153,-1.9281005859375,7.19999998182175,721,-0.199737548828125
721,7.69726198056628,-1.9281005859375,7.2099999817965,722,-0.199798583984375
722,7.70726198054103,-1.92840576171875,7.21999998177125,723,-0.1998291015625
723,7.71726198051579,-1.92840576171875,7.229999981746,724,-0.19976806640625
724,7.72726198049054,-1.9287109375,7.23999998172076,725,-0.1998291015625
725,7.73726198046529,-1.9287109375,7.24999998169551,726,-0.1998291015625
726,7.74726198044004,-1.92901611328125,7.25999998167026,727,-0.199798583984375
727,7.7572619804148,-1.92901611328125,7.26999998164501,728,-0.1998291015625
728,7.76726198038955,-1.9293212890625,7.27999998161977,729,-0.199798583984375
729,7.7772619803643,-1.92962646484375,7.28999998159452,730,-0.19976806640625
730,7.78726198033905,-1.92962646484375,7.29999998156927,731,-0.19976806640625
731,7.79726198031381,-1.929931640625,7.30999998154402,732,-0.19976806640625
732,7.80726198028856,-1.93023681640625,7.31999998151878,733,-0.199798583984375
733,7.81726198026331,-1.9305419921875,7.32999998149353,734,-0.19976806640625
734,7.82726198023806,-1.93084716796875,7.33999998146828,735,-0.199798583984375
735,7.83726198021282,-1.93115234375,7.34999998144303,736,-0.199737548828125
736,7.84726198018757,-1.93145751953125,7.35999998141779,737,-0.199798583984375
737,7.85726198016232,-1.9317626953125,7.36999998139254,738,-0.199798583984375
738,7.86726198013707,-1.93206787109375,7.37999998136729,739,-0.19976806640625
739,7.87726198011183,-1.932373046875,7.38999998134204,740,-0.19976806640625
740,7.88726198008658,-1.932373046875,7.3999999813168,741,-0.199798583984375
741,7.89726198006133,-1.93267822265625,7.40999998129155,742,-0.199798583984375
742,7.90726198003608,-1.9329833984375,7.4199999812663,743,-0.19976806640625
743,7.91726198001084,-1.93328857421875,7.42999998124105,744,-0.199798583984375
744,7.92726197998559,-1.93359375,7.43999998121581,745,-0.199798583984375
745,7.93726197996034,-1.9342041015625,7.44999998119056,746,-0.199798583984375
746,7.94726197993509,-1.93450927734375,7.45999998116531,747,-0.199798583984375
747,7.95726197990984,-1.934814453125,7.46999998114006,748,-0.19976806640625
748,7.9672619798846,-1.9354248046875,7.47999998111482,749,-0.199798583984375
749,7.97726197985935,-1.93572998046875,7.48999998108957,750,-0.199798583984375
750,7.9872619798341,-1.93603515625,7.49999998106432,751,-0.199798583984375
751,7.99726197980885,-1.93634033203125,7.50999998103907,752,-0.19976806640625
752,8.00726197978361,-1.9366455078125,7.51999998101383,753,-0.199798583984375
753,8.01726197975836,-1.93695068359375,7.52999998098858,754,-0.1998291015625
754,8.02726197973311,-1.937255859375,7.53999998096333,755,-0.1998291015625
755,8.03726197970786,-1.93756103515625,7.54999998093808,756,-0.199859619140625
756,8.04726197968262,-1.93756103515625,7.55999998091283,757,-0.1998291015625
757,8.05726197965737,-1.9378662109375,7.56999998088759,758,-0.19976806640625
758,8.06726197963212,-1.93817138671875,7.57999998086234,759,-0.199737548828125
759,8.07726197960687,-1.9384765625,7.58999998083709,760,-0.199859619140625
760,8.08726197958163,-1.93878173828125,7.59999998081184,761,-0.199859619140625
761,8.09726197955638,-1.9390869140625,7.6099999807866,762,-0.199798583984375
762,8.10726197953113,-1.93939208984375,7.61999998076135,763,-0.19976806640625
763,8.11726197950588,-1.939697265625,7.6299999807361,764,-0.1998291015625
764,8.12726197948064,-1.94000244140625,7.63999998071085,765,-0.199798583984375
765,8.13726197945539,-1.9403076171875,7.64999998068561,766,-0.199798583984375
766,8.14726197943014,-1.94091796875,7.65999998066036,767,-0.199798583984375
767,8.15726197940489,-1.94122314453125,7.66999998063511,768,-0.1998291015625
768,8.16726197937965,-1.94183349609375,7.67999998060986,769,-0.19976806640625
769,8.1772619793544,-1.942138671875,7.68999998058462,770,-0.19976806640625
770,8.18726197932915,-1.94244384765625,7.69999998055937,771,-0.19976806640625
771,8.1972619793039,-1.9427490234375,7.70999998053412,772,-0.19976806640625
772,8.20726197927866,-1.943359375,7.71999998050887,773,-0.1998291015625
773,8.21726197925341,-1.94366455078125,7.72999998048363,774,-0.199798583984375
774,8.22726197922816,-1.94427490234375,7.73999998045838,775,-0.1998291015625
775,8.23726197920291,-1.944580078125,7.74999998043313,776,-0.199798583984375
776,8.24726197917767,-1.9451904296875,7.75999998040788,777,-0.199798583984375
777,8.25726197915242,-1.94580078125,7.76999998038264,778,-0.199798583984375
778,8.26726197912717,-1.94610595703125,7.77999998035739,779,-0.199798583984375
779,8.27726197910192,-1.94671630859375,7.78999998033214,780,-0.1998291015625
780,8.28726197907667,-1.94732666015625,7.79999998030689,781,-0.199859619140625
781,8.29726197905143,-1.94793701171875,7.80999998028165,782,-0.199798583984375
782,8.30726197902618,-1.94854736328125,7.8199999802564,783,-0.19976806640625
783,8.31726197900093,-1.949462890625,7.82999998023115,784,-0.199798583984375
784,8.32726197897568,-1.9500732421875,7.8399999802059,785,-0.199798583984375
785,8.33726197895044,-1.95068359375,7.84999998018066,786,-0.1998291015625
786,8.34726197892519,-1.9512939453125,7.85999998015541,787,-0.199737548828125
787,8.35726197889994,-1.95220947265625,7.86999998013016,788,-0.19976806640625
788,8.36726197887469,-1.95281982421875,7.87999998010491,789,-0.19976806640625
789,8.37726197884945,-1.95343017578125,7.88999998007966,790,-0.199798583984375
790,8.3872619788242,-1.95404052734375,7.89999998005442,791,-0.19976806640625
791,8.39726197879895,-1.9549560546875,7.90999998002917,792,-0.1998291015625
792,8.4072619787737,-1.95556640625,7.91999998000392,793,-0.199798583984375
793,8.41726197874846,-1.9561767578125,7.92999997997867,794,-0.19976806640625
794,8.42726197872321,-1.956787109375,7.93999997995343,795,-0.1998291015625
795,8.43726197869796,-1.9573974609375,7.94999997992818,796,-0.199798583984375
796,8.44726197867271,-1.9580078125,7.95999997990293,797,-0.1998291015625
797,8.45726197864747,-1.9586181640625,7.96999997987768,798,-0.19976806640625
798,8.46726197862222,-1.95953369140625,7.97999997985244,799,-0.199859619140625
799,8.47726197859697,-1.96014404296875,7.98999997982719,800,-0.199798583984375
800,8.48726197857172,-1.96075439453125,7.99999997980194,801,-0.1998291015625
801,8.49726197854648,-1.96136474609375,8.00999997977669,802,-0.199859619140625
802,8.50726197852123,-1.96197509765625,8.01999997975145,803,-0.19976806640625
803,8.51726197849598,-1.96258544921875,8.0299999797262,804,-0.1998291015625
804,8.52726197847073,-1.96319580078125,8.03999997970095,805,-0.199798583984375
805,8.53726197844549,-1.96380615234375,8.0499999796757,806,-0.19976806640625
806,8.54726197842024,-1.9647216796875,8.05999997965046,807,-0.199798583984375
807,8.55726197839499,-1.96502685546875,8.06999997962521,808,-0.1998291015625
808,8.56726197836974,-1.96563720703125,8.07999997959996,809,-0.199798583984375
809,8.5772619783445,-1.96624755859375,8.08999997957471,810,-0.199798583984375
810,8.58726197831925,-1.96685791015625,8.09999997954947,811,-0.199859619140625
811,8.597261978294,-1.96746826171875,8.10999997952422,812,-0.199737548828125
812,8.60726197826875,-1.96807861328125,8.11999997949897,813,-0.199798583984375
813,8.6172619782435,-1.9683837890625,8.12999997947372,814,-0.199798583984375
814,8.62726197821826,-1.968994140625,8.13999997944848,815,-0.199798583984375
815,8.63726197819301,-1.9696044921875,8.14999997942323,816,-0.19976806640625
816,8.64726197816776,-1.96990966796875,8.15999997939798,817,-0.19976806640625
817,8.65726197814251,-1.97052001953125,8.16999997937273,818,-0.1998291015625
818,8.66726197811727,-1.9708251953125,8.17999997934749,819,-0.19976806640625
819,8.67726197809202,-1.971435546875,8.18999997932224,820,-0.19976806640625
820,8.68726197806677,-1.97174072265625,8.19999997929699,821,-0.19976806640625
821,8.69726197804152,-1.9720458984375,8.20999997927174,822,-0.19976806640625
822,8.70726197801628,-1.97265625,8.2199999792465,823,-0.199798583984375
823,8.71726197799103,-1.97296142578125,8.22999997922125,824,-0.199798583984375
824,8.72726197796578,-1.9732666015625,8.239999979196,825,-0.1998291015625
825,8.73726197794053,-1.97357177734375,8.24999997917075,826,-0.199737548828125
826,8.74726197791529,-1.97418212890625,8.2599999791455,827,-0.19976806640625
827,8.75726197789004,-1.9744873046875,8.26999997912026,828,-0.19976806640625
828,8.76726197786479,-1.97479248046875,8.27999997909501,829,-0.19976806640625
829,8.77726197783954,-1.97509765625,8.28999997906976,830,-0.199798583984375
830,8.7872619778143,-1.97540283203125,8.29999997904451,831,-0.199737548828125
831,8.79726197778905,-1.9757080078125,8.30999997901927,832,-0.19976806640625
832,8.8072619777638,-1.976318359375,8.31999997899402,833,-0.199798583984375
833,8.81726197773855,-1.97662353515625,8.32999997896877,834,-0.19976806640625
834,8.82726197771331,-1.97723388671875,8.33999997894352,835,-0.199798583984375
835,8.83726197768806,-1.9775390625,8.34999997891828,836,-0.1998291015625
836,8.84726197766281,-1.97784423828125,8.35999997889303,837,-0.199798583984375
837,8.85726197763756,-1.97845458984375,8.36999997886778,838,-0.199798583984375
838,8.86726197761232,-1.978759765625,8.37999997884253,839,-0.1998291015625
839,8.87726197758707,-1.97906494140625,8.38999997881729,840,-0.199798583984375
840,8.88726197756182,-1.9793701171875,8.39999997879204,841,-0.199798583984375
841,8.89726197753657,-1.97967529296875,8.40999997876679,842,-0.19970703125
842,8.90726197751133,-1.97998046875,8.41999997874154,843,-0.199737548828125
843,8.91726197748608,-1.98028564453125,8.4299999787163,844,-0.19976806640625
844,8.92726197746083,-1.9805908203125,8.43999997869105,845,-0.199798583984375
845,8.93726197743558,-1.98089599609375,8.4499999786658,846,-0.199798583984375
846,8.94726197741034,-1.98150634765625,8.45999997864055,847,-0.199798583984375
847,8.95726197738509,-1.9818115234375,8.46999997861531,848,-0.199798583984375
848,8.96726197735984,-1.98211669921875,8.47999997859006,849,-0.199798583984375
849,8.97726197733459,-1.982421875,8.48999997856481,850,-0.199798583984375
850,8.98726197730934,-1.98272705078125,8.49999997853956,851,-0.199798583984375
851,8.9972619772841,-1.9830322265625,8.50999997851432,852,-0.199798583984375
852,9.00726197725885,-1.98333740234375,8.51999997848907,853,-0.19976806640625
853,9.0172619772336,-1.983642578125,8.52999997846382,854,-0.199737548828125
854,9.02726197720835,-1.98394775390625,8.53999997843857,855,-0.199737548828125
855,9.03726197718311,-1.9842529296875,8.54999997841333,856,-0.1998291015625
856,9.04726197715786,-1.98455810546875,8.55999997838808,857,-0.199798583984375
857,9.05726197713261,-1.98486328125,8.56999997836283,858,-0.199798583984375
858,9.06726197710736,-1.98516845703125,8.57999997833758,859,-0.1998291015625
859,9.07726197708212,-1.9854736328125,8.58999997831233,860,-0.1998291015625
860,9.08726197705687,-1.98577880859375,8.59999997828709,861,-0.19976806640625
861,9.09726197703162,-1.986083984375,8.60999997826184,862,-0.199798583984375
862,9.10726197700637,-1.9866943359375,8.61999997823659,863,-0.19976806640625
863,9.11726197698113,-1.98699951171875,8.62999997821134,864,-0.1998291015625
864,9.12726197695588,-1.9873046875,8.6399999781861,865,-0.199798583984375
865,9.13726197693063,-1.98760986328125,8.64999997816085,866,-0.19976806640625
866,9.14726197690538,-1.9879150390625,8.6599999781356,867,-0.199798583984375
867,9.15726197688014,-1.98822021484375,8.66999997811035,868,-0.19976806640625
868,9.16726197685489,-1.98883056640625,8.67999997808511,869,-0.199798583984375
869,9.17726197682964,-1.98944091796875,8.68999997805986,870,-0.199737548828125
870,9.18726197680439,-1.99005126953125,8.69999997803461,871,-0.199798583984375
871,9.19726197677915,-1.9903564453125,8.70999997800936,872,-0.199798583984375
872,9.2072619767539,-1.99066162109375,8.71999997798412,873,-0.19976806640625
873,9.21726197672865,-1.99127197265625,8.72999997795887,874,-0.199859619140625
874,9.2272619767034,-1.9915771484375,8.73999997793362,875,-0.199798583984375
875,9.23726197667816,-1.99188232421875,8.74999997790837,876,-0.199798583984375
876,9.24726197665291,-1.9921875,8.75999997788313,877,-0.19976806640625
877,9.25726197662766,-1.99249267578125,8.76999997785788,878,-0.19976806640625
878,9.26726197660241,-1.9927978515625,8.77999997783263,879,-0.199798583984375
879,9.27726197657717,-1.99310302734375,8.78999997780738,880,-0.1998291015625
880,9.28726197655192,-1.993408203125,8.79999997778214,881,-0.199737548828125
881,9.29726197652667,-1.9940185546875,8.80999997775689,882,-0.19976806640625
882,9.30726197650142,-1.99432373046875,8.81999997773164,883,-0.199737548828125
883,9.31726197647617,-1.99493408203125,8.82999997770639,884,-0.199737548828125
884,9.32726197645093,-1.99554443359375,8.83999997768115,885,-0.19976806640625
885,9.33726197642568,-1.995849609375,8.8499999776559,886,-0.1998291015625
886,9.34726197640043,-1.99615478515625,8.85999997763065,887,-0.199798583984375
887,9.35726197637518,-1.99676513671875,8.8699999776054,888,-0.19976806640625
888,9.36726197634994,-1.9970703125,8.87999997758016,889,-0.1998291015625
889,9.37726197632469,-1.99737548828125,8.88999997755491,890,-0.19976806640625
890,9.38726197629944,-1.9976806640625,8.89999997752966,891,-0.199798583984375
891,9.39726197627419,-1.99798583984375,8.90999997750441,892,-0.19976806640625
892,9.40726197624895,-1.998291015625,8.91999997747916,893,-0.199798583984375
893,9.4172619762237,-1.99859619140625,8.92999997745392,894,-0.19976806640625
894,9.42726197619845,-1.9989013671875,8.93999997742867,895,-0.19976806640625
895,9.4372619761732,-1.99920654296875,8.94999997740342,896,-0.19976806640625
896,9.44726197614796,-1.99981689453125,8.95999997737817,897,-0.19976806640625
897,9.45726197612271,-2.00042724609375,8.96999997735293,898,-0.199737548828125
898,9.46726197609746,-2.000732421875,8.97999997732768,899,-0.199798583984375
899,9.47726197607221,-2.0013427734375,8.98999997730243,900,-0.19976806640625
900,9.48726197604697,-2.001953125,8.99999997727718,901,-0.19976806640625
901,9.49726197602172,-2.0025634765625,9.00999997725194,902,-0.19976806640625
902,9.50726197599647,-2.00286865234375,9.01999997722669,903,-0.199798583984375
903,9.51726197597122,-2.003173828125,9.02999997720144,904,-0.199798583984375
904,9.52726197594598,-2.003173828125,9.03999997717619,905,-0.19976806640625
905,9.53726197592073,-2.00347900390625,9.04999997715095,906,-0.19976806640625
906,9.54726197589548,-2.0037841796875,9.0599999771257,907,-0.19976806640625
907,9.55726197587023,-2.00408935546875,9.06999997710045,908,-0.19976806640625
908,9.56726197584499,-2.00439453125,9.0799999770752,909,-0.19976806640625
909,9.57726197581974,-2.00469970703125,9.08999997704996,910,-0.199798583984375
910,9.58726197579449,-2.0050048828125,9.09999997702471,911,-0.199798583984375
911,9.59726197576924,-2.00531005859375,9.10999997699946,912,-0.19970703125
912,9.607261975744,-2.00592041015625,9.11999997697421,913,-0.19976806640625
913,9.61726197571875,-2.00653076171875,9.12999997694897,914,-0.19976806640625
914,9.6272619756935,-2.00714111328125,9.13999997692372,915,-0.199737548828125
915,9.63726197566825,-2.0074462890625,9.14999997689847,916,-0.199798583984375
916,9.647261975643,-2.00836181640625,9.15999997687322,917,-0.199737548828125
917,9.65726197561776,-2.0086669921875,9.16999997684798,918,-0.199798583984375
918,9.66726197559251,-2.00927734375,9.17999997682273,919,-0.199798583984375
919,9.67726197556726,-2.00958251953125,9.18999997679748,920,-0.199798583984375
920,9.68726197554201,-2.0098876953125,9.19999997677223,921,-0.199798583984375
921,9.69726197551677,-2.010498046875,9.20999997674699,922,-0.199798583984375
922,9.70726197549152,-2.01080322265625,9.21999997672174,923,-0.19976806640625
923,9.71726197546627,-2.01141357421875,9.22999997669649,924,-0.19970703125
924,9.72726197544102,-2.01202392578125,9.23999997667124,925,-0.199798583984375
925,9.73726197541578,-2.0123291015625,9.249999976646,926,-0.199798583984375
926,9.74726197539053,-2.012939453125,9.25999997662075,927,-0.1998291015625
927,9.75726197536528,-2.0135498046875,9.2699999765955,928,-0.1998291015625
928,9.76726197534003,-2.01416015625,9.27999997657025,929,-0.19976806640625
929,9.77726197531479,-2.01446533203125,9.289999976545,930,-0.19976806640625
930,9.78726197528954,-2.01507568359375,9.29999997651976,931,-0.199798583984375
931,9.79726197526429,-2.01568603515625,9.30999997649451,932,-0.199798583984375
932,9.80726197523904,-2.0159912109375,9.31999997646926,933,-0.19976806640625
933,9.8172619752138,-2.0166015625,9.32999997644401,934,-0.19976806640625
934,9.82726197518855,-2.0172119140625,9.33999997641877,935,-0.199798583984375
935,9.8372619751633,-2.01751708984375,9.34999997639352,936,-0.1998291015625
936,9.84726197513805,-2.01812744140625,9.35999997636827,937,-0.199798583984375
937,9.85726197511281,-2.01873779296875,9.36999997634302,938,-0.199737548828125
938,9.86726197508756,-2.01904296875,9.37999997631778,939,-0.19976806640625
939,9.87726197506231,-2.0196533203125,9.38999997629253,940,-0.19976806640625
940,9.88726197503706,-2.020263671875,9.39999997626728,941,-0.199798583984375
941,9.89726197501182,-2.02056884765625,9.40999997624203,942,-0.199737548828125
942,9.90726197498657,-2.02117919921875,9.41999997621679,943,-0.19976806640625
943,9.91726197496132,-2.02178955078125,9.42999997619154,944,-0.19976806640625
944,9.92726197493607,-2.02239990234375,9.43999997616629,945,-0.19976806640625
945,9.93726197491083,-2.02301025390625,9.44999997614104,946,-0.199798583984375
946,9.94726197488558,-2.02362060546875,9.4599999761158,947,-0.199798583984375
947,9.95726197486033,-2.02423095703125,9.46999997609055,948,-0.199798583984375
948,9.96726197483508,-2.02484130859375,9.4799999760653,949,-0.199798583984375
949,9.97726197480984,-2.02545166015625,9.48999997604005,950,-0.199798583984375
950,9.98726197478459,-2.02606201171875,9.49999997601481,951,-0.199798583984375
951,9.99726197475934,-2.02667236328125,9.50999997598956,952,-0.19976806640625
952,10.0072619747341,-2.0269775390625,9.51999997596431,953,-0.19976806640625
953,10.0172619747088,-2.027587890625,9.52999997593906,954,-0.199798583984375
954,10.0272619746836,-2.0281982421875,9.53999997591382,955,-0.19976806640625
955,10.0372619746583,-2.02880859375,9.54999997588857,956,-0.199737548828125
956,10.0472619746331,-2.02911376953125,9.55999997586332,957,-0.199798583984375
957,10.0572619746079,-2.02972412109375,9.56999997583807,958,-0.199737548828125
958,10.0672619745826,-2.03033447265625,9.57999997581283,959,-0.19976806640625
959,10.0772619745574,-2.0306396484375,9.58999997578758,960,-0.199737548828125
960,10.0872619745321,-2.03125,9.59999997576233,961,-0.19976806640625
961,10.0972619745069,-2.0318603515625,9.60999997573708,962,-0.199737548828125
962,10.1072619744816,-2.03216552734375,9.61999997571183,963,-0.199798583984375
963,10.1172619744564,-2.03277587890625,9.62999997568659,964,-0.1998291015625
964,10.1272619744311,-2.03338623046875,9.63999997566134,965,-0.1998291015625
965,10.1372619744059,-2.03369140625,9.64999997563609,966,-0.199737548828125
966,10.1472619743806,-2.03399658203125,9.65999997561084,967,-0.1998291015625
967,10.1572619743554,-2.03460693359375,9.6699999755856,968,-0.199737548828125
968,10.1672619743301,-2.034912109375,9.67999997556035,969,-0.199798583984375
969,10.1772619743049,-2.0355224609375,9.6899999755351,970,-0.19970703125
970,10.1872619742796,-2.0361328125,9.69999997550985,971,-0.199798583984375
971,10.1972619742544,-2.0367431640625,9.70999997548461,972,-0.199737548828125
972,10.2072619742291,-2.03704833984375,9.71999997545936,973,-0.199737548828125
973,10.2172619742039,-2.03765869140625,9.72999997543411,974,-0.19976806640625
974,10.2272619741786,-2.0379638671875,9.73999997540886,975,-0.19976806640625
975,10.2372619741534,-2.03857421875,9.74999997538362,976,-0.19976806640625
976,10.2472619741282,-2.0391845703125,9.75999997535837,977,-0.1998291015625
977,10.2572619741029,-2.03948974609375,9.76999997533312,978,-0.1998291015625
978,10.2672619740777,-2.04010009765625,9.77999997530787,979,-0.19976806640625
979,10.2772619740524,-2.0404052734375,9.78999997528263,980,-0.1998291015625
980,10.2872619740272,-2.041015625,9.79999997525738,981,-0.199798583984375
981,10.2972619740019,-2.04132080078125,9.80999997523213,982,-0.199737548828125
982,10.3072619739767,-2.04193115234375,9.81999997520688,983,-0.1998291015625
983,10.3172619739514,-2.04254150390625,9.82999997518164,984,-0.19976806640625
984,10.3272619739262,-2.04315185546875,9.83999997515639,985,-0.199798583984375
985,10.3372619739009,-2.04376220703125,9.84999997513114,986,-0.199798583984375
986,10.3472619738757,-2.04437255859375,9.85999997510589,987,-0.19976806640625
987,10.3572619738504,-2.04498291015625,9.86999997508065,988,-0.19976806640625
988,10.3672619738252,-2.04559326171875,9.8799999750554,989,-0.19976806640625
989,10.3772619737999,-2.04620361328125,9.88999997503015,990,-0.19976806640625
990,10.3872619737747,-2.04681396484375,9.8999999750049,991,-0.199798583984375
991,10.3972619737494,-2.04742431640625,9.90999997497966,992,-0.199737548828125
992,10.4072619737242,-2.0477294921875,9.91999997495441,993,-0.19976806640625
993,10.4172619736989,-2.04864501953125,9.92999997492916,994,-0.199798583984375
994,10.4272619736737,-2.0513916015625,9.93999997490391,995,-0.19976806640625
995,10.4372619736484,-2.0538330078125,9.94999997487866,996,-0.1998291015625
996,10.4472619736232,-2.0556640625,9.95999997485342,997,-0.199798583984375
997,10.457261973598,-2.05718994140625,9.96999997482817,998,-0.199676513671875
998,10.4672619735727,-2.0587158203125,9.97999997480292,999,-0.199737548828125
999,10.4772619735475,-2.0599365234375,9.98999997477767,1000,-0.199798583984375
