,Potential applied / V,Time / s,WE(1).Current / A,WE(1).Potential / V,Scan,Index
0,0.007171630859375,45.9683298839411,0.030279541015625,0.00731201171875,4,1681
1,0.01434326171875,45.9922348838808,0.031011962890625,0.0144744873046875,4,1682
2,0.021514892578125,46.0161398838204,0.031683349609375,0.0216461181640625,4,1683
3,0.0286865234375,46.0400448837601,0.0323150634765625,0.0287994384765625,4,1684
4,0.035858154296875,46.0639498836997,0.0328033447265625,0.035968017578125,4,1685
5,0.04302978515625,46.0878548836394,0.03310546875,0.0431488037109375,4,1686
6,0.050201416015625,46.111759883579,0.0333526611328125,0.05029296875,4,1687
7,0.057373046875,46.1356648835186,0.0334808349609375,0.057403564453125,4,1688
8,0.064544677734375,46.1595698834583,0.0335784912109375,0.06463623046875,4,1689
9,0.07171630859375,46.1834748833979,0.0335296630859375,0.071807861328125,4,1690
10,0.078887939453125,46.2073798833376,0.033599853515625,0.07891845703125,4,1691
11,0.0860595703125,46.2312848832772,0.0333984375,0.086151123046875,4,1692
12,0.093231201171875,46.2551898832169,0.0333404541015625,0.09326171875,4,1693
13,0.10040283203125,46.2790948831565,0.0329925537109375,0.100494384765625,4,1694
14,0.107574462890625,46.3029998830962,0.03272705078125,0.107666015625,4,1695
15,0.11474609375,46.3269048830358,0.0324249267578125,0.11480712890625,4,1696
16,0.121917724609375,46.3508098829755,0.03197021484375,0.1219482421875,4,1697
17,0.12908935546875,46.3747148829151,0.0315826416015625,0.129150390625,4,1698
18,0.136260986328125,46.3986198828547,0.0311431884765625,0.13629150390625,4,1699
19,0.1434326171875,46.4225248827944,0.0307159423828125,0.14349365234375,4,1700
20,0.150604248046875,46.446429882734,0.0302734375,0.150604248046875,4,1701
21,0.15777587890625,46.4703348826737,0.029803466796875,0.15777587890625,4,1702
22,0.164947509765625,46.4942398826133,0.0293304443359375,0.164947509765625,4,1703
23,0.172119140625,46.518144882553,0.028875732421875,0.172119140625,4,1704
24,0.179290771484375,46.5420498824926,0.0283935546875,0.179290771484375,4,1705
25,0.18646240234375,46.5659548824323,0.0279083251953125,0.18646240234375,4,1706
26,0.193634033203125,46.5898598823719,0.0274627685546875,0.193634033203125,4,1707
27,0.2008056640625,46.6137648823116,0.0270050048828125,0.200775146484375,4,1708
28,0.207977294921875,46.6376698822512,0.0265533447265625,0.2080078125,4,1709
29,0.21514892578125,46.6615748821908,0.02611083984375,0.215118408203125,4,1710
30,0.222320556640625,46.6854798821305,0.0256805419921875,0.222320556640625,4,1711
31,0.2294921875,46.7093848820701,0.02525634765625,0.229461669921875,4,1712
32,0.236663818359375,46.7332898820098,0.024835205078125,0.23663330078125,4,1713
33,0.24383544921875,46.7571948819494,0.0244415283203125,0.24383544921875,4,1714
34,0.251007080078125,46.7810998818891,0.0240478515625,0.251007080078125,4,1715
35,0.2581787109375,46.8050048818287,0.023675537109375,0.25811767578125,4,1716
36,0.265350341796875,46.8289098817684,0.023309326171875,0.26531982421875,4,1717
37,0.27252197265625,46.852814881708,0.02294921875,0.2724609375,4,1718
38,0.279693603515625,46.8767198816477,0.0225921630859375,0.279632568359375,4,1719
39,0.286865234375,46.9006248815873,0.0222412109375,0.28680419921875,4,1720
40,0.294036865234375,46.924529881527,0.0219146728515625,0.293975830078125,4,1721
41,0.30120849609375,46.9484348814666,0.021600341796875,0.301116943359375,4,1722
42,0.308380126953125,46.9723398814062,0.0212921142578125,0.308319091796875,4,1723
43,0.3155517578125,46.9962448813459,0.020989990234375,0.31549072265625,4,1724
44,0.322723388671875,47.0201498812855,0.0206787109375,0.322662353515625,4,1725
45,0.32989501953125,47.0440548812252,0.0203887939453125,0.329833984375,4,1726
46,0.337066650390625,47.0679598811648,0.02010498046875,0.336944580078125,4,1727
47,0.34423828125,47.0918648811045,0.0198394775390625,0.344146728515625,4,1728
48,0.351409912109375,47.1157698810441,0.0195556640625,0.351318359375,4,1729
49,0.35858154296875,47.1396748809838,0.0192901611328125,0.358489990234375,4,1730
50,0.365753173828125,47.1635798809234,0.019036865234375,0.365692138671875,4,1731
51,0.3729248046875,47.1874848808631,0.018804931640625,0.372833251953125,4,1732
52,0.380096435546875,47.2113898808027,0.018585205078125,0.380035400390625,4,1733
53,0.38726806640625,47.2352948807423,0.0183746337890625,0.38720703125,4,1734
54,0.394439697265625,47.259199880682,0.01817626953125,0.39434814453125,4,1735
55,0.401611328125,47.2831048806216,0.0179443359375,0.401580810546875,4,1736
56,0.408782958984375,47.3070098805613,0.0177825927734375,0.408660888671875,4,1737
57,0.41595458984375,47.3309148805009,0.0176177978515625,0.415863037109375,4,1738
58,0.423126220703125,47.3548198804406,0.017242431640625,0.4229736328125,4,1739
59,0.4302978515625,47.3787248803802,0.0164031982421875,0.43023681640625,4,1740
60,0.437469482421875,47.4026298803199,0.016094970703125,0.43731689453125,4,1741
61,0.44464111328125,47.4265348802595,0.0159210205078125,0.44451904296875,4,1742
62,0.451812744140625,47.4504398801992,0.0158203125,0.451629638671875,4,1743
63,0.458984375,47.4743448801388,0.015765380859375,0.4588623046875,4,1744
64,0.466156005859375,47.4982498800784,0.015728759765625,0.46600341796875,4,1745
65,0.47332763671875,47.5221548800181,0.01572265625,0.473175048828125,4,1746
66,0.480499267578125,47.5460598799577,0.0157379150390625,0.480377197265625,4,1747
67,0.4876708984375,47.5699648798974,0.0157684326171875,0.487457275390625,4,1748
68,0.494842529296875,47.593869879837,0.015826416015625,0.494659423828125,4,1749
69,0.50201416015625,47.6177748797767,0.01590576171875,0.501861572265625,4,1750
70,0.494842529296875,47.6416798797163,0.0153656005859375,0.494659423828125,4,1751
71,0.4876708984375,47.665584879656,0.0148895263671875,0.487548828125,4,1752
72,0.480499267578125,47.6894898795956,0.0144805908203125,0.480377197265625,4,1753
73,0.47332763671875,47.7133948795353,0.014105224609375,0.47314453125,4,1754
74,0.466156005859375,47.7372998794749,0.01375732421875,0.466064453125,4,1755
75,0.458984375,47.7612048794145,0.013427734375,0.45880126953125,4,1756
76,0.451812744140625,47.7851098793542,0.0131195068359375,0.451690673828125,4,1757
77,0.44464111328125,47.8090148792938,0.012835693359375,0.44451904296875,4,1758
78,0.437469482421875,47.8329198792335,0.01256103515625,0.4373779296875,4,1759
79,0.4302978515625,47.8568248791731,0.0123016357421875,0.430145263671875,4,1760
80,0.423126220703125,47.8807298791128,0.01204833984375,0.423004150390625,4,1761
81,0.41595458984375,47.9046348790524,0.011810302734375,0.415802001953125,4,1762
82,0.408782958984375,47.9285398789921,0.011590576171875,0.40863037109375,4,1763
83,0.401611328125,47.9524448789317,0.011370849609375,0.401519775390625,4,1764
84,0.394439697265625,47.9763498788714,0.01116943359375,0.394317626953125,4,1765
85,0.38726806640625,48.000254878811,0.0109619140625,0.38714599609375,4,1766
86,0.380096435546875,48.0241598787507,0.0107696533203125,0.380035400390625,4,1767
87,0.3729248046875,48.0480648786903,0.0105804443359375,0.37286376953125,4,1768
88,0.365753173828125,48.0719698786299,0.010406494140625,0.365631103515625,4,1769
89,0.35858154296875,48.0958748785696,0.0102264404296875,0.3585205078125,4,1770
90,0.351409912109375,48.1197798785092,0.010052490234375,0.351348876953125,4,1771
91,0.34423828125,48.1436848784489,0.0098876953125,0.344146728515625,4,1772
92,0.337066650390625,48.1675898783885,0.00971069335937499,0.337005615234375,4,1773
93,0.32989501953125,48.1914948783282,0.0095489501953125,0.329833984375,4,1774
94,0.322723388671875,48.2153998782678,0.00937805175781251,0.32269287109375,4,1775
95,0.3155517578125,48.2393048782075,0.00922546386718751,0.3155517578125,4,1776
96,0.308380126953125,48.2632098781471,0.00905761718750001,0.30828857421875,4,1777
97,0.30120849609375,48.2871148780868,0.008892822265625,0.301177978515625,4,1778
98,0.294036865234375,48.3110198780264,0.0087249755859375,0.29400634765625,4,1779
99,0.286865234375,48.334924877966,0.00855407714843751,0.28680419921875,4,1780
100,0.279693603515625,48.3588298779057,0.00838623046875001,0.279632568359375,4,1781
101,0.27252197265625,48.3827348778453,0.00820312500000001,0.27239990234375,4,1782
102,0.265350341796875,48.406639877785,0.00802001953125001,0.265289306640625,4,1783
103,0.2581787109375,48.4305448777246,0.00782165527343751,0.258148193359375,4,1784
104,0.251007080078125,48.4544498776643,0.0076141357421875,0.2509765625,4,1785
105,0.24383544921875,48.4783548776039,0.00740966796875001,0.243804931640625,4,1786
106,0.236663818359375,48.5022598775436,0.007183837890625,0.236663818359375,4,1787
107,0.2294921875,48.5261648774832,0.00694885253906249,0.229461669921875,4,1788
108,0.222320556640625,48.5500698774229,0.00670166015625,0.2222900390625,4,1789
109,0.21514892578125,48.5739748773625,0.0064361572265625,0.215057373046875,4,1790
110,0.207977294921875,48.5978798773021,0.0061492919921875,0.20794677734375,4,1791
111,0.2008056640625,48.6217848772418,0.0058441162109375,0.2008056640625,4,1792
112,0.193634033203125,48.6456898771814,0.00551757812500001,0.193603515625,4,1793
113,0.18646240234375,48.6695948771211,0.0051544189453125,0.186431884765625,4,1794
114,0.179290771484375,48.6934998770607,0.0047760009765625,0.179290771484375,4,1795
115,0.172119140625,48.7174048770004,0.0043609619140625,0.172119140625,4,1796
116,0.164947509765625,48.74130987694,0.0039215087890625,0.164947509765625,4,1797
117,0.15777587890625,48.7652148768797,0.0034454345703125,0.15777587890625,4,1798
118,0.150604248046875,48.7891198768193,0.0029449462890625,0.150634765625,4,1799
119,0.1434326171875,48.813024876759,0.00238952636718751,0.14349365234375,4,1800
120,0.136260986328125,48.8369298766986,0.0018035888671875,0.136260986328125,4,1801
121,0.12908935546875,48.8608348766383,0.00115051269531249,0.129150390625,4,1802
122,0.121917724609375,48.8847398765779,0.000476074218749997,0.1219482421875,4,1803
123,0.11474609375,48.9086448765175,-0.000271606445312503,0.114776611328125,4,1804
124,0.107574462890625,48.9325498764572,-0.0010498046875,0.107635498046875,4,1805
125,0.10040283203125,48.9564548763968,-0.00186767578124999,0.10040283203125,4,1806
126,0.093231201171875,48.9803598763365,-0.0027496337890625,0.093231201171875,4,1807
127,0.0860595703125,49.0042648762761,-0.00366821289062499,0.08612060546875,4,1808
128,0.078887939453125,49.0281698762158,-0.004638671875,0.07891845703125,4,1809
129,0.07171630859375,49.0520748761554,-0.0056488037109375,0.071807861328125,4,1810
130,0.064544677734375,49.0759798760951,-0.00669250488281251,0.064605712890625,4,1811
131,0.057373046875,49.0998848760347,-0.00780029296875,0.057403564453125,4,1812
132,0.050201416015625,49.1237898759744,-0.0088958740234375,0.05029296875,4,1813
133,0.04302978515625,49.147694875914,-0.0100830078125,0.04312744140625,4,1814
134,0.035858154296875,49.1715998758536,-0.011163330078125,0.0359283447265625,4,1815
135,0.0286865234375,49.1955048757933,-0.0124298095703125,0.028802490234375,4,1816
136,0.021514892578125,49.2194098757329,-0.01353759765625,0.021612548828125,4,1817
137,0.01434326171875,49.2433148756726,-0.0146942138671875,0.0144500732421875,4,1818
138,0.007171630859375,49.2672198756122,-0.015863037109375,0.00726928710937499,4,1819
139,0.0,49.2911248755519,-0.016973876953125,8.85009765625028e-05,4,1820
140,-0.007171630859375,49.3150298754915,-0.018035888671875,-0.00704345703125001,4,1821
141,-0.01434326171875,49.3389348754312,-0.0190521240234375,-0.0142303466796875,4,1822
142,-0.021514892578125,49.3628398753708,-0.0200164794921875,-0.02139892578125,4,1823
143,-0.0286865234375,49.3867448753105,-0.0209014892578125,-0.0285491943359375,4,1824
144,-0.035858154296875,49.4106498752501,-0.0217132568359375,-0.0357330322265625,4,1825
145,-0.04302978515625,49.4345548751897,-0.0224578857421875,-0.0429046630859375,4,1826
146,-0.050201416015625,49.4584598751294,-0.023114013671875,-0.05010986328125,4,1827
147,-0.057373046875,49.482364875069,-0.02369384765625,-0.05731201171875,4,1828
148,-0.064544677734375,49.5062698750087,-0.0241607666015625,-0.064453125,4,1829
149,-0.07171630859375,49.5301748749483,-0.02457275390625,-0.071563720703125,4,1830
150,-0.078887939453125,49.554079874888,-0.0248931884765625,-0.078765869140625,4,1831
151,-0.0860595703125,49.5779848748276,-0.0251312255859375,-0.0859375,4,1832
152,-0.093231201171875,49.6018898747673,-0.02529296875,-0.093109130859375,4,1833
153,-0.10040283203125,49.6257948747069,-0.0253692626953125,-0.100250244140625,4,1834
154,-0.107574462890625,49.6496998746466,-0.025408935546875,-0.10748291015625,4,1835
155,-0.11474609375,49.6736048745862,-0.02535400390625,-0.1146240234375,4,1836
156,-0.121917724609375,49.6975098745258,-0.02528076171875,-0.12176513671875,4,1837
157,-0.12908935546875,49.7214148744655,-0.0251220703125,-0.128997802734375,4,1838
158,-0.136260986328125,49.7453198744051,-0.0249359130859375,-0.136077880859375,4,1839
159,-0.1434326171875,49.7692248743448,-0.0247039794921875,-0.143341064453125,4,1840
160,-0.150604248046875,49.7931298742844,-0.024444580078125,-0.15045166015625,4,1841
161,-0.15777587890625,49.8170348742241,-0.0241668701171875,-0.157684326171875,4,1842
162,-0.164947509765625,49.8409398741637,-0.023858642578125,-0.164825439453125,4,1843
163,-0.172119140625,49.8648448741034,-0.02354736328125,-0.17193603515625,4,1844
164,-0.179290771484375,49.888749874043,-0.0232330322265625,-0.17919921875,4,1845
165,-0.18646240234375,49.9126548739827,-0.0229339599609375,-0.18634033203125,4,1846
166,-0.193634033203125,49.9365598739223,-0.0226348876953125,-0.193511962890625,4,1847
167,-0.2008056640625,49.960464873862,-0.02237548828125,-0.20068359375,4,1848
168,-0.207977294921875,49.9843698738016,-0.0220947265625,-0.20782470703125,4,1849
169,-0.21514892578125,50.0082748737412,-0.02178955078125,-0.214996337890625,4,1850
170,-0.222320556640625,50.0321798736809,-0.0215576171875,-0.22210693359375,4,1851
171,-0.2294921875,50.0560848736205,-0.021575927734375,-0.229339599609375,4,1852
172,-0.236663818359375,50.0799898735602,-0.0217620849609375,-0.23651123046875,4,1853
173,-0.24383544921875,50.1038948734998,-0.0216705322265625,-0.24365234375,4,1854
174,-0.251007080078125,50.1277998734395,-0.02125244140625,-0.250823974609375,4,1855
175,-0.2581787109375,50.1517048733791,-0.0207977294921875,-0.258056640625,4,1856
176,-0.265350341796875,50.1756098733188,-0.0204193115234375,-0.265228271484375,4,1857
177,-0.27252197265625,50.1995148732584,-0.0201141357421875,-0.2723388671875,4,1858
178,-0.279693603515625,50.2234198731981,-0.019854736328125,-0.27947998046875,4,1859
179,-0.286865234375,50.2473248731377,-0.019659423828125,-0.286712646484375,4,1860
180,-0.294036865234375,50.2712298730773,-0.0194610595703125,-0.2939453125,4,1861
181,-0.30120849609375,50.295134873017,-0.0193023681640625,-0.301025390625,4,1862
182,-0.308380126953125,50.3190398729566,-0.01917724609375,-0.3082275390625,4,1863
183,-0.3155517578125,50.3429448728963,-0.0191009521484375,-0.31536865234375,4,1864
184,-0.322723388671875,50.3668498728359,-0.019061279296875,-0.322540283203125,4,1865
185,-0.32989501953125,50.3907548727756,-0.0190643310546875,-0.329742431640625,4,1866
186,-0.337066650390625,50.4146598727152,-0.0190704345703125,-0.3369140625,4,1867
187,-0.34423828125,50.4385648726549,-0.019097900390625,-0.344024658203125,4,1868
188,-0.351409912109375,50.4624698725945,-0.0191131591796875,-0.35125732421875,4,1869
189,-0.35858154296875,50.4863748725342,-0.0191619873046875,-0.3583984375,4,1870
190,-0.365753173828125,50.5102798724738,-0.0191650390625,-0.3656005859375,4,1871
191,-0.3729248046875,50.5341848724134,-0.0191558837890625,-0.372772216796875,4,1872
192,-0.380096435546875,50.5580898723531,-0.01907958984375,-0.37994384765625,4,1873
193,-0.38726806640625,50.5819948722927,-0.0189727783203125,-0.38714599609375,4,1874
194,-0.394439697265625,50.6058998722324,-0.018817138671875,-0.394256591796875,4,1875
195,-0.401611328125,50.629804872172,-0.01861572265625,-0.401397705078125,4,1876
196,-0.408782958984375,50.6537098721117,-0.01839599609375,-0.4085693359375,4,1877
197,-0.41595458984375,50.6776148720513,-0.018170166015625,-0.415802001953125,4,1878
198,-0.423126220703125,50.701519871991,-0.0179595947265625,-0.422943115234375,4,1879
199,-0.4302978515625,50.7254248719306,-0.0178009033203125,-0.43011474609375,4,1880
200,-0.437469482421875,50.7493298718703,-0.017633056640625,-0.437286376953125,4,1881
201,-0.44464111328125,50.7732348718099,-0.01744384765625,-0.4444580078125,4,1882
202,-0.451812744140625,50.7971398717496,-0.0172760009765625,-0.45166015625,4,1883
203,-0.458984375,50.8210448716892,-0.017108154296875,-0.458770751953125,4,1884
204,-0.466156005859375,50.8449498716288,-0.0169769287109375,-0.46600341796875,4,1885
205,-0.47332763671875,50.8688548715685,-0.016900634765625,-0.473175048828125,4,1886
206,-0.480499267578125,50.8927598715081,-0.0188690185546875,-0.480316162109375,4,1887
207,-0.4876708984375,50.9166648714478,-0.0264068603515625,-0.48748779296875,4,1888
208,-0.494842529296875,50.9405698713874,-0.0282440185546875,-0.494598388671875,4,1889
209,-0.50201416015625,50.9644748713271,-0.0286285400390625,-0.5018310546875,4,1890
210,-0.509185791015625,50.9883798712667,-0.028863525390625,-0.509063720703125,4,1891
211,-0.516357421875,51.0122848712064,-0.02833251953125,-0.516204833984375,4,1892
212,-0.523529052734375,51.036189871146,-0.0278839111328125,-0.523284912109375,4,1893
213,-0.53070068359375,51.0600948710857,-0.0274139404296875,-0.530517578125,4,1894
214,-0.537872314453125,51.0839998710253,-0.0268218994140625,-0.5377197265625,4,1895
215,-0.5450439453125,51.1079048709649,-0.0263275146484375,-0.54486083984375,4,1896
216,-0.552215576171875,51.1318098709046,-0.025762939453125,-0.5521240234375,4,1897
217,-0.55938720703125,51.1557148708442,-0.0251678466796875,-0.559173583984375,4,1898
218,-0.566558837890625,51.1796198707839,-0.0249603271484375,-0.56634521484375,4,1899
219,-0.57373046875,51.2035248707235,-0.0253509521484375,-0.573516845703125,4,1900
220,-0.580902099609375,51.2274298706632,-0.0244476318359375,-0.5806884765625,4,1901
221,-0.58807373046875,51.2513348706028,-0.02381591796875,-0.587860107421875,4,1902
222,-0.595245361328125,51.2752398705425,-0.0232696533203125,-0.595062255859375,4,1903
223,-0.6024169921875,51.2991448704821,-0.022784423828125,-0.60223388671875,4,1904
224,-0.609588623046875,51.3230498704218,-0.022393798828125,-0.609405517578125,4,1905
225,-0.61676025390625,51.3469548703614,-0.02210693359375,-0.616546630859375,4,1906
226,-0.623931884765625,51.370859870301,-0.0216827392578125,-0.623687744140625,4,1907
227,-0.631103515625,51.3947648702407,-0.0215240478515625,-0.630828857421875,4,1908
228,-0.638275146484375,51.4186698701803,-0.0209991455078125,-0.6380615234375,4,1909
229,-0.64544677734375,51.44257487012,-0.020574951171875,-0.645233154296875,4,1910
230,-0.652618408203125,51.4664798700596,-0.0202239990234375,-0.652374267578125,4,1911
231,-0.6597900390625,51.4903848699993,-0.0198760986328125,-0.659576416015625,4,1912
232,-0.666961669921875,51.5142898699389,-0.01964111328125,-0.666717529296875,4,1913
233,-0.67413330078125,51.5381948698786,-0.0193450927734375,-0.67388916015625,4,1914
234,-0.681304931640625,51.5620998698182,-0.019061279296875,-0.681060791015625,4,1915
235,-0.6884765625,51.5860048697579,-0.018798828125,-0.688232421875,4,1916
236,-0.695648193359375,51.6099098696975,-0.01856689453125,-0.6954345703125,4,1917
237,-0.70281982421875,51.6338148696371,-0.0183441162109375,-0.70257568359375,4,1918
238,-0.709991455078125,51.6577198695768,-0.018133544921875,-0.709747314453125,4,1919
239,-0.7171630859375,51.6816248695164,-0.0179443359375,-0.716888427734375,4,1920
240,-0.724334716796875,51.7055298694561,-0.01776123046875,-0.724090576171875,4,1921
241,-0.73150634765625,51.7294348693957,-0.01759033203125,-0.731292724609375,4,1922
242,-0.738677978515625,51.7533398693354,-0.017431640625,-0.738372802734375,4,1923
243,-0.745849609375,51.777244869275,-0.01728515625,-0.745574951171875,4,1924
244,-0.753021240234375,51.8011498692147,-0.01715087890625,-0.753173828125,4,1925
245,-0.76019287109375,51.8250548691543,-0.017010498046875,-0.76019287109375,4,1926
246,-0.767364501953125,51.848959869094,-0.016900634765625,-0.7672119140625,4,1927
247,-0.7745361328125,51.8728648690336,-0.0167816162109375,-0.77392578125,4,1928
248,-0.781707763671875,51.8967698689733,-0.016668701171875,-0.78125,4,1929
249,-0.78887939453125,51.9206748689129,-0.0165679931640625,-0.78857421875,4,1930
250,-0.796051025390625,51.9445798688525,-0.0164581298828125,-0.79559326171875,4,1931
251,-0.80322265625,51.9684848687922,-0.016363525390625,-0.8026123046875,4,1932
252,-0.810394287109375,51.9923898687318,-0.0162689208984375,-0.80963134765625,4,1933
253,-0.81756591796875,52.0162948686715,-0.0161865234375,-0.81695556640625,4,1934
254,-0.824737548828125,52.0401998686111,-0.016094970703125,-0.823974609375,4,1935
255,-0.8319091796875,52.0641048685508,-0.0160186767578125,-0.831298828125,4,1936
256,-0.839080810546875,52.0880098684904,-0.0159454345703125,-0.83831787109375,4,1937
257,-0.84625244140625,52.1119148684301,-0.015869140625,-0.845947265625,4,1938
258,-0.853424072265625,52.1358198683697,-0.01580810546875,-0.8526611328125,4,1939
259,-0.860595703125,52.1597248683094,-0.015740966796875,-0.85968017578125,4,1940
260,-0.867767333984375,52.183629868249,-0.0156890869140625,-0.8673095703125,4,1941
261,-0.87493896484375,52.2075348681886,-0.015618896484375,-0.87432861328125,4,1942
262,-0.882110595703125,52.2314398681283,-0.0155609130859375,-0.88134765625,4,1943
263,-0.8892822265625,52.2553448680679,-0.015496826171875,-0.88836669921875,4,1944
264,-0.896453857421875,52.2792498680076,-0.0154388427734375,-0.89630126953125,4,1945
265,-0.90362548828125,52.3031548679472,-0.015374755859375,-0.90301513671875,4,1946
266,-0.910797119140625,52.3270598678869,-0.0153106689453125,-0.9100341796875,4,1947
267,-0.91796875,52.3509648678265,-0.0152496337890625,-0.91766357421875,4,1948
268,-0.925140380859375,52.3748698677662,-0.0151824951171875,-0.9246826171875,4,1949
269,-0.93231201171875,52.3987748677058,-0.01512451171875,-0.93170166015625,4,1950
270,-0.939483642578125,52.4226798676455,-0.015057373046875,-0.93902587890625,4,1951
271,-0.9466552734375,52.4465848675851,-0.014996337890625,-0.94635009765625,4,1952
272,-0.953826904296875,52.4704898675247,-0.0149444580078125,-0.953369140625,4,1953
273,-0.96099853515625,52.4943948674644,-0.014892578125,-0.9600830078125,4,1954
274,-0.968170166015625,52.518299867404,-0.0148529052734375,-0.96710205078125,4,1955
275,-0.975341796875,52.5422048673437,-0.0148284912109375,-0.9747314453125,4,1956
276,-0.982513427734375,52.5661098672833,-0.01480712890625,-0.98175048828125,4,1957
277,-0.98968505859375,52.590014867223,-0.0147857666015625,-0.9893798828125,4,1958
278,-0.996856689453125,52.6139198671626,-0.014788818359375,-0.99639892578125,4,1959
279,-1.0040283203125,52.6378248671023,-0.0147918701171875,-1.0040283203125,4,1960
280,-1.01119995117188,52.6617298670419,-0.01480712890625,-1.01043701171875,4,1961
281,-1.01837158203125,52.6856348669816,-0.014825439453125,-1.01776123046875,4,1962
282,-1.02554321289063,52.7095398669212,-0.0148590087890625,-1.02508544921875,4,1963
283,-1.03271484375,52.7334448668609,-0.0149200439453125,-1.03271484375,4,1964
284,-1.03988647460938,52.7573498668005,-0.0149871826171875,-1.0394287109375,4,1965
285,-1.04705810546875,52.7812548667401,-0.015087890625,-1.04705810546875,4,1966
286,-1.05422973632813,52.8051598666798,-0.0152008056640625,-1.05377197265625,4,1967
287,-1.0614013671875,52.8290648666194,-0.0153564453125,-1.06048583984375,4,1968
288,-1.06857299804688,52.8529698665591,-0.01556396484375,-1.06781005859375,4,1969
289,-1.07574462890625,52.8768748664987,-0.0158294677734375,-1.07574462890625,4,1970
290,-1.08291625976563,52.9007798664384,-0.0166748046875,-1.0821533203125,4,1971
291,-1.090087890625,52.924684866378,-0.060943603515625,-1.08917236328125,4,1972
292,-1.09725952148438,52.9485898663177,-0.0982666015625,-1.09619140625,4,1973
293,-1.10443115234375,52.9724948662573,-0.114044189453125,-1.10382080078125,4,1974
294,-1.11160278320313,52.996399866197,-0.123016357421875,-1.11083984375,4,1975
295,-1.1187744140625,53.0203048661366,-0.12646484375,-1.11785888671875,4,1976
296,-1.12594604492188,53.0442098660762,-0.12744140625,-1.12518310546875,4,1977
297,-1.13311767578125,53.0681148660159,-0.126922607421875,-1.1328125,4,1978
298,-1.14028930664063,53.0920198659555,-0.125518798828125,-1.1395263671875,4,1979
299,-1.1474609375,53.1159248658952,-0.122802734375,-1.1468505859375,4,1980
300,-1.15463256835938,53.1398298658348,-0.1192626953125,-1.15478515625,4,1981
301,-1.16180419921875,53.1637348657745,-0.115325927734375,-1.1614990234375,4,1982
302,-1.16897583007813,53.1876398657141,-0.11138916015625,-1.168212890625,4,1983
303,-1.1761474609375,53.2115448656538,-0.108062744140625,-1.1749267578125,4,1984
304,-1.18331909179688,53.2354498655934,-0.104888916015625,-1.182861328125,4,1985
305,-1.19049072265625,53.2593548655331,-0.101959228515625,-1.190185546875,4,1986
306,-1.19766235351563,53.2832598654727,-0.099395751953125,-1.19720458984375,4,1987
307,-1.204833984375,53.3071648654123,-0.096649169921875,-1.2042236328125,4,1988
308,-1.21200561523438,53.331069865352,-0.094146728515625,-1.2115478515625,4,1989
309,-1.21917724609375,53.3549748652916,-0.09161376953125,-1.2188720703125,4,1990
310,-1.22634887695313,53.3788798652313,-0.0892333984375,-1.2261962890625,4,1991
311,-1.2335205078125,53.4027848651709,-0.0869140625,-1.23291015625,4,1992
312,-1.24069213867188,53.4266898651106,-0.084747314453125,-1.240234375,4,1993
313,-1.24786376953125,53.4505948650502,-0.082672119140625,-1.24725341796875,4,1994
314,-1.25503540039063,53.4744998649899,-0.08074951171875,-1.2548828125,4,1995
315,-1.26220703125,53.4984048649295,-0.078948974609375,-1.26190185546875,4,1996
316,-1.26937866210938,53.5223098648692,-0.0772705078125,-1.26922607421875,4,1997
317,-1.27655029296875,53.5462148648088,-0.075653076171875,-1.27593994140625,4,1998
318,-1.28372192382813,53.5701198647484,-0.0740966796875,-1.28326416015625,4,1999
319,-1.2908935546875,53.5940248646881,-0.0726318359375,-1.290283203125,4,2000
320,-1.29806518554688,53.6179298646277,-0.0712890625,-1.297607421875,4,2001
321,-1.30523681640625,53.6418348645674,-0.07000732421875,-1.30462646484375,4,2002
322,-1.31240844726563,53.665739864507,-0.068817138671875,-1.312255859375,4,2003
323,-1.319580078125,53.6896448644467,-0.067657470703125,-1.31927490234375,4,2004
324,-1.32675170898438,53.7135498643863,-0.06658935546875,-1.3262939453125,4,2005
325,-1.33392333984375,53.737454864326,-0.0655517578125,-1.3330078125,4,2006
326,-1.34109497070313,53.7613598642656,-0.064544677734375,-1.34063720703125,4,2007
327,-1.3482666015625,53.7852648642053,-0.063568115234375,-1.34765625,4,2008
328,-1.35543823242188,53.8091698641449,-0.06268310546875,-1.35498046875,4,2009
329,-1.36260986328125,53.8330748640846,-0.06182861328125,-1.36199951171875,4,2010
330,-1.36978149414063,53.8569798640242,-0.061065673828125,-1.36932373046875,4,2011
331,-1.376953125,53.8808848639638,-0.060272216796875,-1.37664794921875,4,2012
332,-1.38412475585938,53.9047898639035,-0.059539794921875,-1.383056640625,4,2013
333,-1.39129638671875,53.9286948638431,-0.058807373046875,-1.39129638671875,4,2014
334,-1.39846801757813,53.9525998637828,-0.058135986328125,-1.39801025390625,4,2015
335,-1.4056396484375,53.9765048637224,-0.0574951171875,-1.4056396484375,4,2016
336,-1.41281127929688,54.0004098636621,-0.056884765625,-1.41265869140625,4,2017
337,-1.41998291015625,54.0243148636017,-0.0562744140625,-1.41937255859375,4,2018
338,-1.42715454101563,54.0482198635414,-0.05572509765625,-1.42669677734375,4,2019
339,-1.434326171875,54.072124863481,-0.05517578125,-1.43402099609375,4,2020
340,-1.44149780273438,54.0960298634207,-0.05462646484375,-1.4410400390625,4,2021
341,-1.44866943359375,54.1199348633603,-0.054107666015625,-1.44866943359375,4,2022
342,-1.45584106445313,54.1438398632999,-0.053619384765625,-1.45538330078125,4,2023
343,-1.4630126953125,54.1677448632396,-0.053131103515625,-1.46209716796875,4,2024
344,-1.47018432617188,54.1916498631792,-0.05267333984375,-1.4697265625,4,2025
345,-1.47735595703125,54.2155548631189,-0.052215576171875,-1.47705078125,4,2026
346,-1.48452758789063,54.2394598630585,-0.051788330078125,-1.484375,4,2027
347,-1.49169921875,54.2633648629982,-0.0513916015625,-1.49139404296875,4,2028
348,-1.49887084960938,54.2872698629378,-0.050994873046875,-1.4984130859375,4,2029
349,-1.50604248046875,54.3111748628775,-0.05059814453125,-1.50543212890625,4,2030
350,-1.49887084960938,54.3350798628171,-0.050140380859375,-1.4984130859375,4,2031
351,-1.49169921875,54.3589848627568,-0.0496734619140625,-1.4910888671875,4,2032
352,-1.48452758789063,54.3828898626964,-0.0492767333984375,-1.48406982421875,4,2033
353,-1.47735595703125,54.406794862636,-0.0488922119140625,-1.47674560546875,4,2034
354,-1.47018432617188,54.4306998625757,-0.0485076904296875,-1.47003173828125,4,2035
355,-1.4630126953125,54.4546048625153,-0.048126220703125,-1.46270751953125,4,2036
356,-1.45584106445313,54.478509862455,-0.0477508544921875,-1.45538330078125,4,2037
357,-1.44866943359375,54.5024148623946,-0.047393798828125,-1.4483642578125,4,2038
358,-1.44149780273438,54.5263198623343,-0.0470428466796875,-1.4410400390625,4,2039
359,-1.434326171875,54.5502248622739,-0.0467132568359375,-1.4337158203125,4,2040
360,-1.42715454101563,54.5741298622136,-0.0463775634765625,-1.42608642578125,4,2041
361,-1.41998291015625,54.5980348621532,-0.0460479736328125,-1.41876220703125,4,2042
362,-1.41281127929688,54.6219398620929,-0.0457183837890625,-1.41204833984375,4,2043
363,-1.4056396484375,54.6458448620325,-0.0453948974609375,-1.40472412109375,4,2044
364,-1.39846801757813,54.6697498619722,-0.045086669921875,-1.39739990234375,4,2045
365,-1.39129638671875,54.6936548619118,-0.0447784423828125,-1.39129638671875,4,2046
366,-1.38412475585938,54.7175598618514,-0.044476318359375,-1.383056640625,4,2047
367,-1.376953125,54.7414648617911,-0.0441802978515625,-1.37664794921875,4,2048
368,-1.36978149414063,54.7653698617307,-0.0438873291015625,-1.3690185546875,4,2049
369,-1.36260986328125,54.7892748616704,-0.0435791015625,-1.3623046875,4,2050
370,-1.35543823242188,54.81317986161,-0.043280029296875,-1.3555908203125,4,2051
371,-1.3482666015625,54.8370848615497,-0.0429779052734375,-1.34735107421875,4,2052
372,-1.34109497070313,54.8609898614893,-0.04267578125,-1.34063720703125,4,2053
373,-1.33392333984375,54.884894861429,-0.042376708984375,-1.33392333984375,4,2054
374,-1.32675170898438,54.9087998613686,-0.0420623779296875,-1.3262939453125,4,2055
375,-1.319580078125,54.9327048613083,-0.0417449951171875,-1.319580078125,4,2056
376,-1.31240844726563,54.9566098612479,-0.041400146484375,-1.31195068359375,4,2057
377,-1.30523681640625,54.9805148611875,-0.04105224609375,-1.30401611328125,4,2058
378,-1.29806518554688,55.0044198611272,-0.040692138671875,-1.297607421875,4,2059
379,-1.2908935546875,55.0283248610668,-0.040313720703125,-1.290283203125,4,2060
380,-1.28372192382813,55.0522298610065,-0.0399078369140625,-1.28326416015625,4,2061
381,-1.27655029296875,55.0761348609461,-0.039459228515625,-1.27593994140625,4,2062
382,-1.26937866210938,55.1000398608858,-0.0389801025390625,-1.26953125,4,2063
383,-1.26220703125,55.1239448608254,-0.0384368896484375,-1.26129150390625,4,2064
384,-1.25503540039063,55.1478498607651,-0.037835693359375,-1.25457763671875,4,2065
385,-1.24786376953125,55.1717548607047,-0.0371368408203125,-1.24725341796875,4,2066
386,-1.24069213867188,55.1956598606444,-0.0363922119140625,-1.240234375,4,2067
387,-1.2335205078125,55.219564860584,-0.0355133056640625,-1.23291015625,4,2068
388,-1.22634887695313,55.2434698605236,-0.0344970703125,-1.22528076171875,4,2069
389,-1.21917724609375,55.2673748604633,-0.03333740234375,-1.21826171875,4,2070
390,-1.21200561523438,55.2912798604029,-0.0318878173828125,-1.2115478515625,4,2071
391,-1.204833984375,55.3151848603426,-0.030328369140625,-1.2042236328125,4,2072
392,-1.19766235351563,55.3390898602822,-0.0283905029296875,-1.19659423828125,4,2073
393,-1.19049072265625,55.3629948602219,-0.0262603759765625,-1.18988037109375,4,2074
394,-1.18331909179688,55.3868998601615,-0.0239044189453125,-1.182861328125,4,2075
395,-1.1761474609375,55.4108048601012,-0.0213958740234375,-1.17523193359375,4,2076
396,-1.16897583007813,55.4347098600408,-0.0187896728515625,-1.1688232421875,4,2077
397,-1.16180419921875,55.4586148599805,-0.0163238525390625,-1.16119384765625,4,2078
398,-1.15463256835938,55.4825198599201,-0.01412353515625,-1.153564453125,4,2079
399,-1.1474609375,55.5064248598597,-0.012200927734375,-1.146240234375,4,2080
400,-1.14028930664063,55.5303298597994,-0.0105865478515625,-1.13983154296875,4,2081
401,-1.13311767578125,55.554234859739,-0.0092193603515625,-1.13311767578125,4,2082
402,-1.12594604492188,55.5781398596787,-0.0079803466796875,-1.1248779296875,4,2083
403,-1.1187744140625,55.6020448596183,-0.0067626953125,-1.1181640625,4,2084
404,-1.11160278320313,55.625949859558,-0.005419921875,-1.11053466796875,4,2085
405,-1.10443115234375,55.6498548594976,-0.00390014648437501,-1.10382080078125,4,2086
406,-1.09725952148438,55.6737598594373,-0.00212707519531249,-1.09619140625,4,2087
407,-1.090087890625,55.6976648593769,-0.0001983642578125,-1.0894775390625,4,2088
408,-1.08291625976563,55.7215698593166,0.0019378662109375,-1.0821533203125,4,2089
409,-1.07574462890625,55.7454748592562,0.00437011718749999,-1.07513427734375,4,2090
410,-1.06857299804688,55.7693798591959,0.0074127197265625,-1.06842041015625,4,2091
411,-1.0614013671875,55.7932848591355,0.011737060546875,-1.060791015625,4,2092
412,-1.05422973632813,55.8171898590751,0.0182525634765625,-1.0540771484375,4,2093
413,-1.04705810546875,55.8410948590148,0.0264892578125,-1.04644775390625,4,2094
414,-1.03988647460938,55.8649998589544,0.0345947265625,-1.038818359375,4,2095
415,-1.03271484375,55.8889048588941,0.0422760009765625,-1.03240966796875,4,2096
416,-1.02554321289063,55.9128098588337,0.050201416015625,-1.0247802734375,4,2097
417,-1.01837158203125,55.9367148587734,0.05889892578125,-1.01806640625,4,2098
418,-1.01119995117188,55.960619858713,0.06878662109375,-1.0107421875,4,2099
419,-1.0040283203125,55.9845248586527,0.079681396484375,-1.00372314453125,4,2100
420,-0.996856689453125,56.0084298585923,0.091705322265625,-0.99578857421875,4,2101
421,-0.98968505859375,56.032334858532,0.10467529296875,-0.9893798828125,4,2102
422,-0.982513427734375,56.0562398584716,0.118560791015625,-0.98175048828125,4,2103
423,-0.975341796875,56.0801448584112,0.133392333984375,-0.97412109375,4,2104
424,-0.968170166015625,56.1040498583509,0.149200439453125,-0.9674072265625,4,2105
425,-0.96099853515625,56.1279548582905,0.1661376953125,-0.960693359375,4,2106
426,-0.953826904296875,56.1518598582302,0.183074951171875,-0.953369140625,4,2107
427,-0.9466552734375,56.1757648581698,0.200897216796875,-0.94635009765625,4,2108
428,-0.939483642578125,56.1996698581095,0.21978759765625,-0.93902587890625,4,2109
429,-0.93231201171875,56.2235748580491,0.233489990234375,-0.93170166015625,4,2110
430,-0.925140380859375,56.2474798579888,0.245330810546875,-0.9246826171875,4,2111
431,-0.91796875,56.2713848579284,0.25811767578125,-0.91705322265625,4,2112
432,-0.910797119140625,56.2952898578681,0.265289306640625,-0.9100341796875,4,2113
433,-0.90362548828125,56.3191948578077,0.258270263671875,-0.90240478515625,4,2114
434,-0.896453857421875,56.3430998577473,0.244659423828125,-0.89569091796875,4,2115
435,-0.8892822265625,56.367004857687,0.223114013671875,-0.888671875,4,2116
436,-0.882110595703125,56.3909098576266,0.1954345703125,-0.88165283203125,4,2117
437,-0.87493896484375,56.4148148575663,0.167083740234375,-0.8740234375,4,2118
438,-0.867767333984375,56.4387198575059,0.139862060546875,-0.86669921875,4,2119
439,-0.860595703125,56.4626248574456,0.11383056640625,-0.8599853515625,4,2120
440,-0.853424072265625,56.4865298573852,0.087493896484375,-0.85296630859375,4,2121
441,-0.84625244140625,56.5104348573249,0.06201171875,-0.84564208984375,4,2122
442,-0.839080810546875,56.5343398572645,0.038702392578125,-0.8380126953125,4,2123
443,-0.8319091796875,56.5582448572042,0.02095947265625,-0.83099365234375,4,2124
444,-0.824737548828125,56.5821498571438,0.01046142578125,-0.823974609375,4,2125
445,-0.81756591796875,56.6060548570834,0.005828857421875,-0.81695556640625,4,2126
446,-0.810394287109375,56.6299598570231,0.0031158447265625,-0.80963134765625,4,2127
447,-0.80322265625,56.6538648569627,0.0015411376953125,-0.80230712890625,4,2128
448,-0.796051025390625,56.6777698569024,0.000451660156250006,-0.7952880859375,4,2129
449,-0.78887939453125,56.701674856842,-0.000396728515625,-0.78857421875,4,2130
450,-0.781707763671875,56.7255798567817,-0.0010406494140625,-0.78094482421875,4,2131
451,-0.7745361328125,56.7494848567213,-0.0015869140625,-0.77362060546875,4,2132
452,-0.767364501953125,56.773389856661,-0.002056884765625,-0.7666015625,4,2133
453,-0.76019287109375,56.7972948566006,-0.00246276855468749,-0.7598876953125,4,2134
454,-0.753021240234375,56.8211998565403,-0.0028106689453125,-0.7525634765625,4,2135
455,-0.745849609375,56.8451048564799,-0.00311279296875,-0.745513916015625,4,2136
456,-0.738677978515625,56.8690098564196,-0.00336608886718751,-0.738433837890625,4,2137
457,-0.73150634765625,56.8929148563592,-0.00360107421875,-0.731231689453125,4,2138
458,-0.724334716796875,56.9168198562988,-0.0037994384765625,-0.724090576171875,4,2139
459,-0.7171630859375,56.9407248562385,-0.00396118164062501,-0.716888427734375,4,2140
460,-0.709991455078125,56.9646298561781,-0.004107666015625,-0.709716796875,4,2141
461,-0.70281982421875,56.9885348561178,-0.00420532226562501,-0.70263671875,4,2142
462,-0.695648193359375,57.0124398560574,-0.00432434082031249,-0.695343017578125,4,2143
463,-0.6884765625,57.0363448559971,-0.00440673828125,-0.688232421875,4,2144
464,-0.681304931640625,57.0602498559367,-0.0044677734375,-0.6810302734375,4,2145
465,-0.67413330078125,57.0841548558764,-0.0045135498046875,-0.673858642578125,4,2146
466,-0.666961669921875,57.108059855816,-0.00454101562500001,-0.666778564453125,4,2147
467,-0.6597900390625,57.1319648557557,-0.0045745849609375,-0.659576416015625,4,2148
468,-0.652618408203125,57.1558698556953,-0.00457763671875,-0.652374267578125,4,2149
469,-0.64544677734375,57.1797748556349,-0.00459899902343749,-0.645233154296875,4,2150
470,-0.638275146484375,57.2036798555746,-0.00458374023437499,-0.638092041015625,4,2151
471,-0.631103515625,57.2275848555142,-0.00457763671875,-0.630859375,4,2152
472,-0.623931884765625,57.2514898554539,-0.00455627441406251,-0.62371826171875,4,2153
473,-0.61676025390625,57.2753948553935,-0.00452880859375,-0.616546630859375,4,2154
474,-0.609588623046875,57.2992998553332,-0.00449218749999999,-0.609375,4,2155
475,-0.6024169921875,57.3232048552728,-0.00440673828125,-0.602203369140625,4,2156
476,-0.595245361328125,57.3471098552125,-0.0042999267578125,-0.5950927734375,4,2157
477,-0.58807373046875,57.3710148551521,-0.0041656494140625,-0.587890625,4,2158
478,-0.580902099609375,57.3949198550918,-0.003985595703125,-0.5806884765625,4,2159
479,-0.57373046875,57.4188248550314,-0.00377502441406249,-0.573577880859375,4,2160
480,-0.566558837890625,57.442729854971,-0.0034912109375,-0.566314697265625,4,2161
481,-0.55938720703125,57.4666348549107,-0.00314941406249999,-0.55914306640625,4,2162
482,-0.552215576171875,57.4905398548503,-0.002703857421875,-0.55206298828125,4,2163
483,-0.5450439453125,57.51444485479,-0.002197265625,-0.544830322265625,4,2164
484,-0.537872314453125,57.5383498547296,-0.0015594482421875,-0.537628173828125,4,2165
485,-0.53070068359375,57.5622548546693,-0.000827026367187497,-0.530517578125,4,2166
486,-0.523529052734375,57.5861598546089,4.57763671875e-05,-0.52337646484375,4,2167
487,-0.516357421875,57.6100648545486,0.00108947753906249,-0.51617431640625,4,2168
488,-0.509185791015625,57.6339698544882,0.0023040771484375,-0.509002685546875,4,2169
489,-0.50201416015625,57.6578748544279,0.00377197265625,-0.50177001953125,4,2170
490,-0.494842529296875,57.6817798543675,0.00544128417968751,-0.49462890625,4,2171
491,-0.4876708984375,57.7056848543072,0.00743713378906249,-0.48748779296875,4,2172
492,-0.480499267578125,57.7295898542468,0.0097808837890625,-0.480316162109375,4,2173
493,-0.47332763671875,57.7534948541864,0.0125244140625,-0.47308349609375,4,2174
494,-0.466156005859375,57.7773998541261,0.015740966796875,-0.465911865234375,4,2175
495,-0.458984375,57.8013048540657,0.0194091796875,-0.458740234375,4,2176
496,-0.451812744140625,57.8252098540054,0.0234161376953125,-0.451629638671875,4,2177
497,-0.44464111328125,57.849114853945,0.0276824951171875,-0.444427490234375,4,2178
498,-0.437469482421875,57.8730198538847,0.0322265625,-0.437286376953125,4,2179
499,-0.4302978515625,57.8969248538243,0.036322021484375,-0.4300537109375,4,2180
500,-0.423126220703125,57.920829853764,0.0393768310546875,-0.422943115234375,4,2181
501,-0.41595458984375,57.9447348537036,0.0411529541015625,-0.415740966796875,4,2182
502,-0.408782958984375,57.9686398536433,0.042034912109375,-0.408538818359375,4,2183
503,-0.401611328125,57.9925448535829,0.043194580078125,-0.401397705078125,4,2184
504,-0.394439697265625,58.0164498535225,0.0452484130859375,-0.394195556640625,4,2185
505,-0.38726806640625,58.0403548534622,0.04791259765625,-0.387054443359375,4,2186
506,-0.380096435546875,58.0642598534018,0.050201416015625,-0.379913330078125,4,2187
507,-0.3729248046875,58.0881648533415,0.05194091796875,-0.372711181640625,4,2188
508,-0.365753173828125,58.1120698532811,0.0517578125,-0.365570068359375,4,2189
509,-0.35858154296875,58.1359748532208,0.049957275390625,-0.358306884765625,4,2190
510,-0.351409912109375,58.1598798531604,0.046783447265625,-0.351165771484375,4,2191
511,-0.34423828125,58.1837848531001,0.041400146484375,-0.344024658203125,4,2192
512,-0.337066650390625,58.2076898530397,0.0355133056640625,-0.3369140625,4,2193
513,-0.32989501953125,58.2315948529794,0.028656005859375,-0.329681396484375,4,2194
514,-0.322723388671875,58.255499852919,0.0217864990234375,-0.322540283203125,4,2195
515,-0.3155517578125,58.2794048528586,0.0155792236328125,-0.315399169921875,4,2196
516,-0.308380126953125,58.3033098527983,0.010980224609375,-0.30816650390625,4,2197
517,-0.30120849609375,58.3272148527379,0.00766601562499999,-0.300994873046875,4,2198
518,-0.294036865234375,58.3511198526776,0.005078125,-0.29388427734375,4,2199
519,-0.286865234375,58.3750248526172,0.002947998046875,-0.28668212890625,4,2200
520,-0.279693603515625,58.3989298525569,0.00125732421874999,-0.279510498046875,4,2201
521,-0.27252197265625,58.4228348524965,0.000262451171874997,-0.272369384765625,4,2202
522,-0.265350341796875,58.4467398524362,-8.85009765625028e-05,-0.265228271484375,4,2203
523,-0.2581787109375,58.4706448523758,-0.0001220703125,-0.258026123046875,4,2204
524,-0.251007080078125,58.4945498523155,-2.13623046874944e-05,-0.25079345703125,4,2205
525,-0.24383544921875,58.5184548522551,0.000125122070312497,-0.243682861328125,4,2206
526,-0.236663818359375,58.5423598521947,0.000332641601562503,-0.2364501953125,4,2207
527,-0.2294921875,58.5662648521344,0.000588989257812506,-0.229339599609375,4,2208
528,-0.222320556640625,58.590169852074,0.000891113281249994,-0.222137451171875,4,2209
529,-0.21514892578125,58.6140748520137,0.00123291015625,-0.214996337890625,4,2210
530,-0.207977294921875,58.6379798519533,0.0016448974609375,-0.207794189453125,4,2211
531,-0.2008056640625,58.661884851893,0.0020904541015625,-0.200653076171875,4,2212
532,-0.193634033203125,58.6857898518326,0.0025909423828125,-0.193450927734375,4,2213
533,-0.18646240234375,58.7096948517723,0.00313415527343749,-0.186279296875,4,2214
534,-0.179290771484375,58.7335998517119,0.0036956787109375,-0.179107666015625,4,2215
535,-0.172119140625,58.7575048516516,0.004345703125,-0.17193603515625,4,2216
536,-0.164947509765625,58.7814098515912,0.0050018310546875,-0.164794921875,4,2217
537,-0.15777587890625,58.8053148515309,0.00572814941406249,-0.157623291015625,4,2218
538,-0.150604248046875,58.8292198514705,0.00649108886718749,-0.15045166015625,4,2219
539,-0.1434326171875,58.8531248514101,0.00731506347656249,-0.143310546875,4,2220
540,-0.136260986328125,58.8770298513498,0.00818481445312499,-0.136138916015625,4,2221
541,-0.12908935546875,58.9009348512894,0.0090972900390625,-0.12896728515625,4,2222
542,-0.121917724609375,58.9248398512291,0.0100860595703125,-0.121734619140625,4,2223
543,-0.11474609375,58.9487448511687,0.0111114501953125,-0.1146240234375,4,2224
544,-0.107574462890625,58.9726498511084,0.012188720703125,-0.1075439453125,4,2225
545,-0.10040283203125,58.996554851048,0.013262939453125,-0.1002197265625,4,2226
546,-0.093231201171875,59.0204598509877,0.01441650390625,-0.09307861328125,4,2227
547,-0.0860595703125,59.0443648509273,0.015582275390625,-0.085968017578125,4,2228
548,-0.078887939453125,59.068269850867,0.0167572021484375,-0.07879638671875,4,2229
549,-0.07171630859375,59.0921748508066,0.017999267578125,-0.071563720703125,4,2230
550,-0.064544677734375,59.1160798507462,0.0192108154296875,-0.06439208984375,4,2231
551,-0.057373046875,59.1399848506859,0.020489501953125,-0.057220458984375,4,2232
552,-0.050201416015625,59.1638898506255,0.021612548828125,-0.050048828125,4,2233
553,-0.04302978515625,59.1877948505652,0.02294921875,-0.04287109375,4,2234
554,-0.035858154296875,59.2116998505048,0.0240692138671875,-0.0357177734375,4,2235
555,-0.0286865234375,59.2356048504445,0.0252838134765625,-0.0285430908203125,4,2236
556,-0.021514892578125,59.2595098503841,0.0264312744140625,-0.02135009765625,4,2237
557,-0.01434326171875,59.2834148503238,0.02740478515625,-0.0141998291015625,4,2238
558,-0.007171630859375,59.3073198502634,0.0285552978515625,-0.0070526123046875,4,2239
559,0.0,59.3312248502031,0.029388427734375,0.000119018554687503,4,2240
