,Potential applied / V,Time / s,WE(1).Current / A,WE(1).Potential / V,Scan,Index
0,0.007171630859375,55.3504688602535,0.079803466796875,0.0072906494140625,3,2069
1,0.01434326171875,55.3743738601931,0.080322265625,0.0144683837890625,3,2070
2,0.021514892578125,55.3982788601328,0.080657958984375,0.021624755859375,3,2071
3,0.0286865234375,55.4221838600724,0.08074951171875,0.0287933349609375,3,2072
4,0.035858154296875,55.4460888600121,0.080718994140625,0.0359588623046875,3,2073
5,0.04302978515625,55.4699938599517,0.080474853515625,0.0431396484375,3,2074
6,0.050201416015625,55.4938988598914,0.08013916015625,0.050201416015625,3,2075
7,0.057373046875,55.517803859831,0.07958984375,0.057342529296875,3,2076
8,0.064544677734375,55.5417088597707,0.078948974609375,0.064605712890625,3,2077
9,0.07171630859375,55.5656138597103,0.07818603515625,0.071746826171875,3,2078
10,0.078887939453125,55.58951885965,0.077392578125,0.078887939453125,3,2079
11,0.0860595703125,55.6134238595896,0.07647705078125,0.086029052734375,3,2080
12,0.093231201171875,55.6373288595292,0.075408935546875,0.093292236328125,3,2081
13,0.10040283203125,55.6612338594689,0.07440185546875,0.10040283203125,3,2082
14,0.107574462890625,55.6851388594085,0.073211669921875,0.107574462890625,3,2083
15,0.11474609375,55.7090438593482,0.072021484375,0.114776611328125,3,2084
16,0.121917724609375,55.7329488592878,0.07080078125,0.121917724609375,3,2085
17,0.12908935546875,55.7568538592275,0.069580078125,0.129058837890625,3,2086
18,0.136260986328125,55.7807588591671,0.068389892578125,0.136260986328125,3,2087
19,0.1434326171875,55.8046638591068,0.067138671875,0.14337158203125,3,2088
20,0.150604248046875,55.8285688590464,0.065887451171875,0.150543212890625,3,2089
21,0.15777587890625,55.8524738589861,0.064666748046875,0.15771484375,3,2090
22,0.164947509765625,55.8763788589257,0.0635986328125,0.1649169921875,3,2091
23,0.172119140625,55.9002838588654,0.0625,0.17205810546875,3,2092
24,0.179290771484375,55.924188858805,0.0615234375,0.17926025390625,3,2093
25,0.18646240234375,55.9480938587446,0.0606689453125,0.186431884765625,3,2094
26,0.193634033203125,55.9719988586843,0.059906005859375,0.193603515625,3,2095
27,0.2008056640625,55.9959038586239,0.0592041015625,0.20074462890625,3,2096
28,0.207977294921875,56.0198088585636,0.05865478515625,0.207855224609375,3,2097
29,0.21514892578125,56.0437138585032,0.058135986328125,0.215057373046875,3,2098
30,0.222320556640625,56.0676188584429,0.0577392578125,0.222259521484375,3,2099
31,0.2294921875,56.0915238583825,0.05743408203125,0.229400634765625,3,2100
32,0.236663818359375,56.1154288583222,0.05718994140625,0.236572265625,3,2101
33,0.24383544921875,56.1393338582618,0.057037353515625,0.243743896484375,3,2102
34,0.251007080078125,56.1632388582015,0.056884765625,0.2509765625,3,2103
35,0.2581787109375,56.1871438581411,0.056793212890625,0.258087158203125,3,2104
36,0.265350341796875,56.2110488580807,0.0567626953125,0.2652587890625,3,2105
37,0.27252197265625,56.2349538580204,0.0567626953125,0.27239990234375,3,2106
38,0.279693603515625,56.25885885796,0.05682373046875,0.279541015625,3,2107
39,0.286865234375,56.2827638578997,0.056884765625,0.286712646484375,3,2108
40,0.294036865234375,56.3066688578393,0.05694580078125,0.29388427734375,3,2109
41,0.30120849609375,56.330573857779,0.056976318359375,0.30108642578125,3,2110
42,0.308380126953125,56.3544788577186,0.05694580078125,0.308258056640625,3,2111
43,0.3155517578125,56.3783838576583,0.056915283203125,0.3154296875,3,2112
44,0.322723388671875,56.4022888575979,0.056854248046875,0.32257080078125,3,2113
45,0.32989501953125,56.4261938575376,0.056732177734375,0.329803466796875,3,2114
46,0.337066650390625,56.4500988574772,0.056549072265625,0.33697509765625,3,2115
47,0.34423828125,56.4740038574168,0.056365966796875,0.344085693359375,3,2116
48,0.351409912109375,56.4979088573565,0.056182861328125,0.351348876953125,3,2117
49,0.35858154296875,56.5218138572961,0.055999755859375,0.35845947265625,3,2118
50,0.365753173828125,56.5457188572358,0.055816650390625,0.365631103515625,3,2119
51,0.3729248046875,56.5696238571754,0.05560302734375,0.372772216796875,3,2120
52,0.380096435546875,56.5935288571151,0.055419921875,0.37994384765625,3,2121
53,0.38726806640625,56.6174338570547,0.055206298828125,0.387115478515625,3,2122
54,0.394439697265625,56.6413388569944,0.055023193359375,0.394195556640625,3,2123
55,0.401611328125,56.665243856934,0.05474853515625,0.401397705078125,3,2124
56,0.408782958984375,56.6891488568737,0.054443359375,0.408660888671875,3,2125
57,0.41595458984375,56.7130538568133,0.05401611328125,0.415802001953125,3,2126
58,0.423126220703125,56.7369588567529,0.0535888671875,0.422882080078125,3,2127
59,0.4302978515625,56.7608638566926,0.053009033203125,0.430084228515625,3,2128
60,0.437469482421875,56.7847688566322,0.052398681640625,0.437286376953125,3,2129
61,0.44464111328125,56.8086738565719,0.051666259765625,0.444427490234375,3,2130
62,0.451812744140625,56.8325788565115,0.0509033203125,0.45166015625,3,2131
63,0.458984375,56.8564838564512,0.050079345703125,0.458740234375,3,2132
64,0.466156005859375,56.8803888563908,0.0493072509765625,0.4659423828125,3,2133
65,0.47332763671875,56.9042938563305,0.048406982421875,0.47314453125,3,2134
66,0.480499267578125,56.9281988562701,0.0475738525390625,0.4803466796875,3,2135
67,0.4876708984375,56.9521038562098,0.04671630859375,0.487548828125,3,2136
68,0.494842529296875,56.9760088561494,0.0458770751953125,0.494659423828125,3,2137
69,0.50201416015625,56.9999138560891,0.0450164794921875,0.501800537109375,3,2138
70,0.509185791015625,57.0238188560287,0.0442169189453125,0.509002685546875,3,2139
71,0.516357421875,57.0477238559683,0.043438720703125,0.516143798828125,3,2140
72,0.523529052734375,57.071628855908,0.042742919921875,0.523345947265625,3,2141
73,0.53070068359375,57.0955338558476,0.042138671875,0.530517578125,3,2142
74,0.537872314453125,57.1194388557873,0.0417083740234375,0.5377197265625,3,2143
75,0.5450439453125,57.1433438557269,0.04136962890625,0.544830322265625,3,2144
76,0.552215576171875,57.1672488556666,0.0411407470703125,0.552001953125,3,2145
77,0.55938720703125,57.1911538556062,0.04102783203125,0.559173583984375,3,2146
78,0.566558837890625,57.2150588555459,0.040948486328125,0.56634521484375,3,2147
79,0.57373046875,57.2389638554855,0.0392974853515625,0.57354736328125,3,2148
80,0.580902099609375,57.2628688554252,0.0389923095703125,0.58074951171875,3,2149
81,0.58807373046875,57.2867738553648,0.037237548828125,0.587921142578125,3,2150
82,0.595245361328125,57.3106788553044,0.03714599609375,0.595062255859375,3,2151
83,0.6024169921875,57.3345838552441,0.0372344970703125,0.60223388671875,3,2152
84,0.609588623046875,57.3584888551837,0.037322998046875,0.609375,3,2153
85,0.61676025390625,57.3823938551234,0.0374114990234375,0.61651611328125,3,2154
86,0.623931884765625,57.406298855063,0.037451171875,0.6236572265625,3,2155
87,0.631103515625,57.4302038550027,0.0375030517578125,0.63092041015625,3,2156
88,0.638275146484375,57.4541088549423,0.0374725341796875,0.638031005859375,3,2157
89,0.64544677734375,57.478013854882,0.037420654296875,0.645233154296875,3,2158
90,0.652618408203125,57.5019188548216,0.037335205078125,0.65240478515625,3,2159
91,0.6597900390625,57.5258238547613,0.0371826171875,0.65948486328125,3,2160
92,0.666961669921875,57.5497288547009,0.037030029296875,0.66668701171875,3,2161
93,0.67413330078125,57.5736338546405,0.0369049072265625,0.673858642578125,3,2162
94,0.681304931640625,57.5975388545802,0.0367828369140625,0.681060791015625,3,2163
95,0.6884765625,57.621443854519796,0.0367218017578125,0.688262939453125,3,2164
96,0.695648193359375,57.6453488544595,0.03675537109375,0.6954345703125,3,2165
97,0.70281982421875,57.6692538543991,0.0368865966796875,0.702606201171875,3,2166
98,0.709991455078125,57.6931588543388,0.0372711181640625,0.70977783203125,3,2167
99,0.7171630859375,57.7170638542784,0.0379241943359375,0.716949462890625,3,2168
100,0.724334716796875,57.7409688542181,0.03895263671875,0.724029541015625,3,2169
101,0.73150634765625,57.7648738541577,0.04053955078125,0.731353759765625,3,2170
102,0.738677978515625,57.7887788540974,0.0428924560546875,0.7384033203125,3,2171
103,0.745849609375,57.812683854037,0.0466461181640625,0.74560546875,3,2172
104,0.753021240234375,57.8365888539767,0.052032470703125,0.7537841796875,3,2173
105,0.76019287109375,57.8604938539163,0.05926513671875,0.76080322265625,3,2174
106,0.767364501953125,57.8843988538559,0.06671142578125,0.76751708984375,3,2175
107,0.7745361328125,57.9083038537956,0.073455810546875,0.7745361328125,3,2176
108,0.781707763671875,57.9322088537352,0.0794677734375,0.78216552734375,3,2177
109,0.78887939453125,57.9561138536749,0.084686279296875,0.7891845703125,3,2178
110,0.796051025390625,57.9800188536145,0.089599609375,0.79559326171875,3,2179
111,0.80322265625,58.0039238535542,0.09490966796875,0.80322265625,3,2180
112,0.810394287109375,58.0278288534938,0.101837158203125,0.81024169921875,3,2181
113,0.81756591796875,58.0517338534335,0.110107421875,0.81787109375,3,2182
114,0.824737548828125,58.0756388533731,0.120147705078125,0.8251953125,3,2183
115,0.81756591796875,58.0995438533128,0.09710693359375,0.81787109375,3,2184
116,0.810394287109375,58.1234488532524,0.079498291015625,0.810546875,3,2185
117,0.80322265625,58.147353853192,0.06561279296875,0.80291748046875,3,2186
118,0.796051025390625,58.1712588531317,0.05474853515625,0.79620361328125,3,2187
119,0.78887939453125,58.1951638530713,0.0461151123046875,0.78887939453125,3,2188
120,0.781707763671875,58.219068853011,0.039080810546875,0.7818603515625,3,2189
121,0.7745361328125,58.2429738529506,0.0335205078125,0.77423095703125,3,2190
122,0.767364501953125,58.2668788528903,0.0289703369140625,0.76751708984375,3,2191
123,0.76019287109375,58.2907838528299,0.025091552734375,0.76019287109375,3,2192
124,0.753021240234375,58.3146888527696,0.021881103515625,0.75286865234375,3,2193
125,0.745849609375,58.3385938527092,0.019146728515625,0.745635986328125,3,2194
126,0.738677978515625,58.3624988526489,0.016845703125,0.73846435546875,3,2195
127,0.73150634765625,58.3864038525885,0.0148651123046875,0.731231689453125,3,2196
128,0.724334716796875,58.4103088525281,0.0133392333984375,0.724090576171875,3,2197
129,0.7171630859375,58.4342138524678,0.012188720703125,0.7169189453125,3,2198
130,0.709991455078125,58.4581188524074,0.01136474609375,0.70977783203125,3,2199
131,0.70281982421875,58.4820238523471,0.0107421875,0.70257568359375,3,2200
132,0.695648193359375,58.5059288522867,0.0102691650390625,0.6954345703125,3,2201
133,0.6884765625,58.5298338522264,0.00994262695312501,0.688232421875,3,2202
134,0.681304931640625,58.553738852166,0.009661865234375,0.681060791015625,3,2203
135,0.67413330078125,58.5776438521057,0.00956115722656251,0.67388916015625,3,2204
136,0.666961669921875,58.6015488520453,0.0095062255859375,0.666717529296875,3,2205
137,0.6597900390625,58.625453851985,0.00957641601562501,0.65960693359375,3,2206
138,0.652618408203125,58.6493588519246,0.0097686767578125,0.65234375,3,2207
139,0.64544677734375,58.6732638518642,0.0100982666015625,0.64520263671875,3,2208
140,0.638275146484375,58.6971688518039,0.01055908203125,0.6380615234375,3,2209
141,0.631103515625,58.7210738517435,0.0111572265625,0.63092041015625,3,2210
142,0.623931884765625,58.7449788516832,0.0118896484375,0.623748779296875,3,2211
143,0.61676025390625,58.7688838516228,0.0127593994140625,0.616546630859375,3,2212
144,0.609588623046875,58.7927888515625,0.01378173828125,0.609375,3,2213
145,0.6024169921875,58.8166938515021,0.0148834228515625,0.6021728515625,3,2214
146,0.595245361328125,58.8405988514418,0.01607666015625,0.59503173828125,3,2215
147,0.58807373046875,58.8645038513814,0.017242431640625,0.587860107421875,3,2216
148,0.580902099609375,58.8884088513211,0.01827392578125,0.5806884765625,3,2217
149,0.57373046875,58.9123138512607,0.0191009521484375,0.57354736328125,3,2218
150,0.566558837890625,58.9362188512004,0.0196624755859375,0.56634521484375,3,2219
151,0.55938720703125,58.96012385114,0.019952392578125,0.559234619140625,3,2220
152,0.552215576171875,58.9840288510796,0.0199951171875,0.55206298828125,3,2221
153,0.5450439453125,59.0079338510193,0.0199066162109375,0.54486083984375,3,2222
154,0.537872314453125,59.0318388509589,0.0196685791015625,0.537689208984375,3,2223
155,0.53070068359375,59.0557438508986,0.0193603515625,0.530517578125,3,2224
156,0.523529052734375,59.0796488508382,0.019036865234375,0.523406982421875,3,2225
157,0.516357421875,59.1035538507779,0.018670654296875,0.51617431640625,3,2226
158,0.509185791015625,59.1274588507175,0.0182952880859375,0.509002685546875,3,2227
159,0.50201416015625,59.1513638506572,0.017913818359375,0.5018310546875,3,2228
160,0.494842529296875,59.1752688505968,0.0175140380859375,0.494659423828125,3,2229
161,0.4876708984375,59.1991738505365,0.017108154296875,0.48748779296875,3,2230
162,0.480499267578125,59.2230788504761,0.01669921875,0.480377197265625,3,2231
163,0.47332763671875,59.2469838504157,0.0162994384765625,0.473236083984375,3,2232
164,0.466156005859375,59.2708888503554,0.015887451171875,0.466033935546875,3,2233
165,0.458984375,59.294793850295,0.015509033203125,0.4588623046875,3,2234
166,0.451812744140625,59.3186988502347,0.0151275634765625,0.451690673828125,3,2235
167,0.44464111328125,59.3426038501743,0.01473388671875,0.44451904296875,3,2236
168,0.437469482421875,59.366508850114,0.0143463134765625,0.437347412109375,3,2237
169,0.4302978515625,59.3904138500536,0.0139495849609375,0.43011474609375,3,2238
170,0.423126220703125,59.4143188499933,0.0135711669921875,0.423004150390625,3,2239
171,0.41595458984375,59.4382238499329,0.0131866455078125,0.415863037109375,3,2240
172,0.408782958984375,59.4621288498726,0.0128204345703125,0.408660888671875,3,2241
173,0.401611328125,59.4860338498122,0.0124481201171875,0.4014892578125,3,2242
174,0.394439697265625,59.5099388497518,0.0120849609375,0.394317626953125,3,2243
175,0.38726806640625,59.5338438496915,0.011724853515625,0.38720703125,3,2244
176,0.380096435546875,59.5577488496311,0.0113677978515625,0.379974365234375,3,2245
177,0.3729248046875,59.5816538495708,0.0110260009765625,0.372772216796875,3,2246
178,0.365753173828125,59.6055588495104,0.0106964111328125,0.365692138671875,3,2247
179,0.35858154296875,59.6294638494501,0.0103546142578125,0.358551025390625,3,2248
180,0.351409912109375,59.6533688493897,0.01002197265625,0.351318359375,3,2249
181,0.34423828125,59.6772738493294,0.00969543457031249,0.344146728515625,3,2250
182,0.337066650390625,59.701178849269,0.00938720703125,0.337005615234375,3,2251
183,0.32989501953125,59.7250838492087,0.0090667724609375,0.329833984375,3,2252
184,0.322723388671875,59.7489888491483,0.0087615966796875,0.322662353515625,3,2253
185,0.3155517578125,59.772893849088,0.00845947265624999,0.3155517578125,3,2254
186,0.308380126953125,59.7967988490276,0.0081634521484375,0.30828857421875,3,2255
187,0.30120849609375,59.8207038489672,0.00786743164062501,0.301116943359375,3,2256
188,0.294036865234375,59.8446088489069,0.007586669921875,0.29400634765625,3,2257
189,0.286865234375,59.8685138488465,0.007293701171875,0.28680419921875,3,2258
190,0.279693603515625,59.8924188487862,0.00701904296875,0.27960205078125,3,2259
191,0.27252197265625,59.9163238487258,0.006732177734375,0.2724609375,3,2260
192,0.265350341796875,59.9402288486655,0.00644531249999999,0.265350341796875,3,2261
193,0.2581787109375,59.9641338486051,0.0061614990234375,0.25811767578125,3,2262
194,0.251007080078125,59.9880388485448,0.0058746337890625,0.251007080078125,3,2263
195,0.24383544921875,60.0119438484844,0.005596923828125,0.243804931640625,3,2264
196,0.236663818359375,60.0358488484241,0.00530395507812501,0.236663818359375,3,2265
197,0.2294921875,60.0597538483637,0.00501403808593751,0.2294921875,3,2266
198,0.222320556640625,60.0836588483033,0.00472106933593749,0.222259521484375,3,2267
199,0.21514892578125,60.107563848243,0.00441589355468749,0.215118408203125,3,2268
200,0.207977294921875,60.1314688481826,0.004107666015625,0.207977294921875,3,2269
201,0.2008056640625,60.1553738481223,0.0037872314453125,0.200775146484375,3,2270
202,0.193634033203125,60.1792788480619,0.003466796875,0.193634033203125,3,2271
203,0.18646240234375,60.2031838480016,0.00312194824218751,0.186370849609375,3,2272
204,0.179290771484375,60.2270888479412,0.00276794433593749,0.179229736328125,3,2273
205,0.172119140625,60.2509938478809,0.002398681640625,0.172119140625,3,2274
206,0.164947509765625,60.2748988478205,0.00200805664062501,0.164947509765625,3,2275
207,0.15777587890625,60.2988038477602,0.0015899658203125,0.157806396484375,3,2276
208,0.150604248046875,60.3227088476998,0.0011322021484375,0.150604248046875,3,2277
209,0.1434326171875,60.3466138476394,0.000668334960937503,0.143402099609375,3,2278
210,0.136260986328125,60.3705188475791,0.000140380859374997,0.13629150390625,3,2279
211,0.12908935546875,60.3944238475187,-0.000405883789062506,0.129119873046875,3,2280
212,0.121917724609375,60.4183288474584,-0.0010040283203125,0.1219482421875,3,2281
213,0.11474609375,60.442233847398,-0.0016448974609375,0.114776611328125,3,2282
214,0.107574462890625,60.4661388473377,-0.00233154296875,0.1075439453125,3,2283
215,0.10040283203125,60.4900438472773,-0.00307312011718749,0.100433349609375,3,2284
216,0.093231201171875,60.513948847217,-0.003857421875,0.09332275390625,3,2285
217,0.0860595703125,60.5378538471566,-0.00470886230468751,0.08612060546875,3,2286
218,0.078887939453125,60.5617588470963,-0.0055999755859375,0.0789794921875,3,2287
219,0.07171630859375,60.5856638470359,-0.00657043457031251,0.071807861328125,3,2288
220,0.064544677734375,60.6095688469755,-0.00758056640625,0.064605712890625,3,2289
221,0.057373046875,60.6334738469152,-0.00865478515625,0.05743408203125,3,2290
222,0.050201416015625,60.6573788468548,-0.00977478027343751,0.050262451171875,3,2291
223,0.04302978515625,60.6812838467945,-0.0109283447265625,0.0431060791015625,3,2292
224,0.035858154296875,60.7051888467341,-0.012158203125,0.0359466552734375,3,2293
225,0.0286865234375,60.7290938466738,-0.0134002685546875,0.0287841796875,3,2294
226,0.021514892578125,60.7529988466134,-0.0147430419921875,0.02161865234375,3,2295
227,0.01434326171875,60.7769038465531,-0.0159454345703125,0.014453125,3,2296
228,0.007171630859375,60.8008088464927,-0.017352294921875,0.00728454589843749,3,2297
229,0.0,60.8247138464324,-0.01865234375,0.000103759765625003,3,2298
230,-0.007171630859375,60.848618846372,-0.0199737548828125,-0.0070648193359375,3,2299
231,-0.01434326171875,60.8725238463117,-0.0213287353515625,-0.0142120361328125,3,2300
232,-0.021514892578125,60.8964288462513,-0.0225067138671875,-0.021380615234375,3,2301
233,-0.0286865234375,60.9203338461909,-0.0238067626953125,-0.0285552978515625,3,2302
234,-0.035858154296875,60.9442388461306,-0.024981689453125,-0.0357177734375,3,2303
235,-0.04302978515625,60.9681438460702,-0.026116943359375,-0.0428924560546875,3,2304
236,-0.050201416015625,60.9920488460099,-0.0272003173828125,-0.05010986328125,3,2305
237,-0.057373046875,61.0159538459495,-0.028192138671875,-0.0572509765625,3,2306
238,-0.064544677734375,61.0398588458892,-0.0291290283203125,-0.064453125,3,2307
239,-0.07171630859375,61.0637638458288,-0.0299591064453125,-0.07159423828125,3,2308
240,-0.078887939453125,61.0876688457685,-0.0307464599609375,-0.0787353515625,3,2309
241,-0.0860595703125,61.1115738457081,-0.0314178466796875,-0.0859375,3,2310
242,-0.093231201171875,61.1354788456478,-0.03203125,-0.093109130859375,3,2311
243,-0.10040283203125,61.1593838455874,-0.0325836181640625,-0.100311279296875,3,2312
244,-0.107574462890625,61.183288845527,-0.033062744140625,-0.107452392578125,3,2313
245,-0.11474609375,61.2071938454667,-0.0335113525390625,-0.1146240234375,3,2314
246,-0.121917724609375,61.2310988454063,-0.0339019775390625,-0.121795654296875,3,2315
247,-0.12908935546875,61.255003845346,-0.0342864990234375,-0.12896728515625,3,2316
248,-0.136260986328125,61.2789088452856,-0.0346343994140625,-0.136138916015625,3,2317
249,-0.1434326171875,61.3028138452253,-0.0349822998046875,-0.143310546875,3,2318
250,-0.150604248046875,61.3267188451649,-0.035308837890625,-0.1505126953125,3,2319
251,-0.15777587890625,61.3506238451046,-0.035650634765625,-0.15765380859375,3,2320
252,-0.164947509765625,61.3745288450442,-0.035986328125,-0.164794921875,3,2321
253,-0.172119140625,61.3984338449839,-0.0363189697265625,-0.1719970703125,3,2322
254,-0.179290771484375,61.4223388449235,-0.036676025390625,-0.17913818359375,3,2323
255,-0.18646240234375,61.4462438448631,-0.03702392578125,-0.18634033203125,3,2324
256,-0.193634033203125,61.4701488448028,-0.03739013671875,-0.19354248046875,3,2325
257,-0.2008056640625,61.4940538447424,-0.03775634765625,-0.20062255859375,3,2326
258,-0.207977294921875,61.5179588446821,-0.0381439208984375,-0.20782470703125,3,2327
259,-0.21514892578125,61.5418638446217,-0.0385650634765625,-0.214996337890625,3,2328
260,-0.222320556640625,61.5657688445614,-0.03900146484375,-0.22210693359375,3,2329
261,-0.2294921875,61.589673844501,-0.0394744873046875,-0.229339599609375,3,2330
262,-0.236663818359375,61.6135788444407,-0.0399627685546875,-0.236541748046875,3,2331
263,-0.24383544921875,61.6374838443803,-0.040472412109375,-0.243621826171875,3,2332
264,-0.251007080078125,61.66138884432,-0.0409759521484375,-0.250885009765625,3,2333
265,-0.2581787109375,61.6852938442596,-0.0414947509765625,-0.257965087890625,3,2334
266,-0.265350341796875,61.7091988441992,-0.0420013427734375,-0.265106201171875,3,2335
267,-0.27252197265625,61.7331038441389,-0.042486572265625,-0.272308349609375,3,2336
268,-0.279693603515625,61.7570088440785,-0.0429656982421875,-0.279510498046875,3,2337
269,-0.286865234375,61.7809138440182,-0.0433929443359375,-0.286712646484375,3,2338
270,-0.294036865234375,61.8048188439578,-0.0438201904296875,-0.293914794921875,3,2339
271,-0.30120849609375,61.8287238438975,-0.0441314697265625,-0.301055908203125,3,2340
272,-0.308380126953125,61.8526288438371,-0.044464111328125,-0.3082275390625,3,2341
273,-0.3155517578125,61.8765338437768,-0.0447357177734375,-0.315399169921875,3,2342
274,-0.322723388671875,61.9004388437164,-0.044976806640625,-0.32257080078125,3,2343
275,-0.32989501953125,61.9243438436561,-0.0452056884765625,-0.32977294921875,3,2344
276,-0.337066650390625,61.9482488435957,-0.045404052734375,-0.3369140625,3,2345
277,-0.34423828125,61.9721538435354,-0.0455780029296875,-0.344085693359375,3,2346
278,-0.351409912109375,61.996058843475,-0.0457794189453125,-0.35125732421875,3,2347
279,-0.35858154296875,62.0199638434146,-0.04610595703125,-0.358428955078125,3,2348
280,-0.365753173828125,62.0438688433543,-0.0472259521484375,-0.365631103515625,3,2349
281,-0.3729248046875,62.0677738432939,-0.048443603515625,-0.37274169921875,3,2350
282,-0.380096435546875,62.0916788432336,-0.04962158203125,-0.379852294921875,3,2351
283,-0.38726806640625,62.1155838431732,-0.050445556640625,-0.387115478515625,3,2352
284,-0.394439697265625,62.1394888431129,-0.051055908203125,-0.394256591796875,3,2353
285,-0.401611328125,62.1633938430525,-0.051544189453125,-0.401458740234375,3,2354
286,-0.408782958984375,62.1872988429922,-0.05194091796875,-0.4085693359375,3,2355
287,-0.41595458984375,62.2112038429318,-0.05224609375,-0.41571044921875,3,2356
288,-0.423126220703125,62.2351088428715,-0.052398681640625,-0.4229736328125,3,2357
289,-0.4302978515625,62.2590138428111,-0.052337646484375,-0.43011474609375,3,2358
290,-0.437469482421875,62.2829188427507,-0.05206298828125,-0.43731689453125,3,2359
291,-0.44464111328125,62.3068238426904,-0.051544189453125,-0.444488525390625,3,2360
292,-0.451812744140625,62.33072884263,-0.050750732421875,-0.451629638671875,3,2361
293,-0.458984375,62.3546338425697,-0.049957275390625,-0.458831787109375,3,2362
294,-0.466156005859375,62.3785388425093,-0.0491973876953125,-0.465972900390625,3,2363
295,-0.47332763671875,62.402443842449,-0.04862060546875,-0.473114013671875,3,2364
296,-0.480499267578125,62.4263488423886,-0.0482452392578125,-0.48028564453125,3,2365
297,-0.4876708984375,62.4502538423283,-0.0482818603515625,-0.48748779296875,3,2366
298,-0.494842529296875,62.4741588422679,-0.049591064453125,-0.49462890625,3,2367
299,-0.50201416015625,62.4980638422076,-0.052825927734375,-0.5018310546875,3,2368
300,-0.509185791015625,62.5219688421472,-0.05523681640625,-0.509002685546875,3,2369
301,-0.516357421875,62.5458738420868,-0.055755615234375,-0.51617431640625,3,2370
302,-0.523529052734375,62.5697788420265,-0.055389404296875,-0.52337646484375,3,2371
303,-0.53070068359375,62.5936838419661,-0.054656982421875,-0.530517578125,3,2372
304,-0.537872314453125,62.6175888419058,-0.05377197265625,-0.537689208984375,3,2373
305,-0.5450439453125,62.6414938418454,-0.052825927734375,-0.544891357421875,3,2374
306,-0.552215576171875,62.6653988417851,-0.05181884765625,-0.552032470703125,3,2375
307,-0.55938720703125,62.6893038417247,-0.050811767578125,-0.55914306640625,3,2376
308,-0.566558837890625,62.7132088416644,-0.0497222900390625,-0.56634521484375,3,2377
309,-0.57373046875,62.737113841604,-0.0487030029296875,-0.57354736328125,3,2378
310,-0.580902099609375,62.7610188415437,-0.0476898193359375,-0.5806884765625,3,2379
311,-0.58807373046875,62.7849238414833,-0.0466827392578125,-0.58782958984375,3,2380
312,-0.595245361328125,62.808828841423,-0.0457000732421875,-0.595001220703125,3,2381
313,-0.6024169921875,62.8327338413626,-0.0447113037109375,-0.602264404296875,3,2382
314,-0.609588623046875,62.8566388413022,-0.0436492919921875,-0.609344482421875,3,2383
315,-0.61676025390625,62.8805438412419,-0.0425933837890625,-0.616546630859375,3,2384
316,-0.623931884765625,62.9044488411815,-0.0415435791015625,-0.623687744140625,3,2385
317,-0.631103515625,62.9283538411212,-0.0404876708984375,-0.630859375,3,2386
318,-0.638275146484375,62.9522588410608,-0.039483642578125,-0.638031005859375,3,2387
319,-0.64544677734375,62.9761638410005,-0.0389007568359375,-0.645172119140625,3,2388
320,-0.652618408203125,63.0000688409401,-0.0383056640625,-0.652374267578125,3,2389
321,-0.6597900390625,63.0239738408798,-0.03720703125,-0.6595458984375,3,2390
322,-0.666961669921875,63.0478788408194,-0.0361572265625,-0.666717529296875,3,2391
323,-0.67413330078125,63.0717838407591,-0.0353363037109375,-0.673858642578125,3,2392
324,-0.681304931640625,63.0956888406987,-0.0350494384765625,-0.680999755859375,3,2393
325,-0.6884765625,63.1195938406383,-0.03388671875,-0.688201904296875,3,2394
326,-0.695648193359375,63.143498840578,-0.0328765869140625,-0.695404052734375,3,2395
327,-0.70281982421875,63.1674038405176,-0.0319854736328125,-0.702606201171875,3,2396
328,-0.709991455078125,63.1913088404573,-0.031195068359375,-0.70977783203125,3,2397
329,-0.7171630859375,63.2152138403969,-0.0305023193359375,-0.7169189453125,3,2398
330,-0.724334716796875,63.2391188403366,-0.029974365234375,-0.724029541015625,3,2399
331,-0.73150634765625,63.2630238402762,-0.029443359375,-0.731231689453125,3,2400
332,-0.738677978515625,63.2869288402159,-0.0288787841796875,-0.7384033203125,3,2401
333,-0.745849609375,63.3108338401555,-0.028277587890625,-0.745574951171875,3,2402
334,-0.753021240234375,63.3347388400952,-0.027703857421875,-0.7525634765625,3,2403
335,-0.76019287109375,63.3586438400348,-0.02718505859375,-0.75927734375,3,2404
336,-0.767364501953125,63.3825488399744,-0.0267120361328125,-0.76690673828125,3,2405
337,-0.7745361328125,63.4064538399141,-0.026263427734375,-0.77423095703125,3,2406
338,-0.781707763671875,63.4303588398537,-0.025897216796875,-0.78155517578125,3,2407
339,-0.78887939453125,63.4542638397934,-0.02568359375,-0.78857421875,3,2408
340,-0.796051025390625,63.478168839733,-0.0254119873046875,-0.794677734375,3,2409
341,-0.80322265625,63.5020738396727,-0.02501220703125,-0.80230712890625,3,2410
342,-0.810394287109375,63.5259788396123,-0.0246856689453125,-0.81024169921875,3,2411
343,-0.81756591796875,63.549883839552,-0.0242706298828125,-0.816650390625,3,2412
344,-0.824737548828125,63.5737888394916,-0.0239715576171875,-0.823974609375,3,2413
345,-0.8319091796875,63.5976938394313,-0.023663330078125,-0.83160400390625,3,2414
346,-0.839080810546875,63.6215988393709,-0.0233978271484375,-0.838623046875,3,2415
347,-0.84625244140625,63.6455038393105,-0.023101806640625,-0.84564208984375,3,2416
348,-0.853424072265625,63.6694088392502,-0.0228363037109375,-0.8526611328125,3,2417
349,-0.860595703125,63.6933138391898,-0.0225921630859375,-0.85968017578125,3,2418
350,-0.867767333984375,63.7172188391295,-0.0223785400390625,-0.8673095703125,3,2419
351,-0.87493896484375,63.7411238390691,-0.02215576171875,-0.8740234375,3,2420
352,-0.882110595703125,63.7650288390088,-0.02203369140625,-0.88104248046875,3,2421
353,-0.8892822265625,63.7889338389484,-0.0219024658203125,-0.88836669921875,3,2422
354,-0.896453857421875,63.8128388388881,-0.021759033203125,-0.89569091796875,3,2423
355,-0.90362548828125,63.8367438388277,-0.0216705322265625,-0.90301513671875,3,2424
356,-0.910797119140625,63.8606488387674,-0.021533203125,-0.9100341796875,3,2425
357,-0.91796875,63.884553838707,-0.0214263916015625,-0.91705322265625,3,2426
358,-0.925140380859375,63.9084588386467,-0.0212799072265625,-0.9246826171875,3,2427
359,-0.93231201171875,63.9323638385863,-0.02117919921875,-0.93170166015625,3,2428
360,-0.939483642578125,63.9562688385259,-0.0210845947265625,-0.93902587890625,3,2429
361,-0.9466552734375,63.9801738384656,-0.0209869384765625,-0.946044921875,3,2430
362,-0.953826904296875,64.0040788384052,-0.0208984375,-0.953369140625,3,2431
363,-0.96099853515625,64.0279838383449,-0.0207916259765625,-0.960693359375,3,2432
364,-0.968170166015625,64.0518888382845,-0.0206756591796875,-0.96771240234375,3,2433
365,-0.975341796875,64.0757938382242,-0.02056884765625,-0.97442626953125,3,2434
366,-0.982513427734375,64.0996988381638,-0.0204681396484375,-0.9814453125,3,2435
367,-0.98968505859375,64.1236038381035,-0.020404052734375,-0.98907470703125,3,2436
368,-0.996856689453125,64.1475088380431,-0.0203399658203125,-0.99639892578125,3,2437
369,-1.0040283203125,64.1714138379828,-0.0203094482421875,-1.00311279296875,3,2438
370,-1.01119995117188,64.1953188379224,-0.0202545166015625,-1.0107421875,3,2439
371,-1.01837158203125,64.219223837862,-0.0202484130859375,-1.0174560546875,3,2440
372,-1.02554321289063,64.2431288378017,-0.02022705078125,-1.02508544921875,3,2441
373,-1.03271484375,64.2670338377413,-0.0202667236328125,-1.0321044921875,3,2442
374,-1.03988647460938,64.290938837681,-0.0203277587890625,-1.03912353515625,3,2443
375,-1.04705810546875,64.3148438376206,-0.0204376220703125,-1.0467529296875,3,2444
376,-1.05422973632813,64.3387488375603,-0.0206085205078125,-1.05377197265625,3,2445
377,-1.0614013671875,64.3626538374999,-0.0208526611328125,-1.060791015625,3,2446
378,-1.06857299804688,64.3865588374396,-0.021270751953125,-1.06781005859375,3,2447
379,-1.07574462890625,64.4104638373792,-0.0228179931640625,-1.07513427734375,3,2448
380,-1.08291625976563,64.4343688373189,-0.06097412109375,-1.0821533203125,3,2449
381,-1.090087890625,64.4582738372585,-0.110626220703125,-1.0894775390625,3,2450
382,-1.09725952148438,64.4821788371981,-0.133270263671875,-1.09619140625,3,2451
383,-1.10443115234375,64.5060838371378,-0.1468505859375,-1.10382080078125,3,2452
384,-1.11160278320313,64.5299888370774,-0.157684326171875,-1.11083984375,3,2453
385,-1.1187744140625,64.5538938370171,-0.160888671875,-1.1181640625,3,2454
386,-1.12594604492188,64.5777988369567,-0.16143798828125,-1.12579345703125,3,2455
387,-1.13311767578125,64.6017038368964,-0.160614013671875,-1.13250732421875,3,2456
388,-1.14028930664063,64.625608836836,-0.158660888671875,-1.13983154296875,3,2457
389,-1.1474609375,64.6495138367757,-0.156005859375,-1.1468505859375,3,2458
390,-1.15463256835938,64.6734188367153,-0.152679443359375,-1.15478515625,3,2459
391,-1.16180419921875,64.697323836655,-0.148895263671875,-1.160888671875,3,2460
392,-1.16897583007813,64.7212288365946,-0.144775390625,-1.16790771484375,3,2461
393,-1.1761474609375,64.7451338365343,-0.1405029296875,-1.17523193359375,3,2462
394,-1.18331909179688,64.7690388364739,-0.13641357421875,-1.18255615234375,3,2463
395,-1.19049072265625,64.7929438364135,-0.132232666015625,-1.1895751953125,3,2464
396,-1.19766235351563,64.8168488363532,-0.12823486328125,-1.19720458984375,3,2465
397,-1.204833984375,64.8407538362928,-0.12445068359375,-1.2042236328125,3,2466
398,-1.21200561523438,64.8646588362325,-0.120758056640625,-1.2115478515625,3,2467
399,-1.21917724609375,64.8885638361721,-0.117279052734375,-1.21856689453125,3,2468
400,-1.22634887695313,64.9124688361118,-0.113922119140625,-1.22528076171875,3,2469
401,-1.2335205078125,64.9363738360514,-0.110809326171875,-1.23321533203125,3,2470
402,-1.24069213867188,64.9602788359911,-0.10784912109375,-1.23992919921875,3,2471
403,-1.24786376953125,64.9841838359307,-0.10498046875,-1.24725341796875,3,2472
404,-1.25503540039063,65.0080888358704,-0.10223388671875,-1.2542724609375,3,2473
405,-1.26220703125,65.03199383581,-0.099700927734375,-1.2615966796875,3,2474
406,-1.26937866210938,65.0558988357496,-0.0972900390625,-1.2689208984375,3,2475
407,-1.27655029296875,65.0798038356893,-0.09503173828125,-1.27593994140625,3,2476
408,-1.28372192382813,65.1037088356289,-0.0927734375,-1.28326416015625,3,2477
409,-1.2908935546875,65.1276138355686,-0.09063720703125,-1.290283203125,3,2478
410,-1.29806518554688,65.1515188355082,-0.08856201171875,-1.29791259765625,3,2479
411,-1.30523681640625,65.1754238354479,-0.086578369140625,-1.3043212890625,3,2480
412,-1.31240844726563,65.1993288353875,-0.084716796875,-1.312255859375,3,2481
413,-1.319580078125,65.2232338353272,-0.08294677734375,-1.31927490234375,3,2482
414,-1.32675170898438,65.2471388352668,-0.08123779296875,-1.326904296875,3,2483
415,-1.33392333984375,65.2710438352065,-0.079620361328125,-1.3336181640625,3,2484
416,-1.34109497070313,65.2949488351461,-0.078094482421875,-1.3409423828125,3,2485
417,-1.3482666015625,65.3188538350857,-0.07666015625,-1.34765625,3,2486
418,-1.35543823242188,65.3427588350254,-0.075225830078125,-1.35467529296875,3,2487
419,-1.36260986328125,65.366663834965,-0.073883056640625,-1.3629150390625,3,2488
420,-1.36978149414063,65.3905688349047,-0.072601318359375,-1.3690185546875,3,2489
421,-1.376953125,65.4144738348443,-0.0714111328125,-1.37603759765625,3,2490
422,-1.38412475585938,65.438378834784,-0.070281982421875,-1.3836669921875,3,2491
423,-1.39129638671875,65.4622838347236,-0.0692138671875,-1.39068603515625,3,2492
424,-1.39846801757813,65.4861888346633,-0.0682373046875,-1.39801025390625,3,2493
425,-1.4056396484375,65.5100938346029,-0.067291259765625,-1.4056396484375,3,2494
426,-1.41281127929688,65.5339988345426,-0.066375732421875,-1.41265869140625,3,2495
427,-1.41998291015625,65.5579038344822,-0.06549072265625,-1.4190673828125,3,2496
428,-1.42715454101563,65.5818088344218,-0.064697265625,-1.42669677734375,3,2497
429,-1.434326171875,65.6057138343615,-0.06396484375,-1.43402099609375,3,2498
430,-1.44149780273438,65.6296188343011,-0.063262939453125,-1.44134521484375,3,2499
431,-1.44866943359375,65.6535238342408,-0.0626220703125,-1.44775390625,3,2500
432,-1.45584106445313,65.6774288341804,-0.062042236328125,-1.455078125,3,2501
433,-1.4630126953125,65.7013338341201,-0.06146240234375,-1.46240234375,3,2502
434,-1.47018432617188,65.7252388340597,-0.060943603515625,-1.4697265625,3,2503
435,-1.47735595703125,65.7491438339994,-0.060455322265625,-1.47705078125,3,2504
436,-1.48452758789063,65.773048833939,-0.05999755859375,-1.48406982421875,3,2505
437,-1.49169921875,65.7969538338787,-0.0595703125,-1.49139404296875,3,2506
438,-1.49887084960938,65.8208588338183,-0.0592041015625,-1.4984130859375,3,2507
439,-1.50604248046875,65.844763833758,-0.058807373046875,-1.50543212890625,3,2508
440,-1.51321411132813,65.8686688336976,-0.0584716796875,-1.5130615234375,3,2509
441,-1.5203857421875,65.8925738336372,-0.058135986328125,-1.52008056640625,3,2510
442,-1.52755737304688,65.9164788335769,-0.057830810546875,-1.52740478515625,3,2511
443,-1.53472900390625,65.9403838335165,-0.057525634765625,-1.534423828125,3,2512
444,-1.54190063476563,65.9642888334562,-0.0572509765625,-1.5411376953125,3,2513
445,-1.549072265625,65.9881938333958,-0.056976318359375,-1.5484619140625,3,2514
446,-1.55624389648438,66.0120988333355,-0.05670166015625,-1.5557861328125,3,2515
447,-1.56341552734375,66.0360038332751,-0.056427001953125,-1.56341552734375,3,2516
448,-1.57058715820313,66.0599088332148,-0.05615234375,-1.5704345703125,3,2517
449,-1.5777587890625,66.0838138331544,-0.055877685546875,-1.57745361328125,3,2518
450,-1.58493041992188,66.1077188330941,-0.05560302734375,-1.5850830078125,3,2519
451,-1.59210205078125,66.1316238330337,-0.05535888671875,-1.59210205078125,3,2520
452,-1.59927368164063,66.1555288329733,-0.05511474609375,-1.59942626953125,3,2521
453,-1.6064453125,66.179433832913,-0.05487060546875,-1.60675048828125,3,2522
454,-1.61361694335938,66.2033388328526,-0.05462646484375,-1.6131591796875,3,2523
455,-1.62078857421875,66.2272438327923,-0.054351806640625,-1.62017822265625,3,2524
456,-1.62796020507813,66.2511488327319,-0.054107666015625,-1.627197265625,3,2525
457,-1.6351318359375,66.2750538326716,-0.0538330078125,-1.63482666015625,3,2526
458,-1.64230346679688,66.2989588326112,-0.053558349609375,-1.64215087890625,3,2527
459,-1.64947509765625,66.3228638325509,-0.053314208984375,-1.64947509765625,3,2528
460,-1.65664672851563,66.3467688324905,-0.05303955078125,-1.656494140625,3,2529
461,-1.663818359375,66.3706738324302,-0.05279541015625,-1.663818359375,3,2530
462,-1.67098999023438,66.3945788323698,-0.052520751953125,-1.67083740234375,3,2531
463,-1.67816162109375,66.4184838323094,-0.05224609375,-1.67816162109375,3,2532
464,-1.68533325195313,66.4423888322491,-0.051971435546875,-1.68548583984375,3,2533
465,-1.6925048828125,66.4662938321887,-0.05169677734375,-1.69219970703125,3,2534
466,-1.69967651367188,66.4901988321284,-0.051422119140625,-1.6998291015625,3,2535
467,-1.70684814453125,66.514103832068,-0.051177978515625,-1.70684814453125,3,2536
468,-1.71401977539063,66.5380088320077,-0.05096435546875,-1.7132568359375,3,2537
469,-1.72119140625,66.5619138319473,-0.05072021484375,-1.7205810546875,3,2538
470,-1.72836303710938,66.585818831887,-0.05047607421875,-1.72760009765625,3,2539
471,-1.73553466796875,66.6097238318266,-0.05023193359375,-1.73492431640625,3,2540
472,-1.74270629882813,66.6336288317663,-0.04998779296875,-1.7425537109375,3,2541
473,-1.7498779296875,66.6575338317059,-0.0497344970703125,-1.74957275390625,3,2542
474,-1.75704956054688,66.6814388316456,-0.04951171875,-1.7572021484375,3,2543
475,-1.76422119140625,66.7053438315852,-0.0493255615234375,-1.76422119140625,3,2544
476,-1.77139282226563,66.7292488315248,-0.049127197265625,-1.771240234375,3,2545
477,-1.778564453125,66.7531538314645,-0.0489349365234375,-1.77825927734375,3,2546
478,-1.78573608398438,66.7770588314041,-0.0487152099609375,-1.78558349609375,3,2547
479,-1.79290771484375,66.8009638313438,-0.048529052734375,-1.7926025390625,3,2548
480,-1.80007934570313,66.8248688312834,-0.0483306884765625,-1.7999267578125,3,2549
481,-1.8072509765625,66.8487738312231,-0.04815673828125,-1.8072509765625,3,2550
482,-1.81442260742188,66.8726788311627,-0.04798583984375,-1.81365966796875,3,2551
483,-1.82159423828125,66.8965838311024,-0.0477813720703125,-1.8212890625,3,2552
484,-1.82876586914063,66.920488831042,-0.047613525390625,-1.82891845703125,3,2553
485,-1.8359375,66.9443938309817,-0.0474334716796875,-1.83563232421875,3,2554
486,-1.84310913085938,66.9682988309213,-0.0472625732421875,-1.84356689453125,3,2555
487,-1.85028076171875,66.9922038308609,-0.0470947265625,-1.8505859375,3,2556
488,-1.85745239257813,67.0161088308006,-0.046923828125,-1.85791015625,3,2557
489,-1.8646240234375,67.0400138307402,-0.04676513671875,-1.8646240234375,3,2558
490,-1.87179565429688,67.0639188306799,-0.0466064453125,-1.8719482421875,3,2559
491,-1.87896728515625,67.0878238306195,-0.04644775390625,-1.8792724609375,3,2560
492,-1.88613891601563,67.1117288305592,-0.04627685546875,-1.8865966796875,3,2561
493,-1.893310546875,67.1356338304988,-0.0461151123046875,-1.893310546875,3,2562
494,-1.90048217773438,67.1595388304385,-0.04595947265625,-1.90093994140625,3,2563
495,-1.90765380859375,67.1834438303781,-0.0457977294921875,-1.90765380859375,3,2564
496,-1.91482543945313,67.2073488303178,-0.0456451416015625,-1.915283203125,3,2565
497,-1.9219970703125,67.2312538302574,-0.045489501953125,-1.92169189453125,3,2566
498,-1.92916870117188,67.255158830197,-0.0453338623046875,-1.92962646484375,3,2567
499,-1.93634033203125,67.2790638301367,-0.0451812744140625,-1.9366455078125,3,2568
500,-1.94351196289063,67.3029688300763,-0.04501953125,-1.9439697265625,3,2569
501,-1.95068359375,67.326873830016,-0.044873046875,-1.9512939453125,3,2570
502,-1.95785522460938,67.3507788299556,-0.044720458984375,-1.95831298828125,3,2571
503,-1.96502685546875,67.3746838298953,-0.044573974609375,-1.96502685546875,3,2572
504,-1.97219848632813,67.3985888298349,-0.044427490234375,-1.97265625,3,2573
505,-1.9793701171875,67.4224938297746,-0.04429931640625,-1.97967529296875,3,2574
506,-1.98654174804688,67.4463988297142,-0.0441650390625,-1.9866943359375,3,2575
507,-1.99371337890625,67.4703038296539,-0.0440399169921875,-1.99432373046875,3,2576
508,-2.00088500976563,67.4942088295935,-0.0438995361328125,-2.00103759765625,3,2577
509,-2.008056640625,67.5181138295331,-0.043792724609375,-2.00836181640625,3,2578
510,-2.01522827148438,67.5420188294728,-0.043701171875,-2.01568603515625,3,2579
511,-2.02239990234375,67.5659238294124,-0.0436248779296875,-2.02239990234375,3,2580
512,-2.02957153320313,67.5898288293521,-0.0435791015625,-2.02972412109375,3,2581
513,-2.0367431640625,67.6137338292917,-0.0435333251953125,-2.0367431640625,3,2582
514,-2.04391479492188,67.6376388292314,-0.043511962890625,-2.0440673828125,3,2583
515,-2.05108642578125,67.661543829171,-0.0434967041015625,-2.05108642578125,3,2584
516,-2.05825805664063,67.6854488291107,-0.043499755859375,-2.05810546875,3,2585
517,-2.0654296875,67.7093538290503,-0.0435211181640625,-2.0654296875,3,2586
518,-2.07260131835938,67.73325882899,-0.0435638427734375,-2.07275390625,3,2587
519,-2.07977294921875,67.7571638289296,-0.043603515625,-2.07977294921875,3,2588
520,-2.08694458007813,67.7810688288693,-0.0436676025390625,-2.08709716796875,3,2589
521,-2.0941162109375,67.8049738288089,-0.043768310546875,-2.09442138671875,3,2590
522,-2.10128784179688,67.8288788287485,-0.0438323974609375,-2.10113525390625,3,2591
523,-2.10845947265625,67.8527838286882,-0.0439697265625,-2.1087646484375,3,2592
524,-2.11563110351563,67.8766888286278,-0.044073486328125,-2.11578369140625,3,2593
525,-2.122802734375,67.9005938285675,-0.0442108154296875,-2.12310791015625,3,2594
526,-2.12997436523438,67.9244988285071,-0.04434814453125,-2.130126953125,3,2595
527,-2.13714599609375,67.9484038284468,-0.044500732421875,-2.13775634765625,3,2596
528,-2.14431762695313,67.9723088283864,-0.04466552734375,-2.14447021484375,3,2597
529,-2.1514892578125,67.9962138283261,-0.0448333740234375,-2.152099609375,3,2598
530,-2.15866088867188,68.0201188282657,-0.0449859619140625,-2.159423828125,3,2599
531,-2.16583251953125,68.0440238282054,-0.04512939453125,-2.16644287109375,3,2600
532,-2.17300415039063,68.067928828145,-0.0452911376953125,-2.17376708984375,3,2601
533,-2.18017578125,68.0918338280846,-0.0454345703125,-2.18048095703125,3,2602
534,-2.18734741210938,68.1157388280243,-0.045574951171875,-2.18780517578125,3,2603
535,-2.19451904296875,68.1396438279639,-0.0457000732421875,-2.19482421875,3,2604
536,-2.20169067382813,68.1635488279036,-0.0457977294921875,-2.20245361328125,3,2605
537,-2.2088623046875,68.1874538278432,-0.0459136962890625,-2.20947265625,3,2606
538,-2.21603393554688,68.2113588277829,-0.0460113525390625,-2.216796875,3,2607
539,-2.22320556640625,68.2352638277225,-0.04610595703125,-2.22381591796875,3,2608
540,-2.23037719726563,68.2591688276622,-0.0461761474609375,-2.23114013671875,3,2609
541,-2.237548828125,68.2830738276018,-0.0462554931640625,-2.23785400390625,3,2610
542,-2.24472045898438,68.3069788275415,-0.046295166015625,-2.24517822265625,3,2611
543,-2.25189208984375,68.3308838274811,-0.0463287353515625,-2.252197265625,3,2612
544,-2.25906372070313,68.3547888274207,-0.04635009765625,-2.2601318359375,3,2613
545,-2.2662353515625,68.3786938273604,-0.046343994140625,-2.26654052734375,3,2614
546,-2.27340698242188,68.4025988273,-0.046343994140625,-2.27447509765625,3,2615
547,-2.28057861328125,68.4265038272397,-0.0463043212890625,-2.28118896484375,3,2616
548,-2.28775024414063,68.4504088271793,-0.046246337890625,-2.2882080078125,3,2617
549,-2.294921875,68.474313827119,-0.0461822509765625,-2.2955322265625,3,2618
550,-2.30209350585938,68.4982188270586,-0.0460693359375,-2.30255126953125,3,2619
551,-2.30926513671875,68.5221238269983,-0.0459747314453125,-2.30987548828125,3,2620
552,-2.31643676757813,68.5460288269379,-0.045867919921875,-2.31689453125,3,2621
553,-2.3236083984375,68.5699338268776,-0.045758056640625,-2.32391357421875,3,2622
554,-2.33078002929688,68.5938388268172,-0.04566650390625,-2.33154296875,3,2623
555,-2.33795166015625,68.6177438267569,-0.04556884765625,-2.33856201171875,3,2624
556,-2.34512329101563,68.6416488266965,-0.0454803466796875,-2.34527587890625,3,2625
557,-2.352294921875,68.6655538266361,-0.045404052734375,-2.3529052734375,3,2626
558,-2.35946655273438,68.6894588265758,-0.0453369140625,-2.36053466796875,3,2627
559,-2.36663818359375,68.7133638265154,-0.0452545166015625,-2.366943359375,3,2628
560,-2.37380981445313,68.7372688264551,-0.045172119140625,-2.374267578125,3,2629
561,-2.3809814453125,68.7611738263947,-0.0450836181640625,-2.381591796875,3,2630
562,-2.38815307617188,68.7850788263344,-0.04503173828125,-2.38861083984375,3,2631
563,-2.39532470703125,68.808983826274,-0.0449432373046875,-2.39532470703125,3,2632
564,-2.40249633789063,68.8328888262137,-0.0448760986328125,-2.4029541015625,3,2633
565,-2.40966796875,68.8567938261533,-0.04481201171875,-2.41058349609375,3,2634
566,-2.41683959960938,68.880698826093,-0.0447479248046875,-2.41790771484375,3,2635
567,-2.42401123046875,68.9046038260326,-0.044720458984375,-2.42462158203125,3,2636
568,-2.43118286132813,68.9285088259722,-0.0446685791015625,-2.43194580078125,3,2637
569,-2.4383544921875,68.9524138259119,-0.0446319580078125,-2.43865966796875,3,2638
570,-2.44552612304688,68.9763188258515,-0.044610595703125,-2.44598388671875,3,2639
571,-2.45269775390625,69.0002238257912,-0.0445770263671875,-2.45330810546875,3,2640
572,-2.45986938476563,69.0241288257308,-0.0445648193359375,-2.4603271484375,3,2641
573,-2.467041015625,69.0480338256705,-0.0445526123046875,-2.46826171875,3,2642
574,-2.47421264648438,69.0719388256101,-0.0445648193359375,-2.4749755859375,3,2643
575,-2.48138427734375,69.0958438255498,-0.0445526123046875,-2.4822998046875,3,2644
576,-2.48855590820313,69.1197488254894,-0.044561767578125,-2.48931884765625,3,2645
577,-2.4957275390625,69.1436538254291,-0.04456787109375,-2.49664306640625,3,2646
578,-2.50289916992188,69.1675588253687,-0.044610595703125,-2.5042724609375,3,2647
579,-2.51007080078125,69.1914638253083,-0.0446380615234375,-2.510986328125,3,2648
580,-2.51724243164063,69.215368825248,-0.044659423828125,-2.51739501953125,3,2649
581,-2.5244140625,69.2392738251876,-0.0447235107421875,-2.52471923828125,3,2650
582,-2.53158569335938,69.2631788251273,-0.0447998046875,-2.5323486328125,3,2651
583,-2.53875732421875,69.2870838250669,-0.044873046875,-2.5396728515625,3,2652
584,-2.54592895507813,69.3109888250066,-0.044970703125,-2.5469970703125,3,2653
585,-2.5531005859375,69.3348938249462,-0.0450927734375,-2.5537109375,3,2654
586,-2.56027221679688,69.3587988248859,-0.04521484375,-2.56072998046875,3,2655
587,-2.56744384765625,69.3827038248255,-0.045361328125,-2.568359375,3,2656
588,-2.57461547851563,69.4066088247652,-0.04554443359375,-2.57598876953125,3,2657
589,-2.581787109375,69.4305138247048,-0.0457763671875,-2.5823974609375,3,2658
590,-2.58895874023438,69.4544188246444,-0.04595947265625,-2.5897216796875,3,2659
591,-2.59613037109375,69.4783238245841,-0.04613037109375,-2.5970458984375,3,2660
592,-2.60330200195313,69.5022288245237,-0.0464019775390625,-2.6043701171875,3,2661
593,-2.6104736328125,69.5261338244634,-0.04671630859375,-2.6116943359375,3,2662
594,-2.61764526367188,69.550038824403,-0.0470184326171875,-2.6190185546875,3,2663
595,-2.62481689453125,69.5739438243427,-0.0474151611328125,-2.62542724609375,3,2664
596,-2.63198852539063,69.5978488242823,-0.0478271484375,-2.63336181640625,3,2665
597,-2.63916015625,69.621753824222,-0.0482696533203125,-2.640380859375,3,2666
598,-2.64633178710938,69.6456588241616,-0.0487518310546875,-2.647705078125,3,2667
599,-2.65350341796875,69.6695638241013,-0.0493255615234375,-2.655029296875,3,2668
600,-2.66067504882813,69.6934688240409,-0.050079345703125,-2.66265869140625,3,2669
601,-2.6678466796875,69.7173738239806,-0.05078125,-2.6690673828125,3,2670
602,-2.67501831054688,69.7412788239202,-0.05145263671875,-2.6763916015625,3,2671
603,-2.68218994140625,69.7651838238598,-0.0521240234375,-2.68341064453125,3,2672
604,-2.68936157226563,69.7890888237995,-0.05279541015625,-2.6910400390625,3,2673
605,-2.696533203125,69.8129938237391,-0.053466796875,-2.69805908203125,3,2674
606,-2.70370483398438,69.8368988236788,-0.0540771484375,-2.70477294921875,3,2675
607,-2.71087646484375,69.8608038236184,-0.054931640625,-2.71209716796875,3,2676
608,-2.71804809570313,69.8847088235581,-0.055816650390625,-2.7197265625,3,2677
609,-2.7252197265625,69.9086138234977,-0.056488037109375,-2.72674560546875,3,2678
610,-2.73239135742188,69.9325188234374,-0.057220458984375,-2.73406982421875,3,2679
611,-2.73956298828125,69.956423823377,-0.0579833984375,-2.740478515625,3,2680
612,-2.74673461914063,69.9803288233167,-0.05889892578125,-2.74810791015625,3,2681
613,-2.75390625,70.0042338232563,-0.059814453125,-2.755126953125,3,2682
614,-2.76107788085938,70.0281388231959,-0.060638427734375,-2.762451171875,3,2683
615,-2.76824951171875,70.0520438231356,-0.061614990234375,-2.76947021484375,3,2684
616,-2.77542114257813,70.0759488230752,-0.062835693359375,-2.777099609375,3,2685
617,-2.7825927734375,70.0998538230149,-0.06427001953125,-2.7838134765625,3,2686
618,-2.78976440429688,70.1237588229545,-0.065582275390625,-2.7911376953125,3,2687
619,-2.79693603515625,70.1476638228942,-0.06707763671875,-2.79876708984375,3,2688
620,-2.80410766601563,70.1715688228338,-0.068634033203125,-2.8057861328125,3,2689
621,-2.811279296875,70.1954738227735,-0.0701904296875,-2.81280517578125,3,2690
622,-2.81845092773438,70.2193788227131,-0.0718994140625,-2.81982421875,3,2691
623,-2.82562255859375,70.2432838226528,-0.073577880859375,-2.8271484375,3,2692
624,-2.83279418945313,70.2671888225924,-0.07574462890625,-2.83447265625,3,2693
625,-2.8399658203125,70.291093822532,-0.077911376953125,-2.84149169921875,3,2694
626,-2.84713745117188,70.3149988224717,-0.080780029296875,-2.84912109375,3,2695
627,-2.85430908203125,70.3389038224113,-0.09307861328125,-2.85552978515625,3,2696
628,-2.86148071289063,70.362808822351,-0.175445556640625,-2.8631591796875,3,2697
629,-2.86865234375,70.3867138222906,-0.324493408203125,-2.869873046875,3,2698
630,-2.87582397460938,70.4106188222303,-0.5010986328125,-2.877197265625,3,2699
631,-2.88299560546875,70.4345238221699,-0.682373046875,-2.88482666015625,3,2700
632,-2.87582397460938,70.4584288221096,-0.415771484375,-2.8778076171875,3,2701
633,-2.86865234375,70.4823338220492,-0.177337646484375,-2.869873046875,3,2702
634,-2.86148071289063,70.5062388219889,0.03248291015625,-2.86346435546875,3,2703
635,-2.85430908203125,70.5301438219285,0.229583740234375,-2.85614013671875,3,2704
636,-2.84713745117188,70.5540488218682,0.398345947265625,-2.84942626953125,3,2705
637,-2.8399658203125,70.5779538218078,0.47637939453125,-2.84149169921875,3,2706
638,-2.83279418945313,70.6018588217474,0.119384765625,-2.83447265625,3,2707
639,-2.82562255859375,70.6257638216871,-0.021539306640625,-2.8271484375,3,2708
640,-2.81845092773438,70.6496688216267,-0.05224609375,-2.81951904296875,3,2709
641,-2.811279296875,70.6735738215664,-0.052825927734375,-2.8131103515625,3,2710
642,-2.80410766601563,70.697478821506,-0.052642822265625,-2.80548095703125,3,2711
643,-2.79693603515625,70.7213838214457,-0.052520751953125,-2.7984619140625,3,2712
644,-2.78976440429688,70.7452888213853,-0.052490234375,-2.7911376953125,3,2713
645,-2.7825927734375,70.769193821325,-0.052703857421875,-2.78411865234375,3,2714
646,-2.77542114257813,70.7930988212646,-0.05303955078125,-2.77679443359375,3,2715
647,-2.76824951171875,70.8170038212043,-0.053314208984375,-2.76947021484375,3,2716
648,-2.76107788085938,70.8409088211439,-0.053558349609375,-2.762451171875,3,2717
649,-2.75390625,70.8648138210835,-0.053955078125,-2.75543212890625,3,2718
650,-2.74673461914063,70.8887188210232,-0.054443359375,-2.74749755859375,3,2719
651,-2.73956298828125,70.9126238209628,-0.054779052734375,-2.7410888671875,3,2720
652,-2.73239135742188,70.9365288209025,-0.055145263671875,-2.7337646484375,3,2721
653,-2.7252197265625,70.9604338208421,-0.0552978515625,-2.72674560546875,3,2722
654,-2.71804809570313,70.9843388207818,-0.055419921875,-2.72003173828125,3,2723
655,-2.71087646484375,71.0082438207214,-0.055511474609375,-2.7117919921875,3,2724
656,-2.70370483398438,71.0321488206611,-0.055572509765625,-2.70538330078125,3,2725
657,-2.696533203125,71.0560538206007,-0.055389404296875,-2.69775390625,3,2726
658,-2.68936157226563,71.0799588205404,-0.055084228515625,-2.6910400390625,3,2727
659,-2.68218994140625,71.10386382048,-0.054718017578125,-2.68341064453125,3,2728
660,-2.67501831054688,71.1277688204196,-0.0543212890625,-2.67608642578125,3,2729
661,-2.6678466796875,71.1516738203593,-0.0538330078125,-2.6690673828125,3,2730
662,-2.66067504882813,71.1755788202989,-0.0533447265625,-2.6617431640625,3,2731
663,-2.65350341796875,71.1994838202386,-0.052703857421875,-2.6544189453125,3,2732
664,-2.64633178710938,71.2233888201782,-0.052276611328125,-2.64739990234375,3,2733
665,-2.63916015625,71.2472938201179,-0.05169677734375,-2.640380859375,3,2734
666,-2.63198852539063,71.2711988200575,-0.051177978515625,-2.63397216796875,3,2735
667,-2.62481689453125,71.2951038199972,-0.050567626953125,-2.62603759765625,3,2736
668,-2.61764526367188,71.3190088199368,-0.049957275390625,-2.618408203125,3,2737
669,-2.6104736328125,71.3429138198765,-0.0493988037109375,-2.6116943359375,3,2738
670,-2.60330200195313,71.3668188198161,-0.04893798828125,-2.6043701171875,3,2739
671,-2.59613037109375,71.3907238197557,-0.0484619140625,-2.5970458984375,3,2740
672,-2.58895874023438,71.4146288196954,-0.047943115234375,-2.5897216796875,3,2741
673,-2.581787109375,71.438533819635,-0.0474761962890625,-2.5830078125,3,2742
674,-2.57461547851563,71.4624388195747,-0.0470062255859375,-2.5762939453125,3,2743
675,-2.56744384765625,71.4863438195143,-0.04656982421875,-2.56866455078125,3,2744
676,-2.56027221679688,71.510248819454,-0.046160888671875,-2.56134033203125,3,2745
677,-2.5531005859375,71.5341538193936,-0.045770263671875,-2.5543212890625,3,2746
678,-2.54592895507813,71.5580588193333,-0.04542236328125,-2.54669189453125,3,2747
679,-2.53875732421875,71.5819638192729,-0.045068359375,-2.53997802734375,3,2748
680,-2.53158569335938,71.6058688192126,-0.0447357177734375,-2.5323486328125,3,2749
681,-2.5244140625,71.6297738191522,-0.044390869140625,-2.52532958984375,3,2750
682,-2.51724243164063,71.6536788190919,-0.044061279296875,-2.518310546875,3,2751
683,-2.51007080078125,71.6775838190315,-0.0437347412109375,-2.51068115234375,3,2752
684,-2.50289916992188,71.7014888189711,-0.0434326171875,-2.50335693359375,3,2753
685,-2.4957275390625,71.7253938189108,-0.0431610107421875,-2.4969482421875,3,2754
686,-2.48855590820313,71.7492988188504,-0.042852783203125,-2.4896240234375,3,2755
687,-2.48138427734375,71.7732038187901,-0.042596435546875,-2.48199462890625,3,2756
688,-2.47421264648438,71.7971088187297,-0.042315673828125,-2.47528076171875,3,2757
689,-2.467041015625,71.8210138186694,-0.042095947265625,-2.46795654296875,3,2758
690,-2.45986938476563,71.844918818609,-0.041796875,-2.4603271484375,3,2759
691,-2.45269775390625,71.8688238185487,-0.0415802001953125,-2.45330810546875,3,2760
692,-2.44552612304688,71.8927288184883,-0.04134521484375,-2.44659423828125,3,2761
693,-2.4383544921875,71.916633818428,-0.04112548828125,-2.43927001953125,3,2762
694,-2.43118286132813,71.9405388183676,-0.04090576171875,-2.431640625,3,2763
695,-2.42401123046875,71.9644438183072,-0.040667724609375,-2.42523193359375,3,2764
696,-2.41683959960938,71.9883488182469,-0.0404541015625,-2.4176025390625,3,2765
697,-2.40966796875,72.0122538181865,-0.0402313232421875,-2.4102783203125,3,2766
698,-2.40249633789063,72.0361588181262,-0.0400177001953125,-2.40264892578125,3,2767
699,-2.39532470703125,72.0600638180658,-0.039794921875,-2.39593505859375,3,2768
700,-2.38815307617188,72.0839688180055,-0.0395904541015625,-2.388916015625,3,2769
701,-2.3809814453125,72.1078738179451,-0.039385986328125,-2.381591796875,3,2770
702,-2.37380981445313,72.1317788178848,-0.0391815185546875,-2.37396240234375,3,2771
703,-2.36663818359375,72.1556838178244,-0.03900146484375,-2.36724853515625,3,2772
704,-2.35946655273438,72.1795888177641,-0.0387908935546875,-2.3602294921875,3,2773
705,-2.352294921875,72.2034938177037,-0.038604736328125,-2.35260009765625,3,2774
706,-2.34512329101563,72.2273988176433,-0.0384033203125,-2.34588623046875,3,2775
707,-2.33795166015625,72.251303817583,-0.0382232666015625,-2.33917236328125,3,2776
708,-2.33078002929688,72.2752088175226,-0.03804931640625,-2.33154296875,3,2777
709,-2.3236083984375,72.2991138174623,-0.037872314453125,-2.32391357421875,3,2778
710,-2.31643676757813,72.3230188174019,-0.0377044677734375,-2.31658935546875,3,2779
711,-2.30926513671875,72.3469238173416,-0.03753662109375,-2.31048583984375,3,2780
712,-2.30209350585938,72.3708288172812,-0.0373809814453125,-2.30224609375,3,2781
713,-2.294921875,72.3947338172209,-0.0372222900390625,-2.29583740234375,3,2782
714,-2.28775024414063,72.4186388171605,-0.037091064453125,-2.2882080078125,3,2783
715,-2.28057861328125,72.4425438171002,-0.036944580078125,-2.2808837890625,3,2784
716,-2.27340698242188,72.4664488170398,-0.036810302734375,-2.27447509765625,3,2785
717,-2.2662353515625,72.4903538169795,-0.0366973876953125,-2.26654052734375,3,2786
718,-2.25906372070313,72.5142588169191,-0.036566162109375,-2.259521484375,3,2787
719,-2.25189208984375,72.5381638168587,-0.0364654541015625,-2.25189208984375,3,2788
720,-2.24472045898438,72.5620688167984,-0.03634033203125,-2.2454833984375,3,2789
721,-2.237548828125,72.585973816738,-0.03623046875,-2.2381591796875,3,2790
722,-2.23037719726563,72.6098788166777,-0.0361236572265625,-2.2308349609375,3,2791
723,-2.22320556640625,72.6337838166173,-0.0360198974609375,-2.2235107421875,3,2792
724,-2.21603393554688,72.657688816557,-0.035943603515625,-2.2161865234375,3,2793
725,-2.2088623046875,72.6815938164966,-0.0358734130859375,-2.20947265625,3,2794
726,-2.20169067382813,72.7054988164363,-0.0357940673828125,-2.20245361328125,3,2795
727,-2.19451904296875,72.7294038163759,-0.0357208251953125,-2.19482421875,3,2796
728,-2.18734741210938,72.7533088163156,-0.03565673828125,-2.1875,3,2797
729,-2.18017578125,72.7772138162552,-0.03558349609375,-2.18048095703125,3,2798
730,-2.17300415039063,72.8011188161948,-0.0355712890625,-2.1734619140625,3,2799
731,-2.16583251953125,72.8250238161345,-0.0355133056640625,-2.1661376953125,3,2800
732,-2.15866088867188,72.8489288160741,-0.0354705810546875,-2.159423828125,3,2801
733,-2.1514892578125,72.8728338160138,-0.035467529296875,-2.152099609375,3,2802
734,-2.14431762695313,72.8967388159534,-0.0354095458984375,-2.144775390625,3,2803
735,-2.13714599609375,72.9206438158931,-0.0354278564453125,-2.13714599609375,3,2804
736,-2.12997436523438,72.9445488158327,-0.0353729248046875,-2.1307373046875,3,2805
737,-2.122802734375,72.9684538157724,-0.0353729248046875,-2.12310791015625,3,2806
738,-2.11563110351563,72.992358815712,-0.0353363037109375,-2.11578369140625,3,2807
739,-2.10845947265625,73.0162638156517,-0.0353179931640625,-2.108154296875,3,2808
740,-2.10128784179688,73.0401688155913,-0.0352935791015625,-2.1014404296875,3,2809
741,-2.0941162109375,73.0640738155309,-0.0352691650390625,-2.0941162109375,3,2810
742,-2.08694458007813,73.0879788154706,-0.0352294921875,-2.08709716796875,3,2811
743,-2.07977294921875,73.1118838154102,-0.0351806640625,-2.08038330078125,3,2812
744,-2.07260131835938,73.1357888153499,-0.0351318359375,-2.07305908203125,3,2813
745,-2.0654296875,73.1596938152895,-0.0350799560546875,-2.0648193359375,3,2814
746,-2.05825805664063,73.1835988152292,-0.035015869140625,-2.05902099609375,3,2815
747,-2.05108642578125,73.2075038151688,-0.0349578857421875,-2.05108642578125,3,2816
748,-2.04391479492188,73.2314088151085,-0.034869384765625,-2.04437255859375,3,2817
749,-2.0367431640625,73.2553138150481,-0.0347808837890625,-2.03643798828125,3,2818
750,-2.02957153320313,73.2792188149878,-0.034698486328125,-2.0294189453125,3,2819
751,-2.02239990234375,73.3031238149274,-0.0345977783203125,-2.022705078125,3,2820
752,-2.01522827148438,73.327028814867,-0.0345001220703125,-2.015380859375,3,2821
753,-2.008056640625,73.3509338148067,-0.0343902587890625,-2.0086669921875,3,2822
754,-2.00088500976563,73.3748388147463,-0.03428955078125,-2.0013427734375,3,2823
755,-1.99371337890625,73.398743814686,-0.034173583984375,-1.9940185546875,3,2824
756,-1.98654174804688,73.4226488146256,-0.0340728759765625,-1.98638916015625,3,2825
757,-1.9793701171875,73.4465538145653,-0.033953857421875,-1.97967529296875,3,2826
758,-1.97219848632813,73.4704588145049,-0.0338653564453125,-1.9720458984375,3,2827
759,-1.96502685546875,73.4943638144446,-0.0337554931640625,-1.96533203125,3,2828
760,-1.95785522460938,73.5182688143842,-0.03365478515625,-1.9573974609375,3,2829
761,-1.95068359375,73.5421738143239,-0.03355712890625,-1.95098876953125,3,2830
762,-1.94351196289063,73.5660788142635,-0.0334564208984375,-1.943359375,3,2831
763,-1.93634033203125,73.5899838142032,-0.0333709716796875,-1.93634033203125,3,2832
764,-1.92916870117188,73.6138888141428,-0.0332733154296875,-1.929931640625,3,2833
765,-1.9219970703125,73.6377938140824,-0.033184814453125,-1.9219970703125,3,2834
766,-1.91482543945313,73.6616988140221,-0.03311767578125,-1.915283203125,3,2835
767,-1.90765380859375,73.6856038139617,-0.033038330078125,-1.90765380859375,3,2836
768,-1.90048217773438,73.7095088139014,-0.032965087890625,-1.90093994140625,3,2837
769,-1.893310546875,73.733413813841,-0.032891845703125,-1.893310546875,3,2838
770,-1.88613891601563,73.7573188137807,-0.0328338623046875,-1.885986328125,3,2839
771,-1.87896728515625,73.7812238137203,-0.0327362060546875,-1.87896728515625,3,2840
772,-1.87179565429688,73.80512881366,-0.032708740234375,-1.8719482421875,3,2841
773,-1.8646240234375,73.8290338135996,-0.0326019287109375,-1.86492919921875,3,2842
774,-1.85745239257813,73.8529388135393,-0.03258056640625,-1.85791015625,3,2843
775,-1.85028076171875,73.8768438134789,-0.03248291015625,-1.8499755859375,3,2844
776,-1.84310913085938,73.9007488134185,-0.032427978515625,-1.84326171875,3,2845
777,-1.8359375,73.9246538133582,-0.032366943359375,-1.8359375,3,2846
778,-1.82876586914063,73.9485588132978,-0.0323089599609375,-1.82861328125,3,2847
779,-1.82159423828125,73.9724638132375,-0.0322509765625,-1.82159423828125,3,2848
780,-1.81442260742188,73.9963688131771,-0.0321746826171875,-1.81396484375,3,2849
781,-1.8072509765625,74.0202738131168,-0.0321258544921875,-1.8072509765625,3,2850
782,-1.80007934570313,74.0441788130564,-0.0320709228515625,-1.79962158203125,3,2851
783,-1.79290771484375,74.0680838129961,-0.032012939453125,-1.793212890625,3,2852
784,-1.78573608398438,74.0919888129357,-0.0319580078125,-1.78558349609375,3,2853
785,-1.778564453125,74.1158938128754,-0.0318939208984375,-1.77886962890625,3,2854
786,-1.77139282226563,74.139798812815,-0.031842041015625,-1.77093505859375,3,2855
787,-1.76422119140625,74.1637038127546,-0.0317901611328125,-1.76422119140625,3,2856
788,-1.75704956054688,74.1876088126943,-0.0317474365234375,-1.7572021484375,3,2857
789,-1.7498779296875,74.2115138126339,-0.0317047119140625,-1.74957275390625,3,2858
790,-1.74270629882813,74.2354188125736,-0.03165283203125,-1.74224853515625,3,2859
791,-1.73553466796875,74.2593238125132,-0.0315887451171875,-1.73553466796875,3,2860
792,-1.72836303710938,74.2832288124529,-0.0315399169921875,-1.72821044921875,3,2861
793,-1.72119140625,74.3071338123925,-0.0315093994140625,-1.72088623046875,3,2862
794,-1.71401977539063,74.3310388123322,-0.0314666748046875,-1.7138671875,3,2863
795,-1.70684814453125,74.3549438122718,-0.0314453125,-1.70684814453125,3,2864
796,-1.69967651367188,74.3788488122115,-0.0313934326171875,-1.69921875,3,2865
797,-1.6925048828125,74.4027538121511,-0.0313720703125,-1.69219970703125,3,2866
798,-1.68533325195313,74.4266588120907,-0.031341552734375,-1.685791015625,3,2867
799,-1.67816162109375,74.4505638120304,-0.0313201904296875,-1.6778564453125,3,2868
800,-1.67098999023438,74.47446881197,-0.031317138671875,-1.6705322265625,3,2869
801,-1.663818359375,74.4983738119097,-0.03131103515625,-1.66351318359375,3,2870
802,-1.65664672851563,74.5222788118493,-0.0313140869140625,-1.656494140625,3,2871
803,-1.64947509765625,74.546183811789,-0.031304931640625,-1.64947509765625,3,2872
804,-1.64230346679688,74.5700888117286,-0.0313201904296875,-1.641845703125,3,2873
805,-1.6351318359375,74.5939938116683,-0.0313232421875,-1.634521484375,3,2874
806,-1.62796020507813,74.6178988116079,-0.03135986328125,-1.62750244140625,3,2875
807,-1.62078857421875,74.6418038115476,-0.031378173828125,-1.62017822265625,3,2876
808,-1.61361694335938,74.6657088114872,-0.031396484375,-1.61376953125,3,2877
809,-1.6064453125,74.6896138114269,-0.0314300537109375,-1.60614013671875,3,2878
810,-1.59927368164063,74.7135188113665,-0.03145751953125,-1.59912109375,3,2879
811,-1.59210205078125,74.7374238113061,-0.031512451171875,-1.59149169921875,3,2880
812,-1.58493041992188,74.7613288112458,-0.0315216064453125,-1.58477783203125,3,2881
813,-1.5777587890625,74.7852338111854,-0.031585693359375,-1.5771484375,3,2882
814,-1.57058715820313,74.8091388111251,-0.031597900390625,-1.57012939453125,3,2883
815,-1.56341552734375,74.8330438110647,-0.031640625,-1.56280517578125,3,2884
816,-1.55624389648438,74.8569488110044,-0.031689453125,-1.55609130859375,3,2885
817,-1.549072265625,74.880853810944,-0.0317108154296875,-1.54876708984375,3,2886
818,-1.54190063476563,74.9047588108837,-0.03177490234375,-1.54144287109375,3,2887
819,-1.53472900390625,74.9286638108233,-0.0317535400390625,-1.534423828125,3,2888
820,-1.52755737304688,74.952568810763,-0.031829833984375,-1.527099609375,3,2889
821,-1.5203857421875,74.9764738107026,-0.0318084716796875,-1.519775390625,3,2890
822,-1.51321411132813,75.0003788106422,-0.0318267822265625,-1.51275634765625,3,2891
823,-1.50604248046875,75.0242838105819,-0.0318511962890625,-1.50604248046875,3,2892
824,-1.49887084960938,75.0481888105215,-0.031842041015625,-1.49810791015625,3,2893
825,-1.49169921875,75.0720938104612,-0.0318450927734375,-1.4910888671875,3,2894
826,-1.48452758789063,75.0959988104008,-0.031829833984375,-1.48406982421875,3,2895
827,-1.47735595703125,75.1199038103405,-0.0318023681640625,-1.47674560546875,3,2896
828,-1.47018432617188,75.1438088102801,-0.0317840576171875,-1.4697265625,3,2897
829,-1.4630126953125,75.1677138102198,-0.0317413330078125,-1.46240234375,3,2898
830,-1.45584106445313,75.1916188101594,-0.031707763671875,-1.4556884765625,3,2899
831,-1.44866943359375,75.2155238100991,-0.03165283203125,-1.44805908203125,3,2900
832,-1.44149780273438,75.2394288100387,-0.03160400390625,-1.44073486328125,3,2901
833,-1.434326171875,75.2633338099783,-0.03153076171875,-1.43402099609375,3,2902
834,-1.42715454101563,75.287238809918,-0.0314605712890625,-1.42669677734375,3,2903
835,-1.41998291015625,75.3111438098576,-0.031365966796875,-1.419677734375,3,2904
836,-1.41281127929688,75.3350488097973,-0.031268310546875,-1.41204833984375,3,2905
837,-1.4056396484375,75.3589538097369,-0.03116455078125,-1.405029296875,3,2906
838,-1.39846801757813,75.3828588096766,-0.03104248046875,-1.39801025390625,3,2907
839,-1.39129638671875,75.4067638096162,-0.030938720703125,-1.3909912109375,3,2908
840,-1.38412475585938,75.4306688095559,-0.03079833984375,-1.3836669921875,3,2909
841,-1.376953125,75.4545738094955,-0.030657958984375,-1.376953125,3,2910
842,-1.36978149414063,75.4784788094352,-0.030499267578125,-1.3690185546875,3,2911
843,-1.36260986328125,75.5023838093748,-0.030328369140625,-1.36199951171875,3,2912
844,-1.35543823242188,75.5262888093145,-0.03013916015625,-1.35498046875,3,2913
845,-1.3482666015625,75.5501938092541,-0.0299346923828125,-1.34765625,3,2914
846,-1.34109497070313,75.5740988091937,-0.029730224609375,-1.34063720703125,3,2915
847,-1.33392333984375,75.5980038091334,-0.0294769287109375,-1.3330078125,3,2916
848,-1.32675170898438,75.621908809073,-0.029229736328125,-1.3262939453125,3,2917
849,-1.319580078125,75.6458138090127,-0.0289215087890625,-1.319580078125,3,2918
850,-1.31240844726563,75.6697188089523,-0.028607177734375,-1.31134033203125,3,2919
851,-1.30523681640625,75.693623808892,-0.0282562255859375,-1.304931640625,3,2920
852,-1.29806518554688,75.7175288088316,-0.027862548828125,-1.297607421875,3,2921
853,-1.2908935546875,75.7414338087713,-0.027459716796875,-1.290283203125,3,2922
854,-1.28372192382813,75.7653388087109,-0.0269378662109375,-1.282958984375,3,2923
855,-1.27655029296875,75.7892438086506,-0.0264862060546875,-1.27593994140625,3,2924
856,-1.26937866210938,75.8131488085902,-0.0258087158203125,-1.26861572265625,3,2925
857,-1.26220703125,75.8370538085298,-0.0252227783203125,-1.2615966796875,3,2926
858,-1.25503540039063,75.8609588084695,-0.0243804931640625,-1.2542724609375,3,2927
859,-1.24786376953125,75.8848638084091,-0.023583984375,-1.24755859375,3,2928
860,-1.24069213867188,75.9087688083488,-0.0226043701171875,-1.240234375,3,2929
861,-1.2335205078125,75.9326738082884,-0.0214080810546875,-1.23260498046875,3,2930
862,-1.22634887695313,75.9565788082281,-0.0201690673828125,-1.2255859375,3,2931
863,-1.21917724609375,75.9804838081677,-0.018597412109375,-1.2188720703125,3,2932
864,-1.21200561523438,76.0043888081074,-0.0168365478515625,-1.2109375,3,2933
865,-1.204833984375,76.028293808047,-0.014727783203125,-1.2042236328125,3,2934
866,-1.19766235351563,76.0521988079867,-0.012286376953125,-1.19659423828125,3,2935
867,-1.19049072265625,76.0761038079263,-0.0094573974609375,-1.18988037109375,3,2936
868,-1.18331909179688,76.1000088078659,-0.006103515625,-1.182861328125,3,2937
869,-1.1761474609375,76.1239138078056,-0.00225219726562501,-1.17584228515625,3,2938
870,-1.16897583007813,76.1478188077452,0.0023193359375,-1.168212890625,3,2939
871,-1.16180419921875,76.1717238076849,0.00755615234375,-1.160888671875,3,2940
872,-1.15463256835938,76.1956288076245,0.0136627197265625,-1.15447998046875,3,2941
873,-1.1474609375,76.2195338075642,0.0206390380859375,-1.1468505859375,3,2942
874,-1.14028930664063,76.2434388075038,0.0286834716796875,-1.1395263671875,3,2943
875,-1.13311767578125,76.2673438074435,0.0378143310546875,-1.13250732421875,3,2944
876,-1.12594604492188,76.2912488073831,0.04803466796875,-1.12548828125,3,2945
877,-1.1187744140625,76.3151538073228,0.0595703125,-1.1181640625,3,2946
878,-1.11160278320313,76.3390588072624,0.072235107421875,-1.11083984375,3,2947
879,-1.10443115234375,76.362963807202,0.086212158203125,-1.10382080078125,3,2948
880,-1.09725952148438,76.3868688071417,0.1011962890625,-1.0968017578125,3,2949
881,-1.090087890625,76.4107738070813,0.117156982421875,-1.0894775390625,3,2950
882,-1.08291625976563,76.434678807021,0.13409423828125,-1.082763671875,3,2951
883,-1.07574462890625,76.4585838069606,0.15142822265625,-1.07513427734375,3,2952
884,-1.06857299804688,76.4824888069003,0.168914794921875,-1.06842041015625,3,2953
885,-1.0614013671875,76.5063938068399,0.18585205078125,-1.06048583984375,3,2954
886,-1.05422973632813,76.5302988067796,0.201873779296875,-1.053466796875,3,2955
887,-1.04705810546875,76.5542038067192,0.2164306640625,-1.04644775390625,3,2956
888,-1.03988647460938,76.5781088066589,0.22894287109375,-1.03973388671875,3,2957
889,-1.03271484375,76.6020138065985,0.239288330078125,-1.03179931640625,3,2958
890,-1.02554321289063,76.6259188065382,0.247222900390625,-1.02569580078125,3,2959
891,-1.01837158203125,76.6498238064778,0.253021240234375,-1.01776123046875,3,2960
892,-1.01119995117188,76.6737288064174,0.2557373046875,-1.01043701171875,3,2961
893,-1.0040283203125,76.6976338063571,0.25634765625,-1.00341796875,3,2962
894,-0.996856689453125,76.7215388062967,0.25482177734375,-0.99639892578125,3,2963
895,-0.98968505859375,76.7454438062364,0.25225830078125,-0.98846435546875,3,2964
896,-0.982513427734375,76.769348806176,0.249420166015625,-0.9820556640625,3,2965
897,-0.975341796875,76.7932538061157,0.24835205078125,-0.97442626953125,3,2966
898,-0.968170166015625,76.8171588060553,0.247772216796875,-0.96771240234375,3,2967
899,-0.96099853515625,76.841063805995,0.247528076171875,-0.960693359375,3,2968
900,-0.953826904296875,76.8649688059346,0.249267578125,-0.95306396484375,3,2969
901,-0.9466552734375,76.8888738058743,0.252532958984375,-0.94573974609375,3,2970
902,-0.939483642578125,76.9127788058139,0.25860595703125,-0.93902587890625,3,2971
903,-0.93231201171875,76.9366838057535,0.267974853515625,-0.93170166015625,3,2972
904,-0.925140380859375,76.9605888056932,0.280975341796875,-0.9246826171875,3,2973
905,-0.91796875,76.9844938056328,0.29827880859375,-0.91705322265625,3,2974
906,-0.910797119140625,77.0083988055725,0.318817138671875,-0.9100341796875,3,2975
907,-0.90362548828125,77.0323038055121,0.340850830078125,-0.9027099609375,3,2976
908,-0.896453857421875,77.0562088054518,0.36279296875,-0.89569091796875,3,2977
909,-0.8892822265625,77.0801138053914,0.38165283203125,-0.88897705078125,3,2978
910,-0.882110595703125,77.1040188053311,0.39483642578125,-0.88134765625,3,2979
911,-0.87493896484375,77.1279238052707,0.400909423828125,-0.87432861328125,3,2980
912,-0.867767333984375,77.1518288052104,0.3995361328125,-0.86700439453125,3,2981
913,-0.860595703125,77.17573380515,0.391143798828125,-0.8599853515625,3,2982
914,-0.853424072265625,77.1996388050896,0.376983642578125,-0.85235595703125,3,2983
915,-0.84625244140625,77.2235438050293,0.358062744140625,-0.84564208984375,3,2984
916,-0.839080810546875,77.2474488049689,0.335601806640625,-0.83831787109375,3,2985
917,-0.8319091796875,77.2713538049086,0.309906005859375,-0.831298828125,3,2986
918,-0.824737548828125,77.2952588048482,0.281585693359375,-0.823974609375,3,2987
919,-0.81756591796875,77.3191638047879,0.252288818359375,-0.8172607421875,3,2988
920,-0.810394287109375,77.3430688047275,0.223358154296875,-0.80902099609375,3,2989
921,-0.80322265625,77.3669738046672,0.196502685546875,-0.80230712890625,3,2990
922,-0.796051025390625,77.3908788046068,0.172332763671875,-0.79498291015625,3,2991
923,-0.78887939453125,77.4147838045465,0.150482177734375,-0.78826904296875,3,2992
924,-0.781707763671875,77.4386888044861,0.130279541015625,-0.78094482421875,3,2993
925,-0.7745361328125,77.4625938044258,0.112396240234375,-0.77423095703125,3,2994
926,-0.767364501953125,77.4864988043654,0.0985107421875,-0.7666015625,3,2995
927,-0.76019287109375,77.510403804305,0.088470458984375,-0.75927734375,3,2996
928,-0.753021240234375,77.5343088042447,0.08074951171875,-0.75225830078125,3,2997
929,-0.745849609375,77.5582138041843,0.074310302734375,-0.74560546875,3,2998
930,-0.738677978515625,77.582118804124,0.068634033203125,-0.738433837890625,3,2999
931,-0.73150634765625,77.6060238040636,0.063629150390625,-0.73126220703125,3,3000
932,-0.724334716796875,77.6299288040033,0.05926513671875,-0.7239990234375,3,3001
933,-0.7171630859375,77.6538338039429,0.055389404296875,-0.716888427734375,3,3002
934,-0.709991455078125,77.6777388038826,0.051910400390625,-0.709686279296875,3,3003
935,-0.70281982421875,77.7016438038222,0.0488037109375,-0.70257568359375,3,3004
936,-0.695648193359375,77.7255488037619,0.046002197265625,-0.69537353515625,3,3005
937,-0.6884765625,77.7494538037015,0.0435333251953125,-0.68817138671875,3,3006
938,-0.681304931640625,77.7733588036411,0.0412567138671875,-0.681060791015625,3,3007
939,-0.67413330078125,77.7972638035808,0.0393096923828125,-0.67388916015625,3,3008
940,-0.666961669921875,77.8211688035204,0.03759765625,-0.666748046875,3,3009
941,-0.6597900390625,77.8450738034601,0.036175537109375,-0.659576416015625,3,3010
942,-0.652618408203125,77.8689788033997,0.0350006103515625,-0.652374267578125,3,3011
943,-0.64544677734375,77.8928838033394,0.033984375,-0.645263671875,3,3012
944,-0.638275146484375,77.916788803279,0.0331756591796875,-0.63800048828125,3,3013
945,-0.631103515625,77.94069380321869,0.032586669921875,-0.630828857421875,3,3014
946,-0.623931884765625,77.9645988031583,0.0321258544921875,-0.623779296875,3,3015
947,-0.61676025390625,77.988503803098,0.0318084716796875,-0.616546630859375,3,3016
948,-0.609588623046875,78.0124088030376,0.031695556640625,-0.609344482421875,3,3017
949,-0.6024169921875,78.0363138029772,0.0317626953125,-0.6021728515625,3,3018
950,-0.595245361328125,78.0602188029169,0.0319854736328125,-0.595001220703125,3,3019
951,-0.58807373046875,78.0841238028565,0.032440185546875,-0.587860107421875,3,3020
952,-0.580902099609375,78.1080288027962,0.033184814453125,-0.5806884765625,3,3021
953,-0.57373046875,78.1319338027358,0.0341552734375,-0.573486328125,3,3022
954,-0.566558837890625,78.1558388026755,0.03546142578125,-0.566375732421875,3,3023
955,-0.55938720703125,78.1797438026151,0.037109375,-0.559173583984375,3,3024
956,-0.552215576171875,78.2036488025548,0.039190673828125,-0.552001953125,3,3025
957,-0.5450439453125,78.2275538024944,0.0417236328125,-0.54486083984375,3,3026
958,-0.537872314453125,78.2514588024341,0.0447174072265625,-0.537689208984375,3,3027
959,-0.53070068359375,78.2753638023737,0.0481719970703125,-0.530487060546875,3,3028
960,-0.523529052734375,78.2992688023133,0.05206298828125,-0.5233154296875,3,3029
961,-0.516357421875,78.323173802253,0.05633544921875,-0.516143798828125,3,3030
962,-0.509185791015625,78.3470788021926,0.060821533203125,-0.509002685546875,3,3031
963,-0.50201416015625,78.3709838021323,0.0653076171875,-0.501800537109375,3,3032
964,-0.494842529296875,78.3948888020719,0.06951904296875,-0.49462890625,3,3033
965,-0.4876708984375,78.4187938020116,0.07330322265625,-0.487457275390625,3,3034
966,-0.480499267578125,78.4426988019512,0.076507568359375,-0.48028564453125,3,3035
967,-0.47332763671875,78.4666038018909,0.07904052734375,-0.473175048828125,3,3036
968,-0.466156005859375,78.4905088018305,0.080780029296875,-0.465972900390625,3,3037
969,-0.458984375,78.5144138017702,0.08197021484375,-0.45880126953125,3,3038
970,-0.451812744140625,78.5383188017098,0.082672119140625,-0.451629638671875,3,3039
971,-0.44464111328125,78.5622238016495,0.082977294921875,-0.444427490234375,3,3040
972,-0.437469482421875,78.5861288015891,0.08306884765625,-0.437225341796875,3,3041
973,-0.4302978515625,78.6100338015287,0.082977294921875,-0.430084228515625,3,3042
974,-0.423126220703125,78.6339388014684,0.082763671875,-0.422943115234375,3,3043
975,-0.41595458984375,78.657843801408,0.082305908203125,-0.415740966796875,3,3044
976,-0.408782958984375,78.6817488013477,0.08148193359375,-0.4085693359375,3,3045
977,-0.401611328125,78.7056538012873,0.080108642578125,-0.401458740234375,3,3046
978,-0.394439697265625,78.729558801227,0.078277587890625,-0.39422607421875,3,3047
979,-0.38726806640625,78.7534638011666,0.07611083984375,-0.3870849609375,3,3048
980,-0.380096435546875,78.7773688011063,0.07366943359375,-0.3798828125,3,3049
981,-0.3729248046875,78.8012738010459,0.071197509765625,-0.372711181640625,3,3050
982,-0.365753173828125,78.8251788009856,0.06878662109375,-0.365570068359375,3,3051
983,-0.35858154296875,78.8490838009252,0.066558837890625,-0.3583984375,3,3052
984,-0.351409912109375,78.8729888008648,0.064422607421875,-0.351226806640625,3,3053
985,-0.34423828125,78.8968938008045,0.062530517578125,-0.344024658203125,3,3054
986,-0.337066650390625,78.9207988007441,0.0609130859375,-0.33685302734375,3,3055
987,-0.32989501953125,78.9447038006838,0.059661865234375,-0.329742431640625,3,3056
988,-0.322723388671875,78.9686088006234,0.058868408203125,-0.322540283203125,3,3057
989,-0.3155517578125,78.9925138005631,0.058502197265625,-0.3154296875,3,3058
990,-0.308380126953125,79.0164188005027,0.05859375,-0.308197021484375,3,3059
991,-0.30120849609375,79.0403238004424,0.058837890625,-0.300994873046875,3,3060
992,-0.294036865234375,79.064228800382,0.059173583984375,-0.29388427734375,3,3061
993,-0.286865234375,79.0881338003217,0.059326171875,-0.286651611328125,3,3062
994,-0.279693603515625,79.1120388002613,0.059234619140625,-0.27947998046875,3,3063
995,-0.27252197265625,79.1359438002009,0.058837890625,-0.2723388671875,3,3064
996,-0.265350341796875,79.1598488001406,0.05828857421875,-0.265167236328125,3,3065
997,-0.2581787109375,79.1837538000802,0.05755615234375,-0.25799560546875,3,3066
998,-0.251007080078125,79.2076588000199,0.0567626953125,-0.2508544921875,3,3067
999,-0.24383544921875,79.2315637999595,0.055877685546875,-0.24365234375,3,3068
1000,-0.236663818359375,79.2554687998992,0.0548095703125,-0.236480712890625,3,3069
1001,-0.2294921875,79.2793737998388,0.053558349609375,-0.229339599609375,3,3070
1002,-0.222320556640625,79.3032787997785,0.052093505859375,-0.222198486328125,3,3071
1003,-0.21514892578125,79.3271837997181,0.050537109375,-0.2149658203125,3,3072
1004,-0.207977294921875,79.3510887996578,0.0489501953125,-0.207855224609375,3,3073
1005,-0.2008056640625,79.3749937995974,0.047491455078125,-0.20062255859375,3,3074
1006,-0.193634033203125,79.3988987995371,0.046356201171875,-0.1934814453125,3,3075
1007,-0.18646240234375,79.4228037994767,0.0455413818359375,-0.186279296875,3,3076
1008,-0.179290771484375,79.4467087994163,0.045159912109375,-0.17913818359375,3,3077
1009,-0.172119140625,79.470613799356,0.0450958251953125,-0.17193603515625,3,3078
1010,-0.164947509765625,79.4945187992956,0.045404052734375,-0.164794921875,3,3079
1011,-0.15777587890625,79.5184237992353,0.0459442138671875,-0.15765380859375,3,3080
1012,-0.150604248046875,79.5423287991749,0.04661865234375,-0.1505126953125,3,3081
1013,-0.1434326171875,79.5662337991146,0.047589111328125,-0.143280029296875,3,3082
1014,-0.136260986328125,79.5901387990542,0.0487091064453125,-0.136077880859375,3,3083
1015,-0.12908935546875,79.6140437989939,0.050018310546875,-0.128936767578125,3,3084
1016,-0.121917724609375,79.6379487989335,0.051422119140625,-0.121856689453125,3,3085
1017,-0.11474609375,79.6618537988732,0.05303955078125,-0.114654541015625,3,3086
1018,-0.107574462890625,79.6857587988128,0.054779052734375,-0.10748291015625,3,3087
1019,-0.10040283203125,79.7096637987524,0.056549072265625,-0.100311279296875,3,3088
1020,-0.093231201171875,79.7335687986921,0.05853271484375,-0.093109130859375,3,3089
1021,-0.0860595703125,79.7574737986317,0.060394287109375,-0.0859375,3,3090
1022,-0.078887939453125,79.7813787985714,0.062713623046875,-0.078857421875,3,3091
1023,-0.07171630859375,79.805283798511,0.0645751953125,-0.071685791015625,3,3092
1024,-0.064544677734375,79.8291887984507,0.066619873046875,-0.064453125,3,3093
1025,-0.057373046875,79.8530937983903,0.068603515625,-0.05731201171875,3,3094
1026,-0.050201416015625,79.87699879833,0.07049560546875,-0.050140380859375,3,3095
1027,-0.04302978515625,79.9009037982696,0.072357177734375,-0.0428802490234375,3,3096
1028,-0.035858154296875,79.9248087982093,0.07403564453125,-0.03570556640625,3,3097
1029,-0.0286865234375,79.9487137981489,0.07568359375,-0.028564453125,3,3098
1030,-0.021514892578125,79.9726187980885,0.077056884765625,-0.0213897705078125,3,3099
1031,-0.01434326171875,79.9965237980282,0.078369140625,-0.0142059326171875,3,3100
1032,-0.007171630859375,80.0204287979678,0.0794677734375,-0.00702819824218751,3,3101
1033,0.0,80.0443337979075,0.080352783203125,0.000119018554687503,3,3102
