Time (s);WE(1).Potential (V);WE(1).Current (A);Corrected time (s);Index;Current range
3.18827999195037;0.399627685546875;0.0132537841796875;0;1;100 mA
3.19827999192512;0.39971923828125;0.010003662109375;0.00999999997475243;2;100 mA
3.20827999189987;0.399658203125;0.008209228515625;0.0199999999495049;3;100 mA
3.21827999187462;0.399749755859375;0.0072479248046875;0.0299999999242573;4;100 mA
3.22827999184938;0.399658203125;0.0066070556640625;0.0399999998990097;5;100 mA
3.23827999182413;0.39971923828125;0.00604248046875;0.0499999998737621;6;100 mA
3.24827999179888;0.399658203125;0.0056610107421875;0.0599999998485146;7;100 mA
3.25827999177363;0.399688720703125;0.0053497314453125;0.069999999823267;8;100 mA
3.26827999174839;0.399688720703125;0.005047607421875;0.0799999997980194;9;100 mA
3.27827999172314;0.399688720703125;0.00479827880859375;0.0899999997727718;10;100 mA
3.28827999169789;0.3997802734375;0.00467010498046875;0.0999999997475243;11;100 mA
3.29827999167264;0.3997802734375;0.004564208984375;0.109999999722277;12;100 mA
3.3082799916474;0.399810791015625;0.0043609619140625;0.119999999697029;13;100 mA
3.31827999162215;0.399749755859375;0.00424652099609375;0.129999999671782;14;100 mA
3.3282799915969;0.39971923828125;0.00415313720703125;0.139999999646534;15;100 mA
3.33827999157165;0.399871826171875;0.00405792236328125;0.149999999621286;16;100 mA
3.34827999154641;0.39971923828125;0.003953857421875;0.159999999596039;17;100 mA
3.35827999152116;0.3997802734375;0.003924560546875;0.169999999570791;18;100 mA
3.36827999149591;0.3997802734375;0.00386383056640625;0.179999999545544;19;100 mA
3.37827999147066;0.399749755859375;0.0037432861328125;0.189999999520296;20;100 mA
3.38827999144542;0.39971923828125;0.0036944580078125;0.199999999495049;21;100 mA
3.39827999142017;0.3997802734375;0.0037200927734375;0.209999999469801;22;100 mA
3.40827999139492;0.3997802734375;0.00364410400390625;0.219999999444553;23;100 mA
3.41827999136967;0.399749755859375;0.00359619140625;0.229999999419306;24;100 mA
3.42827999134443;0.399810791015625;0.00357086181640625;0.239999999394058;25;100 mA
3.43827999131918;0.3997802734375;0.00352203369140625;0.249999999368811;26;100 mA
3.44827999129393;0.3997802734375;0.00342193603515625;0.259999999343563;27;100 mA
3.45827999126868;0.3997802734375;0.00344757080078125;0.269999999318316;28;100 mA
3.46827999124343;0.39971923828125;0.00344207763671875;0.279999999293068;29;100 mA
3.47827999121819;0.3997802734375;0.0033392333984375;0.28999999926782;30;100 mA
3.48827999119294;0.39971923828125;0.003304443359375;0.299999999242573;31;100 mA
3.49827999116769;0.39984130859375;0.003323974609375;0.309999999217325;32;100 mA
3.50827999114244;0.3997802734375;0.00332794189453125;0.319999999192078;33;100 mA
3.5182799911172;0.3997802734375;0.00327545166015625;0.32999999916683;34;100 mA
3.52827999109195;0.3997802734375;0.00330169677734375;0.339999999141583;35;100 mA
3.5382799910667;0.3997802734375;0.0033001708984375;0.349999999116335;36;100 mA
3.54827999104145;0.399810791015625;0.00320404052734375;0.359999999091087;37;100 mA
3.55827999101621;0.39971923828125;0.00317352294921875;0.36999999906584;38;100 mA
3.56827999099096;0.39971923828125;0.00322845458984375;0.379999999040592;39;100 mA
3.57827999096571;0.39990234375;0.0031744384765625;0.389999999015345;40;100 mA
3.58827999094046;0.3997802734375;0.0031292724609375;0.399999998990097;41;100 mA
3.59827999091522;0.399749755859375;0.00313018798828125;0.40999999896485;42;100 mA
3.60827999088997;0.399749755859375;0.003162841796875;0.419999998939602;43;100 mA
3.61827999086472;0.39971923828125;0.00310546875;0.429999998914354;44;100 mA
3.62827999083947;0.3997802734375;0.00314208984375;0.439999998889107;45;100 mA
3.63827999081423;0.399749755859375;0.00316986083984375;0.449999998863859;46;100 mA
3.64827999078898;0.399810791015625;0.00311309814453125;0.459999998838612;47;100 mA
3.65827999076373;0.39971923828125;0.00307647705078125;0.469999998813364;48;100 mA
3.66827999073848;0.399810791015625;0.00309112548828125;0.479999998788116;49;100 mA
3.67827999071324;0.3997802734375;0.00311492919921875;0.489999998762869;50;100 mA
3.68827999068799;0.399810791015625;0.00307037353515625;0.499999998737621;51;100 mA
3.69827999066274;0.39971923828125;0.0030908203125;0.509999998712374;52;100 mA
3.70827999063749;0.39971923828125;0.00312652587890625;0.519999998687126;53;100 mA
3.71827999061225;0.399749755859375;0.0030670166015625;0.529999998661879;54;100 mA
3.728279990587;0.3997802734375;0.00302978515625;0.539999998636631;55;100 mA
3.73827999056175;0.39984130859375;0.00308319091796875;0.549999998611383;56;100 mA
3.7482799905365;0.3997802734375;0.003070068359375;0.559999998586136;57;100 mA
3.75827999051126;0.39971923828125;0.00302490234375;0.569999998560888;58;100 mA
3.76827999048601;0.3997802734375;0.00302337646484375;0.579999998535641;59;100 mA
3.77827999046076;0.399810791015625;0.00307098388671875;0.589999998510393;60;100 mA
3.78827999043551;0.3997802734375;0.0029949951171875;0.599999998485146;61;100 mA
3.79827999041026;0.39971923828125;0.00302154541015625;0.609999998459898;62;100 mA
3.80827999038502;0.399688720703125;0.00305328369140625;0.61999999843465;63;100 mA
3.81827999035977;0.399749755859375;0.00300689697265625;0.629999998409403;64;100 mA
3.82827999033452;0.399749755859375;0.00294921875;0.639999998384155;65;100 mA
3.83827999030927;0.399810791015625;0.0029833984375;0.649999998358908;66;100 mA
3.84827999028403;0.39971923828125;0.00300048828125;0.65999999833366;67;100 mA
3.85827999025878;0.3997802734375;0.00296051025390625;0.669999998308413;68;100 mA
3.86827999023353;0.399749755859375;0.0029571533203125;0.679999998283165;69;100 mA
3.87827999020828;0.399749755859375;0.00299072265625;0.689999998257917;70;100 mA
3.88827999018304;0.399810791015625;0.0029302978515625;0.69999999823267;71;100 mA
3.89827999015779;0.399688720703125;0.00289337158203125;0.709999998207422;72;100 mA
3.90827999013254;0.39971923828125;0.0029583740234375;0.719999998182175;73;100 mA
3.91827999010729;0.39971923828125;0.00296112060546875;0.729999998156927;74;100 mA
3.92827999008205;0.399810791015625;0.0028961181640625;0.73999999813168;75;100 mA
3.9382799900568;0.39971923828125;0.0028900146484375;0.749999998106432;76;100 mA
3.94827999003155;0.39971923828125;0.00295318603515625;0.759999998081184;77;100 mA
3.9582799900063;0.399810791015625;0.00290130615234375;0.769999998055937;78;100 mA
3.96827998998106;0.39971923828125;0.00290985107421875;0.779999998030689;79;100 mA
3.97827998995581;0.399749755859375;0.00292938232421875;0.789999998005442;80;100 mA
3.98827998993056;0.3997802734375;0.0029083251953125;0.799999997980194;81;100 mA
3.99827998990531;0.39984130859375;0.00283660888671875;0.809999997954947;82;100 mA
4.00827998988007;0.399810791015625;0.00284576416015625;0.819999997929699;83;100 mA
4.01827998985482;0.399749755859375;0.00288360595703125;0.829999997904451;84;100 mA
4.02827998982957;0.3997802734375;0.0028515625;0.839999997879204;85;100 mA
4.03827998980432;0.3997802734375;0.00285064697265625;0.849999997853956;86;100 mA
4.04827998977908;0.3997802734375;0.00287445068359375;0.859999997828709;87;100 mA
4.05827998975383;0.39984130859375;0.00285888671875;0.869999997803461;88;100 mA
4.06827998972858;0.39971923828125;0.0028387451171875;0.879999997778214;89;100 mA
4.07827998970333;0.3997802734375;0.002901611328125;0.889999997752966;90;100 mA
4.08827998967809;0.399749755859375;0.002906494140625;0.899999997727718;91;100 mA
4.09827998965284;0.39984130859375;0.00283233642578125;0.909999997702471;92;100 mA
4.10827998962759;0.399749755859375;0.002813720703125;0.919999997677223;93;100 mA
4.11827998960234;0.399810791015625;0.0028668212890625;0.929999997651976;94;100 mA
4.12827998957709;0.3997802734375;0.00284210205078125;0.939999997626728;95;100 mA
4.13827998955185;0.399749755859375;0.002838134765625;0.949999997601481;96;100 mA
4.1482799895266;0.399810791015625;0.00286102294921875;0.959999997576233;97;100 mA
4.15827998950135;0.3997802734375;0.00287628173828125;0.969999997550985;98;100 mA
4.1682799894761;0.399810791015625;0.002816162109375;0.979999997525738;99;100 mA
4.17827998945086;0.39971923828125;0.00283111572265625;0.98999999750049;100;100 mA
4.18827998942561;0.3997802734375;0.00287109375;0.999999997475243;101;100 mA
4.19827998940036;0.399871826171875;0.00282470703125;1.00999999745;102;100 mA
4.20827998937511;0.3997802734375;0.00279022216796875;1.01999999742475;103;100 mA
4.21827998934987;0.399749755859375;0.00282470703125;1.0299999973995;104;100 mA
4.22827998932462;0.39971923828125;0.002828369140625;1.03999999737425;105;100 mA
4.23827998929937;0.399810791015625;0.00277801513671875;1.049999997349;106;100 mA
4.24827998927412;0.39984130859375;0.00280975341796875;1.05999999732376;107;100 mA
4.25827998924888;0.399749755859375;0.0028314208984375;1.06999999729851;108;100 mA
4.26827998922363;0.39984130859375;0.00276123046875;1.07999999727326;109;100 mA
4.27827998919838;0.39971923828125;0.002723388671875;1.08999999724801;110;100 mA
4.28827998917313;0.3997802734375;0.0027777099609375;1.09999999722277;111;100 mA
4.29827998914789;0.39984130859375;0.00276123046875;1.10999999719752;112;100 mA
4.30827998912264;0.39971923828125;0.00274871826171875;1.11999999717227;113;100 mA
4.31827998909739;0.399749755859375;0.0027618408203125;1.12999999714702;114;100 mA
4.32827998907214;0.399810791015625;0.002783203125;1.13999999712178;115;100 mA
4.3382799890469;0.3997802734375;0.00270538330078125;1.14999999709653;116;100 mA
4.34827998902165;0.39971923828125;0.002724609375;1.15999999707128;117;100 mA
4.3582799889964;0.399749755859375;0.00276275634765625;1.16999999704603;118;100 mA
4.36827998897115;0.399749755859375;0.002735595703125;1.17999999702079;119;100 mA
4.37827998894591;0.399688720703125;0.0027099609375;1.18999999699554;120;100 mA
4.38827998892066;0.399749755859375;0.00275360107421875;1.19999999697029;121;100 mA
4.39827998889541;0.3997802734375;0.00278717041015625;1.20999999694504;122;100 mA
4.40827998887016;0.3997802734375;0.00275787353515625;1.2199999969198;123;100 mA
4.41827998884492;0.39971923828125;0.0027862548828125;1.22999999689455;124;100 mA
4.42827998881967;0.3997802734375;0.0028045654296875;1.2399999968693;125;100 mA
4.43827998879442;0.399810791015625;0.00275421142578125;1.24999999684405;126;100 mA
4.44827998876917;0.3997802734375;0.002734375;1.25999999681881;127;100 mA
4.45827998874393;0.3997802734375;0.00278839111328125;1.26999999679356;128;100 mA
4.46827998871868;0.399749755859375;0.00276885986328125;1.27999999676831;129;100 mA
4.47827998869343;0.399749755859375;0.00273590087890625;1.28999999674306;130;100 mA
4.48827998866818;0.399810791015625;0.0027398681640625;1.29999999671782;131;100 mA
4.49827998864293;0.399749755859375;0.00276153564453125;1.30999999669257;132;100 mA
4.50827998861769;0.39984130859375;0.00271942138671875;1.31999999666732;133;100 mA
4.51827998859244;0.3997802734375;0.00272796630859375;1.32999999664207;134;100 mA
4.52827998856719;0.399810791015625;0.00277984619140625;1.33999999661683;135;100 mA
4.53827998854194;0.39984130859375;0.002747802734375;1.34999999659158;136;100 mA
4.5482799885167;0.3997802734375;0.002694091796875;1.35999999656633;137;100 mA
4.55827998849145;0.3997802734375;0.0027178955078125;1.36999999654108;138;100 mA
4.5682799884662;0.3997802734375;0.002752685546875;1.37999999651583;139;100 mA
4.57827998844095;0.3997802734375;0.00271881103515625;1.38999999649059;140;100 mA
4.58827998841571;0.399749755859375;0.0027301025390625;1.39999999646534;141;100 mA
4.59827998839046;0.399749755859375;0.00276275634765625;1.40999999644009;142;100 mA
4.60827998836521;0.399871826171875;0.002733154296875;1.41999999641484;143;100 mA
4.61827998833996;0.39971923828125;0.00269195556640625;1.4299999963896;144;100 mA
4.62827998831472;0.39971923828125;0.002738037109375;1.43999999636435;145;100 mA
4.63827998828947;0.399810791015625;0.00274017333984375;1.4499999963391;146;100 mA
4.64827998826422;0.3997802734375;0.0027020263671875;1.45999999631385;147;100 mA
4.65827998823897;0.399749755859375;0.00270538330078125;1.46999999628861;148;100 mA
4.66827998821373;0.399810791015625;0.00275604248046875;1.47999999626336;149;100 mA
4.67827998818848;0.3997802734375;0.002747802734375;1.48999999623811;150;100 mA
4.68827998816323;0.399749755859375;0.00271575927734375;1.49999999621286;151;100 mA
4.69827998813798;0.39984130859375;0.00277587890625;1.50999999618762;152;100 mA
4.70827998811274;0.399810791015625;0.002762451171875;1.51999999616237;153;100 mA
4.71827998808749;0.3997802734375;0.0027008056640625;1.52999999613712;154;100 mA
4.72827998806224;0.3997802734375;0.00272216796875;1.53999999611187;155;100 mA
4.73827998803699;0.3997802734375;0.0027392578125;1.54999999608663;156;100 mA
4.74827998801175;0.3997802734375;0.00271636962890625;1.55999999606138;157;100 mA
4.7582799879865;0.3997802734375;0.0027362060546875;1.56999999603613;158;100 mA
4.76827998796125;0.399749755859375;0.00276336669921875;1.57999999601088;159;100 mA
4.778279987936;0.399810791015625;0.00273468017578125;1.58999999598564;160;100 mA
4.78827998791076;0.3997802734375;0.0026898193359375;1.59999999596039;161;100 mA
4.79827998788551;0.399749755859375;0.0027374267578125;1.60999999593514;162;100 mA
4.80827998786026;0.399749755859375;0.00274017333984375;1.61999999590989;163;100 mA
4.81827998783501;0.3997802734375;0.00267852783203125;1.62999999588465;164;100 mA
4.82827998780976;0.399749755859375;0.00266632080078125;1.6399999958594;165;100 mA
4.83827998778452;0.39971923828125;0.00271514892578125;1.64999999583415;166;100 mA
4.84827998775927;0.3997802734375;0.00269256591796875;1.6599999958089;167;100 mA
4.85827998773402;0.39971923828125;0.002685546875;1.66999999578366;168;100 mA
4.86827998770877;0.399810791015625;0.0027166748046875;1.67999999575841;169;100 mA
4.87827998768353;0.3997802734375;0.00270965576171875;1.68999999573316;170;100 mA
4.88827998765828;0.399749755859375;0.00264984130859375;1.69999999570791;171;100 mA
4.89827998763303;0.399749755859375;0.002666015625;1.70999999568267;172;100 mA
4.90827998760778;0.3997802734375;0.00271209716796875;1.71999999565742;173;100 mA
4.91827998758254;0.399810791015625;0.00267364501953125;1.72999999563217;174;100 mA
4.92827998755729;0.3997802734375;0.0026776123046875;1.73999999560692;175;100 mA
4.93827998753204;0.3997802734375;0.002705078125;1.74999999558167;176;100 mA
4.94827998750679;0.399810791015625;0.00269989013671875;1.75999999555643;177;100 mA
4.95827998748155;0.39971923828125;0.002655029296875;1.76999999553118;178;100 mA
4.9682799874563;0.3997802734375;0.00269195556640625;1.77999999550593;179;100 mA
4.97827998743105;0.39971923828125;0.00272216796875;1.78999999548068;180;100 mA
4.9882799874058;0.399810791015625;0.00268768310546875;1.79999999545544;181;100 mA
4.99827998738056;0.399688720703125;0.00265594482421875;1.80999999543019;182;100 mA
5.00827998735531;0.399749755859375;0.002706298828125;1.81999999540494;183;100 mA
5.01827998733006;0.399810791015625;0.00267822265625;1.82999999537969;184;100 mA
5.02827998730481;0.39971923828125;0.00265960693359375;1.83999999535445;185;100 mA
5.03827998727957;0.3997802734375;0.00270965576171875;1.8499999953292;186;100 mA
5.04827998725432;0.3997802734375;0.0027337646484375;1.85999999530395;187;100 mA
5.05827998722907;0.399749755859375;0.0026702880859375;1.8699999952787;188;100 mA
5.06827998720382;0.39971923828125;0.0026715087890625;1.87999999525346;189;100 mA
5.07827998717858;0.3997802734375;0.00273223876953125;1.88999999522821;190;100 mA
5.08827998715333;0.3997802734375;0.00269317626953125;1.89999999520296;191;100 mA
5.09827998712808;0.3997802734375;0.002681884765625;1.90999999517771;192;100 mA
5.10827998710283;0.399749755859375;0.00270233154296875;1.91999999515247;193;100 mA
5.11827998707759;0.399810791015625;0.0026995849609375;1.92999999512722;194;100 mA
5.12827998705234;0.3997802734375;0.00266082763671875;1.93999999510197;195;100 mA
5.13827998702709;0.39971923828125;0.00270233154296875;1.94999999507672;196;100 mA
5.14827998700184;0.3997802734375;0.00272979736328125;1.95999999505148;197;100 mA
5.15827998697659;0.399749755859375;0.002689208984375;1.96999999502623;198;100 mA
5.16827998695135;0.399749755859375;0.002652587890625;1.97999999500098;199;100 mA
5.1782799869261;0.399810791015625;0.00271026611328125;1.98999999497573;200;100 mA
5.18827998690085;0.3997802734375;0.00271087646484375;1.99999999495049;201;100 mA
5.1982799868756;0.399810791015625;0.0026812744140625;2.00999999492524;202;100 mA
5.20827998685036;0.3997802734375;0.002713623046875;2.01999999489999;203;100 mA
5.21827998682511;0.399749755859375;0.00274322509765625;2.02999999487474;204;100 mA
5.22827998679986;0.3997802734375;0.00269927978515625;2.0399999948495;205;100 mA
5.23827998677461;0.399749755859375;0.0027001953125;2.04999999482425;206;100 mA
5.24827998674937;0.3997802734375;0.0027734375;2.059999994799;207;100 mA
5.25827998672412;0.39984130859375;0.00274017333984375;2.06999999477375;208;100 mA
5.26827998669887;0.39971923828125;0.0027044677734375;2.0799999947485;209;100 mA
5.27827998667362;0.3997802734375;0.00274658203125;2.08999999472326;210;100 mA
5.28827998664838;0.399749755859375;0.00274078369140625;2.09999999469801;211;100 mA
5.29827998662313;0.399749755859375;0.0026702880859375;2.10999999467276;212;100 mA
5.30827998659788;0.3997802734375;0.00270416259765625;2.11999999464751;213;100 mA
5.31827998657263;0.3997802734375;0.00274810791015625;2.12999999462227;214;100 mA
5.32827998654739;0.399810791015625;0.0027056884765625;2.13999999459702;215;100 mA
5.33827998652214;0.39971923828125;0.00264862060546875;2.14999999457177;216;100 mA
5.34827998649689;0.3997802734375;0.0026904296875;2.15999999454652;217;100 mA
5.35827998647164;0.399749755859375;0.0027142333984375;2.16999999452128;218;100 mA
5.3682799864464;0.39984130859375;0.00267913818359375;2.17999999449603;219;100 mA
5.37827998642115;0.399749755859375;0.00269744873046875;2.18999999447078;220;100 mA
5.3882799863959;0.3997802734375;0.00272918701171875;2.19999999444553;221;100 mA
5.39827998637065;0.399749755859375;0.00268280029296875;2.20999999442029;222;100 mA
5.40827998634541;0.399749755859375;0.00266693115234375;2.21999999439504;223;100 mA
5.41827998632016;0.399810791015625;0.0027325439453125;2.22999999436979;224;100 mA
5.42827998629491;0.3997802734375;0.00273529052734375;2.23999999434454;225;100 mA
5.43827998626966;0.399749755859375;0.00267730712890625;2.2499999943193;226;100 mA
5.44827998624442;0.399749755859375;0.0026922607421875;2.25999999429405;227;100 mA
5.45827998621917;0.3997802734375;0.002734375;2.2699999942688;228;100 mA
5.46827998619392;0.3997802734375;0.0026812744140625;2.27999999424355;229;100 mA
5.47827998616867;0.399749755859375;0.00269805908203125;2.28999999421831;230;100 mA
5.48827998614343;0.399749755859375;0.00272796630859375;2.29999999419306;231;100 mA
5.49827998611818;0.39984130859375;0.00269805908203125;2.30999999416781;232;100 mA
5.50827998609293;0.399749755859375;0.00264373779296875;2.31999999414256;233;100 mA
5.51827998606768;0.399810791015625;0.00267578125;2.32999999411732;234;100 mA
5.52827998604243;0.399810791015625;0.00270111083984375;2.33999999409207;235;100 mA
5.53827998601719;0.3997802734375;0.00268096923828125;2.34999999406682;236;100 mA
5.54827998599194;0.39971923828125;0.0026611328125;2.35999999404157;237;100 mA
5.55827998596669;0.3997802734375;0.00271087646484375;2.36999999401633;238;100 mA
5.56827998594144;0.399749755859375;0.0026837158203125;2.37999999399108;239;100 mA
5.5782799859162;0.39971923828125;0.0026776123046875;2.38999999396583;240;100 mA
5.58827998589095;0.39984130859375;0.00274169921875;2.39999999394058;241;100 mA
5.5982799858657;0.3997802734375;0.00273956298828125;2.40999999391533;242;100 mA
5.60827998584045;0.399810791015625;0.00266510009765625;2.41999999389009;243;100 mA
5.61827998581521;0.39971923828125;0.0026568603515625;2.42999999386484;244;100 mA
5.62827998578996;0.3997802734375;0.0026995849609375;2.43999999383959;245;100 mA
5.63827998576471;0.3997802734375;0.0026531982421875;2.44999999381434;246;100 mA
5.64827998573946;0.399810791015625;0.00266754150390625;2.4599999937891;247;100 mA
5.65827998571422;0.399810791015625;0.002706298828125;2.46999999376385;248;100 mA
5.66827998568897;0.39971923828125;0.002684326171875;2.4799999937386;249;100 mA
5.67827998566372;0.399749755859375;0.0026202392578125;2.48999999371335;250;100 mA
5.68827998563847;0.3997802734375;0.00264434814453125;2.49999999368811;251;100 mA
5.69827998561323;0.399749755859375;0.00268524169921875;2.50999999366286;252;100 mA
5.70827998558798;0.3997802734375;0.00266021728515625;2.51999999363761;253;100 mA
5.71827998556273;0.399688720703125;0.0026611328125;2.52999999361236;254;100 mA
5.72827998553748;0.399749755859375;0.00273345947265625;2.53999999358712;255;100 mA
5.73827998551224;0.399871826171875;0.00272552490234375;2.54999999356187;256;100 mA
5.74827998548699;0.39971923828125;0.00268768310546875;2.55999999353662;257;100 mA
5.75827998546174;0.39971923828125;0.00273895263671875;2.56999999351137;258;100 mA
5.76827998543649;0.3997802734375;0.00276275634765625;2.57999999348613;259;100 mA
5.77827998541125;0.399810791015625;0.00270477294921875;2.58999999346088;260;100 mA
5.788279985386;0.399749755859375;0.00267730712890625;2.59999999343563;261;100 mA
5.79827998536075;0.3997802734375;0.00273345947265625;2.60999999341038;262;100 mA
5.8082799853355;0.3997802734375;0.00270965576171875;2.61999999338514;263;100 mA
5.81827998531026;0.399749755859375;0.0027069091796875;2.62999999335989;264;100 mA
5.82827998528501;0.3997802734375;0.00272918701171875;2.63999999333464;265;100 mA
5.83827998525976;0.399749755859375;0.00273406982421875;2.64999999330939;266;100 mA
5.84827998523451;0.3997802734375;0.0026629638671875;2.65999999328415;267;100 mA
5.85827998520926;0.399749755859375;0.00269683837890625;2.6699999932589;268;100 mA
5.86827998518402;0.399749755859375;0.0027392578125;2.67999999323365;269;100 mA
5.87827998515877;0.3997802734375;0.00270477294921875;2.6899999932084;270;100 mA
5.88827998513352;0.3997802734375;0.00266815185546875;2.69999999318316;271;100 mA
5.89827998510827;0.39984130859375;0.00271453857421875;2.70999999315791;272;100 mA
5.90827998508303;0.3997802734375;0.0027069091796875;2.71999999313266;273;100 mA
5.91827998505778;0.3997802734375;0.0026580810546875;2.72999999310741;274;100 mA
5.92827998503253;0.39971923828125;0.00269866943359375;2.73999999308217;275;100 mA
5.93827998500728;0.3997802734375;0.002713623046875;2.74999999305692;276;100 mA
5.94827998498204;0.39971923828125;0.00264801025390625;2.75999999303167;277;100 mA
5.95827998495679;0.3997802734375;0.00262664794921875;2.76999999300642;278;100 mA
5.96827998493154;0.399810791015625;0.0026983642578125;2.77999999298117;279;100 mA
5.97827998490629;0.399871826171875;0.0026861572265625;2.78999999295593;280;100 mA
5.98827998488105;0.3997802734375;0.00266754150390625;2.79999999293068;281;100 mA
5.9982799848558;0.399871826171875;0.0026898193359375;2.80999999290543;282;100 mA
6.00827998483055;0.39971923828125;0.00271453857421875;2.81999999288018;283;100 mA
6.0182799848053;0.39984130859375;0.00263641357421875;2.82999999285494;284;100 mA
6.02827998478006;0.3997802734375;0.00264739990234375;2.83999999282969;285;100 mA
6.03827998475481;0.3997802734375;0.00270477294921875;2.84999999280444;286;100 mA
6.04827998472956;0.399810791015625;0.00267181396484375;2.85999999277919;287;100 mA
6.05827998470431;0.399749755859375;0.0026116943359375;2.86999999275395;288;100 mA
6.06827998467907;0.3997802734375;0.0026568603515625;2.8799999927287;289;100 mA
6.07827998465382;0.399749755859375;0.002701416015625;2.88999999270345;290;100 mA
6.08827998462857;0.399810791015625;0.00266021728515625;2.8999999926782;291;100 mA
6.09827998460332;0.399688720703125;0.00270599365234375;2.90999999265296;292;100 mA
6.10827998457808;0.39971923828125;0.00276092529296875;2.91999999262771;293;100 mA
6.11827998455283;0.399810791015625;0.00270843505859375;2.92999999260246;294;100 mA
6.12827998452758;0.399749755859375;0.0026727294921875;2.93999999257721;295;100 mA
6.13827998450233;0.3997802734375;0.0027325439453125;2.94999999255197;296;100 mA
6.14827998447709;0.399810791015625;0.002720947265625;2.95999999252672;297;100 mA
6.15827998445184;0.3997802734375;0.00267669677734375;2.96999999250147;298;100 mA
6.16827998442659;0.399810791015625;0.00267425537109375;2.97999999247622;299;100 mA
6.17827998440134;0.399749755859375;0.00272552490234375;2.98999999245098;300;100 mA
6.18827998437609;0.399749755859375;0.00265716552734375;2.99999999242573;301;100 mA
6.19827998435085;0.399810791015625;0.00267181396484375;3.00999999240048;302;100 mA
6.2082799843256;0.39971923828125;0.00275115966796875;3.01999999237523;303;100 mA
6.21827998430035;0.399810791015625;0.0027252197265625;3.02999999234999;304;100 mA
6.2282799842751;0.3997802734375;0.00265655517578125;3.03999999232474;305;100 mA
6.23827998424986;0.399749755859375;0.00267791748046875;3.04999999229949;306;100 mA
6.24827998422461;0.39971923828125;0.00270660400390625;3.05999999227424;307;100 mA
6.25827998419936;0.399749755859375;0.0026739501953125;3.069999992249;308;100 mA
6.26827998417411;0.399749755859375;0.0026776123046875;3.07999999222375;309;100 mA
6.27827998414887;0.3997802734375;0.00272125244140625;3.0899999921985;310;100 mA
6.28827998412362;0.399871826171875;0.002705078125;3.09999999217325;311;100 mA
6.29827998409837;0.39971923828125;0.00266632080078125;3.109999992148;312;100 mA
6.30827998407312;0.399749755859375;0.0027154541015625;3.11999999212276;313;100 mA
6.31827998404788;0.399810791015625;0.0027166748046875;3.12999999209751;314;100 mA
6.32827998402263;0.39984130859375;0.00265411376953125;3.13999999207226;315;100 mA
6.33827998399738;0.399749755859375;0.00263153076171875;3.14999999204701;316;100 mA
6.34827998397213;0.39984130859375;0.0026788330078125;3.15999999202177;317;100 mA
6.35827998394689;0.399810791015625;0.00263458251953125;3.16999999199652;318;100 mA
6.36827998392164;0.3997802734375;0.0026416015625;3.17999999197127;319;100 mA
6.37827998389639;0.3997802734375;0.0026904296875;3.18999999194602;320;100 mA
6.38827998387114;0.3997802734375;0.002679443359375;3.19999999192078;321;100 mA
6.3982799838459;0.39971923828125;0.00260955810546875;3.20999999189553;322;100 mA
6.40827998382065;0.399749755859375;0.0026220703125;3.21999999187028;323;100 mA
6.4182799837954;0.3997802734375;0.0026788330078125;3.22999999184503;324;100 mA
6.42827998377015;0.39984130859375;0.0026318359375;3.23999999181979;325;100 mA
6.43827998374491;0.399749755859375;0.00262725830078125;3.24999999179454;326;100 mA
6.44827998371966;0.39971923828125;0.0026739501953125;3.25999999176929;327;100 mA
6.45827998369441;0.3997802734375;0.0026580810546875;3.26999999174404;328;100 mA
6.46827998366916;0.3997802734375;0.00260162353515625;3.2799999917188;329;100 mA
6.47827998364392;0.3997802734375;0.00265777587890625;3.28999999169355;330;100 mA
6.48827998361867;0.3997802734375;0.00267242431640625;3.2999999916683;331;100 mA
6.49827998359342;0.399810791015625;0.002618408203125;3.30999999164305;332;100 mA
6.50827998356817;0.399810791015625;0.00260162353515625;3.31999999161781;333;100 mA
6.51827998354293;0.399749755859375;0.002652587890625;3.32999999159256;334;100 mA
6.52827998351768;0.399810791015625;0.002618408203125;3.33999999156731;335;100 mA
6.53827998349243;0.399810791015625;0.00261749267578125;3.34999999154206;336;100 mA
6.54827998346718;0.39971923828125;0.0026690673828125;3.35999999151682;337;100 mA
6.55827998344193;0.39971923828125;0.0026947021484375;3.36999999149157;338;100 mA
6.56827998341669;0.3997802734375;0.00262481689453125;3.37999999146632;339;100 mA
6.57827998339144;0.399688720703125;0.0026275634765625;3.38999999144107;340;100 mA
6.58827998336619;0.3997802734375;0.00265899658203125;3.39999999141583;341;100 mA
6.59827998334094;0.39984130859375;0.002630615234375;3.40999999139058;342;100 mA
6.6082799833157;0.3997802734375;0.00261444091796875;3.41999999136533;343;100 mA
6.61827998329045;0.3997802734375;0.0026495361328125;3.42999999134008;344;100 mA
6.6282799832652;0.3997802734375;0.002664794921875;3.43999999131483;345;100 mA
6.63827998323995;0.399810791015625;0.0026153564453125;3.44999999128959;346;100 mA
6.64827998321471;0.3997802734375;0.0026458740234375;3.45999999126434;347;100 mA
6.65827998318946;0.399688720703125;0.002674560546875;3.46999999123909;348;100 mA
6.66827998316421;0.399810791015625;0.00262481689453125;3.47999999121384;349;100 mA
6.67827998313896;0.3997802734375;0.00259857177734375;3.4899999911886;350;100 mA
6.68827998311372;0.399810791015625;0.002645263671875;3.49999999116335;351;100 mA
6.69827998308847;0.3997802734375;0.0026214599609375;3.5099999911381;352;100 mA
6.70827998306322;0.39971923828125;0.002606201171875;3.51999999111285;353;100 mA
6.71827998303797;0.399749755859375;0.00262481689453125;3.52999999108761;354;100 mA
6.72827998301273;0.399749755859375;0.0026458740234375;3.53999999106236;355;100 mA
6.73827998298748;0.3997802734375;0.00257904052734375;3.54999999103711;356;100 mA
6.74827998296223;0.3997802734375;0.00258270263671875;3.55999999101186;357;100 mA
6.75827998293698;0.399749755859375;0.00264434814453125;3.56999999098662;358;100 mA
6.76827998291174;0.3997802734375;0.0026141357421875;3.57999999096137;359;100 mA
6.77827998288649;0.39971923828125;0.0026055908203125;3.58999999093612;360;100 mA
6.78827998286124;0.3997802734375;0.00263885498046875;3.59999999091087;361;100 mA
6.79827998283599;0.3997802734375;0.00265289306640625;3.60999999088563;362;100 mA
6.80827998281075;0.399749755859375;0.00258270263671875;3.61999999086038;363;100 mA
6.8182799827855;0.39971923828125;0.002603759765625;3.62999999083513;364;100 mA
6.82827998276025;0.3997802734375;0.002625732421875;3.63999999080988;365;100 mA
6.838279982735;0.399810791015625;0.002579345703125;3.64999999078464;366;100 mA
6.84827998270976;0.399810791015625;0.0025531005859375;3.65999999075939;367;100 mA
6.85827998268451;0.3997802734375;0.00262359619140625;3.66999999073414;368;100 mA
6.86827998265926;0.399749755859375;0.002630615234375;3.67999999070889;369;100 mA
6.87827998263401;0.39971923828125;0.00259674072265625;3.68999999068365;370;100 mA
6.88827998260876;0.3997802734375;0.002603759765625;3.6999999906584;371;100 mA
6.89827998258352;0.399810791015625;0.0026434326171875;3.70999999063315;372;100 mA
6.90827998255827;0.399810791015625;0.0026019287109375;3.7199999906079;373;100 mA
6.91827998253302;0.399810791015625;0.00257843017578125;3.72999999058266;374;100 mA
6.92827998250777;0.39971923828125;0.002635498046875;3.73999999055741;375;100 mA
6.93827998248253;0.3997802734375;0.0026025390625;3.74999999053216;376;100 mA
6.94827998245728;0.399749755859375;0.00255767822265625;3.75999999050691;377;100 mA
6.95827998243203;0.399749755859375;0.0025872802734375;3.76999999048167;378;100 mA
6.96827998240678;0.39971923828125;0.0026165771484375;3.77999999045642;379;100 mA
6.97827998238154;0.399749755859375;0.0025775146484375;3.78999999043117;380;100 mA
6.98827998235629;0.399810791015625;0.00259735107421875;3.79999999040592;381;100 mA
6.99827998233104;0.399749755859375;0.0026202392578125;3.80999999038067;382;100 mA
7.00827998230579;0.3997802734375;0.002578125;3.81999999035543;383;100 mA
7.01827998228055;0.39971923828125;0.00253692626953125;3.82999999033018;384;100 mA
7.0282799822553;0.399810791015625;0.00258880615234375;3.83999999030493;385;100 mA
7.03827998223005;0.399749755859375;0.0025897216796875;3.84999999027968;386;100 mA
7.0482799822048;0.399749755859375;0.00257537841796875;3.85999999025444;387;100 mA
7.05827998217956;0.399749755859375;0.002584228515625;3.86999999022919;388;100 mA
7.06827998215431;0.399749755859375;0.00263275146484375;3.87999999020394;389;100 mA
7.07827998212906;0.399749755859375;0.0025909423828125;3.88999999017869;390;100 mA
7.08827998210381;0.399749755859375;0.0025836181640625;3.89999999015345;391;100 mA
7.09827998207857;0.399810791015625;0.00260589599609375;3.9099999901282;392;100 mA
7.10827998205332;0.39984130859375;0.00259765625;3.91999999010295;393;100 mA
7.11827998202807;0.399749755859375;0.0025433349609375;3.9299999900777;394;100 mA
7.12827998200282;0.399810791015625;0.00255767822265625;3.93999999005246;395;100 mA
7.13827998197758;0.39971923828125;0.002587890625;3.94999999002721;396;100 mA
7.14827998195233;0.399810791015625;0.00256011962890625;3.95999999000196;397;100 mA
7.15827998192708;0.39971923828125;0.00258697509765625;3.96999998997671;398;100 mA
7.16827998190183;0.399749755859375;0.00262420654296875;3.97999998995147;399;100 mA
7.17827998187659;0.3997802734375;0.00260528564453125;3.98999998992622;400;100 mA
7.18827998185134;0.39971923828125;0.00254241943359375;3.99999998990097;401;100 mA
7.19827998182609;0.399871826171875;0.0025848388671875;4.00999998987572;402;100 mA
7.20827998180084;0.39984130859375;0.00261322021484375;4.01999998985048;403;100 mA
7.21827998177559;0.399749755859375;0.00256072998046875;4.02999998982523;404;100 mA
7.22827998175035;0.3997802734375;0.00254791259765625;4.03999998979998;405;100 mA
7.2382799817251;0.3997802734375;0.00258392333984375;4.04999998977473;406;100 mA
7.24827998169985;0.399810791015625;0.00254791259765625;4.05999998974949;407;100 mA
7.2582799816746;0.3997802734375;0.0025439453125;4.06999998972424;408;100 mA
7.26827998164936;0.399810791015625;0.00260711669921875;4.07999998969899;409;100 mA
7.27827998162411;0.3997802734375;0.0026123046875;4.08999998967374;410;100 mA
7.28827998159886;0.399749755859375;0.00253814697265625;4.0999999896485;411;100 mA
7.29827998157361;0.39971923828125;0.00253631591796875;4.10999998962325;412;100 mA
7.30827998154837;0.3997802734375;0.00258880615234375;4.119999989598;413;100 mA
7.31827998152312;0.399810791015625;0.00256256103515625;4.12999998957275;414;100 mA
7.32827998149787;0.399749755859375;0.00257781982421875;4.1399999895475;415;100 mA
7.33827998147262;0.3997802734375;0.002633056640625;4.14999998952226;416;100 mA
7.34827998144738;0.39971923828125;0.0026153564453125;4.15999998949701;417;100 mA
7.35827998142213;0.399749755859375;0.0025592041015625;4.16999998947176;418;100 mA
7.36827998139688;0.399810791015625;0.00257965087890625;4.17999998944651;419;100 mA
7.37827998137163;0.3997802734375;0.002587890625;4.18999998942127;420;100 mA
7.38827998134639;0.3997802734375;0.00253387451171875;4.19999998939602;421;100 mA
7.39827998132114;0.399749755859375;0.0025262451171875;4.20999998937077;422;100 mA
7.40827998129589;0.399749755859375;0.00257659912109375;4.21999998934552;423;100 mA
7.41827998127064;0.399810791015625;0.0025726318359375;4.22999998932028;424;100 mA
7.4282799812454;0.3997802734375;0.00256072998046875;4.23999998929503;425;100 mA
7.43827998122015;0.39971923828125;0.00259765625;4.24999998926978;426;100 mA
7.4482799811949;0.399749755859375;0.00260528564453125;4.25999998924453;427;100 mA
7.45827998116965;0.3997802734375;0.00253173828125;4.26999998921929;428;100 mA
7.46827998114441;0.399810791015625;0.00252105712890625;4.27999998919404;429;100 mA
7.47827998111916;0.3997802734375;0.00257904052734375;4.28999998916879;430;100 mA
7.48827998109391;0.399749755859375;0.00253387451171875;4.29999998914354;431;100 mA
7.49827998106866;0.399749755859375;0.00252227783203125;4.3099999891183;432;100 mA
7.50827998104342;0.3997802734375;0.0025457763671875;4.31999998909305;433;100 mA
7.51827998101817;0.399810791015625;0.002550048828125;4.3299999890678;434;100 mA
7.52827998099292;0.3997802734375;0.002491455078125;4.33999998904255;435;100 mA
7.53827998096767;0.39971923828125;0.0025225830078125;4.34999998901731;436;100 mA
7.54827998094243;0.399749755859375;0.00255584716796875;4.35999998899206;437;100 mA
7.55827998091718;0.399749755859375;0.0025164794921875;4.36999998896681;438;100 mA
7.56827998089193;0.3997802734375;0.002491455078125;4.37999998894156;439;100 mA
7.57827998086668;0.3997802734375;0.0025396728515625;4.38999998891632;440;100 mA
7.58827998084143;0.399749755859375;0.00253631591796875;4.39999998889107;441;100 mA
7.59827998081619;0.39971923828125;0.00252593994140625;4.40999998886582;442;100 mA
7.60827998079094;0.39971923828125;0.00258819580078125;4.41999998884057;443;100 mA
7.61827998076569;0.399810791015625;0.0026007080078125;4.42999998881533;444;100 mA
7.62827998074044;0.399810791015625;0.00255950927734375;4.43999998879008;445;100 mA
7.6382799807152;0.39971923828125;0.00252960205078125;4.44999998876483;446;100 mA
7.64827998068995;0.399688720703125;0.00261383056640625;4.45999998873958;447;100 mA
7.6582799806647;0.399810791015625;0.0025909423828125;4.46999998871433;448;100 mA
7.66827998063945;0.3997802734375;0.0025469970703125;4.47999998868909;449;100 mA
7.67827998061421;0.399749755859375;0.00254486083984375;4.48999998866384;450;100 mA
7.68827998058896;0.39984130859375;0.00257354736328125;4.49999998863859;451;100 mA
7.69827998056371;0.39971923828125;0.00251800537109375;4.50999998861334;452;100 mA
7.70827998053846;0.399810791015625;0.00253753662109375;4.5199999885881;453;100 mA
7.71827998051322;0.399810791015625;0.00258331298828125;4.52999998856285;454;100 mA
7.72827998048797;0.399749755859375;0.0025531005859375;4.5399999885376;455;100 mA
7.73827998046272;0.399810791015625;0.00250518798828125;4.54999998851235;456;100 mA
7.74827998043747;0.3997802734375;0.00254638671875;4.55999998848711;457;100 mA
7.75827998041223;0.399749755859375;0.002576904296875;4.56999998846186;458;100 mA
7.76827998038698;0.3997802734375;0.00254486083984375;4.57999998843661;459;100 mA
7.77827998036173;0.399688720703125;0.0025604248046875;4.58999998841136;460;100 mA
7.78827998033648;0.399749755859375;0.00258697509765625;4.59999998838612;461;100 mA
7.79827998031124;0.399749755859375;0.00254180908203125;4.60999998836087;462;100 mA
7.80827998028599;0.39971923828125;0.0025238037109375;4.61999998833562;463;100 mA
7.81827998026074;0.399810791015625;0.00259796142578125;4.62999998831037;464;100 mA
7.82827998023549;0.399810791015625;0.0026068115234375;4.63999998828513;465;100 mA
7.83827998021025;0.399688720703125;0.00258026123046875;4.64999998825988;466;100 mA
7.848279980185;0.399749755859375;0.00258148193359375;4.65999998823463;467;100 mA
7.85827998015975;0.39971923828125;0.00262054443359375;4.66999998820938;468;100 mA
7.8682799801345;0.399749755859375;0.0025799560546875;4.67999998818414;469;100 mA
7.87827998010926;0.39984130859375;0.00260498046875;4.68999998815889;470;100 mA
7.88827998008401;0.3997802734375;0.00265106201171875;4.69999998813364;471;100 mA
7.89827998005876;0.3997802734375;0.0026226806640625;4.70999998810839;472;100 mA
7.90827998003351;0.399749755859375;0.00255950927734375;4.71999998808315;473;100 mA
7.91827998000826;0.399810791015625;0.0025750732421875;4.7299999880579;474;100 mA
7.92827997998302;0.3997802734375;0.00258880615234375;4.73999998803265;475;100 mA
7.93827997995777;0.3997802734375;0.0025433349609375;4.7499999880074;476;100 mA
7.94827997993252;0.3997802734375;0.00254486083984375;4.75999998798216;477;100 mA
7.95827997990727;0.3997802734375;0.0025762939453125;4.76999998795691;478;100 mA
7.96827997988203;0.399810791015625;0.002550048828125;4.77999998793166;479;100 mA
7.97827997985678;0.3997802734375;0.00252349853515625;4.78999998790641;480;100 mA
7.98827997983153;0.39971923828125;0.0025726318359375;4.79999998788116;481;100 mA
7.99827997980628;0.399749755859375;0.00259246826171875;4.80999998785592;482;100 mA
8.00827997978104;0.399688720703125;0.00255584716796875;4.81999998783067;483;100 mA
8.01827997975579;0.3997802734375;0.00253936767578125;4.82999998780542;484;100 mA
8.02827997973054;0.399749755859375;0.002589111328125;4.83999998778017;485;100 mA
8.03827997970529;0.39971923828125;0.00256011962890625;4.84999998775493;486;100 mA
8.04827997968005;0.399810791015625;0.0025537109375;4.85999998772968;487;100 mA
8.0582799796548;0.399810791015625;0.00258819580078125;4.86999998770443;488;100 mA
8.06827997962955;0.399749755859375;0.00258758544921875;4.87999998767918;489;100 mA
8.0782799796043;0.39971923828125;0.00253936767578125;4.88999998765394;490;100 mA
8.08827997957906;0.399749755859375;0.00256744384765625;4.89999998762869;491;100 mA
8.09827997955381;0.399749755859375;0.00259765625;4.90999998760344;492;100 mA
8.10827997952856;0.399810791015625;0.00256195068359375;4.91999998757819;493;100 mA
8.11827997950331;0.399749755859375;0.002547607421875;4.92999998755295;494;100 mA
8.12827997947807;0.39971923828125;0.00258697509765625;4.9399999875277;495;100 mA
8.13827997945282;0.3997802734375;0.00257965087890625;4.94999998750245;496;100 mA
8.14827997942757;0.39971923828125;0.00254180908203125;4.9599999874772;497;100 mA
8.15827997940232;0.3997802734375;0.00260345458984375;4.96999998745196;498;100 mA
8.16827997937708;0.399749755859375;0.00260528564453125;4.97999998742671;499;100 mA
8.17827997935183;0.3997802734375;0.00255950927734375;4.98999998740146;500;100 mA
8.18827997932658;0.399810791015625;0.0025421142578125;4.99999998737621;501;100 mA
8.19827997930133;0.399749755859375;0.00259979248046875;5.00999998735097;502;100 mA
8.20827997927609;0.3997802734375;0.00255767822265625;5.01999998732572;503;100 mA
8.21827997925084;0.399749755859375;0.00253753662109375;5.02999998730047;504;100 mA
8.22827997922559;0.3997802734375;0.00255523681640625;5.03999998727522;505;100 mA
8.23827997920034;0.399810791015625;0.00255645751953125;5.04999998724998;506;100 mA
8.24827997917509;0.399749755859375;0.0025006103515625;5.05999998722473;507;100 mA
8.25827997914985;0.39971923828125;0.00252716064453125;5.06999998719948;508;100 mA
8.2682799791246;0.3997802734375;0.00257965087890625;5.07999998717423;509;100 mA
8.27827997909935;0.3997802734375;0.0025543212890625;5.08999998714899;510;100 mA
8.2882799790741;0.3997802734375;0.00253204345703125;5.09999998712374;511;100 mA
8.29827997904886;0.3997802734375;0.0025543212890625;5.10999998709849;512;100 mA
8.30827997902361;0.39984130859375;0.00254974365234375;5.11999998707324;513;100 mA
8.31827997899836;0.399749755859375;0.00250335693359375;5.129999987048;514;100 mA
8.32827997897311;0.399810791015625;0.00254791259765625;5.13999998702275;515;100 mA
8.33827997894787;0.399810791015625;0.00257598876953125;5.1499999869975;516;100 mA
8.34827997892262;0.3997802734375;0.00253631591796875;5.15999998697225;517;100 mA
8.35827997889737;0.399749755859375;0.0025140380859375;5.169999986947;518;100 mA
8.36827997887212;0.399749755859375;0.0025543212890625;5.17999998692176;519;100 mA
8.37827997884688;0.3997802734375;0.00253204345703125;5.18999998689651;520;100 mA
8.38827997882163;0.3997802734375;0.002520751953125;5.19999998687126;521;100 mA
8.39827997879638;0.399749755859375;0.00253204345703125;5.20999998684601;522;100 mA
8.40827997877113;0.399749755859375;0.00256072998046875;5.21999998682077;523;100 mA
8.41827997874589;0.39971923828125;0.00250701904296875;5.22999998679552;524;100 mA
8.42827997872064;0.3997802734375;0.00251617431640625;5.23999998677027;525;100 mA
8.43827997869539;0.39971923828125;0.00256317138671875;5.24999998674502;526;100 mA
8.44827997867014;0.3997802734375;0.00252777099609375;5.25999998671978;527;100 mA
8.4582799786449;0.399749755859375;0.00249908447265625;5.26999998669453;528;100 mA
8.46827997861965;0.399749755859375;0.00251556396484375;5.27999998666928;529;100 mA
8.4782799785944;0.399749755859375;0.0025177001953125;5.28999998664403;530;100 mA
8.48827997856915;0.3997802734375;0.00247344970703125;5.29999998661879;531;100 mA
8.49827997854391;0.399658203125;0.00250244140625;5.30999998659354;532;100 mA
8.50827997851866;0.399749755859375;0.0025335693359375;5.31999998656829;533;100 mA
8.51827997849341;0.399688720703125;0.002506103515625;5.32999998654304;534;100 mA
8.52827997846816;0.3997802734375;0.0024908447265625;5.3399999865178;535;100 mA
8.53827997844292;0.399749755859375;0.00254791259765625;5.34999998649255;536;100 mA
8.54827997841767;0.3997802734375;0.00252349853515625;5.3599999864673;537;100 mA
8.55827997839242;0.3997802734375;0.002490234375;5.36999998644205;538;100 mA
8.56827997836717;0.3997802734375;0.002493896484375;5.37999998641681;539;100 mA
8.57827997834193;0.399810791015625;0.00253631591796875;5.38999998639156;540;100 mA
8.58827997831668;0.399749755859375;0.00248809814453125;5.39999998636631;541;100 mA
8.59827997829143;0.399749755859375;0.00249755859375;5.40999998634106;542;100 mA
8.60827997826618;0.399749755859375;0.00254791259765625;5.41999998631582;543;100 mA
8.61827997824093;0.399749755859375;0.0025274658203125;5.42999998629057;544;100 mA
8.62827997821569;0.399749755859375;0.0024932861328125;5.43999998626532;545;100 mA
8.63827997819044;0.39971923828125;0.00251495361328125;5.44999998624007;546;100 mA
8.64827997816519;0.399749755859375;0.00253692626953125;5.45999998621483;547;100 mA
8.65827997813994;0.39971923828125;0.002501220703125;5.46999998618958;548;100 mA
8.6682799781147;0.399749755859375;0.00252288818359375;5.47999998616433;549;100 mA
8.67827997808945;0.399749755859375;0.0025555419921875;5.48999998613908;550;100 mA
8.6882799780642;0.3997802734375;0.00251190185546875;5.49999998611383;551;100 mA
8.69827997803895;0.399749755859375;0.00247894287109375;5.50999998608859;552;100 mA
8.70827997801371;0.399749755859375;0.00252716064453125;5.51999998606334;553;100 mA
8.71827997798846;0.3997802734375;0.00253265380859375;5.52999998603809;554;100 mA
8.72827997796321;0.39971923828125;0.0024945068359375;5.53999998601284;555;100 mA
8.73827997793796;0.399658203125;0.002486572265625;5.5499999859876;556;100 mA
8.74827997791272;0.399810791015625;0.00253631591796875;5.55999998596235;557;100 mA
8.75827997788747;0.399688720703125;0.0025115966796875;5.5699999859371;558;100 mA
8.76827997786222;0.3997802734375;0.00250762939453125;5.57999998591185;559;100 mA
8.77827997783697;0.399810791015625;0.002545166015625;5.58999998588661;560;100 mA
8.78827997781173;0.3997802734375;0.0025390625;5.59999998586136;561;100 mA
8.79827997778648;0.3997802734375;0.00248138427734375;5.60999998583611;562;100 mA
8.80827997776123;0.399810791015625;0.00249786376953125;5.61999998581086;563;100 mA
8.81827997773598;0.39971923828125;0.00255615234375;5.62999998578562;564;100 mA
8.82827997771074;0.399749755859375;0.0025140380859375;5.63999998576037;565;100 mA
8.83827997768549;0.3997802734375;0.00251678466796875;5.64999998573512;566;100 mA
8.84827997766024;0.399810791015625;0.00255035400390625;5.65999998570987;567;100 mA
8.85827997763499;0.3997802734375;0.00252685546875;5.66999998568463;568;100 mA
8.86827997760975;0.399749755859375;0.0024847412109375;5.67999998565938;569;100 mA
8.8782799775845;0.399749755859375;0.00252410888671875;5.68999998563413;570;100 mA
8.88827997755925;0.399688720703125;0.00254302978515625;5.69999998560888;571;100 mA
8.898279977534;0.39971923828125;0.0025079345703125;5.70999998558364;572;100 mA
8.90827997750876;0.3997802734375;0.00248687744140625;5.71999998555839;573;100 mA
8.91827997748351;0.3997802734375;0.0025408935546875;5.72999998553314;574;100 mA
8.92827997745826;0.3997802734375;0.00251068115234375;5.73999998550789;575;100 mA
8.93827997743301;0.399810791015625;0.002498779296875;5.74999998548265;576;100 mA
8.94827997740776;0.39971923828125;0.00254425048828125;5.7599999854574;577;100 mA
8.95827997738252;0.3997802734375;0.002532958984375;5.76999998543215;578;100 mA
8.96827997735727;0.399749755859375;0.0024560546875;5.7799999854069;579;100 mA
8.97827997733202;0.399688720703125;0.0024560546875;5.78999998538166;580;100 mA
8.98827997730677;0.399810791015625;0.0025164794921875;5.79999998535641;581;100 mA
8.99827997728153;0.3997802734375;0.00249786376953125;5.80999998533116;582;100 mA
9.00827997725628;0.399749755859375;0.00249053955078125;5.81999998530591;583;100 mA
9.01827997723103;0.3997802734375;0.002510986328125;5.82999998528066;584;100 mA
9.02827997720578;0.39971923828125;0.0025201416015625;5.83999998525542;585;100 mA
9.03827997718054;0.399749755859375;0.0024603271484375;5.84999998523017;586;100 mA
9.04827997715529;0.399749755859375;0.002489013671875;5.85999998520492;587;100 mA
9.05827997713004;0.399749755859375;0.00251312255859375;5.86999998517967;588;100 mA
9.06827997710479;0.399749755859375;0.002484130859375;5.87999998515443;589;100 mA
9.07827997707955;0.3997802734375;0.00246826171875;5.88999998512918;590;100 mA
9.0882799770543;0.39971923828125;0.0025140380859375;5.89999998510393;591;100 mA
9.09827997702905;0.3997802734375;0.0025054931640625;5.90999998507868;592;100 mA
9.1082799770038;0.399749755859375;0.00248199462890625;5.91999998505344;593;100 mA
9.11827997697856;0.399749755859375;0.00250518798828125;5.92999998502819;594;100 mA
9.12827997695331;0.399810791015625;0.002520751953125;5.93999998500294;595;100 mA
9.13827997692806;0.399749755859375;0.0024908447265625;5.94999998497769;596;100 mA
9.14827997690281;0.399810791015625;0.00247589111328125;5.95999998495245;597;100 mA
9.15827997687757;0.39971923828125;0.00253662109375;5.9699999849272;598;100 mA
9.16827997685232;0.3997802734375;0.00251190185546875;5.97999998490195;599;100 mA
9.17827997682707;0.399688720703125;0.002498779296875;5.9899999848767;600;100 mA
9.18827997680182;0.3997802734375;0.00251708984375;5.99999998485146;601;100 mA
9.19827997677658;0.399810791015625;0.00252105712890625;6.00999998482621;602;100 mA
9.20827997675133;0.399688720703125;0.0024639892578125;6.01999998480096;603;100 mA
9.21827997672608;0.399688720703125;0.0025054931640625;6.02999998477571;604;100 mA
9.22827997670083;0.3997802734375;0.0025457763671875;6.03999998475047;605;100 mA
9.23827997667559;0.399688720703125;0.00249755859375;6.04999998472522;606;100 mA
9.24827997665034;0.3997802734375;0.00245819091796875;6.05999998469997;607;100 mA
9.25827997662509;0.399749755859375;0.00249176025390625;6.06999998467472;608;100 mA
9.26827997659984;0.399749755859375;0.002469482421875;6.07999998464948;609;100 mA
9.27827997657459;0.399810791015625;0.002449951171875;6.08999998462423;610;100 mA
9.28827997654935;0.399749755859375;0.0024853515625;6.09999998459898;611;100 mA
9.2982799765241;0.3997802734375;0.00251861572265625;6.10999998457373;612;100 mA
9.30827997649885;0.399749755859375;0.002469482421875;6.11999998454849;613;100 mA
9.3182799764736;0.3997802734375;0.00246673583984375;6.12999998452324;614;100 mA
9.32827997644836;0.399749755859375;0.00254058837890625;6.13999998449799;615;100 mA
9.33827997642311;0.399688720703125;0.00253021240234375;6.14999998447274;616;100 mA
9.34827997639786;0.399749755859375;0.00249542236328125;6.1599999844475;617;100 mA
9.35827997637261;0.399749755859375;0.0025115966796875;6.16999998442225;618;100 mA
9.36827997634737;0.399810791015625;0.00253570556640625;6.179999984397;619;100 mA
9.37827997632212;0.399688720703125;0.00248504638671875;6.18999998437175;620;100 mA
9.38827997629687;0.3997802734375;0.002503662109375;6.1999999843465;621;100 mA
9.39827997627162;0.39971923828125;0.002550048828125;6.20999998432126;622;100 mA
9.40827997624638;0.39971923828125;0.0025042724609375;6.21999998429601;623;100 mA
9.41827997622113;0.39971923828125;0.00245269775390625;6.22999998427076;624;100 mA
9.42827997619588;0.399749755859375;0.0024945068359375;6.23999998424551;625;100 mA
9.43827997617063;0.3997802734375;0.00250885009765625;6.24999998422027;626;100 mA
9.44827997614539;0.3997802734375;0.00246490478515625;6.25999998419502;627;100 mA
9.45827997612014;0.399627685546875;0.002520751953125;6.26999998416977;628;100 mA
9.46827997609489;0.399749755859375;0.002542724609375;6.27999998414452;629;100 mA
9.47827997606964;0.3997802734375;0.00249114990234375;6.28999998411928;630;100 mA
9.4882799760444;0.3997802734375;0.002459716796875;6.29999998409403;631;100 mA
9.49827997601915;0.399749755859375;0.002510986328125;6.30999998406878;632;100 mA
9.5082799759939;0.3997802734375;0.00249053955078125;6.31999998404353;633;100 mA
9.51827997596865;0.399810791015625;0.00244842529296875;6.32999998401829;634;100 mA
9.52827997594341;0.399749755859375;0.0024658203125;6.33999998399304;635;100 mA
9.53827997591816;0.399810791015625;0.002518310546875;6.34999998396779;636;100 mA
9.54827997589291;0.3997802734375;0.0024627685546875;6.35999998394254;637;100 mA
9.55827997586766;0.399749755859375;0.00246734619140625;6.3699999839173;638;100 mA
9.56827997584242;0.399810791015625;0.002515869140625;6.37999998389205;639;100 mA
9.57827997581717;0.39971923828125;0.00250213623046875;6.3899999838668;640;100 mA
9.58827997579192;0.3997802734375;0.0024407958984375;6.39999998384155;641;100 mA
9.59827997576667;0.399749755859375;0.0024664306640625;6.40999998381631;642;100 mA
9.60827997574143;0.399749755859375;0.0025006103515625;6.41999998379106;643;100 mA
9.61827997571618;0.39971923828125;0.00246490478515625;6.42999998376581;644;100 mA
9.62827997569093;0.399810791015625;0.0024658203125;6.43999998374056;645;100 mA
9.63827997566568;0.3997802734375;0.00250762939453125;6.44999998371532;646;100 mA
9.64827997564043;0.399749755859375;0.0024798583984375;6.45999998369007;647;100 mA
9.65827997561519;0.399810791015625;0.00245086669921875;6.46999998366482;648;100 mA
9.66827997558994;0.399688720703125;0.00251190185546875;6.47999998363957;649;100 mA
9.67827997556469;0.399810791015625;0.0025335693359375;6.48999998361433;650;100 mA
9.68827997553944;0.399749755859375;0.00248504638671875;6.49999998358908;651;100 mA
9.6982799755142;0.399658203125;0.002479248046875;6.50999998356383;652;100 mA
9.70827997548895;0.3997802734375;0.00254608154296875;6.51999998353858;653;100 mA
9.7182799754637;0.3997802734375;0.0024993896484375;6.52999998351333;654;100 mA
9.72827997543845;0.3997802734375;0.00250030517578125;6.53999998348809;655;100 mA
9.73827997541321;0.399810791015625;0.0025390625;6.54999998346284;656;100 mA
9.74827997538796;0.399749755859375;0.00253173828125;6.55999998343759;657;100 mA
9.75827997536271;0.3997802734375;0.002506103515625;6.56999998341234;658;100 mA
9.76827997533746;0.399749755859375;0.00250518798828125;6.5799999833871;659;100 mA
9.77827997531222;0.399749755859375;0.002540283203125;6.58999998336185;660;100 mA
9.78827997528697;0.39971923828125;0.00248870849609375;6.5999999833366;661;100 mA
9.79827997526172;0.399749755859375;0.0024658203125;6.60999998331135;662;100 mA
9.80827997523647;0.3997802734375;0.00250762939453125;6.61999998328611;663;100 mA
9.81827997521123;0.399749755859375;0.00247711181640625;6.62999998326086;664;100 mA
9.82827997518598;0.3997802734375;0.0024444580078125;6.63999998323561;665;100 mA
9.83827997516073;0.3997802734375;0.00249908447265625;6.64999998321036;666;100 mA
9.84827997513548;0.399749755859375;0.00252716064453125;6.65999998318512;667;100 mA
9.85827997511024;0.3997802734375;0.0024908447265625;6.66999998315987;668;100 mA
9.86827997508499;0.3997802734375;0.0024749755859375;6.67999998313462;669;100 mA
9.87827997505974;0.3997802734375;0.00255279541015625;6.68999998310937;670;100 mA
9.88827997503449;0.399688720703125;0.0025177001953125;6.69999998308413;671;100 mA
9.89827997500925;0.399749755859375;0.002509765625;6.70999998305888;672;100 mA
9.908279974984;0.39971923828125;0.00254791259765625;6.71999998303363;673;100 mA
9.91827997495875;0.399749755859375;0.002562255859375;6.72999998300838;674;100 mA
9.9282799749335;0.39971923828125;0.00250030517578125;6.73999998298314;675;100 mA
9.93827997490826;0.399688720703125;0.00252044677734375;6.74999998295789;676;100 mA
9.94827997488301;0.39971923828125;0.00256683349609375;6.75999998293264;677;100 mA
9.95827997485776;0.3997802734375;0.00251800537109375;6.76999998290739;678;100 mA
9.96827997483251;0.399810791015625;0.0024920654296875;6.77999998288215;679;100 mA
9.97827997480726;0.3997802734375;0.002535400390625;6.7899999828569;680;100 mA
9.98827997478202;0.39971923828125;0.00252532958984375;6.79999998283165;681;100 mA
9.99827997475677;0.39971923828125;0.0024835205078125;6.8099999828064;682;100 mA
10.0082799747315;0.399749755859375;0.00253082275390625;6.81999998278116;683;100 mA
10.0182799747063;0.3997802734375;0.002557373046875;6.82999998275591;684;100 mA
10.028279974681;0.399749755859375;0.0025054931640625;6.83999998273066;685;100 mA
10.0382799746558;0.399749755859375;0.00248291015625;6.84999998270541;686;100 mA
10.0482799746305;0.39971923828125;0.00255157470703125;6.85999998268016;687;100 mA
10.0582799746053;0.39971923828125;0.00251953125;6.86999998265492;688;100 mA
10.06827997458;0.399810791015625;0.0024981689453125;6.87999998262967;689;100 mA
10.0782799745548;0.399749755859375;0.00253265380859375;6.88999998260442;690;100 mA
10.0882799745295;0.399749755859375;0.00256011962890625;6.89999998257917;691;100 mA
10.0982799745043;0.399749755859375;0.00248321533203125;6.90999998255393;692;100 mA
10.108279974479;0.39971923828125;0.002528076171875;6.91999998252868;693;100 mA
10.1182799744538;0.399749755859375;0.0025726318359375;6.92999998250343;694;100 mA
10.1282799744286;0.3997802734375;0.00253692626953125;6.93999998247818;695;100 mA
10.1382799744033;0.399810791015625;0.0024908447265625;6.94999998245294;696;100 mA
10.1482799743781;0.3997802734375;0.0025244140625;6.95999998242769;697;100 mA
10.1582799743528;0.399749755859375;0.00254180908203125;6.96999998240244;698;100 mA
10.1682799743276;0.399749755859375;0.00249969482421875;6.97999998237719;699;100 mA
10.1782799743023;0.399627685546875;0.00253173828125;6.98999998235195;700;100 mA
