Time (s);WE(1).Potential (V);WE(1).Current (A);Corrected time (s);Index;Current range
10.7154259729462;0.299835205078125;0.001468505859375;0;1;100 mA
10.7254259729209;0.29986572265625;0.0017669677734375;0.00999999997475243;2;100 mA
10.7354259728957;0.2999267578125;0.00187835693359375;0.0199999999495049;3;100 mA
10.7454259728704;0.29986572265625;0.00190643310546875;0.0299999999242573;4;100 mA
10.7554259728452;0.29986572265625;0.0019879150390625;0.0399999998990097;5;100 mA
10.7654259728199;0.299896240234375;0.00205963134765625;0.0499999998737621;6;100 mA
10.7754259727947;0.299896240234375;0.00204833984375;0.0599999998485146;7;100 mA
10.7854259727694;0.29986572265625;0.00206512451171875;0.069999999823267;8;100 mA
10.7954259727442;0.29986572265625;0.00211029052734375;0.0799999997980194;9;100 mA
10.8054259727189;0.29986572265625;0.00208709716796875;0.0899999997727718;10;100 mA
10.8154259726937;0.29986572265625;0.00204986572265625;0.0999999997475243;11;100 mA
10.8254259726684;0.2999267578125;0.00210693359375;0.109999999722277;12;100 mA
10.8354259726432;0.2998046875;0.00211822509765625;0.119999999697029;13;100 mA
10.8454259726179;0.29986572265625;0.00209442138671875;0.129999999671782;14;100 mA
10.8554259725927;0.299896240234375;0.00209930419921875;0.139999999646534;15;100 mA
10.8654259725674;0.299896240234375;0.002142333984375;0.149999999621286;16;100 mA
10.8754259725422;0.2999267578125;0.0021014404296875;0.159999999596039;17;100 mA
10.8854259725169;0.299896240234375;0.0021002197265625;0.169999999570791;18;100 mA
10.8954259724917;0.29986572265625;0.0021453857421875;0.179999999545544;19;100 mA
10.9054259724664;0.29986572265625;0.00215484619140625;0.189999999520296;20;100 mA
10.9154259724412;0.29986572265625;0.00210601806640625;0.199999999495049;21;100 mA
10.925425972416;0.29986572265625;0.002119140625;0.209999999469801;22;100 mA
10.9354259723907;0.29986572265625;0.00214813232421875;0.219999999444553;23;100 mA
10.9454259723655;0.299896240234375;0.00211029052734375;0.229999999419306;24;100 mA
10.9554259723402;0.29986572265625;0.0021282958984375;0.239999999394058;25;100 mA
10.965425972315;0.299835205078125;0.00214263916015625;0.249999999368811;26;100 mA
10.9754259722897;0.2999267578125;0.0021197509765625;0.259999999343563;27;100 mA
10.9854259722645;0.29986572265625;0.0020953369140625;0.269999999318316;28;100 mA
10.9954259722392;0.29986572265625;0.00213897705078125;0.279999999293068;29;100 mA
11.005425972214;0.29986572265625;0.00215911865234375;0.28999999926782;30;100 mA
11.0154259721887;0.299835205078125;0.002130126953125;0.299999999242573;31;100 mA
11.0254259721635;0.299835205078125;0.0021319580078125;0.309999999217325;32;100 mA
11.0354259721382;0.29986572265625;0.0021868896484375;0.319999999192078;33;100 mA
11.045425972113;0.299896240234375;0.002158203125;0.32999999916683;34;100 mA
11.0554259720877;0.29986572265625;0.00215850830078125;0.339999999141583;35;100 mA
11.0654259720625;0.299835205078125;0.00219970703125;0.349999999116335;36;100 mA
11.0754259720372;0.29986572265625;0.00220428466796875;0.359999999091087;37;100 mA
11.085425972012;0.29986572265625;0.00213348388671875;0.36999999906584;38;100 mA
11.0954259719867;0.29986572265625;0.00213287353515625;0.379999999040592;39;100 mA
11.1054259719615;0.2998046875;0.00217041015625;0.389999999015345;40;100 mA
11.1154259719362;0.299957275390625;0.00214813232421875;0.399999998990097;41;100 mA
11.125425971911;0.29986572265625;0.00213134765625;0.40999999896485;42;100 mA
11.1354259718858;0.299835205078125;0.00215576171875;0.419999998939602;43;100 mA
11.1454259718605;0.29986572265625;0.002161865234375;0.429999998914354;44;100 mA
11.1554259718353;0.2998046875;0.002122802734375;0.439999998889107;45;100 mA
11.16542597181;0.29986572265625;0.0021649169921875;0.449999998863859;46;100 mA
11.1754259717848;0.29986572265625;0.00218658447265625;0.459999998838612;47;100 mA
11.1854259717595;0.29986572265625;0.00213897705078125;0.469999998813364;48;100 mA
11.1954259717343;0.29986572265625;0.00211639404296875;0.479999998788116;49;100 mA
11.205425971709;0.2998046875;0.00216278076171875;0.489999998762869;50;100 mA
11.2154259716838;0.29986572265625;0.00213531494140625;0.499999998737621;51;100 mA
11.2254259716585;0.299835205078125;0.00213165283203125;0.509999998712374;52;100 mA
11.2354259716333;0.29986572265625;0.00215606689453125;0.519999998687126;53;100 mA
11.245425971608;0.29986572265625;0.00215301513671875;0.529999998661879;54;100 mA
11.2554259715828;0.299835205078125;0.00210205078125;0.539999998636631;55;100 mA
11.2654259715575;0.299835205078125;0.00212188720703125;0.549999998611383;56;100 mA
11.2754259715323;0.299835205078125;0.0021917724609375;0.559999998586136;57;100 mA
11.285425971507;0.29986572265625;0.00216339111328125;0.569999998560888;58;100 mA
11.2954259714818;0.299835205078125;0.0021417236328125;0.579999998535641;59;100 mA
11.3054259714565;0.299835205078125;0.0021624755859375;0.589999998510393;60;100 mA
11.3154259714313;0.29986572265625;0.00215606689453125;0.599999998485146;61;100 mA
11.325425971406;0.299896240234375;0.00210296630859375;0.609999998459898;62;100 mA
11.3354259713808;0.299835205078125;0.00213409423828125;0.61999999843465;63;100 mA
11.3454259713556;0.29986572265625;0.00215728759765625;0.629999998409403;64;100 mA
11.3554259713303;0.29986572265625;0.00214080810546875;0.639999998384155;65;100 mA
11.3654259713051;0.299896240234375;0.0021331787109375;0.649999998358908;66;100 mA
11.3754259712798;0.2998046875;0.002186279296875;0.65999999833366;67;100 mA
11.3854259712546;0.299896240234375;0.002181396484375;0.669999998308413;68;100 mA
11.3954259712293;0.299896240234375;0.0021502685546875;0.679999998283165;69;100 mA
11.4054259712041;0.29986572265625;0.0021630859375;0.689999998257917;70;100 mA
11.4154259711788;0.29986572265625;0.0021759033203125;0.69999999823267;71;100 mA
11.4254259711536;0.299835205078125;0.00211212158203125;0.709999998207422;72;100 mA
11.4354259711283;0.299835205078125;0.00211029052734375;0.719999998182175;73;100 mA
11.4454259711031;0.299835205078125;0.0021551513671875;0.729999998156927;74;100 mA
11.4554259710778;0.299896240234375;0.00213653564453125;0.73999999813168;75;100 mA
11.4654259710526;0.299774169921875;0.002098388671875;0.749999998106432;76;100 mA
11.4754259710273;0.2998046875;0.00210113525390625;0.759999998081184;77;100 mA
11.4854259710021;0.29986572265625;0.00212921142578125;0.769999998055937;78;100 mA
11.4954259709768;0.29986572265625;0.00208709716796875;0.779999998030689;79;100 mA
11.5054259709516;0.29986572265625;0.0021160888671875;0.789999998005442;80;100 mA
11.5154259709263;0.299835205078125;0.00216278076171875;0.799999997980194;81;100 mA
11.5254259709011;0.2998046875;0.00212493896484375;0.809999997954947;82;100 mA
11.5354259708758;0.2998046875;0.0020733642578125;0.819999997929699;83;100 mA
11.5454259708506;0.299835205078125;0.0021087646484375;0.829999997904451;84;100 mA
11.5554259708254;0.299835205078125;0.002122802734375;0.839999997879204;85;100 mA
11.5654259708001;0.2998046875;0.00210357666015625;0.849999997853956;86;100 mA
11.5754259707749;0.2998046875;0.00211639404296875;0.859999997828709;87;100 mA
11.5854259707496;0.299835205078125;0.0021551513671875;0.869999997803461;88;100 mA
11.5954259707244;0.2998046875;0.0021099853515625;0.879999997778214;89;100 mA
11.6054259706991;0.29986572265625;0.0020880126953125;0.889999997752966;90;100 mA
11.6154259706739;0.299835205078125;0.00214019775390625;0.899999997727718;91;100 mA
11.6254259706486;0.29986572265625;0.00214019775390625;0.909999997702471;92;100 mA
11.6354259706234;0.29986572265625;0.002109375;0.919999997677223;93;100 mA
11.6454259705981;0.299896240234375;0.00211456298828125;0.929999997651976;94;100 mA
11.6554259705729;0.29986572265625;0.0021673583984375;0.939999997626728;95;100 mA
11.6654259705476;0.299835205078125;0.00213134765625;0.949999997601481;96;100 mA
11.6754259705224;0.29986572265625;0.0021417236328125;0.959999997576233;97;100 mA
11.6854259704971;0.29986572265625;0.0021844482421875;0.969999997550985;98;100 mA
11.6954259704719;0.299896240234375;0.00214447021484375;0.979999997525738;99;100 mA
11.7054259704466;0.29986572265625;0.002099609375;0.98999999750049;100;100 mA
11.7154259704214;0.299835205078125;0.002137451171875;0.999999997475243;101;100 mA
11.7254259703961;0.29986572265625;0.00216888427734375;1.00999999745;102;100 mA
11.7354259703709;0.299835205078125;0.00214935302734375;1.01999999742475;103;100 mA
11.7454259703457;0.299835205078125;0.0021624755859375;1.0299999973995;104;100 mA
11.7554259703204;0.29986572265625;0.00220001220703125;1.03999999737425;105;100 mA
11.7654259702952;0.299896240234375;0.0021575927734375;1.049999997349;106;100 mA
11.7754259702699;0.2998046875;0.0021234130859375;1.05999999732376;107;100 mA
11.7854259702447;0.29986572265625;0.0021710205078125;1.06999999729851;108;100 mA
11.7954259702194;0.29986572265625;0.00216064453125;1.07999999727326;109;100 mA
11.8054259701942;0.29986572265625;0.00210693359375;1.08999999724801;110;100 mA
11.8154259701689;0.299835205078125;0.00210174560546875;1.09999999722277;111;100 mA
11.8254259701437;0.29986572265625;0.00214141845703125;1.10999999719752;112;100 mA
11.8354259701184;0.29986572265625;0.0021026611328125;1.11999999717227;113;100 mA
11.8454259700932;0.299896240234375;0.002105712890625;1.12999999714702;114;100 mA
11.8554259700679;0.2998046875;0.00213104248046875;1.13999999712178;115;100 mA
11.8654259700427;0.299896240234375;0.00213623046875;1.14999999709653;116;100 mA
11.8754259700174;0.29986572265625;0.0021026611328125;1.15999999707128;117;100 mA
11.8854259699922;0.299896240234375;0.002132568359375;1.16999999704603;118;100 mA
11.8954259699669;0.2999267578125;0.00214935302734375;1.17999999702079;119;100 mA
11.9054259699417;0.2998046875;0.00212066650390625;1.18999999699554;120;100 mA
11.9154259699164;0.2998046875;0.0021173095703125;1.19999999697029;121;100 mA
11.9254259698912;0.29986572265625;0.00214691162109375;1.20999999694504;122;100 mA
11.9354259698659;0.29986572265625;0.0021221923828125;1.2199999969198;123;100 mA
11.9454259698407;0.299896240234375;0.00209869384765625;1.22999999689455;124;100 mA
11.9554259698155;0.299835205078125;0.00213531494140625;1.2399999968693;125;100 mA
11.9654259697902;0.299835205078125;0.00214385986328125;1.24999999684405;126;100 mA
11.975425969765;0.299896240234375;0.0020892333984375;1.25999999681881;127;100 mA
11.9854259697397;0.299835205078125;0.002083740234375;1.26999999679356;128;100 mA
11.9954259697145;0.29986572265625;0.00213287353515625;1.27999999676831;129;100 mA
12.0054259696892;0.2999267578125;0.0020977783203125;1.28999999674306;130;100 mA
12.015425969664;0.299835205078125;0.00210052490234375;1.29999999671782;131;100 mA
12.0254259696387;0.299774169921875;0.002119140625;1.30999999669257;132;100 mA
12.0354259696135;0.2998046875;0.00211761474609375;1.31999999666732;133;100 mA
12.0454259695882;0.299896240234375;0.00206024169921875;1.32999999664207;134;100 mA
12.055425969563;0.2998046875;0.002105712890625;1.33999999661683;135;100 mA
12.0654259695377;0.2998046875;0.00216400146484375;1.34999999659158;136;100 mA
12.0754259695125;0.2998046875;0.002122802734375;1.35999999656633;137;100 mA
12.0854259694872;0.299896240234375;0.00209808349609375;1.36999999654108;138;100 mA
12.095425969462;0.299835205078125;0.00213775634765625;1.37999999651583;139;100 mA
12.1054259694367;0.299896240234375;0.0021221923828125;1.38999999649059;140;100 mA
12.1154259694115;0.29986572265625;0.0020916748046875;1.39999999646534;141;100 mA
12.1254259693862;0.29986572265625;0.00211883544921875;1.40999999644009;142;100 mA
12.135425969361;0.29986572265625;0.002135009765625;1.41999999641484;143;100 mA
12.1454259693357;0.299835205078125;0.00208251953125;1.4299999963896;144;100 mA
12.1554259693105;0.2998046875;0.0020697021484375;1.43999999636435;145;100 mA
12.1654259692853;0.2998046875;0.002117919921875;1.4499999963391;146;100 mA
12.17542596926;0.29986572265625;0.00209869384765625;1.45999999631385;147;100 mA
12.1854259692348;0.299835205078125;0.0020880126953125;1.46999999628861;148;100 mA
12.1954259692095;0.29986572265625;0.0021002197265625;1.47999999626336;149;100 mA
12.2054259691843;0.2998046875;0.0021337890625;1.48999999623811;150;100 mA
12.215425969159;0.29986572265625;0.00208740234375;1.49999999621286;151;100 mA
12.2254259691338;0.299774169921875;0.00212646484375;1.50999999618762;152;100 mA
12.2354259691085;0.2998046875;0.0021636962890625;1.51999999616237;153;100 mA
12.2454259690833;0.299835205078125;0.00214324951171875;1.52999999613712;154;100 mA
12.255425969058;0.299835205078125;0.002110595703125;1.53999999611187;155;100 mA
12.2654259690328;0.299835205078125;0.00213592529296875;1.54999999608663;156;100 mA
12.2754259690075;0.2998046875;0.00214630126953125;1.55999999606138;157;100 mA
12.2854259689823;0.299835205078125;0.0021185302734375;1.56999999603613;158;100 mA
12.295425968957;0.2998046875;0.0021429443359375;1.57999999601088;159;100 mA
12.3054259689318;0.29986572265625;0.002171630859375;1.58999999598564;160;100 mA
12.3154259689065;0.299835205078125;0.0021270751953125;1.59999999596039;161;100 mA
12.3254259688813;0.29986572265625;0.00210296630859375;1.60999999593514;162;100 mA
12.335425968856;0.299896240234375;0.002152099609375;1.61999999590989;163;100 mA
12.3454259688308;0.2998046875;0.002138671875;1.62999999588465;164;100 mA
12.3554259688055;0.299896240234375;0.0021209716796875;1.6399999958594;165;100 mA
12.3654259687803;0.2998046875;0.002132568359375;1.64999999583415;166;100 mA
12.3754259687551;0.299835205078125;0.00216949462890625;1.6599999958089;167;100 mA
12.3854259687298;0.299896240234375;0.00212554931640625;1.66999999578366;168;100 mA
12.3954259687046;0.299896240234375;0.002120361328125;1.67999999575841;169;100 mA
12.4054259686793;0.299835205078125;0.002171630859375;1.68999999573316;170;100 mA
12.4154259686541;0.29986572265625;0.0021759033203125;1.69999999570791;171;100 mA
12.4254259686288;0.29986572265625;0.00214263916015625;1.70999999568267;172;100 mA
12.4354259686036;0.299835205078125;0.00219024658203125;1.71999999565742;173;100 mA
12.4454259685783;0.299896240234375;0.0022259521484375;1.72999999563217;174;100 mA
12.4554259685531;0.29986572265625;0.00215972900390625;1.73999999560692;175;100 mA
12.4654259685278;0.29986572265625;0.0021734619140625;1.74999999558167;176;100 mA
12.4754259685026;0.299896240234375;0.002215576171875;1.75999999555643;177;100 mA
12.4854259684773;0.299835205078125;0.00219207763671875;1.76999999553118;178;100 mA
12.4954259684521;0.299896240234375;0.0021533203125;1.77999999550593;179;100 mA
12.5054259684268;0.29986572265625;0.0021881103515625;1.78999999548068;180;100 mA
12.5154259684016;0.29986572265625;0.0021923828125;1.79999999545544;181;100 mA
12.5254259683763;0.29986572265625;0.002154541015625;1.80999999543019;182;100 mA
12.5354259683511;0.2998046875;0.00215728759765625;1.81999999540494;183;100 mA
12.5454259683258;0.299896240234375;0.00218841552734375;1.82999999537969;184;100 mA
12.5554259683006;0.299835205078125;0.00214569091796875;1.83999999535445;185;100 mA
12.5654259682753;0.299835205078125;0.00214691162109375;1.8499999953292;186;100 mA
12.5754259682501;0.2998046875;0.0021783447265625;1.85999999530395;187;100 mA
12.5854259682249;0.2998046875;0.0021832275390625;1.8699999952787;188;100 mA
12.5954259681996;0.299835205078125;0.00212371826171875;1.87999999525346;189;100 mA
12.6054259681744;0.299835205078125;0.00214111328125;1.88999999522821;190;100 mA
12.6154259681491;0.29986572265625;0.00218658447265625;1.89999999520296;191;100 mA
12.6254259681239;0.2998046875;0.00215972900390625;1.90999999517771;192;100 mA
12.6354259680986;0.299896240234375;0.00215850830078125;1.91999999515247;193;100 mA
12.6454259680734;0.299835205078125;0.00220428466796875;1.92999999512722;194;100 mA
12.6554259680481;0.299835205078125;0.00217529296875;1.93999999510197;195;100 mA
12.6654259680229;0.299896240234375;0.0021319580078125;1.94999999507672;196;100 mA
12.6754259679976;0.299835205078125;0.0021942138671875;1.95999999505148;197;100 mA
12.6854259679724;0.29986572265625;0.00221038818359375;1.96999999502623;198;100 mA
12.6954259679471;0.29986572265625;0.00217041015625;1.97999999500098;199;100 mA
12.7054259679219;0.299835205078125;0.00216217041015625;1.98999999497573;200;100 mA
12.7154259678966;0.29986572265625;0.0022100830078125;1.99999999495049;201;100 mA
12.7254259678714;0.29974365234375;0.002169189453125;2.00999999492524;202;100 mA
12.7354259678461;0.299835205078125;0.00214508056640625;2.01999999489999;203;100 mA
12.7454259678209;0.29986572265625;0.00218017578125;2.02999999487474;204;100 mA
12.7554259677956;0.29986572265625;0.00220123291015625;2.0399999948495;205;100 mA
12.7654259677704;0.299896240234375;0.00213531494140625;2.04999999482425;206;100 mA
12.7754259677452;0.299835205078125;0.002152099609375;2.059999994799;207;100 mA
12.7854259677199;0.299896240234375;0.00220947265625;2.06999999477375;208;100 mA
12.7954259676947;0.299896240234375;0.00218231201171875;2.0799999947485;209;100 mA
12.8054259676694;0.29986572265625;0.00217376708984375;2.08999999472326;210;100 mA
12.8154259676442;0.29986572265625;0.0022137451171875;2.09999999469801;211;100 mA
12.8254259676189;0.299896240234375;0.002215576171875;2.10999999467276;212;100 mA
12.8354259675937;0.29986572265625;0.00216217041015625;2.11999999464751;213;100 mA
12.8454259675684;0.299835205078125;0.00220794677734375;2.12999999462227;214;100 mA
12.8554259675432;0.299835205078125;0.00224822998046875;2.13999999459702;215;100 mA
12.8654259675179;0.299835205078125;0.0022161865234375;2.14999999457177;216;100 mA
12.8754259674927;0.299896240234375;0.0021923828125;2.15999999454652;217;100 mA
12.8854259674674;0.299896240234375;0.0022576904296875;2.16999999452128;218;100 mA
12.8954259674422;0.29986572265625;0.002242431640625;2.17999999449603;219;100 mA
12.9054259674169;0.2998046875;0.002225341796875;2.18999999447078;220;100 mA
12.9154259673917;0.29986572265625;0.00224822998046875;2.19999999444553;221;100 mA
12.9254259673664;0.29986572265625;0.00227081298828125;2.20999999442029;222;100 mA
12.9354259673412;0.299835205078125;0.00222442626953125;2.21999999439504;223;100 mA
12.9454259673159;0.2998046875;0.0022113037109375;2.22999999436979;224;100 mA
12.9554259672907;0.299835205078125;0.00225494384765625;2.23999999434454;225;100 mA
12.9654259672654;0.299896240234375;0.00222198486328125;2.2499999943193;226;100 mA
12.9754259672402;0.299835205078125;0.002188720703125;2.25999999429405;227;100 mA
12.985425967215;0.29986572265625;0.002210693359375;2.2699999942688;228;100 mA
12.9954259671897;0.299835205078125;0.0022259521484375;2.27999999424355;229;100 mA
13.0054259671645;0.299835205078125;0.00217926025390625;2.28999999421831;230;100 mA
13.0154259671392;0.299896240234375;0.0022137451171875;2.29999999419306;231;100 mA
13.025425967114;0.299835205078125;0.0022479248046875;2.30999999416781;232;100 mA
13.0354259670887;0.29986572265625;0.0022064208984375;2.31999999414256;233;100 mA
13.0454259670635;0.2998046875;0.00215362548828125;2.32999999411732;234;100 mA
13.0554259670382;0.29986572265625;0.0022064208984375;2.33999999409207;235;100 mA
13.065425967013;0.29986572265625;0.0021905517578125;2.34999999406682;236;100 mA
13.0754259669877;0.29986572265625;0.0021624755859375;2.35999999404157;237;100 mA
13.0854259669625;0.299896240234375;0.0021832275390625;2.36999999401633;238;100 mA
13.0954259669372;0.29986572265625;0.00221710205078125;2.37999999399108;239;100 mA
13.105425966912;0.299835205078125;0.00216033935546875;2.38999999396583;240;100 mA
13.1154259668867;0.29986572265625;0.0021417236328125;2.39999999394058;241;100 mA
13.1254259668615;0.299835205078125;0.00219635009765625;2.40999999391533;242;100 mA
13.1354259668362;0.2999267578125;0.00218231201171875;2.41999999389009;243;100 mA
13.145425966811;0.29986572265625;0.0021490478515625;2.42999999386484;244;100 mA
13.1554259667857;0.299835205078125;0.0021734619140625;2.43999999383959;245;100 mA
13.1654259667605;0.2998046875;0.0022052001953125;2.44999999381434;246;100 mA
13.1754259667352;0.29986572265625;0.00215728759765625;2.4599999937891;247;100 mA
13.18542596671;0.2999267578125;0.00217529296875;2.46999999376385;248;100 mA
13.1954259666848;0.299835205078125;0.00222686767578125;2.4799999937386;249;100 mA
13.2054259666595;0.2999267578125;0.0021917724609375;2.48999999371335;250;100 mA
13.2154259666343;0.29986572265625;0.0021429443359375;2.49999999368811;251;100 mA
13.225425966609;0.299896240234375;0.002181396484375;2.50999999366286;252;100 mA
13.2354259665838;0.299896240234375;0.002186279296875;2.51999999363761;253;100 mA
13.2454259665585;0.299835205078125;0.002158203125;2.52999999361236;254;100 mA
13.2554259665333;0.29986572265625;0.00216796875;2.53999999358712;255;100 mA
13.265425966508;0.2998046875;0.00221649169921875;2.54999999356187;256;100 mA
13.2754259664828;0.29986572265625;0.00217071533203125;2.55999999353662;257;100 mA
13.2854259664575;0.2998046875;0.002154541015625;2.56999999351137;258;100 mA
13.2954259664323;0.29986572265625;0.0022052001953125;2.57999999348613;259;100 mA
13.305425966407;0.29986572265625;0.00220458984375;2.58999999346088;260;100 mA
13.3154259663818;0.2998046875;0.0021502685546875;2.59999999343563;261;100 mA
13.3254259663565;0.2999267578125;0.002166748046875;2.60999999341038;262;100 mA
13.3354259663313;0.29986572265625;0.00223388671875;2.61999999338514;263;100 mA
13.345425966306;0.299896240234375;0.00220428466796875;2.62999999335989;264;100 mA
13.3554259662808;0.299835205078125;0.002203369140625;2.63999999333464;265;100 mA
13.3654259662555;0.299896240234375;0.00224212646484375;2.64999999330939;266;100 mA
13.3754259662303;0.2999267578125;0.002216796875;2.65999999328415;267;100 mA
13.385425966205;0.29986572265625;0.002154541015625;2.6699999932589;268;100 mA
13.3954259661798;0.299896240234375;0.00220245361328125;2.67999999323365;269;100 mA
13.4054259661546;0.299835205078125;0.00226959228515625;2.6899999932084;270;100 mA
13.4154259661293;0.299835205078125;0.0022222900390625;2.69999999318316;271;100 mA
13.4254259661041;0.29986572265625;0.00218170166015625;2.70999999315791;272;100 mA
13.4354259660788;0.299835205078125;0.00222625732421875;2.71999999313266;273;100 mA
13.4454259660536;0.2999267578125;0.00221160888671875;2.72999999310741;274;100 mA
13.4554259660283;0.299835205078125;0.00218353271484375;2.73999999308217;275;100 mA
13.4654259660031;0.2999267578125;0.00222503662109375;2.74999999305692;276;100 mA
13.4754259659778;0.299835205078125;0.00223785400390625;2.75999999303167;277;100 mA
13.4854259659526;0.299835205078125;0.002178955078125;2.76999999300642;278;100 mA
13.4954259659273;0.299835205078125;0.0021673583984375;2.77999999298117;279;100 mA
13.5054259659021;0.299835205078125;0.002222900390625;2.78999999295593;280;100 mA
13.5154259658768;0.299896240234375;0.00219451904296875;2.79999999293068;281;100 mA
13.5254259658516;0.299835205078125;0.0021783447265625;2.80999999290543;282;100 mA
13.5354259658263;0.2999267578125;0.002220458984375;2.81999999288018;283;100 mA
13.5454259658011;0.299896240234375;0.00222259521484375;2.82999999285494;284;100 mA
13.5554259657758;0.299896240234375;0.00215789794921875;2.83999999282969;285;100 mA
13.5654259657506;0.2998046875;0.0021734619140625;2.84999999280444;286;100 mA
13.5754259657253;0.299835205078125;0.00220184326171875;2.85999999277919;287;100 mA
13.5854259657001;0.299896240234375;0.00216400146484375;2.86999999275395;288;100 mA
13.5954259656748;0.299896240234375;0.0021343994140625;2.8799999927287;289;100 mA
13.6054259656496;0.2998046875;0.0021783447265625;2.88999999270345;290;100 mA
13.6154259656244;0.299957275390625;0.00215606689453125;2.8999999926782;291;100 mA
13.6254259655991;0.299835205078125;0.00211700439453125;2.90999999265296;292;100 mA
13.6354259655739;0.29986572265625;0.00214752197265625;2.91999999262771;293;100 mA
13.6454259655486;0.29986572265625;0.0021600341796875;2.92999999260246;294;100 mA
13.6554259655234;0.2998046875;0.00210968017578125;2.93999999257721;295;100 mA
13.6654259654981;0.29986572265625;0.00210205078125;2.94999999255197;296;100 mA
13.6754259654729;0.2998046875;0.00214630126953125;2.95999999252672;297;100 mA
13.6854259654476;0.299835205078125;0.0021234130859375;2.96999999250147;298;100 mA
13.6954259654224;0.299835205078125;0.002110595703125;2.97999999247622;299;100 mA
13.7054259653971;0.299835205078125;0.002132568359375;2.98999999245098;300;100 mA
13.7154259653719;0.29986572265625;0.00214996337890625;2.99999999242573;301;100 mA
13.7254259653466;0.299774169921875;0.002113037109375;3.00999999240048;302;100 mA
13.7354259653214;0.29986572265625;0.00213714599609375;3.01999999237523;303;100 mA
13.7454259652961;0.29986572265625;0.00216766357421875;3.02999999234999;304;100 mA
13.7554259652709;0.299835205078125;0.0021240234375;3.03999999232474;305;100 mA
13.7654259652456;0.299835205078125;0.002093505859375;3.04999999229949;306;100 mA
13.7754259652204;0.29986572265625;0.0021429443359375;3.05999999227424;307;100 mA
13.7854259651951;0.299896240234375;0.00215850830078125;3.069999992249;308;100 mA
13.7954259651699;0.299835205078125;0.00213836669921875;3.07999999222375;309;100 mA
13.8054259651447;0.299835205078125;0.0021502685546875;3.0899999921985;310;100 mA
13.8154259651194;0.299835205078125;0.0021697998046875;3.09999999217325;311;100 mA
13.8254259650942;0.299835205078125;0.00211456298828125;3.109999992148;312;100 mA
13.8354259650689;0.29986572265625;0.00208526611328125;3.11999999212276;313;100 mA
13.8454259650437;0.29986572265625;0.0021270751953125;3.12999999209751;314;100 mA
13.8554259650184;0.299835205078125;0.00211944580078125;3.13999999207226;315;100 mA
13.8654259649932;0.2998046875;0.002099609375;3.14999999204701;316;100 mA
13.8754259649679;0.299835205078125;0.0021142578125;3.15999999202177;317;100 mA
13.8854259649427;0.299835205078125;0.0021380615234375;3.16999999199652;318;100 mA
13.8954259649174;0.2998046875;0.00209136962890625;3.17999999197127;319;100 mA
13.9054259648922;0.2998046875;0.002100830078125;3.18999999194602;320;100 mA
13.9154259648669;0.299835205078125;0.0021221923828125;3.19999999192078;321;100 mA
13.9254259648417;0.299835205078125;0.00209869384765625;3.20999999189553;322;100 mA
13.9354259648164;0.29986572265625;0.00207305908203125;3.21999999187028;323;100 mA
13.9454259647912;0.29986572265625;0.00210968017578125;3.22999999184503;324;100 mA
13.9554259647659;0.299896240234375;0.00211761474609375;3.23999999181979;325;100 mA
13.9654259647407;0.299774169921875;0.00208648681640625;3.24999999179454;326;100 mA
13.9754259647154;0.2998046875;0.002110595703125;3.25999999176929;327;100 mA
13.9854259646902;0.29986572265625;0.002130126953125;3.26999999174404;328;100 mA
13.9954259646649;0.299896240234375;0.00207855224609375;3.2799999917188;329;100 mA
14.0054259646397;0.29986572265625;0.00205841064453125;3.28999999169355;330;100 mA
14.0154259646145;0.29986572265625;0.002115478515625;3.2999999916683;331;100 mA
14.0254259645892;0.299835205078125;0.002122802734375;3.30999999164305;332;100 mA
14.035425964564;0.2998046875;0.00209686279296875;3.31999999161781;333;100 mA
14.0454259645387;0.299774169921875;0.00209625244140625;3.32999999159256;334;100 mA
14.0554259645135;0.29986572265625;0.00214080810546875;3.33999999156731;335;100 mA
14.0654259644882;0.299835205078125;0.00209747314453125;3.34999999154206;336;100 mA
14.075425964463;0.299835205078125;0.00210357666015625;3.35999999151682;337;100 mA
14.0854259644377;0.29986572265625;0.0021478271484375;3.36999999149157;338;100 mA
14.0954259644125;0.2999267578125;0.002127685546875;3.37999999146632;339;100 mA
14.1054259643872;0.299835205078125;0.00208160400390625;3.38999999144107;340;100 mA
14.115425964362;0.299835205078125;0.0021124267578125;3.39999999141583;341;100 mA
14.1254259643367;0.29986572265625;0.0021307373046875;3.40999999139058;342;100 mA
14.1354259643115;0.299896240234375;0.00209930419921875;3.41999999136533;343;100 mA
14.1454259642862;0.299835205078125;0.00209930419921875;3.42999999134008;344;100 mA
14.155425964261;0.299835205078125;0.00211181640625;3.43999999131483;345;100 mA
14.1654259642357;0.299835205078125;0.002073974609375;3.44999999128959;346;100 mA
14.1754259642105;0.2998046875;0.00204681396484375;3.45999999126434;347;100 mA
14.1854259641852;0.2998046875;0.0021063232421875;3.46999999123909;348;100 mA
14.19542596416;0.299835205078125;0.002125244140625;3.47999999121384;349;100 mA
14.2054259641347;0.29986572265625;0.00208251953125;3.4899999911886;350;100 mA
14.2154259641095;0.299835205078125;0.00209228515625;3.49999999116335;351;100 mA
14.2254259640843;0.299835205078125;0.002142333984375;3.5099999911381;352;100 mA
14.235425964059;0.299835205078125;0.00211181640625;3.51999999111285;353;100 mA
14.2454259640338;0.29986572265625;0.00210845947265625;3.52999999108761;354;100 mA
14.2554259640085;0.29986572265625;0.00213836669921875;3.53999999106236;355;100 mA
14.2654259639833;0.299774169921875;0.00213348388671875;3.54999999103711;356;100 mA
14.275425963958;0.29986572265625;0.00208770751953125;3.55999999101186;357;100 mA
14.2854259639328;0.299835205078125;0.0021112060546875;3.56999999098662;358;100 mA
14.2954259639075;0.299896240234375;0.0021368408203125;3.57999999096137;359;100 mA
14.3054259638823;0.2998046875;0.0021038818359375;3.58999999093612;360;100 mA
14.315425963857;0.29986572265625;0.0021051025390625;3.59999999091087;361;100 mA
14.3254259638318;0.29986572265625;0.0021319580078125;3.60999999088563;362;100 mA
14.3354259638065;0.29986572265625;0.00211578369140625;3.61999999086038;363;100 mA
14.3454259637813;0.299835205078125;0.00207733154296875;3.62999999083513;364;100 mA
14.355425963756;0.2998046875;0.0021209716796875;3.63999999080988;365;100 mA
14.3654259637308;0.299835205078125;0.00211944580078125;3.64999999078464;366;100 mA
14.3754259637055;0.299896240234375;0.0020782470703125;3.65999999075939;367;100 mA
14.3854259636803;0.2998046875;0.00207427978515625;3.66999999073414;368;100 mA
14.395425963655;0.29986572265625;0.00212310791015625;3.67999999070889;369;100 mA
14.4054259636298;0.299835205078125;0.00210235595703125;3.68999999068365;370;100 mA
14.4154259636045;0.29986572265625;0.00210601806640625;3.6999999906584;371;100 mA
14.4254259635793;0.299896240234375;0.0021368408203125;3.70999999063315;372;100 mA
14.4354259635541;0.29986572265625;0.0021209716796875;3.7199999906079;373;100 mA
14.4454259635288;0.29986572265625;0.00206512451171875;3.72999999058266;374;100 mA
14.4554259635036;0.29986572265625;0.0020916748046875;3.73999999055741;375;100 mA
14.4654259634783;0.299896240234375;0.00212921142578125;3.74999999053216;376;100 mA
14.4754259634531;0.299835205078125;0.00210235595703125;3.75999999050691;377;100 mA
14.4854259634278;0.2999267578125;0.00208282470703125;3.76999999048167;378;100 mA
14.4954259634026;0.29986572265625;0.002108154296875;3.77999999045642;379;100 mA
14.5054259633773;0.299896240234375;0.00208892822265625;3.78999999043117;380;100 mA
14.5154259633521;0.29986572265625;0.002054443359375;3.79999999040592;381;100 mA
14.5254259633268;0.299896240234375;0.00209259033203125;3.80999999038067;382;100 mA
14.5354259633016;0.299896240234375;0.0021234130859375;3.81999999035543;383;100 mA
14.5454259632763;0.299835205078125;0.00208221435546875;3.82999999033018;384;100 mA
14.5554259632511;0.299835205078125;0.0020501708984375;3.83999999030493;385;100 mA
14.5654259632258;0.29986572265625;0.002091064453125;3.84999999027968;386;100 mA
14.5754259632006;0.299896240234375;0.0020770263671875;3.85999999025444;387;100 mA
14.5854259631753;0.299835205078125;0.00207672119140625;3.86999999022919;388;100 mA
14.5954259631501;0.299835205078125;0.00209197998046875;3.87999999020394;389;100 mA
14.6054259631248;0.29986572265625;0.002109375;3.88999999017869;390;100 mA
14.6154259630996;0.29986572265625;0.0020611572265625;3.89999999015345;391;100 mA
14.6254259630743;0.299835205078125;0.0020660400390625;3.9099999901282;392;100 mA
14.6354259630491;0.29986572265625;0.0021099853515625;3.91999999010295;393;100 mA
14.6454259630239;0.29986572265625;0.002095947265625;3.9299999900777;394;100 mA
14.6554259629986;0.299835205078125;0.00207427978515625;3.93999999005246;395;100 mA
14.6654259629734;0.299896240234375;0.00210601806640625;3.94999999002721;396;100 mA
14.6754259629481;0.299896240234375;0.00212371826171875;3.95999999000196;397;100 mA
14.6854259629229;0.29986572265625;0.0020904541015625;3.96999998997671;398;100 mA
14.6954259628976;0.2998046875;0.00210845947265625;3.97999998995147;399;100 mA
14.7054259628724;0.299896240234375;0.00213958740234375;3.98999998992622;400;100 mA
14.7154259628471;0.29986572265625;0.00210296630859375;3.99999998990097;401;100 mA
14.7254259628219;0.299835205078125;0.00206787109375;4.00999998987572;402;100 mA
14.7354259627966;0.299896240234375;0.0021148681640625;4.01999998985048;403;100 mA
14.7454259627714;0.2998046875;0.0021087646484375;4.02999998982523;404;100 mA
14.7554259627461;0.299835205078125;0.0020892333984375;4.03999998979998;405;100 mA
14.7654259627209;0.299835205078125;0.00209259033203125;4.04999998977473;406;100 mA
14.7754259626956;0.299896240234375;0.00211761474609375;4.05999998974949;407;100 mA
14.7854259626704;0.29986572265625;0.00207489013671875;4.06999998972424;408;100 mA
14.7954259626451;0.299896240234375;0.00207611083984375;4.07999998969899;409;100 mA
14.8054259626199;0.29986572265625;0.00212921142578125;4.08999998967374;410;100 mA
14.8154259625946;0.29986572265625;0.002115478515625;4.0999999896485;411;100 mA
14.8254259625694;0.299835205078125;0.002095947265625;4.10999998962325;412;100 mA
14.8354259625442;0.299835205078125;0.00212005615234375;4.119999989598;413;100 mA
14.8454259625189;0.29986572265625;0.00213623046875;4.12999998957275;414;100 mA
14.8554259624937;0.29986572265625;0.00209503173828125;4.1399999895475;415;100 mA
14.8654259624684;0.299896240234375;0.0021051025390625;4.14999998952226;416;100 mA
14.8754259624432;0.29986572265625;0.00213531494140625;4.15999998949701;417;100 mA
14.8854259624179;0.299835205078125;0.00212005615234375;4.16999998947176;418;100 mA
14.8954259623927;0.299835205078125;0.00208770751953125;4.17999998944651;419;100 mA
14.9054259623674;0.29986572265625;0.002137451171875;4.18999998942127;420;100 mA
14.9154259623422;0.29986572265625;0.00214569091796875;4.19999998939602;421;100 mA
14.9254259623169;0.29986572265625;0.002122802734375;4.20999998937077;422;100 mA
14.9354259622917;0.2998046875;0.00211944580078125;4.21999998934552;423;100 mA
14.9454259622664;0.299896240234375;0.0021417236328125;4.22999998932028;424;100 mA
14.9554259622412;0.299957275390625;0.0021002197265625;4.23999998929503;425;100 mA
14.9654259622159;0.2998046875;0.00209228515625;4.24999998926978;426;100 mA
14.9754259621907;0.2999267578125;0.0021295166015625;4.25999998924453;427;100 mA
14.9854259621654;0.29986572265625;0.0021319580078125;4.26999998921929;428;100 mA
14.9954259621402;0.2999267578125;0.00208465576171875;4.27999998919404;429;100 mA
15.0054259621149;0.299835205078125;0.00211395263671875;4.28999998916879;430;100 mA
15.0154259620897;0.29986572265625;0.00216949462890625;4.29999998914354;431;100 mA
15.0254259620644;0.29986572265625;0.00212615966796875;4.3099999891183;432;100 mA
15.0354259620392;0.29986572265625;0.00212738037109375;4.31999998909305;433;100 mA
15.045425962014;0.299835205078125;0.0021600341796875;4.3299999890678;434;100 mA
15.0554259619887;0.2998046875;0.002135009765625;4.33999998904255;435;100 mA
15.0654259619635;0.29986572265625;0.00208709716796875;4.34999998901731;436;100 mA
15.0754259619382;0.299835205078125;0.0021392822265625;4.35999998899206;437;100 mA
15.085425961913;0.2998046875;0.00216400146484375;4.36999998896681;438;100 mA
15.0954259618877;0.299835205078125;0.0021221923828125;4.37999998894156;439;100 mA
15.1054259618625;0.299774169921875;0.00211151123046875;4.38999998891632;440;100 mA
15.1154259618372;0.299835205078125;0.0021685791015625;4.39999998889107;441;100 mA
15.125425961812;0.299896240234375;0.00214752197265625;4.40999998886582;442;100 mA
15.1354259617867;0.2998046875;0.00214935302734375;4.41999998884057;443;100 mA
15.1454259617615;0.299835205078125;0.00220123291015625;4.42999998881533;444;100 mA
15.1554259617362;0.29986572265625;0.0022113037109375;4.43999998879008;445;100 mA
15.165425961711;0.2999267578125;0.00215240478515625;4.44999998876483;446;100 mA
15.1754259616857;0.2998046875;0.0021588134765625;4.45999998873958;447;100 mA
15.1854259616605;0.29986572265625;0.00222320556640625;4.46999998871433;448;100 mA
15.1954259616352;0.299835205078125;0.00218963623046875;4.47999998868909;449;100 mA
15.20542596161;0.29986572265625;0.0021807861328125;4.48999998866384;450;100 mA
15.2154259615847;0.299835205078125;0.00221893310546875;4.49999998863859;451;100 mA
15.2254259615595;0.2998046875;0.00222320556640625;4.50999998861334;452;100 mA
15.2354259615342;0.2998046875;0.002171630859375;4.5199999885881;453;100 mA
15.245425961509;0.299774169921875;0.00219696044921875;4.52999998856285;454;100 mA
15.2554259614838;0.2998046875;0.002213134765625;4.5399999885376;455;100 mA
15.2654259614585;0.299896240234375;0.0021734619140625;4.54999998851235;456;100 mA
15.2754259614333;0.29986572265625;0.00215911865234375;4.55999998848711;457;100 mA
15.285425961408;0.299896240234375;0.0022216796875;4.56999998846186;458;100 mA
15.2954259613828;0.299835205078125;0.0022064208984375;4.57999998843661;459;100 mA
15.3054259613575;0.29986572265625;0.0021728515625;4.58999998841136;460;100 mA
15.3154259613323;0.299896240234375;0.0022119140625;4.59999998838612;461;100 mA
15.325425961307;0.299835205078125;0.00222900390625;4.60999998836087;462;100 mA
15.3354259612818;0.29986572265625;0.00216552734375;4.61999998833562;463;100 mA
15.3454259612565;0.299835205078125;0.00215362548828125;4.62999998831037;464;100 mA
15.3554259612313;0.29986572265625;0.002220458984375;4.63999998828513;465;100 mA
15.365425961206;0.299896240234375;0.00218475341796875;4.64999998825988;466;100 mA
15.3754259611808;0.29986572265625;0.0021661376953125;4.65999998823463;467;100 mA
15.3854259611555;0.29986572265625;0.0022027587890625;4.66999998820938;468;100 mA
15.3954259611303;0.29986572265625;0.0022247314453125;4.67999998818414;469;100 mA
15.405425961105;0.299896240234375;0.002161865234375;4.68999998815889;470;100 mA
15.4154259610798;0.2998046875;0.00217742919921875;4.69999998813364;471;100 mA
15.4254259610545;0.299835205078125;0.00221923828125;4.70999998810839;472;100 mA
15.4354259610293;0.299896240234375;0.00217193603515625;4.71999998808315;473;100 mA
15.445425961004;0.29986572265625;0.00213592529296875;4.7299999880579;474;100 mA
15.4554259609788;0.29986572265625;0.002193603515625;4.73999998803265;475;100 mA
15.4654259609536;0.299835205078125;0.00218048095703125;4.7499999880074;476;100 mA
15.4754259609283;0.299896240234375;0.00214935302734375;4.75999998798216;477;100 mA
15.4854259609031;0.29986572265625;0.00217926025390625;4.76999998795691;478;100 mA
15.4954259608778;0.299896240234375;0.00220489501953125;4.77999998793166;479;100 mA
15.5054259608526;0.2998046875;0.00215911865234375;4.78999998790641;480;100 mA
15.5154259608273;0.299835205078125;0.0021405029296875;4.79999998788116;481;100 mA
15.5254259608021;0.299835205078125;0.00219451904296875;4.80999998785592;482;100 mA
15.5354259607768;0.29986572265625;0.0021771240234375;4.81999998783067;483;100 mA
15.5454259607516;0.299835205078125;0.0021417236328125;4.82999998780542;484;100 mA
15.5554259607263;0.2998046875;0.0021527099609375;4.83999998778017;485;100 mA
15.5654259607011;0.299896240234375;0.002178955078125;4.84999998775493;486;100 mA
15.5754259606758;0.29986572265625;0.00213409423828125;4.85999998772968;487;100 mA
15.5854259606506;0.299896240234375;0.00215667724609375;4.86999998770443;488;100 mA
15.5954259606253;0.299835205078125;0.00220062255859375;4.87999998767918;489;100 mA
15.6054259606001;0.299896240234375;0.00216156005859375;4.88999998765394;490;100 mA
15.6154259605748;0.29986572265625;0.00211151123046875;4.89999998762869;491;100 mA
15.6254259605496;0.29986572265625;0.0021533203125;4.90999998760344;492;100 mA
15.6354259605243;0.29986572265625;0.00216552734375;4.91999998757819;493;100 mA
15.6454259604991;0.299774169921875;0.002137451171875;4.92999998755295;494;100 mA
15.6554259604738;0.2998046875;0.0021649169921875;4.9399999875277;495;100 mA
15.6654259604486;0.29986572265625;0.002213134765625;4.94999998750245;496;100 mA
15.6754259604234;0.29986572265625;0.00217987060546875;4.9599999874772;497;100 mA
15.6854259603981;0.29986572265625;0.002156982421875;4.96999998745196;498;100 mA
15.6954259603729;0.299896240234375;0.00219482421875;4.97999998742671;499;100 mA
15.7054259603476;0.299835205078125;0.002178955078125;4.98999998740146;500;100 mA
15.7154259603224;0.29986572265625;0.00215057373046875;4.99999998737621;501;100 mA
15.7254259602971;0.29986572265625;0.0021490478515625;5.00999998735097;502;100 mA
15.7354259602719;0.299896240234375;0.0021820068359375;5.01999998732572;503;100 mA
15.7454259602466;0.299835205078125;0.00214019775390625;5.02999998730047;504;100 mA
15.7554259602214;0.2998046875;0.002159423828125;5.03999998727522;505;100 mA
15.7654259601961;0.2999267578125;0.00220367431640625;5.04999998724998;506;100 mA
15.7754259601709;0.299835205078125;0.0021954345703125;5.05999998722473;507;100 mA
15.7854259601456;0.299835205078125;0.002135009765625;5.06999998719948;508;100 mA
15.7954259601204;0.29986572265625;0.00215362548828125;5.07999998717423;509;100 mA
15.8054259600951;0.2998046875;0.00217498779296875;5.08999998714899;510;100 mA
15.8154259600699;0.29986572265625;0.0021453857421875;5.09999998712374;511;100 mA
15.8254259600446;0.29986572265625;0.002137451171875;5.10999998709849;512;100 mA
15.8354259600194;0.29986572265625;0.00218597412109375;5.11999998707324;513;100 mA
15.8454259599941;0.299896240234375;0.002154541015625;5.129999987048;514;100 mA
15.8554259599689;0.299896240234375;0.002122802734375;5.13999998702275;515;100 mA
15.8654259599437;0.299835205078125;0.00217620849609375;5.1499999869975;516;100 mA
15.8754259599184;0.299835205078125;0.002186279296875;5.15999998697225;517;100 mA
15.8854259598932;0.29986572265625;0.00213836669921875;5.169999986947;518;100 mA
15.8954259598679;0.2998046875;0.00213958740234375;5.17999998692176;519;100 mA
15.9054259598427;0.29986572265625;0.002197265625;5.18999998689651;520;100 mA
15.9154259598174;0.29986572265625;0.00216064453125;5.19999998687126;521;100 mA
15.9254259597922;0.29986572265625;0.00215301513671875;5.20999998684601;522;100 mA
15.9354259597669;0.29986572265625;0.00218994140625;5.21999998682077;523;100 mA
15.9454259597417;0.29986572265625;0.00218414306640625;5.22999998679552;524;100 mA
15.9554259597164;0.29986572265625;0.00212677001953125;5.23999998677027;525;100 mA
15.9654259596912;0.299835205078125;0.0021441650390625;5.24999998674502;526;100 mA
15.9754259596659;0.299896240234375;0.0021728515625;5.25999998671978;527;100 mA
15.9854259596407;0.299835205078125;0.0021282958984375;5.26999998669453;528;100 mA
15.9954259596154;0.299896240234375;0.0020989990234375;5.27999998666928;529;100 mA
16.0054259595902;0.299896240234375;0.00214111328125;5.28999998664403;530;100 mA
16.0154259595649;0.29986572265625;0.00212860107421875;5.29999998661879;531;100 mA
16.0254259595397;0.299896240234375;0.00210357666015625;5.30999998659354;532;100 mA
16.0354259595144;0.299835205078125;0.0021392822265625;5.31999998656829;533;100 mA
16.0454259594892;0.299896240234375;0.00217010498046875;5.32999998654304;534;100 mA
16.0554259594639;0.299835205078125;0.00213134765625;5.3399999865178;535;100 mA
16.0654259594387;0.29986572265625;0.0021112060546875;5.34999998649255;536;100 mA
16.0754259594135;0.299896240234375;0.002176513671875;5.3599999864673;537;100 mA
16.0854259593882;0.299835205078125;0.0021435546875;5.36999998644205;538;100 mA
16.095425959363;0.299896240234375;0.00212921142578125;5.37999998641681;539;100 mA
16.1054259593377;0.2998046875;0.002161865234375;5.38999998639156;540;100 mA
16.1154259593125;0.299835205078125;0.00217620849609375;5.39999998636631;541;100 mA
16.1254259592872;0.2998046875;0.0021087646484375;5.40999998634106;542;100 mA
16.135425959262;0.2998046875;0.00211883544921875;5.41999998631582;543;100 mA
16.1454259592367;0.29986572265625;0.00217620849609375;5.42999998629057;544;100 mA
16.1554259592115;0.299896240234375;0.0021368408203125;5.43999998626532;545;100 mA
16.1654259591862;0.299896240234375;0.00210662841796875;5.44999998624007;546;100 mA
16.175425959161;0.299896240234375;0.00216278076171875;5.45999998621483;547;100 mA
16.1854259591357;0.29986572265625;0.00216644287109375;5.46999998618958;548;100 mA
16.1954259591105;0.29986572265625;0.0021368408203125;5.47999998616433;549;100 mA
16.2054259590852;0.2998046875;0.0021630859375;5.48999998613908;550;100 mA
16.21542595906;0.299835205078125;0.00218231201171875;5.49999998611383;551;100 mA
16.2254259590347;0.2999267578125;0.002130126953125;5.50999998608859;552;100 mA
16.2354259590095;0.299896240234375;0.00210693359375;5.51999998606334;553;100 mA
16.2454259589842;0.299835205078125;0.0021649169921875;5.52999998603809;554;100 mA
16.255425958959;0.299835205078125;0.0021441650390625;5.53999998601284;555;100 mA
16.2654259589337;0.299896240234375;0.00213958740234375;5.5499999859876;556;100 mA
16.2754259589085;0.29986572265625;0.0021697998046875;5.55999998596235;557;100 mA
16.2854259588833;0.29986572265625;0.00220611572265625;5.5699999859371;558;100 mA
16.295425958858;0.29986572265625;0.00213348388671875;5.57999998591185;559;100 mA
16.3054259588328;0.29986572265625;0.00212890625;5.58999998588661;560;100 mA
16.3154259588075;0.299896240234375;0.00217681884765625;5.59999998586136;561;100 mA
16.3254259587823;0.299835205078125;0.00216400146484375;5.60999998583611;562;100 mA
16.335425958757;0.29986572265625;0.0021234130859375;5.61999998581086;563;100 mA
16.3454259587318;0.299835205078125;0.00215850830078125;5.62999998578562;564;100 mA
16.3554259587065;0.2998046875;0.002176513671875;5.63999998576037;565;100 mA
16.3654259586813;0.299835205078125;0.0021337890625;5.64999998573512;566;100 mA
16.375425958656;0.299835205078125;0.002142333984375;5.65999998570987;567;100 mA
16.3854259586308;0.299835205078125;0.00217681884765625;5.66999998568463;568;100 mA
16.3954259586055;0.299774169921875;0.00213653564453125;5.67999998565938;569;100 mA
16.4054259585803;0.299896240234375;0.00209320068359375;5.68999998563413;570;100 mA
16.415425958555;0.2998046875;0.00214569091796875;5.69999998560888;571;100 mA
16.4254259585298;0.2998046875;0.0021368408203125;5.70999998558364;572;100 mA
16.4354259585045;0.299835205078125;0.00211669921875;5.71999998555839;573;100 mA
16.4454259584793;0.2998046875;0.00212615966796875;5.72999998553314;574;100 mA
16.455425958454;0.299896240234375;0.00215850830078125;5.73999998550789;575;100 mA
16.4654259584288;0.299835205078125;0.002103271484375;5.74999998548265;576;100 mA
16.4754259584035;0.299835205078125;0.00209716796875;5.7599999854574;577;100 mA
16.4854259583783;0.29986572265625;0.0021429443359375;5.76999998543215;578;100 mA
16.4954259583531;0.2998046875;0.0021356201171875;5.7799999854069;579;100 mA
16.5054259583278;0.29986572265625;0.00209381103515625;5.78999998538166;580;100 mA
16.5154259583026;0.29986572265625;0.002113037109375;5.79999998535641;581;100 mA
16.5254259582773;0.299835205078125;0.00214599609375;5.80999998533116;582;100 mA
16.5354259582521;0.299835205078125;0.00210174560546875;5.81999998530591;583;100 mA
16.5454259582268;0.299896240234375;0.002117919921875;5.82999998528066;584;100 mA
16.5554259582016;0.299835205078125;0.0021527099609375;5.83999998525542;585;100 mA
16.5654259581763;0.299835205078125;0.002119140625;5.84999998523017;586;100 mA
16.5754259581511;0.299835205078125;0.0020770263671875;5.85999998520492;587;100 mA
16.5854259581258;0.2998046875;0.00213470458984375;5.86999998517967;588;100 mA
16.5954259581006;0.299835205078125;0.00215087890625;5.87999998515443;589;100 mA
16.6054259580753;0.299835205078125;0.00212127685546875;5.88999998512918;590;100 mA
16.6154259580501;0.299835205078125;0.0021197509765625;5.89999998510393;591;100 mA
16.6254259580248;0.299835205078125;0.0021514892578125;5.90999998507868;592;100 mA
16.6354259579996;0.2998046875;0.0021160888671875;5.91999998505344;593;100 mA
16.6454259579743;0.29986572265625;0.00210906982421875;5.92999998502819;594;100 mA
16.6554259579491;0.2998046875;0.002159423828125;5.93999998500294;595;100 mA
16.6654259579238;0.29986572265625;0.00215911865234375;5.94999998497769;596;100 mA
16.6754259578986;0.299896240234375;0.0020977783203125;5.95999998495245;597;100 mA
16.6854259578733;0.299896240234375;0.00210662841796875;5.9699999849272;598;100 mA
16.6954259578481;0.299896240234375;0.00215362548828125;5.97999998490195;599;100 mA
16.7054259578229;0.299835205078125;0.0021112060546875;5.9899999848767;600;100 mA
16.7154259577976;0.2999267578125;0.0021014404296875;5.99999998485146;601;100 mA
16.7254259577724;0.299835205078125;0.00213958740234375;6.00999998482621;602;100 mA
16.7354259577471;0.2998046875;0.0021343994140625;6.01999998480096;603;100 mA
16.7454259577219;0.299835205078125;0.00208099365234375;6.02999998477571;604;100 mA
16.7554259576966;0.299896240234375;0.00212432861328125;6.03999998475047;605;100 mA
16.7654259576714;0.29986572265625;0.00215087890625;6.04999998472522;606;100 mA
16.7754259576461;0.299835205078125;0.00211456298828125;6.05999998469997;607;100 mA
16.7854259576209;0.2999267578125;0.00210205078125;6.06999998467472;608;100 mA
16.7954259575956;0.299835205078125;0.002169189453125;6.07999998464948;609;100 mA
16.8054259575704;0.29986572265625;0.0021429443359375;6.08999998462423;610;100 mA
16.8154259575451;0.299835205078125;0.0021307373046875;6.09999998459898;611;100 mA
16.8254259575199;0.29986572265625;0.00215362548828125;6.10999998457373;612;100 mA
16.8354259574946;0.2998046875;0.0021527099609375;6.11999998454849;613;100 mA
16.8454259574694;0.299896240234375;0.00209625244140625;6.12999998452324;614;100 mA
16.8554259574441;0.2998046875;0.0021124267578125;6.13999998449799;615;100 mA
16.8654259574189;0.299835205078125;0.00216827392578125;6.14999998447274;616;100 mA
16.8754259573936;0.2998046875;0.00213958740234375;6.1599999844475;617;100 mA
16.8854259573684;0.29986572265625;0.0021160888671875;6.16999998442225;618;100 mA
16.8954259573432;0.29986572265625;0.00214385986328125;6.179999984397;619;100 mA
16.9054259573179;0.29986572265625;0.0021331787109375;6.18999998437175;620;100 mA
16.9154259572927;0.29986572265625;0.00209930419921875;6.1999999843465;621;100 mA
16.9254259572674;0.29986572265625;0.00213714599609375;6.20999998432126;622;100 mA
16.9354259572422;0.299835205078125;0.0021710205078125;6.21999998429601;623;100 mA
16.9454259572169;0.2998046875;0.0021380615234375;6.22999998427076;624;100 mA
16.9554259571917;0.29986572265625;0.0021234130859375;6.23999998424551;625;100 mA
16.9654259571664;0.299896240234375;0.002171630859375;6.24999998422027;626;100 mA
16.9754259571412;0.299835205078125;0.002156982421875;6.25999998419502;627;100 mA
16.9854259571159;0.29986572265625;0.00213409423828125;6.26999998416977;628;100 mA
16.9954259570907;0.299835205078125;0.0021551513671875;6.27999998414452;629;100 mA
17.0054259570654;0.29986572265625;0.00216888427734375;6.28999998411928;630;100 mA
17.0154259570402;0.29986572265625;0.0021380615234375;6.29999998409403;631;100 mA
17.0254259570149;0.29986572265625;0.002110595703125;6.30999998406878;632;100 mA
17.0354259569897;0.29986572265625;0.002171630859375;6.31999998404353;633;100 mA
17.0454259569644;0.299896240234375;0.0021478271484375;6.32999998401829;634;100 mA
17.0554259569392;0.299835205078125;0.00212738037109375;6.33999998399304;635;100 mA
17.0654259569139;0.29986572265625;0.0021612548828125;6.34999998396779;636;100 mA
17.0754259568887;0.2998046875;0.0021795654296875;6.35999998394254;637;100 mA
17.0854259568634;0.299835205078125;0.0021307373046875;6.3699999839173;638;100 mA
17.0954259568382;0.2998046875;0.002149658203125;6.37999998389205;639;100 mA
17.105425956813;0.299896240234375;0.00217620849609375;6.3899999838668;640;100 mA
17.1154259567877;0.29986572265625;0.00214508056640625;6.39999998384155;641;100 mA
17.1254259567625;0.299835205078125;0.002105712890625;6.40999998381631;642;100 mA
17.1354259567372;0.29986572265625;0.00216644287109375;6.41999998379106;643;100 mA
17.145425956712;0.299835205078125;0.00217071533203125;6.42999998376581;644;100 mA
17.1554259566867;0.299835205078125;0.00213836669921875;6.43999998374056;645;100 mA
17.1654259566615;0.2998046875;0.00213165283203125;6.44999998371532;646;100 mA
17.1754259566362;0.29986572265625;0.0021539306640625;6.45999998369007;647;100 mA
17.185425956611;0.2998046875;0.0021197509765625;6.46999998366482;648;100 mA
17.1954259565857;0.299835205078125;0.00211883544921875;6.47999998363957;649;100 mA
17.2054259565605;0.29986572265625;0.0021795654296875;6.48999998361433;650;100 mA
17.2154259565352;0.29986572265625;0.00214447021484375;6.49999998358908;651;100 mA
17.22542595651;0.2998046875;0.0021099853515625;6.50999998356383;652;100 mA
17.2354259564847;0.29986572265625;0.0021307373046875;6.51999998353858;653;100 mA
17.2454259564595;0.299896240234375;0.0021417236328125;6.52999998351333;654;100 mA
17.2554259564342;0.29986572265625;0.00209869384765625;6.53999998348809;655;100 mA
17.265425956409;0.299896240234375;0.00211181640625;6.54999998346284;656;100 mA
17.2754259563837;0.2998046875;0.00214141845703125;6.55999998343759;657;100 mA
17.2854259563585;0.299896240234375;0.0021258544921875;6.56999998341234;658;100 mA
17.2954259563332;0.29986572265625;0.00208892822265625;6.5799999833871;659;100 mA
17.305425956308;0.29986572265625;0.002122802734375;6.58999998336185;660;100 mA
17.3154259562828;0.2999267578125;0.00212158203125;6.5999999833366;661;100 mA
17.3254259562575;0.299774169921875;0.00208831787109375;6.60999998331135;662;100 mA
17.3354259562323;0.2998046875;0.0020819091796875;6.61999998328611;663;100 mA
17.345425956207;0.299896240234375;0.00210357666015625;6.62999998326086;664;100 mA
17.3554259561818;0.299835205078125;0.002078857421875;6.63999998323561;665;100 mA
17.3654259561565;0.29986572265625;0.002071533203125;6.64999998321036;666;100 mA
17.3754259561313;0.299896240234375;0.0021307373046875;6.65999998318512;667;100 mA
17.385425956106;0.299835205078125;0.00212921142578125;6.66999998315987;668;100 mA
17.3954259560808;0.299835205078125;0.00208953857421875;6.67999998313462;669;100 mA
17.4054259560555;0.29986572265625;0.00209991455078125;6.68999998310937;670;100 mA
17.4154259560303;0.299896240234375;0.00213653564453125;6.69999998308413;671;100 mA
17.425425956005;0.299774169921875;0.00209991455078125;6.70999998305888;672;100 mA
17.4354259559798;0.299835205078125;0.00209381103515625;6.71999998303363;673;100 mA
17.4454259559545;0.2998046875;0.00213897705078125;6.72999998300838;674;100 mA
17.4554259559293;0.299896240234375;0.00211517333984375;6.73999998298314;675;100 mA
17.465425955904;0.299896240234375;0.002064208984375;6.74999998295789;676;100 mA
17.4754259558788;0.299835205078125;0.002108154296875;6.75999998293264;677;100 mA
17.4854259558535;0.29986572265625;0.002138671875;6.76999998290739;678;100 mA
17.4954259558283;0.29986572265625;0.00210357666015625;6.77999998288215;679;100 mA
17.505425955803;0.29986572265625;0.00209991455078125;6.7899999828569;680;100 mA
17.5154259557778;0.29986572265625;0.0021405029296875;6.79999998283165;681;100 mA
17.5254259557526;0.29986572265625;0.0021185302734375;6.8099999828064;682;100 mA
17.5354259557273;0.29986572265625;0.00211334228515625;6.81999998278116;683;100 mA
17.5454259557021;0.2999267578125;0.0021685791015625;6.82999998275591;684;100 mA
17.5554259556768;0.29986572265625;0.00218841552734375;6.83999998273066;685;100 mA
17.5654259556516;0.299896240234375;0.00214141845703125;6.84999998270541;686;100 mA
17.5754259556263;0.2998046875;0.002122802734375;6.85999998268016;687;100 mA
17.5854259556011;0.29986572265625;0.0021746826171875;6.86999998265492;688;100 mA
17.5954259555758;0.299774169921875;0.00214874267578125;6.87999998262967;689;100 mA
17.6054259555506;0.29986572265625;0.00213897705078125;6.88999998260442;690;100 mA
17.6154259555253;0.29986572265625;0.00216522216796875;6.89999998257917;691;100 mA
17.6254259555001;0.2998046875;0.0021588134765625;6.90999998255393;692;100 mA
17.6354259554748;0.29986572265625;0.0021051025390625;6.91999998252868;693;100 mA
17.6454259554496;0.29986572265625;0.0021246337890625;6.92999998250343;694;100 mA
17.6554259554243;0.299835205078125;0.00214691162109375;6.93999998247818;695;100 mA
17.6654259553991;0.2998046875;0.00211669921875;6.94999998245294;696;100 mA
17.6754259553738;0.299835205078125;0.00209930419921875;6.95999998242769;697;100 mA
17.6854259553486;0.299835205078125;0.00214111328125;6.96999998240244;698;100 mA
17.6954259553233;0.299835205078125;0.00214263916015625;6.97999998237719;699;100 mA
17.7054259552981;0.299835205078125;0.0021221923828125;6.98999998235195;700;100 mA
