Time (s);WE(1).Potential (V);WE(1).Current (A);Corrected time (s);Index;Current range
18.2216509539948;0.20001220703125;0.00107330322265625;0;1;100 mA
18.2316509539695;0.199981689453125;0.00136077880859375;0.00999999997475243;2;100 mA
18.2416509539443;0.199951171875;0.001458740234375;0.0199999999495049;3;100 mA
18.251650953919;0.199920654296875;0.0015423583984375;0.0299999999242573;4;100 mA
18.2616509538938;0.20001220703125;0.001627197265625;0.0399999998990097;5;100 mA
18.2716509538685;0.199920654296875;0.00164520263671875;0.0499999998737621;6;100 mA
18.2816509538433;0.199951171875;0.0016400146484375;0.0599999998485146;7;100 mA
18.291650953818;0.199951171875;0.0016790771484375;0.069999999823267;8;100 mA
18.3016509537928;0.20001220703125;0.0016998291015625;0.0799999997980194;9;100 mA
18.3116509537675;0.199981689453125;0.00170867919921875;0.0899999997727718;10;100 mA
18.3216509537423;0.199981689453125;0.0017401123046875;0.0999999997475243;11;100 mA
18.331650953717;0.20001220703125;0.00176910400390625;0.109999999722277;12;100 mA
18.3416509536918;0.199981689453125;0.00173828125;0.119999999697029;13;100 mA
18.3516509536665;0.199981689453125;0.00171600341796875;0.129999999671782;14;100 mA
18.3616509536413;0.20001220703125;0.00178955078125;0.139999999646534;15;100 mA
18.371650953616;0.2000732421875;0.00178466796875;0.149999999621286;16;100 mA
18.3816509535908;0.20001220703125;0.00177490234375;0.159999999596039;17;100 mA
18.3916509535655;0.199981689453125;0.00178924560546875;0.169999999570791;18;100 mA
18.4016509535403;0.199981689453125;0.0018133544921875;0.179999999545544;19;100 mA
18.411650953515;0.199981689453125;0.00177764892578125;0.189999999520296;20;100 mA
18.4216509534898;0.199981689453125;0.00178619384765625;0.199999999495049;21;100 mA
18.4316509534646;0.20001220703125;0.00183624267578125;0.209999999469801;22;100 mA
18.4416509534393;0.199981689453125;0.0018402099609375;0.219999999444553;23;100 mA
18.4516509534141;0.199981689453125;0.0018145751953125;0.229999999419306;24;100 mA
18.4616509533888;0.199981689453125;0.00185089111328125;0.239999999394058;25;100 mA
18.4716509533636;0.199981689453125;0.00185211181640625;0.249999999368811;26;100 mA
18.4816509533383;0.20001220703125;0.001826171875;0.259999999343563;27;100 mA
18.4916509533131;0.199981689453125;0.0018438720703125;0.269999999318316;28;100 mA
18.5016509532878;0.200042724609375;0.0018707275390625;0.279999999293068;29;100 mA
18.5116509532626;0.199951171875;0.00184326171875;0.28999999926782;30;100 mA
18.5216509532373;0.20001220703125;0.0018109130859375;0.299999999242573;31;100 mA
18.5316509532121;0.199981689453125;0.00186309814453125;0.309999999217325;32;100 mA
18.5416509531868;0.20001220703125;0.00188018798828125;0.319999999192078;33;100 mA
18.5516509531616;0.199981689453125;0.0018572998046875;0.32999999916683;34;100 mA
18.5616509531363;0.199981689453125;0.00184600830078125;0.339999999141583;35;100 mA
18.5716509531111;0.20001220703125;0.00186553955078125;0.349999999116335;36;100 mA
18.5816509530858;0.199981689453125;0.0018194580078125;0.359999999091087;37;100 mA
18.5916509530606;0.199951171875;0.0018182373046875;0.36999999906584;38;100 mA
18.6016509530353;0.199981689453125;0.0018701171875;0.379999999040592;39;100 mA
18.6116509530101;0.20001220703125;0.0018719482421875;0.389999999015345;40;100 mA
18.6216509529849;0.200042724609375;0.0018304443359375;0.399999998990097;41;100 mA
18.6316509529596;0.199981689453125;0.00184539794921875;0.40999999896485;42;100 mA
18.6416509529344;0.199981689453125;0.001868896484375;0.419999998939602;43;100 mA
18.6516509529091;0.199981689453125;0.00184661865234375;0.429999998914354;44;100 mA
18.6616509528839;0.20001220703125;0.00184661865234375;0.439999998889107;45;100 mA
18.6716509528586;0.199981689453125;0.00187530517578125;0.449999998863859;46;100 mA
18.6816509528334;0.20001220703125;0.00185546875;0.459999998838612;47;100 mA
18.6916509528081;0.199920654296875;0.00181671142578125;0.469999998813364;48;100 mA
18.7016509527829;0.199981689453125;0.001864013671875;0.479999998788116;49;100 mA
18.7116509527576;0.20001220703125;0.00186920166015625;0.489999998762869;50;100 mA
18.7216509527324;0.20001220703125;0.00183990478515625;0.499999998737621;51;100 mA
18.7316509527071;0.199951171875;0.0018414306640625;0.509999998712374;52;100 mA
18.7416509526819;0.199951171875;0.0018927001953125;0.519999998687126;53;100 mA
18.7516509526566;0.199981689453125;0.001864013671875;0.529999998661879;54;100 mA
18.7616509526314;0.20001220703125;0.00186370849609375;0.539999998636631;55;100 mA
18.7716509526061;0.199951171875;0.00189697265625;0.549999998611383;56;100 mA
18.7816509525809;0.199981689453125;0.00188995361328125;0.559999998586136;57;100 mA
18.7916509525556;0.20001220703125;0.00184173583984375;0.569999998560888;58;100 mA
18.8016509525304;0.20001220703125;0.0018548583984375;0.579999998535641;59;100 mA
18.8116509525051;0.200042724609375;0.00189178466796875;0.589999998510393;60;100 mA
18.8216509524799;0.199981689453125;0.00186370849609375;0.599999998485146;61;100 mA
18.8316509524547;0.200042724609375;0.00185699462890625;0.609999998459898;62;100 mA
18.8416509524294;0.199951171875;0.00189208984375;0.61999999843465;63;100 mA
18.8516509524042;0.20001220703125;0.00188446044921875;0.629999998409403;64;100 mA
18.8616509523789;0.199951171875;0.0018365478515625;0.639999998384155;65;100 mA
18.8716509523537;0.199920654296875;0.0018804931640625;0.649999998358908;66;100 mA
18.8816509523284;0.199981689453125;0.0018939208984375;0.65999999833366;67;100 mA
18.8916509523032;0.200042724609375;0.00186004638671875;0.669999998308413;68;100 mA
18.9016509522779;0.199981689453125;0.001839599609375;0.679999998283165;69;100 mA
18.9116509522527;0.20001220703125;0.00190032958984375;0.689999998257917;70;100 mA
18.9216509522274;0.199981689453125;0.00187530517578125;0.69999999823267;71;100 mA
18.9316509522022;0.199981689453125;0.00184783935546875;0.709999998207422;72;100 mA
18.9416509521769;0.199981689453125;0.0018890380859375;0.719999998182175;73;100 mA
18.9516509521517;0.20001220703125;0.00190093994140625;0.729999998156927;74;100 mA
18.9616509521264;0.199981689453125;0.00185089111328125;0.73999999813168;75;100 mA
18.9716509521012;0.199951171875;0.001856689453125;0.749999998106432;76;100 mA
18.9816509520759;0.2000732421875;0.0019268798828125;0.759999998081184;77;100 mA
18.9916509520507;0.199951171875;0.001905517578125;0.769999998055937;78;100 mA
19.0016509520254;0.199981689453125;0.00188629150390625;0.779999998030689;79;100 mA
19.0116509520002;0.20001220703125;0.00191009521484375;0.789999998005442;80;100 mA
19.0216509519749;0.20001220703125;0.001903076171875;0.799999997980194;81;100 mA
19.0316509519497;0.20001220703125;0.0018499755859375;0.809999997954947;82;100 mA
19.0416509519245;0.199951171875;0.00186859130859375;0.819999997929699;83;100 mA
19.0516509518992;0.20001220703125;0.00188507080078125;0.829999997904451;84;100 mA
19.061650951874;0.199981689453125;0.0018487548828125;0.839999997879204;85;100 mA
19.0716509518487;0.200103759765625;0.001822509765625;0.849999997853956;86;100 mA
19.0816509518235;0.199981689453125;0.00187896728515625;0.859999997828709;87;100 mA
19.0916509517982;0.20001220703125;0.00186126708984375;0.869999997803461;88;100 mA
19.101650951773;0.20001220703125;0.00184173583984375;0.879999997778214;89;100 mA
19.1116509517477;0.200042724609375;0.00187103271484375;0.889999997752966;90;100 mA
19.1216509517225;0.199920654296875;0.001890869140625;0.899999997727718;91;100 mA
19.1316509516972;0.200042724609375;0.00183746337890625;0.909999997702471;92;100 mA
19.141650951672;0.20001220703125;0.00182373046875;0.919999997677223;93;100 mA
19.1516509516467;0.20001220703125;0.00187530517578125;0.929999997651976;94;100 mA
19.1616509516215;0.199981689453125;0.00184356689453125;0.939999997626728;95;100 mA
19.1716509515962;0.199951171875;0.0018145751953125;0.949999997601481;96;100 mA
19.181650951571;0.200042724609375;0.0018353271484375;0.959999997576233;97;100 mA
19.1916509515457;0.199981689453125;0.00185638427734375;0.969999997550985;98;100 mA
19.2016509515205;0.199981689453125;0.00182403564453125;0.979999997525738;99;100 mA
19.2116509514952;0.199951171875;0.00185821533203125;0.98999999750049;100;100 mA
19.22165095147;0.20001220703125;0.00190185546875;0.999999997475243;101;100 mA
19.2316509514447;0.20001220703125;0.0018719482421875;1.00999999745;102;100 mA
19.2416509514195;0.199920654296875;0.001839599609375;1.01999999742475;103;100 mA
19.2516509513943;0.199981689453125;0.00187164306640625;1.0299999973995;104;100 mA
19.261650951369;0.199981689453125;0.00187347412109375;1.03999999737425;105;100 mA
19.2716509513438;0.199951171875;0.00183868408203125;1.049999997349;106;100 mA
19.2816509513185;0.20001220703125;0.001859130859375;1.05999999732376;107;100 mA
19.2916509512933;0.199981689453125;0.0018939208984375;1.06999999729851;108;100 mA
19.301650951268;0.200042724609375;0.00184539794921875;1.07999999727326;109;100 mA
19.3116509512428;0.20001220703125;0.001824951171875;1.08999999724801;110;100 mA
19.3216509512175;0.20001220703125;0.00187286376953125;1.09999999722277;111;100 mA
19.3316509511923;0.20001220703125;0.001865234375;1.10999999719752;112;100 mA
19.341650951167;0.199981689453125;0.0018377685546875;1.11999999717227;113;100 mA
19.3516509511418;0.199981689453125;0.00185028076171875;1.12999999714702;114;100 mA
19.3616509511165;0.199981689453125;0.0018707275390625;1.13999999712178;115;100 mA
19.3716509510913;0.199981689453125;0.00183746337890625;1.14999999709653;116;100 mA
19.381650951066;0.199951171875;0.00185272216796875;1.15999999707128;117;100 mA
19.3916509510408;0.199981689453125;0.00188323974609375;1.16999999704603;118;100 mA
19.4016509510155;0.199920654296875;0.0018475341796875;1.17999999702079;119;100 mA
19.4116509509903;0.199920654296875;0.00180694580078125;1.18999999699554;120;100 mA
19.421650950965;0.199951171875;0.0018505859375;1.19999999697029;121;100 mA
19.4316509509398;0.199981689453125;0.001865234375;1.20999999694504;122;100 mA
19.4416509509145;0.200042724609375;0.001846923828125;1.2199999969198;123;100 mA
19.4516509508893;0.199920654296875;0.00186187744140625;1.22999999689455;124;100 mA
19.4616509508641;0.200042724609375;0.00189361572265625;1.2399999968693;125;100 mA
19.4716509508388;0.199951171875;0.00183868408203125;1.24999999684405;126;100 mA
19.4816509508136;0.199951171875;0.00181610107421875;1.25999999681881;127;100 mA
19.4916509507883;0.20001220703125;0.001861572265625;1.26999999679356;128;100 mA
19.5016509507631;0.199981689453125;0.00186126708984375;1.27999999676831;129;100 mA
19.5116509507378;0.199951171875;0.001837158203125;1.28999999674306;130;100 mA
19.5216509507126;0.20001220703125;0.001846923828125;1.29999999671782;131;100 mA
19.5316509506873;0.20001220703125;0.001885986328125;1.30999999669257;132;100 mA
19.5416509506621;0.20001220703125;0.001845703125;1.31999999666732;133;100 mA
19.5516509506368;0.199981689453125;0.001846923828125;1.32999999664207;134;100 mA
19.5616509506116;0.199981689453125;0.00188995361328125;1.33999999661683;135;100 mA
19.5716509505863;0.20001220703125;0.00188873291015625;1.34999999659158;136;100 mA
19.5816509505611;0.199981689453125;0.0018359375;1.35999999656633;137;100 mA
19.5916509505358;0.199981689453125;0.001866455078125;1.36999999654108;138;100 mA
19.6016509505106;0.20001220703125;0.0018817138671875;1.37999999651583;139;100 mA
19.6116509504853;0.199920654296875;0.00185028076171875;1.38999999649059;140;100 mA
19.6216509504601;0.199981689453125;0.0018359375;1.39999999646534;141;100 mA
19.6316509504348;0.20001220703125;0.00188018798828125;1.40999999644009;142;100 mA
19.6416509504096;0.199981689453125;0.0018572998046875;1.41999999641484;143;100 mA
19.6516509503844;0.200042724609375;0.00183868408203125;1.4299999963896;144;100 mA
19.6616509503591;0.199981689453125;0.00189056396484375;1.43999999636435;145;100 mA
19.6716509503339;0.199951171875;0.00190673828125;1.4499999963391;146;100 mA
19.6816509503086;0.199981689453125;0.00186981201171875;1.45999999631385;147;100 mA
19.6916509502834;0.199951171875;0.0018719482421875;1.46999999628861;148;100 mA
19.7016509502581;0.200042724609375;0.0019232177734375;1.47999999626336;149;100 mA
19.7116509502329;0.20001220703125;0.00189117431640625;1.48999999623811;150;100 mA
19.7216509502076;0.200042724609375;0.00188568115234375;1.49999999621286;151;100 mA
19.7316509501824;0.199951171875;0.00193878173828125;1.50999999618762;152;100 mA
19.7416509501571;0.199981689453125;0.001934814453125;1.51999999616237;153;100 mA
19.7516509501319;0.199951171875;0.00186767578125;1.52999999613712;154;100 mA
19.7616509501066;0.199951171875;0.00189910888671875;1.53999999611187;155;100 mA
19.7716509500814;0.199981689453125;0.0019305419921875;1.54999999608663;156;100 mA
19.7816509500561;0.199981689453125;0.0018951416015625;1.55999999606138;157;100 mA
19.7916509500309;0.20001220703125;0.001881103515625;1.56999999603613;158;100 mA
19.8016509500056;0.199981689453125;0.00192840576171875;1.57999999601088;159;100 mA
19.8116509499804;0.20001220703125;0.00191192626953125;1.58999999598564;160;100 mA
19.8216509499551;0.199981689453125;0.00188018798828125;1.59999999596039;161;100 mA
19.8316509499299;0.199981689453125;0.001915283203125;1.60999999593514;162;100 mA
19.8416509499046;0.199981689453125;0.00194610595703125;1.61999999590989;163;100 mA
19.8516509498794;0.200042724609375;0.0019061279296875;1.62999999588465;164;100 mA
19.8616509498542;0.199981689453125;0.0018865966796875;1.6399999958594;165;100 mA
19.8716509498289;0.199951171875;0.0019287109375;1.64999999583415;166;100 mA
19.8816509498037;0.200042724609375;0.00191253662109375;1.6599999958089;167;100 mA
19.8916509497784;0.20001220703125;0.00190155029296875;1.66999999578366;168;100 mA
19.9016509497532;0.199951171875;0.00191650390625;1.67999999575841;169;100 mA
19.9116509497279;0.20001220703125;0.00193695068359375;1.68999999573316;170;100 mA
19.9216509497027;0.200042724609375;0.001885986328125;1.69999999570791;171;100 mA
19.9316509496774;0.19989013671875;0.0019024658203125;1.70999999568267;172;100 mA
19.9416509496522;0.200042724609375;0.00194122314453125;1.71999999565742;173;100 mA
19.9516509496269;0.200042724609375;0.00190216064453125;1.72999999563217;174;100 mA
19.9616509496017;0.20001220703125;0.00186492919921875;1.73999999560692;175;100 mA
19.9716509495764;0.199981689453125;0.00189788818359375;1.74999999558167;176;100 mA
19.9816509495512;0.199951171875;0.0018988037109375;1.75999999555643;177;100 mA
19.9916509495259;0.199981689453125;0.001873779296875;1.76999999553118;178;100 mA
20.0016509495007;0.199981689453125;0.00189788818359375;1.77999999550593;179;100 mA
20.0116509494754;0.199951171875;0.0019268798828125;1.78999999548068;180;100 mA
20.0216509494502;0.199981689453125;0.001881103515625;1.79999999545544;181;100 mA
20.0316509494249;0.20001220703125;0.00184967041015625;1.80999999543019;182;100 mA
20.0416509493997;0.199981689453125;0.00190155029296875;1.81999999540494;183;100 mA
20.0516509493744;0.200042724609375;0.0018865966796875;1.82999999537969;184;100 mA
20.0616509493492;0.20001220703125;0.0018743896484375;1.83999999535445;185;100 mA
20.071650949324;0.20001220703125;0.0018896484375;1.8499999953292;186;100 mA
20.0816509492987;0.199981689453125;0.00192138671875;1.85999999530395;187;100 mA
20.0916509492735;0.20001220703125;0.001873779296875;1.8699999952787;188;100 mA
20.1016509492482;0.199920654296875;0.0018865966796875;1.87999999525346;189;100 mA
20.111650949223;0.199981689453125;0.0019281005859375;1.88999999522821;190;100 mA
20.1216509491977;0.20001220703125;0.0019097900390625;1.89999999520296;191;100 mA
20.1316509491725;0.199981689453125;0.0018670654296875;1.90999999517771;192;100 mA
20.1416509491472;0.199981689453125;0.00189971923828125;1.91999999515247;193;100 mA
20.151650949122;0.199951171875;0.0019146728515625;1.92999999512722;194;100 mA
20.1616509490967;0.199981689453125;0.001873779296875;1.93999999510197;195;100 mA
20.1716509490715;0.199920654296875;0.00188751220703125;1.94999999507672;196;100 mA
20.1816509490462;0.199981689453125;0.001915283203125;1.95999999505148;197;100 mA
20.191650949021;0.199951171875;0.0018817138671875;1.96999999502623;198;100 mA
20.2016509489957;0.20001220703125;0.00186187744140625;1.97999999500098;199;100 mA
20.2116509489705;0.199951171875;0.00192138671875;1.98999999497573;200;100 mA
20.2216509489452;0.200042724609375;0.00189178466796875;1.99999999495049;201;100 mA
20.23165094892;0.20001220703125;0.00185760498046875;2.00999999492524;202;100 mA
20.2416509488947;0.199951171875;0.00186798095703125;2.01999999489999;203;100 mA
20.2516509488695;0.199951171875;0.00191497802734375;2.02999999487474;204;100 mA
20.2616509488442;0.199981689453125;0.00188690185546875;2.0399999948495;205;100 mA
20.271650948819;0.199981689453125;0.00189117431640625;2.04999999482425;206;100 mA
20.2816509487938;0.20001220703125;0.0019415283203125;2.059999994799;207;100 mA
20.2916509487685;0.20001220703125;0.0019317626953125;2.06999999477375;208;100 mA
20.3016509487433;0.199981689453125;0.00188385009765625;2.0799999947485;209;100 mA
20.311650948718;0.200042724609375;0.00191558837890625;2.08999999472326;210;100 mA
20.3216509486928;0.200042724609375;0.0019342041015625;2.09999999469801;211;100 mA
20.3316509486675;0.19989013671875;0.00191436767578125;2.10999999467276;212;100 mA
20.3416509486423;0.199951171875;0.00191314697265625;2.11999999464751;213;100 mA
20.351650948617;0.199951171875;0.0019439697265625;2.12999999462227;214;100 mA
20.3616509485918;0.199951171875;0.0019317626953125;2.13999999459702;215;100 mA
20.3716509485665;0.199951171875;0.0018865966796875;2.14999999457177;216;100 mA
20.3816509485413;0.199951171875;0.001934814453125;2.15999999454652;217;100 mA
20.391650948516;0.200042724609375;0.0019427490234375;2.16999999452128;218;100 mA
20.4016509484908;0.20001220703125;0.00191162109375;2.17999999449603;219;100 mA
20.4116509484655;0.199981689453125;0.00191131591796875;2.18999999447078;220;100 mA
20.4216509484403;0.199981689453125;0.0019482421875;2.19999999444553;221;100 mA
20.431650948415;0.20001220703125;0.0019134521484375;2.20999999442029;222;100 mA
20.4416509483898;0.199981689453125;0.0019122314453125;2.21999999439504;223;100 mA
20.4516509483645;0.20001220703125;0.001949462890625;2.22999999436979;224;100 mA
20.4616509483393;0.20001220703125;0.001947021484375;2.23999999434454;225;100 mA
20.471650948314;0.20001220703125;0.00189056396484375;2.2499999943193;226;100 mA
20.4816509482888;0.199951171875;0.00190338134765625;2.25999999429405;227;100 mA
20.4916509482636;0.200042724609375;0.00193603515625;2.2699999942688;228;100 mA
20.5016509482383;0.199951171875;0.0019000244140625;2.27999999424355;229;100 mA
20.5116509482131;0.20001220703125;0.00189208984375;2.28999999421831;230;100 mA
20.5216509481878;0.199951171875;0.00192474365234375;2.29999999419306;231;100 mA
20.5316509481626;0.200042724609375;0.00190826416015625;2.30999999416781;232;100 mA
20.5416509481373;0.199981689453125;0.00186431884765625;2.31999999414256;233;100 mA
20.5516509481121;0.200042724609375;0.00190826416015625;2.32999999411732;234;100 mA
20.5616509480868;0.199951171875;0.00193572998046875;2.33999999409207;235;100 mA
20.5716509480616;0.199951171875;0.00190338134765625;2.34999999406682;236;100 mA
20.5816509480363;0.20001220703125;0.0018841552734375;2.35999999404157;237;100 mA
20.5916509480111;0.20001220703125;0.00194183349609375;2.36999999401633;238;100 mA
20.6016509479858;0.20001220703125;0.00191131591796875;2.37999999399108;239;100 mA
20.6116509479606;0.199951171875;0.001898193359375;2.38999999396583;240;100 mA
20.6216509479353;0.199981689453125;0.00193389892578125;2.39999999394058;241;100 mA
20.6316509479101;0.199981689453125;0.00194000244140625;2.40999999391533;242;100 mA
20.6416509478848;0.20001220703125;0.0018792724609375;2.41999999389009;243;100 mA
20.6516509478596;0.199951171875;0.0018914794921875;2.42999999386484;244;100 mA
20.6616509478343;0.199981689453125;0.0019305419921875;2.43999999383959;245;100 mA
20.6716509478091;0.199951171875;0.00189697265625;2.44999999381434;246;100 mA
20.6816509477839;0.199981689453125;0.0018707275390625;2.4599999937891;247;100 mA
20.6916509477586;0.20001220703125;0.0019049072265625;2.46999999376385;248;100 mA
20.7016509477334;0.20001220703125;0.00190460205078125;2.4799999937386;249;100 mA
20.7116509477081;0.199981689453125;0.00186065673828125;2.48999999371335;250;100 mA
20.7216509476829;0.199951171875;0.0018939208984375;2.49999999368811;251;100 mA
20.7316509476576;0.20001220703125;0.00193603515625;2.50999999366286;252;100 mA
20.7416509476324;0.20001220703125;0.00190185546875;2.51999999363761;253;100 mA
20.7516509476071;0.200042724609375;0.00187103271484375;2.52999999361236;254;100 mA
20.7616509475819;0.199981689453125;0.00193115234375;2.53999999358712;255;100 mA
20.7716509475566;0.20001220703125;0.0019293212890625;2.54999999356187;256;100 mA
20.7816509475314;0.199981689453125;0.00191925048828125;2.55999999353662;257;100 mA
20.7916509475061;0.199981689453125;0.00193328857421875;2.56999999351137;258;100 mA
20.8016509474809;0.199920654296875;0.001942138671875;2.57999999348613;259;100 mA
20.8116509474556;0.199981689453125;0.0018890380859375;2.58999999346088;260;100 mA
20.8216509474304;0.20001220703125;0.0018853759765625;2.59999999343563;261;100 mA
20.8316509474051;0.20001220703125;0.00193634033203125;2.60999999341038;262;100 mA
20.8416509473799;0.200042724609375;0.0019122314453125;2.61999999338514;263;100 mA
20.8516509473546;0.19989013671875;0.00187225341796875;2.62999999335989;264;100 mA
20.8616509473294;0.199981689453125;0.00189910888671875;2.63999999333464;265;100 mA
20.8716509473041;0.199951171875;0.00192352294921875;2.64999999330939;266;100 mA
20.8816509472789;0.199951171875;0.0018896484375;2.65999999328415;267;100 mA
20.8916509472537;0.19989013671875;0.0019024658203125;2.6699999932589;268;100 mA
20.9016509472284;0.20001220703125;0.00193328857421875;2.67999999323365;269;100 mA
20.9116509472032;0.199981689453125;0.001907958984375;2.6899999932084;270;100 mA
20.9216509471779;0.199951171875;0.00187042236328125;2.69999999318316;271;100 mA
20.9316509471527;0.199981689453125;0.0019061279296875;2.70999999315791;272;100 mA
20.9416509471274;0.199920654296875;0.0018890380859375;2.71999999313266;273;100 mA
20.9516509471022;0.20001220703125;0.001859130859375;2.72999999310741;274;100 mA
20.9616509470769;0.200042724609375;0.00187347412109375;2.73999999308217;275;100 mA
20.9716509470517;0.199951171875;0.00190704345703125;2.74999999305692;276;100 mA
20.9816509470264;0.199920654296875;0.00186920166015625;2.75999999303167;277;100 mA
20.9916509470012;0.199951171875;0.00186614990234375;2.76999999300642;278;100 mA
21.0016509469759;0.199981689453125;0.001904296875;2.77999999298117;279;100 mA
21.0116509469507;0.20001220703125;0.001885986328125;2.78999999295593;280;100 mA
21.0216509469254;0.199981689453125;0.0018475341796875;2.79999999293068;281;100 mA
21.0316509469002;0.199951171875;0.0018707275390625;2.80999999290543;282;100 mA
21.0416509468749;0.20001220703125;0.0018939208984375;2.81999999288018;283;100 mA
21.0516509468497;0.20001220703125;0.00185791015625;2.82999999285494;284;100 mA
21.0616509468244;0.199981689453125;0.00187255859375;2.83999999282969;285;100 mA
21.0716509467992;0.199981689453125;0.00189483642578125;2.84999999280444;286;100 mA
21.0816509467739;0.200042724609375;0.00186187744140625;2.85999999277919;287;100 mA
21.0916509467487;0.199951171875;0.0018243408203125;2.86999999275395;288;100 mA
21.1016509467235;0.199981689453125;0.001873779296875;2.8799999927287;289;100 mA
21.1116509466982;0.20001220703125;0.001893310546875;2.88999999270345;290;100 mA
21.121650946673;0.199981689453125;0.00186492919921875;2.8999999926782;291;100 mA
21.1316509466477;0.199920654296875;0.00186767578125;2.90999999265296;292;100 mA
21.1416509466225;0.20001220703125;0.00190216064453125;2.91999999262771;293;100 mA
21.1516509465972;0.20001220703125;0.00186920166015625;2.92999999260246;294;100 mA
21.161650946572;0.200042724609375;0.00186676025390625;2.93999999257721;295;100 mA
21.1716509465467;0.20001220703125;0.00191131591796875;2.94999999255197;296;100 mA
21.1816509465215;0.199951171875;0.00191436767578125;2.95999999252672;297;100 mA
21.1916509464962;0.19989013671875;0.001866455078125;2.96999999250147;298;100 mA
21.201650946471;0.199981689453125;0.00187835693359375;2.97999999247622;299;100 mA
21.2116509464457;0.20001220703125;0.001910400390625;2.98999999245098;300;100 mA
21.2216509464205;0.199981689453125;0.00188690185546875;2.99999999242573;301;100 mA
21.2316509463952;0.20001220703125;0.00187957763671875;3.00999999240048;302;100 mA
21.24165094637;0.199951171875;0.001885986328125;3.01999999237523;303;100 mA
21.2516509463447;0.20001220703125;0.00186004638671875;3.02999999234999;304;100 mA
21.2616509463195;0.199951171875;0.00182037353515625;3.03999999232474;305;100 mA
21.2716509462942;0.20001220703125;0.0018487548828125;3.04999999229949;306;100 mA
21.281650946269;0.199981689453125;0.00185791015625;3.05999999227424;307;100 mA
21.2916509462437;0.199951171875;0.00183349609375;3.069999992249;308;100 mA
21.3016509462185;0.20001220703125;0.001824951171875;3.07999999222375;309;100 mA
21.3116509461933;0.20001220703125;0.00187652587890625;3.0899999921985;310;100 mA
21.321650946168;0.200042724609375;0.00186553955078125;3.09999999217325;311;100 mA
21.3316509461428;0.199981689453125;0.00185546875;3.109999992148;312;100 mA
21.3416509461175;0.199951171875;0.0018914794921875;3.11999999212276;313;100 mA
21.3516509460923;0.20001220703125;0.0019000244140625;3.12999999209751;314;100 mA
21.361650946067;0.199920654296875;0.00185577392578125;3.13999999207226;315;100 mA
21.3716509460418;0.19989013671875;0.0018505859375;3.14999999204701;316;100 mA
21.3816509460165;0.20001220703125;0.001883544921875;3.15999999202177;317;100 mA
21.3916509459913;0.199951171875;0.001865234375;3.16999999199652;318;100 mA
21.401650945966;0.200042724609375;0.00185638427734375;3.17999999197127;319;100 mA
21.4116509459408;0.199951171875;0.001878662109375;3.18999999194602;320;100 mA
21.4216509459155;0.199981689453125;0.00187774658203125;3.19999999192078;321;100 mA
21.4316509458903;0.20001220703125;0.00184356689453125;3.20999999189553;322;100 mA
21.441650945865;0.20001220703125;0.00186737060546875;3.21999999187028;323;100 mA
21.4516509458398;0.199981689453125;0.00189727783203125;3.22999999184503;324;100 mA
21.4616509458145;0.199951171875;0.0018695068359375;3.23999999181979;325;100 mA
21.4716509457893;0.199951171875;0.001844482421875;3.24999999179454;326;100 mA
21.481650945764;0.20001220703125;0.00186553955078125;3.25999999176929;327;100 mA
21.4916509457388;0.20001220703125;0.0018658447265625;3.26999999174404;328;100 mA
21.5016509457135;0.200042724609375;0.0018511962890625;3.2799999917188;329;100 mA
21.5116509456883;0.20001220703125;0.00188995361328125;3.28999999169355;330;100 mA
21.5216509456631;0.20001220703125;0.001917724609375;3.2999999916683;331;100 mA
21.5316509456378;0.199951171875;0.00186492919921875;3.30999999164305;332;100 mA
21.5416509456126;0.200042724609375;0.0018487548828125;3.31999999161781;333;100 mA
21.5516509455873;0.199981689453125;0.00188507080078125;3.32999999159256;334;100 mA
21.5616509455621;0.20001220703125;0.00185760498046875;3.33999999156731;335;100 mA
21.5716509455368;0.20001220703125;0.00184417724609375;3.34999999154206;336;100 mA
21.5816509455116;0.200042724609375;0.00186798095703125;3.35999999151682;337;100 mA
21.5916509454863;0.199981689453125;0.00187774658203125;3.36999999149157;338;100 mA
21.6016509454611;0.199981689453125;0.001837158203125;3.37999999146632;339;100 mA
21.6116509454358;0.19989013671875;0.00186737060546875;3.38999999144107;340;100 mA
21.6216509454106;0.199981689453125;0.0019134521484375;3.39999999141583;341;100 mA
21.6316509453853;0.199951171875;0.0019012451171875;3.40999999139058;342;100 mA
21.6416509453601;0.20001220703125;0.00186798095703125;3.41999999136533;343;100 mA
21.6516509453348;0.20001220703125;0.00191070556640625;3.42999999134008;344;100 mA
21.6616509453096;0.20001220703125;0.00190032958984375;3.43999999131483;345;100 mA
21.6716509452843;0.199981689453125;0.001871337890625;3.44999999128959;346;100 mA
21.6816509452591;0.199920654296875;0.00189361572265625;3.45999999126434;347;100 mA
21.6916509452338;0.20001220703125;0.00193359375;3.46999999123909;348;100 mA
21.7016509452086;0.200042724609375;0.00190216064453125;3.47999999121384;349;100 mA
21.7116509451834;0.199981689453125;0.00187530517578125;3.4899999911886;350;100 mA
21.7216509451581;0.20001220703125;0.0019183349609375;3.49999999116335;351;100 mA
21.7316509451329;0.199981689453125;0.0019122314453125;3.5099999911381;352;100 mA
21.7416509451076;0.200042724609375;0.0018743896484375;3.51999999111285;353;100 mA
21.7516509450824;0.200042724609375;0.001875;3.52999999108761;354;100 mA
21.7616509450571;0.20001220703125;0.00189849853515625;3.53999999106236;355;100 mA
21.7716509450319;0.199981689453125;0.0018634033203125;3.54999999103711;356;100 mA
21.7816509450066;0.199951171875;0.00187713623046875;3.55999999101186;357;100 mA
21.7916509449814;0.199981689453125;0.00191192626953125;3.56999999098662;358;100 mA
21.8016509449561;0.20001220703125;0.00189666748046875;3.57999999096137;359;100 mA
21.8116509449309;0.200042724609375;0.00186309814453125;3.58999999093612;360;100 mA
21.8216509449056;0.200042724609375;0.00190277099609375;3.59999999091087;361;100 mA
21.8316509448804;0.199981689453125;0.0019189453125;3.60999999088563;362;100 mA
21.8416509448551;0.199981689453125;0.00188720703125;3.61999999086038;363;100 mA
21.8516509448299;0.199951171875;0.00189697265625;3.62999999083513;364;100 mA
21.8616509448046;0.199951171875;0.00192291259765625;3.63999999080988;365;100 mA
21.8716509447794;0.199951171875;0.00188568115234375;3.64999999078464;366;100 mA
21.8816509447541;0.199981689453125;0.00185821533203125;3.65999999075939;367;100 mA
21.8916509447289;0.20001220703125;0.0018994140625;3.66999999073414;368;100 mA
21.9016509447036;0.20001220703125;0.00189300537109375;3.67999999070889;369;100 mA
21.9116509446784;0.199981689453125;0.0018682861328125;3.68999999068365;370;100 mA
21.9216509446532;0.20001220703125;0.00188018798828125;3.6999999906584;371;100 mA
21.9316509446279;0.199981689453125;0.0019158935546875;3.70999999063315;372;100 mA
21.9416509446027;0.20001220703125;0.00188232421875;3.7199999906079;373;100 mA
21.9516509445774;0.199981689453125;0.0018951416015625;3.72999999058266;374;100 mA
21.9616509445522;0.20001220703125;0.0019317626953125;3.73999999055741;375;100 mA
21.9716509445269;0.199981689453125;0.00191650390625;3.74999999053216;376;100 mA
21.9816509445017;0.20001220703125;0.00186309814453125;3.75999999050691;377;100 mA
21.9916509444764;0.199951171875;0.00188873291015625;3.76999999048167;378;100 mA
22.0016509444512;0.20001220703125;0.00191558837890625;3.77999999045642;379;100 mA
22.0116509444259;0.20001220703125;0.00189910888671875;3.78999999043117;380;100 mA
22.0216509444007;0.200042724609375;0.00189910888671875;3.79999999040592;381;100 mA
22.0316509443754;0.199981689453125;0.0019317626953125;3.80999999038067;382;100 mA
22.0416509443502;0.199920654296875;0.00190582275390625;3.81999999035543;383;100 mA
22.0516509443249;0.199981689453125;0.00187164306640625;3.82999999033018;384;100 mA
22.0616509442997;0.199981689453125;0.0019146728515625;3.83999999030493;385;100 mA
22.0716509442744;0.199981689453125;0.0019097900390625;3.84999999027968;386;100 mA
22.0816509442492;0.199981689453125;0.00185760498046875;3.85999999025444;387;100 mA
22.0916509442239;0.199859619140625;0.00185302734375;3.86999999022919;388;100 mA
22.1016509441987;0.20001220703125;0.0018902587890625;3.87999999020394;389;100 mA
22.1116509441734;0.199981689453125;0.0018499755859375;3.88999999017869;390;100 mA
22.1216509441482;0.199981689453125;0.00185760498046875;3.89999999015345;391;100 mA
22.131650944123;0.20001220703125;0.00190155029296875;3.9099999901282;392;100 mA
22.1416509440977;0.200042724609375;0.001895751953125;3.91999999010295;393;100 mA
22.1516509440725;0.199920654296875;0.00184478759765625;3.9299999900777;394;100 mA
22.1616509440472;0.199920654296875;0.0018658447265625;3.93999999005246;395;100 mA
22.171650944022;0.199951171875;0.00190521240234375;3.94999999002721;396;100 mA
22.1816509439967;0.199981689453125;0.00187408447265625;3.95999999000196;397;100 mA
22.1916509439715;0.20001220703125;0.00185638427734375;3.96999998997671;398;100 mA
22.2016509439462;0.199981689453125;0.00189483642578125;3.97999998995147;399;100 mA
22.211650943921;0.20001220703125;0.001893310546875;3.98999998992622;400;100 mA
22.2216509438957;0.20001220703125;0.0018499755859375;3.99999998990097;401;100 mA
22.2316509438705;0.199981689453125;0.00188140869140625;4.00999998987572;402;100 mA
22.2416509438452;0.199981689453125;0.00191680908203125;4.01999998985048;403;100 mA
22.25165094382;0.20001220703125;0.0018841552734375;4.02999998982523;404;100 mA
22.2616509437947;0.199951171875;0.00185821533203125;4.03999998979998;405;100 mA
22.2716509437695;0.20001220703125;0.00192047119140625;4.04999998977473;406;100 mA
22.2816509437442;0.199981689453125;0.00190155029296875;4.05999998974949;407;100 mA
22.291650943719;0.199951171875;0.00188629150390625;4.06999998972424;408;100 mA
22.3016509436937;0.199981689453125;0.00191162109375;4.07999998969899;409;100 mA
22.3116509436685;0.199981689453125;0.0019293212890625;4.08999998967374;410;100 mA
22.3216509436432;0.199951171875;0.00188934326171875;4.0999999896485;411;100 mA
22.331650943618;0.19989013671875;0.00191162109375;4.10999998962325;412;100 mA
22.3416509435928;0.199981689453125;0.0019537353515625;4.119999989598;413;100 mA
22.3516509435675;0.199981689453125;0.001920166015625;4.12999998957275;414;100 mA
22.3616509435423;0.200042724609375;0.00188446044921875;4.1399999895475;415;100 mA
22.371650943517;0.20001220703125;0.0019122314453125;4.14999998952226;416;100 mA
22.3816509434918;0.199951171875;0.0019287109375;4.15999998949701;417;100 mA
22.3916509434665;0.199981689453125;0.001895751953125;4.16999998947176;418;100 mA
22.4016509434413;0.199981689453125;0.00191986083984375;4.17999998944651;419;100 mA
22.411650943416;0.199981689453125;0.00194976806640625;4.18999998942127;420;100 mA
22.4216509433908;0.2000732421875;0.00190704345703125;4.19999998939602;421;100 mA
22.4316509433655;0.199920654296875;0.0018731689453125;4.20999998937077;422;100 mA
22.4416509433403;0.199981689453125;0.001920166015625;4.21999998934552;423;100 mA
22.451650943315;0.199981689453125;0.0018988037109375;4.22999998932028;424;100 mA
22.4616509432898;0.199981689453125;0.00187225341796875;4.23999998929503;425;100 mA
22.4716509432645;0.200042724609375;0.00189483642578125;4.24999998926978;426;100 mA
22.4816509432393;0.199981689453125;0.001929931640625;4.25999998924453;427;100 mA
22.491650943214;0.199981689453125;0.0018756103515625;4.26999998921929;428;100 mA
22.5016509431888;0.199920654296875;0.00187347412109375;4.27999998919404;429;100 mA
22.5116509431635;0.20001220703125;0.00192413330078125;4.28999998916879;430;100 mA
22.5216509431383;0.20001220703125;0.00190338134765625;4.29999998914354;431;100 mA
22.531650943113;0.199981689453125;0.00186859130859375;4.3099999891183;432;100 mA
22.5416509430878;0.199981689453125;0.00189178466796875;4.31999998909305;433;100 mA
22.5516509430626;0.199981689453125;0.001912841796875;4.3299999890678;434;100 mA
22.5616509430373;0.200042724609375;0.00188568115234375;4.33999998904255;435;100 mA
22.5716509430121;0.199920654296875;0.0019012451171875;4.34999998901731;436;100 mA
22.5816509429868;0.19989013671875;0.00192596435546875;4.35999998899206;437;100 mA
22.5916509429616;0.199981689453125;0.001898193359375;4.36999998896681;438;100 mA
22.6016509429363;0.199951171875;0.00186248779296875;4.37999998894156;439;100 mA
22.6116509429111;0.20001220703125;0.00191253662109375;4.38999998891632;440;100 mA
22.6216509428858;0.199951171875;0.00191741943359375;4.39999998889107;441;100 mA
22.6316509428606;0.20001220703125;0.00190093994140625;4.40999998886582;442;100 mA
22.6416509428353;0.199951171875;0.00190887451171875;4.41999998884057;443;100 mA
22.6516509428101;0.199981689453125;0.0019366455078125;4.42999998881533;444;100 mA
22.6616509427848;0.200042724609375;0.001883544921875;4.43999998879008;445;100 mA
22.6716509427596;0.199981689453125;0.00187225341796875;4.44999998876483;446;100 mA
22.6816509427343;0.20001220703125;0.0019171142578125;4.45999998873958;447;100 mA
22.6916509427091;0.199981689453125;0.00189788818359375;4.46999998871433;448;100 mA
22.7016509426838;0.20001220703125;0.00185546875;4.47999998868909;449;100 mA
22.7116509426586;0.20001220703125;0.00187744140625;4.48999998866384;450;100 mA
22.7216509426333;0.200042724609375;0.0018963623046875;4.49999998863859;451;100 mA
22.7316509426081;0.199920654296875;0.0018603515625;4.50999998861334;452;100 mA
22.7416509425829;0.199951171875;0.0018719482421875;4.5199999885881;453;100 mA
22.7516509425576;0.199981689453125;0.001910400390625;4.52999998856285;454;100 mA
22.7616509425324;0.200042724609375;0.00189788818359375;4.5399999885376;455;100 mA
22.7716509425071;0.200042724609375;0.0018585205078125;4.54999998851235;456;100 mA
22.7816509424819;0.2000732421875;0.00190643310546875;4.55999998848711;457;100 mA
22.7916509424566;0.20001220703125;0.00190093994140625;4.56999998846186;458;100 mA
22.8016509424314;0.199951171875;0.00186767578125;4.57999998843661;459;100 mA
22.8116509424061;0.199920654296875;0.001871337890625;4.58999998841136;460;100 mA
22.8216509423809;0.20001220703125;0.00191192626953125;4.59999998838612;461;100 mA
22.8316509423556;0.199981689453125;0.00189605712890625;4.60999998836087;462;100 mA
22.8416509423304;0.20001220703125;0.0018817138671875;4.61999998833562;463;100 mA
22.8516509423051;0.199951171875;0.00192962646484375;4.62999998831037;464;100 mA
22.8616509422799;0.20001220703125;0.00193817138671875;4.63999998828513;465;100 mA
22.8716509422546;0.2000732421875;0.001888427734375;4.64999998825988;466;100 mA
22.8816509422294;0.199981689453125;0.0018896484375;4.65999998823463;467;100 mA
22.8916509422041;0.20001220703125;0.0019232177734375;4.66999998820938;468;100 mA
22.9016509421789;0.199859619140625;0.001898193359375;4.67999998818414;469;100 mA
22.9116509421536;0.199981689453125;0.00190399169921875;4.68999998815889;470;100 mA
22.9216509421284;0.20001220703125;0.00193389892578125;4.69999998813364;471;100 mA
22.9316509421031;0.199951171875;0.001922607421875;4.70999998810839;472;100 mA
22.9416509420779;0.199981689453125;0.00187042236328125;4.71999998808315;473;100 mA
22.9516509420527;0.200042724609375;0.00190948486328125;4.7299999880579;474;100 mA
22.9616509420274;0.199951171875;0.001937255859375;4.73999998803265;475;100 mA
22.9716509420022;0.20001220703125;0.00189971923828125;4.7499999880074;476;100 mA
22.9816509419769;0.20001220703125;0.0018829345703125;4.75999998798216;477;100 mA
22.9916509419517;0.199981689453125;0.0019244384765625;4.76999998795691;478;100 mA
23.0016509419264;0.199981689453125;0.00189788818359375;4.77999998793166;479;100 mA
23.0116509419012;0.199981689453125;0.0018768310546875;4.78999998790641;480;100 mA
23.0216509418759;0.20001220703125;0.00190521240234375;4.79999998788116;481;100 mA
23.0316509418507;0.199981689453125;0.00191375732421875;4.80999998785592;482;100 mA
23.0416509418254;0.20001220703125;0.0018536376953125;4.81999998783067;483;100 mA
23.0516509418002;0.19989013671875;0.00185516357421875;4.82999998780542;484;100 mA
23.0616509417749;0.20001220703125;0.00190643310546875;4.83999998778017;485;100 mA
23.0716509417497;0.199920654296875;0.001883544921875;4.84999998775493;486;100 mA
23.0816509417244;0.199920654296875;0.00186981201171875;4.85999998772968;487;100 mA
23.0916509416992;0.20001220703125;0.00189697265625;4.86999998770443;488;100 mA
23.1016509416739;0.20001220703125;0.00189971923828125;4.87999998767918;489;100 mA
23.1116509416487;0.199981689453125;0.0018560791015625;4.88999998765394;490;100 mA
23.1216509416234;0.20001220703125;0.00188507080078125;4.89999998762869;491;100 mA
23.1316509415982;0.199981689453125;0.0019232177734375;4.90999998760344;492;100 mA
23.1416509415729;0.20001220703125;0.00188140869140625;4.91999998757819;493;100 mA
23.1516509415477;0.199951171875;0.00186126708984375;4.92999998755295;494;100 mA
23.1616509415225;0.199951171875;0.0019158935546875;4.9399999875277;495;100 mA
23.1716509414972;0.20001220703125;0.00190277099609375;4.94999998750245;496;100 mA
23.181650941472;0.200042724609375;0.0018768310546875;4.9599999874772;497;100 mA
23.1916509414467;0.199981689453125;0.00190521240234375;4.96999998745196;498;100 mA
23.2016509414215;0.199951171875;0.00191741943359375;4.97999998742671;499;100 mA
23.2116509413962;0.199981689453125;0.00186981201171875;4.98999998740146;500;100 mA
23.221650941371;0.199981689453125;0.001851806640625;4.99999998737621;501;100 mA
23.2316509413457;0.199981689453125;0.00191070556640625;5.00999998735097;502;100 mA
23.2416509413205;0.200042724609375;0.0018768310546875;5.01999998732572;503;100 mA
23.2516509412952;0.20001220703125;0.00186370849609375;5.02999998730047;504;100 mA
23.26165094127;0.199951171875;0.001888427734375;5.03999998727522;505;100 mA
23.2716509412447;0.199951171875;0.00189971923828125;5.04999998724998;506;100 mA
23.2816509412195;0.199981689453125;0.00184600830078125;5.05999998722473;507;100 mA
23.2916509411942;0.199951171875;0.00186309814453125;5.06999998719948;508;100 mA
23.301650941169;0.20001220703125;0.00189727783203125;5.07999998717423;509;100 mA
23.3116509411437;0.20001220703125;0.0018658447265625;5.08999998714899;510;100 mA
23.3216509411185;0.199951171875;0.00183868408203125;5.09999998712374;511;100 mA
23.3316509410932;0.199951171875;0.00189117431640625;5.10999998709849;512;100 mA
23.341650941068;0.199981689453125;0.00188751220703125;5.11999998707324;513;100 mA
23.3516509410427;0.199981689453125;0.00186248779296875;5.129999987048;514;100 mA
23.3616509410175;0.199981689453125;0.00187530517578125;5.13999998702275;515;100 mA
23.3716509409923;0.20001220703125;0.0019000244140625;5.1499999869975;516;100 mA
23.381650940967;0.199981689453125;0.0018780517578125;5.15999998697225;517;100 mA
23.3916509409418;0.199981689453125;0.00187164306640625;5.169999986947;518;100 mA
23.4016509409165;0.199981689453125;0.0019232177734375;5.17999998692176;519;100 mA
23.4116509408913;0.20001220703125;0.0019207763671875;5.18999998689651;520;100 mA
23.421650940866;0.199981689453125;0.00187774658203125;5.19999998687126;521;100 mA
23.4316509408408;0.199981689453125;0.00188568115234375;5.20999998684601;522;100 mA
23.4416509408155;0.199981689453125;0.0019232177734375;5.21999998682077;523;100 mA
23.4516509407903;0.20001220703125;0.00188140869140625;5.22999998679552;524;100 mA
23.461650940765;0.20001220703125;0.00190155029296875;5.23999998677027;525;100 mA
23.4716509407398;0.199951171875;0.00193572998046875;5.24999998674502;526;100 mA
23.4816509407145;0.199981689453125;0.00191497802734375;5.25999998671978;527;100 mA
23.4916509406893;0.199920654296875;0.00186798095703125;5.26999998669453;528;100 mA
23.501650940664;0.199951171875;0.0019061279296875;5.27999998666928;529;100 mA
23.5116509406388;0.199981689453125;0.0019183349609375;5.28999998664403;530;100 mA
23.5216509406135;0.200042724609375;0.0018951416015625;5.29999998661879;531;100 mA
23.5316509405883;0.199920654296875;0.00189971923828125;5.30999998659354;532;100 mA
23.541650940563;0.199981689453125;0.0019354248046875;5.31999998656829;533;100 mA
23.5516509405378;0.20001220703125;0.00190704345703125;5.32999998654304;534;100 mA
23.5616509405125;0.199951171875;0.0018902587890625;5.3399999865178;535;100 mA
23.5716509404873;0.199981689453125;0.00194183349609375;5.34999998649255;536;100 mA
23.5816509404621;0.199981689453125;0.00193328857421875;5.3599999864673;537;100 mA
23.5916509404368;0.199981689453125;0.0018927001953125;5.36999998644205;538;100 mA
23.6016509404116;0.200042724609375;0.0018878173828125;5.37999998641681;539;100 mA
23.6116509403863;0.199981689453125;0.00191619873046875;5.38999998639156;540;100 mA
23.6216509403611;0.199981689453125;0.00188323974609375;5.39999998636631;541;100 mA
23.6316509403358;0.199951171875;0.00189208984375;5.40999998634106;542;100 mA
23.6416509403106;0.199981689453125;0.00191650390625;5.41999998631582;543;100 mA
23.6516509402853;0.20001220703125;0.0019134521484375;5.42999998629057;544;100 mA
23.6616509402601;0.199951171875;0.00188201904296875;5.43999998626532;545;100 mA
23.6716509402348;0.200042724609375;0.00191864013671875;5.44999998624007;546;100 mA
23.6816509402096;0.20001220703125;0.001939697265625;5.45999998621483;547;100 mA
23.6916509401843;0.199981689453125;0.00190643310546875;5.46999998618958;548;100 mA
23.7016509401591;0.199981689453125;0.001893310546875;5.47999998616433;549;100 mA
23.7116509401338;0.199981689453125;0.001927490234375;5.48999998613908;550;100 mA
23.7216509401086;0.20013427734375;0.0019012451171875;5.49999998611383;551;100 mA
23.7316509400833;0.20001220703125;0.00186798095703125;5.50999998608859;552;100 mA
23.7416509400581;0.199981689453125;0.00190582275390625;5.51999998606334;553;100 mA
23.7516509400328;0.199981689453125;0.0019073486328125;5.52999998603809;554;100 mA
23.7616509400076;0.20001220703125;0.0018658447265625;5.53999998601284;555;100 mA
23.7716509399824;0.199951171875;0.001866455078125;5.5499999859876;556;100 mA
23.7816509399571;0.199981689453125;0.0019171142578125;5.55999998596235;557;100 mA
23.7916509399319;0.199981689453125;0.001893310546875;5.5699999859371;558;100 mA
23.8016509399066;0.199951171875;0.001881103515625;5.57999998591185;559;100 mA
23.8116509398814;0.199981689453125;0.0019024658203125;5.58999998588661;560;100 mA
23.8216509398561;0.200042724609375;0.00189178466796875;5.59999998586136;561;100 mA
23.8316509398309;0.20001220703125;0.00184417724609375;5.60999998583611;562;100 mA
23.8416509398056;0.199981689453125;0.0018621826171875;5.61999998581086;563;100 mA
23.8516509397804;0.199951171875;0.0018927001953125;5.62999998578562;564;100 mA
23.8616509397551;0.199981689453125;0.00187225341796875;5.63999998576037;565;100 mA
23.8716509397299;0.199981689453125;0.00186614990234375;5.64999998573512;566;100 mA
23.8816509397046;0.199920654296875;0.00191070556640625;5.65999998570987;567;100 mA
23.8916509396794;0.199981689453125;0.0018914794921875;5.66999998568463;568;100 mA
23.9016509396541;0.199920654296875;0.00185455322265625;5.67999998565938;569;100 mA
23.9116509396289;0.200042724609375;0.00188995361328125;5.68999998563413;570;100 mA
23.9216509396036;0.199951171875;0.00190765380859375;5.69999998560888;571;100 mA
23.9316509395784;0.199951171875;0.001871337890625;5.70999998558364;572;100 mA
23.9416509395531;0.199981689453125;0.001842041015625;5.71999998555839;573;100 mA
23.9516509395279;0.20001220703125;0.00188690185546875;5.72999998553314;574;100 mA
23.9616509395026;0.199981689453125;0.0018756103515625;5.73999998550789;575;100 mA
23.9716509394774;0.199981689453125;0.001878662109375;5.74999998548265;576;100 mA
23.9816509394522;0.20001220703125;0.001910400390625;5.7599999854574;577;100 mA
23.9916509394269;0.199951171875;0.001922607421875;5.76999998543215;578;100 mA
24.0016509394017;0.20001220703125;0.0018597412109375;5.7799999854069;579;100 mA
24.0116509393764;0.199981689453125;0.00185882568359375;5.78999998538166;580;100 mA
24.0216509393512;0.199951171875;0.001895751953125;5.79999998535641;581;100 mA
24.0316509393259;0.20001220703125;0.00187408447265625;5.80999998533116;582;100 mA
24.0416509393007;0.199981689453125;0.00185760498046875;5.81999998530591;583;100 mA
24.0516509392754;0.20001220703125;0.0018902587890625;5.82999998528066;584;100 mA
24.0616509392502;0.199951171875;0.00190460205078125;5.83999998525542;585;100 mA
24.0716509392249;0.199951171875;0.00187591552734375;5.84999998523017;586;100 mA
24.0816509391997;0.199981689453125;0.001903076171875;5.85999998520492;587;100 mA
24.0916509391744;0.199951171875;0.00192291259765625;5.86999998517967;588;100 mA
24.1016509391492;0.199981689453125;0.00187408447265625;5.87999998515443;589;100 mA
24.1116509391239;0.199951171875;0.00184478759765625;5.88999998512918;590;100 mA
24.1216509390987;0.20001220703125;0.0018927001953125;5.89999998510393;591;100 mA
24.1316509390734;0.2000732421875;0.0019036865234375;5.90999998507868;592;100 mA
24.1416509390482;0.199981689453125;0.00187835693359375;5.91999998505344;593;100 mA
24.1516509390229;0.199981689453125;0.00188751220703125;5.92999998502819;594;100 mA
24.1616509389977;0.199951171875;0.0019036865234375;5.93999998500294;595;100 mA
24.1716509389724;0.199951171875;0.0018597412109375;5.94999998497769;596;100 mA
24.1816509389472;0.20001220703125;0.00185882568359375;5.95999998495245;597;100 mA
24.191650938922;0.199920654296875;0.0019000244140625;5.9699999849272;598;100 mA
24.2016509388967;0.20001220703125;0.00188018798828125;5.97999998490195;599;100 mA
24.2116509388715;0.199981689453125;0.0018487548828125;5.9899999848767;600;100 mA
24.2216509388462;0.200042724609375;0.00189910888671875;5.99999998485146;601;100 mA
24.231650938821;0.20001220703125;0.00189727783203125;6.00999998482621;602;100 mA
24.2416509387957;0.199981689453125;0.00186859130859375;6.01999998480096;603;100 mA
24.2516509387705;0.199951171875;0.00189239501953125;6.02999998477571;604;100 mA
24.2616509387452;0.199920654296875;0.00192047119140625;6.03999998475047;605;100 mA
24.27165093872;0.20001220703125;0.0018768310546875;6.04999998472522;606;100 mA
24.2816509386947;0.200042724609375;0.001844482421875;6.05999998469997;607;100 mA
24.2916509386695;0.2000732421875;0.00189117431640625;6.06999998467472;608;100 mA
24.3016509386442;0.199981689453125;0.001888427734375;6.07999998464948;609;100 mA
24.311650938619;0.199951171875;0.0018560791015625;6.08999998462423;610;100 mA
24.3216509385937;0.20001220703125;0.00186065673828125;6.09999998459898;611;100 mA
24.3316509385685;0.199981689453125;0.00190338134765625;6.10999998457373;612;100 mA
24.3416509385432;0.199981689453125;0.00187164306640625;6.11999998454849;613;100 mA
24.351650938518;0.199981689453125;0.00186920166015625;6.12999998452324;614;100 mA
24.3616509384927;0.199951171875;0.0019024658203125;6.13999998449799;615;100 mA
24.3716509384675;0.200042724609375;0.001883544921875;6.14999998447274;616;100 mA
24.3816509384422;0.199920654296875;0.00184112548828125;6.1599999844475;617;100 mA
24.391650938417;0.200042724609375;0.0018719482421875;6.16999998442225;618;100 mA
24.4016509383918;0.200042724609375;0.001910400390625;6.179999984397;619;100 mA
24.4116509383665;0.199951171875;0.00189422607421875;6.18999998437175;620;100 mA
24.4216509383413;0.199981689453125;0.00189849853515625;6.1999999843465;621;100 mA
24.431650938316;0.200042724609375;0.00193878173828125;6.20999998432126;622;100 mA
24.4416509382908;0.20001220703125;0.00189910888671875;6.21999998429601;623;100 mA
24.4516509382655;0.199920654296875;0.00185943603515625;6.22999998427076;624;100 mA
24.4616509382403;0.199981689453125;0.00189208984375;6.23999998424551;625;100 mA
24.471650938215;0.199981689453125;0.00189117431640625;6.24999998422027;626;100 mA
24.4816509381898;0.199951171875;0.0018634033203125;6.25999998419502;627;100 mA
24.4916509381645;0.199951171875;0.00186676025390625;6.26999998416977;628;100 mA
24.5016509381393;0.199981689453125;0.00190277099609375;6.27999998414452;629;100 mA
24.511650938114;0.199981689453125;0.001868896484375;6.28999998411928;630;100 mA
24.5216509380888;0.199951171875;0.00185638427734375;6.29999998409403;631;100 mA
24.5316509380635;0.20001220703125;0.001885986328125;6.30999998406878;632;100 mA
24.5416509380383;0.199981689453125;0.001885986328125;6.31999998404353;633;100 mA
24.551650938013;0.199981689453125;0.001842041015625;6.32999998401829;634;100 mA
24.5616509379878;0.199951171875;0.001861572265625;6.33999998399304;635;100 mA
24.5716509379625;0.20001220703125;0.00191253662109375;6.34999998396779;636;100 mA
24.5816509379373;0.200042724609375;0.00188995361328125;6.35999998394254;637;100 mA
24.591650937912;0.199951171875;0.001885986328125;6.3699999839173;638;100 mA
24.6016509378868;0.20001220703125;0.00191650390625;6.37999998389205;639;100 mA
24.6116509378616;0.199951171875;0.00190521240234375;6.3899999838668;640;100 mA
24.6216509378363;0.199951171875;0.00186309814453125;6.39999998384155;641;100 mA
24.6316509378111;0.20001220703125;0.00190704345703125;6.40999998381631;642;100 mA
24.6416509377858;0.199951171875;0.00192718505859375;6.41999998379106;643;100 mA
24.6516509377606;0.199951171875;0.00189483642578125;6.42999998376581;644;100 mA
24.6616509377353;0.199981689453125;0.0018743896484375;6.43999998374056;645;100 mA
24.6716509377101;0.20001220703125;0.00192230224609375;6.44999998371532;646;100 mA
24.6816509376848;0.199951171875;0.0019085693359375;6.45999998369007;647;100 mA
24.6916509376596;0.199951171875;0.0018939208984375;6.46999998366482;648;100 mA
24.7016509376343;0.199920654296875;0.00192047119140625;6.47999998363957;649;100 mA
24.7116509376091;0.20001220703125;0.0019232177734375;6.48999998361433;650;100 mA
24.7216509375838;0.20001220703125;0.001873779296875;6.49999998358908;651;100 mA
24.7316509375586;0.199981689453125;0.0018682861328125;6.50999998356383;652;100 mA
24.7416509375333;0.199981689453125;0.0018927001953125;6.51999998353858;653;100 mA
24.7516509375081;0.199951171875;0.00187408447265625;6.52999998351333;654;100 mA
24.7616509374828;0.20001220703125;0.00187530517578125;6.53999998348809;655;100 mA
24.7716509374576;0.20001220703125;0.001895751953125;6.54999998346284;656;100 mA
24.7816509374323;0.20001220703125;0.001905517578125;6.55999998343759;657;100 mA
24.7916509374071;0.199920654296875;0.00187652587890625;6.56999998341234;658;100 mA
24.8016509373819;0.20001220703125;0.00190216064453125;6.5799999833871;659;100 mA
24.8116509373566;0.20001220703125;0.001920166015625;6.58999998336185;660;100 mA
24.8216509373314;0.199951171875;0.00188140869140625;6.5999999833366;661;100 mA
24.8316509373061;0.199951171875;0.00186431884765625;6.60999998331135;662;100 mA
24.8416509372809;0.199951171875;0.001910400390625;6.61999998328611;663;100 mA
24.8516509372556;0.199981689453125;0.0018878173828125;6.62999998326086;664;100 mA
24.8616509372304;0.20001220703125;0.0018731689453125;6.63999998323561;665;100 mA
24.8716509372051;0.2000732421875;0.00190643310546875;6.64999998321036;666;100 mA
24.8816509371799;0.20001220703125;0.0019158935546875;6.65999998318512;667;100 mA
24.8916509371546;0.199920654296875;0.00185211181640625;6.66999998315987;668;100 mA
24.9016509371294;0.199981689453125;0.0018353271484375;6.67999998313462;669;100 mA
24.9116509371041;0.199951171875;0.00188262939453125;6.68999998310937;670;100 mA
24.9216509370789;0.20001220703125;0.001881103515625;6.69999998308413;671;100 mA
24.9316509370536;0.20001220703125;0.00185546875;6.70999998305888;672;100 mA
24.9416509370284;0.199920654296875;0.00188323974609375;6.71999998303363;673;100 mA
24.9516509370031;0.20001220703125;0.00190216064453125;6.72999998300838;674;100 mA
24.9616509369779;0.199951171875;0.00184356689453125;6.73999998298314;675;100 mA
24.9716509369526;0.199920654296875;0.00186553955078125;6.74999998295789;676;100 mA
24.9816509369274;0.199981689453125;0.001895751953125;6.75999998293264;677;100 mA
24.9916509369021;0.199920654296875;0.0018609619140625;6.76999998290739;678;100 mA
25.0016509368769;0.199981689453125;0.00182647705078125;6.77999998288215;679;100 mA
25.0116509368517;0.199951171875;0.00187744140625;6.7899999828569;680;100 mA
25.0216509368264;0.199981689453125;0.0018939208984375;6.79999998283165;681;100 mA
25.0316509368012;0.199981689453125;0.001876220703125;6.8099999828064;682;100 mA
25.0416509367759;0.199920654296875;0.0018878173828125;6.81999998278116;683;100 mA
25.0516509367507;0.199981689453125;0.001910400390625;6.82999998275591;684;100 mA
25.0616509367254;0.20001220703125;0.001851806640625;6.83999998273066;685;100 mA
25.0716509367002;0.199920654296875;0.00183807373046875;6.84999998270541;686;100 mA
25.0816509366749;0.20001220703125;0.00188232421875;6.85999998268016;687;100 mA
25.0916509366497;0.20001220703125;0.00186065673828125;6.86999998265492;688;100 mA
25.1016509366244;0.199981689453125;0.00182952880859375;6.87999998262967;689;100 mA
25.1116509365992;0.199981689453125;0.00185882568359375;6.88999998260442;690;100 mA
25.1216509365739;0.2000732421875;0.00188262939453125;6.89999998257917;691;100 mA
25.1316509365487;0.199920654296875;0.00185089111328125;6.90999998255393;692;100 mA
25.1416509365234;0.20001220703125;0.00186859130859375;6.91999998252868;693;100 mA
25.1516509364982;0.199981689453125;0.001910400390625;6.92999998250343;694;100 mA
25.1616509364729;0.199951171875;0.0018927001953125;6.93999998247818;695;100 mA
25.1716509364477;0.20001220703125;0.001854248046875;6.94999998245294;696;100 mA
25.1816509364224;0.199951171875;0.0019073486328125;6.95999998242769;697;100 mA
25.1916509363972;0.199981689453125;0.0019342041015625;6.96999998240244;698;100 mA
25.2016509363719;0.199920654296875;0.00190765380859375;6.97999998237719;699;100 mA
25.2116509363467;0.199920654296875;0.00190643310546875;6.98999998235195;700;100 mA
