Time (s);WE(1).Potential (V);WE(1).Current (A);Corrected time (s);Index;Current range
25.7268799350459;-0.69970703125;-0.316497802734375;0;1;100 mA
25.7368799350206;-0.69952392578125;-0.23504638671875;0.00999999997475243;2;100 mA
25.7468799349954;-0.699493408203125;-0.198272705078125;0.0199999999495049;3;100 mA
25.7568799349701;-0.699554443359375;-0.17724609375;0.0299999999242573;4;100 mA
25.7668799349449;-0.699615478515625;-0.163421630859375;0.0399999998990097;5;100 mA
25.7768799349196;-0.699615478515625;-0.15167236328125;0.0499999998737621;6;100 mA
25.7868799348944;-0.69952392578125;-0.14581298828125;0.0599999998485146;7;100 mA
25.7968799348691;-0.6995849609375;-0.14373779296875;0.069999999823267;8;100 mA
25.8068799348439;-0.699493408203125;-0.1387939453125;0.0799999997980194;9;100 mA
25.8168799348186;-0.699615478515625;-0.13543701171875;0.0899999997727718;10;100 mA
25.8268799347934;-0.6995849609375;-0.134613037109375;0.0999999997475243;11;100 mA
25.8368799347681;-0.699493408203125;-0.132049560546875;0.109999999722277;12;100 mA
25.8468799347429;-0.6995849609375;-0.128875732421875;0.119999999697029;13;100 mA
25.8568799347177;-0.699676513671875;-0.130615234375;0.129999999671782;14;100 mA
25.8668799346924;-0.6995849609375;-0.131317138671875;0.139999999646534;15;100 mA
25.8768799346672;-0.699554443359375;-0.1275634765625;0.149999999621286;16;100 mA
25.8868799346419;-0.69970703125;-0.1253662109375;0.159999999596039;17;100 mA
25.8968799346167;-0.6995849609375;-0.1285400390625;0.169999999570791;18;100 mA
25.9068799345914;-0.69964599609375;-0.12725830078125;0.179999999545544;19;100 mA
25.9168799345662;-0.699554443359375;-0.1268310546875;0.189999999520296;20;100 mA
25.9268799345409;-0.699554443359375;-0.127532958984375;0.199999999495049;21;100 mA
25.9368799345157;-0.699554443359375;-0.1282958984375;0.209999999469801;22;100 mA
25.9468799344904;-0.699554443359375;-0.1251220703125;0.219999999444553;23;100 mA
25.9568799344652;-0.699554443359375;-0.125396728515625;0.229999999419306;24;100 mA
25.9668799344399;-0.69952392578125;-0.128936767578125;0.239999999394058;25;100 mA
25.9768799344147;-0.699615478515625;-0.12762451171875;0.249999999368811;26;100 mA
25.9868799343894;-0.699615478515625;-0.1258544921875;0.259999999343563;27;100 mA
25.9968799343642;-0.699615478515625;-0.127838134765625;0.269999999318316;28;100 mA
26.0068799343389;-0.69964599609375;-0.128662109375;0.279999999293068;29;100 mA
26.0168799343137;-0.69964599609375;-0.125885009765625;0.28999999926782;30;100 mA
26.0268799342884;-0.69964599609375;-0.12664794921875;0.299999999242573;31;100 mA
26.0368799342632;-0.69964599609375;-0.128204345703125;0.309999999217325;32;100 mA
26.0468799342379;-0.699615478515625;-0.12615966796875;0.319999999192078;33;100 mA
26.0568799342127;-0.699615478515625;-0.124298095703125;0.32999999916683;34;100 mA
26.0668799341875;-0.6995849609375;-0.126861572265625;0.339999999141583;35;100 mA
26.0768799341622;-0.6995849609375;-0.1256103515625;0.349999999116335;36;100 mA
26.086879934137;-0.699676513671875;-0.125152587890625;0.359999999091087;37;100 mA
26.0968799341117;-0.69970703125;-0.12591552734375;0.36999999906584;38;100 mA
26.1068799340865;-0.699676513671875;-0.12786865234375;0.379999999040592;39;100 mA
26.1168799340612;-0.6995849609375;-0.12506103515625;0.389999999015345;40;100 mA
26.126879934036;-0.699676513671875;-0.124176025390625;0.399999998990097;41;100 mA
26.1368799340107;-0.699615478515625;-0.12652587890625;0.40999999896485;42;100 mA
26.1468799339855;-0.6995849609375;-0.12579345703125;0.419999998939602;43;100 mA
26.1568799339602;-0.69964599609375;-0.12359619140625;0.429999998914354;44;100 mA
26.166879933935;-0.699554443359375;-0.124267578125;0.439999998889107;45;100 mA
26.1768799339097;-0.699615478515625;-0.124847412109375;0.449999998863859;46;100 mA
26.1868799338845;-0.699676513671875;-0.122955322265625;0.459999998838612;47;100 mA
26.1968799338592;-0.6995849609375;-0.123046875;0.469999998813364;48;100 mA
26.206879933834;-0.69964599609375;-0.12420654296875;0.479999998788116;49;100 mA
26.2168799338087;-0.69964599609375;-0.122344970703125;0.489999998762869;50;100 mA
26.2268799337835;-0.699615478515625;-0.12005615234375;0.499999998737621;51;100 mA
26.2368799337582;-0.69964599609375;-0.123016357421875;0.509999998712374;52;100 mA
26.246879933733;-0.699615478515625;-0.124298095703125;0.519999998687126;53;100 mA
26.2568799337078;-0.69964599609375;-0.123779296875;0.529999998661879;54;100 mA
26.2668799336825;-0.69964599609375;-0.1239013671875;0.539999998636631;55;100 mA
26.2768799336573;-0.699615478515625;-0.1259765625;0.549999998611383;56;100 mA
26.286879933632;-0.69964599609375;-0.123382568359375;0.559999998586136;57;100 mA
26.2968799336068;-0.69964599609375;-0.122406005859375;0.569999998560888;58;100 mA
26.3068799335815;-0.6995849609375;-0.124420166015625;0.579999998535641;59;100 mA
26.3168799335563;-0.699554443359375;-0.124725341796875;0.589999998510393;60;100 mA
26.326879933531;-0.69964599609375;-0.123046875;0.599999998485146;61;100 mA
26.3368799335058;-0.699615478515625;-0.123382568359375;0.609999998459898;62;100 mA
26.3468799334805;-0.6995849609375;-0.12493896484375;0.61999999843465;63;100 mA
26.3568799334553;-0.699615478515625;-0.12322998046875;0.629999998409403;64;100 mA
26.36687993343;-0.69964599609375;-0.123199462890625;0.639999998384155;65;100 mA
26.3768799334048;-0.699615478515625;-0.12469482421875;0.649999998358908;66;100 mA
26.3868799333795;-0.699554443359375;-0.123809814453125;0.65999999833366;67;100 mA
26.3968799333543;-0.69970703125;-0.121368408203125;0.669999998308413;68;100 mA
26.406879933329;-0.6995849609375;-0.12347412109375;0.679999998283165;69;100 mA
26.4168799333038;-0.699615478515625;-0.124176025390625;0.689999998257917;70;100 mA
26.4268799332785;-0.699615478515625;-0.122833251953125;0.69999999823267;71;100 mA
26.4368799332533;-0.699554443359375;-0.122283935546875;0.709999998207422;72;100 mA
26.446879933228;-0.699615478515625;-0.1248779296875;0.719999998182175;73;100 mA
26.4568799332028;-0.69964599609375;-0.123748779296875;0.729999998156927;74;100 mA
26.4668799331776;-0.69964599609375;-0.1234130859375;0.73999999813168;75;100 mA
26.4768799331523;-0.69970703125;-0.1258544921875;0.749999998106432;76;100 mA
26.4868799331271;-0.69952392578125;-0.12652587890625;0.759999998081184;77;100 mA
26.4968799331018;-0.699676513671875;-0.123870849609375;0.769999998055937;78;100 mA
26.5068799330766;-0.6995849609375;-0.12310791015625;0.779999998030689;79;100 mA
26.5168799330513;-0.699554443359375;-0.125396728515625;0.789999998005442;80;100 mA
26.5268799330261;-0.6995849609375;-0.1236572265625;0.799999997980194;81;100 mA
26.5368799330008;-0.69964599609375;-0.1231689453125;0.809999997954947;82;100 mA
26.5468799329756;-0.69964599609375;-0.1241455078125;0.819999997929699;83;100 mA
26.5568799329503;-0.6995849609375;-0.123779296875;0.829999997904451;84;100 mA
26.5668799329251;-0.699676513671875;-0.1212158203125;0.839999997879204;85;100 mA
26.5768799328998;-0.699554443359375;-0.122406005859375;0.849999997853956;86;100 mA
26.5868799328746;-0.69964599609375;-0.122772216796875;0.859999997828709;87;100 mA
26.5968799328493;-0.6995849609375;-0.120819091796875;0.869999997803461;88;100 mA
26.6068799328241;-0.699615478515625;-0.11932373046875;0.879999997778214;89;100 mA
26.6168799327988;-0.699615478515625;-0.121826171875;0.889999997752966;90;100 mA
26.6268799327736;-0.6995849609375;-0.121185302734375;0.899999997727718;91;100 mA
26.6368799327483;-0.699615478515625;-0.120513916015625;0.909999997702471;92;100 mA
26.6468799327231;-0.699615478515625;-0.122772216796875;0.919999997677223;93;100 mA
26.6568799326978;-0.69964599609375;-0.12396240234375;0.929999997651976;94;100 mA
26.6668799326726;-0.69970703125;-0.1214599609375;0.939999997626728;95;100 mA
26.6768799326474;-0.6995849609375;-0.12060546875;0.949999997601481;96;100 mA
26.6868799326221;-0.69964599609375;-0.12396240234375;0.959999997576233;97;100 mA
26.6968799325969;-0.699676513671875;-0.122955322265625;0.969999997550985;98;100 mA
26.7068799325716;-0.69964599609375;-0.122802734375;0.979999997525738;99;100 mA
26.7168799325464;-0.6995849609375;-0.12353515625;0.98999999750049;100;100 mA
26.7268799325211;-0.69964599609375;-0.12347412109375;0.999999997475243;101;100 mA
26.7368799324959;-0.69964599609375;-0.11993408203125;1.00999999745;102;100 mA
26.7468799324706;-0.6995849609375;-0.121337890625;1.01999999742475;103;100 mA
26.7568799324454;-0.69964599609375;-0.123077392578125;1.0299999973995;104;100 mA
26.7668799324201;-0.699615478515625;-0.12176513671875;1.03999999737425;105;100 mA
26.7768799323949;-0.69964599609375;-0.1204833984375;1.049999997349;106;100 mA
26.7868799323696;-0.699615478515625;-0.1224365234375;1.05999999732376;107;100 mA
26.7968799323444;-0.699615478515625;-0.121795654296875;1.06999999729851;108;100 mA
26.8068799323191;-0.699676513671875;-0.119842529296875;1.07999999727326;109;100 mA
26.8168799322939;-0.6995849609375;-0.12017822265625;1.08999999724801;110;100 mA
26.8268799322686;-0.699615478515625;-0.121246337890625;1.09999999722277;111;100 mA
26.8368799322434;-0.699676513671875;-0.11865234375;1.10999999719752;112;100 mA
26.8468799322181;-0.69964599609375;-0.117340087890625;1.11999999717227;113;100 mA
26.8568799321929;-0.699615478515625;-0.120697021484375;1.12999999714702;114;100 mA
26.8668799321676;-0.69964599609375;-0.120391845703125;1.13999999712178;115;100 mA
26.8768799321424;-0.699615478515625;-0.1195068359375;1.14999999709653;116;100 mA
26.8868799321172;-0.699676513671875;-0.119659423828125;1.15999999707128;117;100 mA
26.8968799320919;-0.6995849609375;-0.120697021484375;1.16999999704603;118;100 mA
26.9068799320667;-0.699676513671875;-0.118499755859375;1.17999999702079;119;100 mA
26.9168799320414;-0.699615478515625;-0.119140625;1.18999999699554;120;100 mA
26.9268799320162;-0.6995849609375;-0.122039794921875;1.19999999697029;121;100 mA
26.9368799319909;-0.69964599609375;-0.121002197265625;1.20999999694504;122;100 mA
26.9468799319657;-0.69964599609375;-0.11822509765625;1.2199999969198;123;100 mA
26.9568799319404;-0.69964599609375;-0.11993408203125;1.22999999689455;124;100 mA
26.9668799319152;-0.699615478515625;-0.120574951171875;1.2399999968693;125;100 mA
26.9768799318899;-0.699676513671875;-0.119598388671875;1.24999999684405;126;100 mA
26.9868799318647;-0.699615478515625;-0.120147705078125;1.25999999681881;127;100 mA
26.9968799318394;-0.6995849609375;-0.121063232421875;1.26999999679356;128;100 mA
27.0068799318142;-0.69964599609375;-0.118896484375;1.27999999676831;129;100 mA
27.0168799317889;-0.699676513671875;-0.117584228515625;1.28999999674306;130;100 mA
27.0268799317637;-0.69964599609375;-0.12066650390625;1.29999999671782;131;100 mA
27.0368799317384;-0.6995849609375;-0.120819091796875;1.30999999669257;132;100 mA
27.0468799317132;-0.699676513671875;-0.11956787109375;1.31999999666732;133;100 mA
27.0568799316879;-0.699676513671875;-0.119354248046875;1.32999999664207;134;100 mA
27.0668799316627;-0.699615478515625;-0.121734619140625;1.33999999661683;135;100 mA
27.0768799316374;-0.699676513671875;-0.119659423828125;1.34999999659158;136;100 mA
27.0868799316122;-0.69964599609375;-0.11956787109375;1.35999999656633;137;100 mA
27.096879931587;-0.699615478515625;-0.122100830078125;1.36999999654108;138;100 mA
27.1068799315617;-0.69964599609375;-0.1220703125;1.37999999651583;139;100 mA
27.1168799315365;-0.699615478515625;-0.120361328125;1.38999999649059;140;100 mA
27.1268799315112;-0.699615478515625;-0.121734619140625;1.39999999646534;141;100 mA
27.136879931486;-0.6995849609375;-0.123077392578125;1.40999999644009;142;100 mA
27.1468799314607;-0.699676513671875;-0.1214599609375;1.41999999641484;143;100 mA
27.1568799314355;-0.6995849609375;-0.120391845703125;1.4299999963896;144;100 mA
27.1668799314102;-0.69964599609375;-0.121673583984375;1.43999999636435;145;100 mA
27.176879931385;-0.699615478515625;-0.119842529296875;1.4499999963391;146;100 mA
27.1868799313597;-0.69964599609375;-0.11810302734375;1.45999999631385;147;100 mA
27.1968799313345;-0.69964599609375;-0.1204833984375;1.46999999628861;148;100 mA
27.2068799313092;-0.699676513671875;-0.120758056640625;1.47999999626336;149;100 mA
27.216879931284;-0.699615478515625;-0.119293212890625;1.48999999623811;150;100 mA
27.2268799312587;-0.699676513671875;-0.11859130859375;1.49999999621286;151;100 mA
27.2368799312335;-0.699615478515625;-0.121124267578125;1.50999999618762;152;100 mA
27.2468799312082;-0.699615478515625;-0.120208740234375;1.51999999616237;153;100 mA
27.256879931183;-0.6995849609375;-0.11993408203125;1.52999999613712;154;100 mA
27.2668799311577;-0.69964599609375;-0.1209716796875;1.53999999611187;155;100 mA
27.2768799311325;-0.6995849609375;-0.120452880859375;1.54999999608663;156;100 mA
27.2868799311073;-0.69964599609375;-0.1177978515625;1.55999999606138;157;100 mA
27.296879931082;-0.69964599609375;-0.118194580078125;1.56999999603613;158;100 mA
27.3068799310568;-0.699615478515625;-0.120361328125;1.57999999601088;159;100 mA
27.3168799310315;-0.69964599609375;-0.120391845703125;1.58999999598564;160;100 mA
27.3268799310063;-0.69964599609375;-0.119903564453125;1.59999999596039;161;100 mA
27.336879930981;-0.6995849609375;-0.12103271484375;1.60999999593514;162;100 mA
27.3468799309558;-0.699615478515625;-0.12017822265625;1.61999999590989;163;100 mA
27.3568799309305;-0.699676513671875;-0.118133544921875;1.62999999588465;164;100 mA
27.3668799309053;-0.699615478515625;-0.120391845703125;1.6399999958594;165;100 mA
27.37687993088;-0.69964599609375;-0.121826171875;1.64999999583415;166;100 mA
27.3868799308548;-0.699676513671875;-0.1201171875;1.6599999958089;167;100 mA
27.3968799308295;-0.699554443359375;-0.1181640625;1.66999999578366;168;100 mA
27.4068799308043;-0.69964599609375;-0.120208740234375;1.67999999575841;169;100 mA
27.416879930779;-0.699615478515625;-0.11895751953125;1.68999999573316;170;100 mA
27.4268799307538;-0.69964599609375;-0.118804931640625;1.69999999570791;171;100 mA
27.4368799307285;-0.699615478515625;-0.12030029296875;1.70999999568267;172;100 mA
27.4468799307033;-0.69964599609375;-0.12091064453125;1.71999999565742;173;100 mA
27.456879930678;-0.699676513671875;-0.118682861328125;1.72999999563217;174;100 mA
27.4668799306528;-0.699676513671875;-0.11865234375;1.73999999560692;175;100 mA
27.4768799306275;-0.699615478515625;-0.12091064453125;1.74999999558167;176;100 mA
27.4868799306023;-0.699615478515625;-0.119781494140625;1.75999999555643;177;100 mA
27.4968799305771;-0.69964599609375;-0.1182861328125;1.76999999553118;178;100 mA
27.5068799305518;-0.69964599609375;-0.11883544921875;1.77999999550593;179;100 mA
27.5168799305266;-0.6995849609375;-0.118804931640625;1.78999999548068;180;100 mA
27.5268799305013;-0.69964599609375;-0.1171875;1.79999999545544;181;100 mA
27.5368799304761;-0.699676513671875;-0.11865234375;1.80999999543019;182;100 mA
27.5468799304508;-0.699615478515625;-0.120391845703125;1.81999999540494;183;100 mA
27.5568799304256;-0.699615478515625;-0.118896484375;1.82999999537969;184;100 mA
27.5668799304003;-0.699615478515625;-0.117218017578125;1.83999999535445;185;100 mA
27.5768799303751;-0.6995849609375;-0.11932373046875;1.8499999953292;186;100 mA
27.5868799303498;-0.6995849609375;-0.1190185546875;1.85999999530395;187;100 mA
27.5968799303246;-0.699615478515625;-0.1185302734375;1.8699999952787;188;100 mA
27.6068799302993;-0.69964599609375;-0.118804931640625;1.87999999525346;189;100 mA
27.6168799302741;-0.69964599609375;-0.119781494140625;1.88999999522821;190;100 mA
27.6268799302488;-0.69964599609375;-0.117218017578125;1.89999999520296;191;100 mA
27.6368799302236;-0.699615478515625;-0.11688232421875;1.90999999517771;192;100 mA
27.6468799301983;-0.699676513671875;-0.119781494140625;1.91999999515247;193;100 mA
27.6568799301731;-0.699676513671875;-0.118927001953125;1.92999999512722;194;100 mA
27.6668799301478;-0.6995849609375;-0.117523193359375;1.93999999510197;195;100 mA
27.6768799301226;-0.69970703125;-0.117645263671875;1.94999999507672;196;100 mA
27.6868799300973;-0.699615478515625;-0.118377685546875;1.95999999505148;197;100 mA
27.6968799300721;-0.69964599609375;-0.11651611328125;1.96999999502623;198;100 mA
27.7068799300469;-0.699615478515625;-0.116546630859375;1.97999999500098;199;100 mA
27.7168799300216;-0.699615478515625;-0.117584228515625;1.98999999497573;200;100 mA
27.7268799299964;-0.699615478515625;-0.116729736328125;1.99999999495049;201;100 mA
27.7368799299711;-0.69964599609375;-0.11505126953125;2.00999999492524;202;100 mA
27.7468799299459;-0.699676513671875;-0.117340087890625;2.01999999489999;203;100 mA
27.7568799299206;-0.6995849609375;-0.11822509765625;2.02999999487474;204;100 mA
27.7668799298954;-0.69964599609375;-0.117950439453125;2.0399999948495;205;100 mA
27.7768799298701;-0.69964599609375;-0.11761474609375;2.04999999482425;206;100 mA
27.7868799298449;-0.69964599609375;-0.118804931640625;2.059999994799;207;100 mA
27.7968799298196;-0.699615478515625;-0.116790771484375;2.06999999477375;208;100 mA
27.8068799297944;-0.699676513671875;-0.115692138671875;2.0799999947485;209;100 mA
27.8168799297691;-0.699615478515625;-0.11737060546875;2.08999999472326;210;100 mA
27.8268799297439;-0.69964599609375;-0.117034912109375;2.09999999469801;211;100 mA
27.8368799297186;-0.699615478515625;-0.115478515625;2.10999999467276;212;100 mA
27.8468799296934;-0.699676513671875;-0.115692138671875;2.11999999464751;213;100 mA
27.8568799296681;-0.699615478515625;-0.117340087890625;2.12999999462227;214;100 mA
27.8668799296429;-0.69964599609375;-0.1163330078125;2.13999999459702;215;100 mA
27.8768799296176;-0.699615478515625;-0.116455078125;2.14999999457177;216;100 mA
27.8868799295924;-0.69964599609375;-0.1175537109375;2.15999999454652;217;100 mA
27.8968799295671;-0.69964599609375;-0.11676025390625;2.16999999452128;218;100 mA
27.9068799295419;-0.69964599609375;-0.115020751953125;2.17999999449603;219;100 mA
27.9168799295167;-0.69970703125;-0.116943359375;2.18999999447078;220;100 mA
27.9268799294914;-0.69964599609375;-0.1177978515625;2.19999999444553;221;100 mA
27.9368799294662;-0.699615478515625;-0.11767578125;2.20999999442029;222;100 mA
27.9468799294409;-0.69970703125;-0.117218017578125;2.21999999439504;223;100 mA
27.9568799294157;-0.6995849609375;-0.118316650390625;2.22999999436979;224;100 mA
27.9668799293904;-0.699554443359375;-0.117095947265625;2.23999999434454;225;100 mA
27.9768799293652;-0.699615478515625;-0.1165771484375;2.2499999943193;226;100 mA
27.9868799293399;-0.6995849609375;-0.118743896484375;2.25999999429405;227;100 mA
27.9968799293147;-0.69964599609375;-0.118988037109375;2.2699999942688;228;100 mA
28.0068799292894;-0.69964599609375;-0.117095947265625;2.27999999424355;229;100 mA
28.0168799292642;-0.69964599609375;-0.11639404296875;2.28999999421831;230;100 mA
28.0268799292389;-0.69970703125;-0.11712646484375;2.29999999419306;231;100 mA
28.0368799292137;-0.6995849609375;-0.115478515625;2.30999999416781;232;100 mA
28.0468799291884;-0.6995849609375;-0.115234375;2.31999999414256;233;100 mA
28.0568799291632;-0.69964599609375;-0.1162109375;2.32999999411732;234;100 mA
28.0668799291379;-0.699615478515625;-0.11590576171875;2.33999999409207;235;100 mA
28.0768799291127;-0.69964599609375;-0.114288330078125;2.34999999406682;236;100 mA
28.0868799290874;-0.699615478515625;-0.11578369140625;2.35999999404157;237;100 mA
28.0968799290622;-0.69970703125;-0.11614990234375;2.36999999401633;238;100 mA
28.1068799290369;-0.699615478515625;-0.11529541015625;2.37999999399108;239;100 mA
28.1168799290117;-0.69964599609375;-0.114227294921875;2.38999999396583;240;100 mA
28.1268799289865;-0.699676513671875;-0.11529541015625;2.39999999394058;241;100 mA
28.1368799289612;-0.69964599609375;-0.114349365234375;2.40999999391533;242;100 mA
28.146879928936;-0.699676513671875;-0.113983154296875;2.41999999389009;243;100 mA
28.1568799289107;-0.69964599609375;-0.1156005859375;2.42999999386484;244;100 mA
28.1668799288855;-0.699676513671875;-0.11614990234375;2.43999999383959;245;100 mA
28.1768799288602;-0.699615478515625;-0.114837646484375;2.44999999381434;246;100 mA
28.186879928835;-0.699676513671875;-0.114501953125;2.4599999937891;247;100 mA
28.1968799288097;-0.699615478515625;-0.116241455078125;2.46999999376385;248;100 mA
28.2068799287845;-0.699615478515625;-0.115997314453125;2.4799999937386;249;100 mA
28.2168799287592;-0.699676513671875;-0.116241455078125;2.48999999371335;250;100 mA
28.226879928734;-0.69964599609375;-0.116424560546875;2.49999999368811;251;100 mA
28.2368799287087;-0.69964599609375;-0.11627197265625;2.50999999366286;252;100 mA
28.2468799286835;-0.699615478515625;-0.11431884765625;2.51999999363761;253;100 mA
28.2568799286582;-0.699615478515625;-0.114990234375;2.52999999361236;254;100 mA
28.266879928633;-0.699615478515625;-0.1160888671875;2.53999999358712;255;100 mA
28.2768799286077;-0.699615478515625;-0.11572265625;2.54999999356187;256;100 mA
28.2868799285825;-0.699615478515625;-0.1151123046875;2.55999999353662;257;100 mA
28.2968799285572;-0.69964599609375;-0.116485595703125;2.56999999351137;258;100 mA
28.306879928532;-0.69964599609375;-0.1165771484375;2.57999999348613;259;100 mA
28.3168799285068;-0.699676513671875;-0.116302490234375;2.58999999346088;260;100 mA
28.3268799284815;-0.699615478515625;-0.116485595703125;2.59999999343563;261;100 mA
28.3368799284563;-0.699615478515625;-0.1160888671875;2.60999999341038;262;100 mA
28.346879928431;-0.699676513671875;-0.114044189453125;2.61999999338514;263;100 mA
28.3568799284058;-0.699615478515625;-0.112945556640625;2.62999999335989;264;100 mA
28.3668799283805;-0.69964599609375;-0.114013671875;2.63999999333464;265;100 mA
28.3768799283553;-0.699676513671875;-0.11297607421875;2.64999999330939;266;100 mA
28.38687992833;-0.699615478515625;-0.113433837890625;2.65999999328415;267;100 mA
28.3968799283048;-0.6995849609375;-0.113922119140625;2.6699999932589;268;100 mA
28.4068799282795;-0.699615478515625;-0.11468505859375;2.67999999323365;269;100 mA
28.4168799282543;-0.699615478515625;-0.11346435546875;2.6899999932084;270;100 mA
28.426879928229;-0.6995849609375;-0.114044189453125;2.69999999318316;271;100 mA
28.4368799282038;-0.699615478515625;-0.115081787109375;2.70999999315791;272;100 mA
28.4468799281785;-0.699615478515625;-0.1141357421875;2.71999999313266;273;100 mA
28.4568799281533;-0.69964599609375;-0.11285400390625;2.72999999310741;274;100 mA
28.466879928128;-0.699615478515625;-0.1138916015625;2.73999999308217;275;100 mA
28.4768799281028;-0.699554443359375;-0.113922119140625;2.74999999305692;276;100 mA
28.4868799280775;-0.699615478515625;-0.11395263671875;2.75999999303167;277;100 mA
28.4968799280523;-0.69970703125;-0.1141357421875;2.76999999300642;278;100 mA
28.506879928027;-0.69964599609375;-0.114532470703125;2.77999999298117;279;100 mA
28.5168799280018;-0.699615478515625;-0.113311767578125;2.78999999295593;280;100 mA
28.5268799279766;-0.69964599609375;-0.1123046875;2.79999999293068;281;100 mA
28.5368799279513;-0.699615478515625;-0.11395263671875;2.80999999290543;282;100 mA
28.5468799279261;-0.699676513671875;-0.11322021484375;2.81999999288018;283;100 mA
28.5568799279008;-0.699676513671875;-0.112274169921875;2.82999999285494;284;100 mA
28.5668799278756;-0.699676513671875;-0.1119384765625;2.83999999282969;285;100 mA
28.5768799278503;-0.699615478515625;-0.11297607421875;2.84999999280444;286;100 mA
28.5868799278251;-0.69964599609375;-0.11199951171875;2.85999999277919;287;100 mA
28.5968799277998;-0.699676513671875;-0.112548828125;2.86999999275395;288;100 mA
28.6068799277746;-0.69964599609375;-0.114013671875;2.8799999927287;289;100 mA
28.6168799277493;-0.699554443359375;-0.113250732421875;2.88999999270345;290;100 mA
28.6268799277241;-0.699615478515625;-0.111785888671875;2.8999999926782;291;100 mA
28.6368799276988;-0.699615478515625;-0.1131591796875;2.90999999265296;292;100 mA
28.6468799276736;-0.699615478515625;-0.11407470703125;2.91999999262771;293;100 mA
28.6568799276483;-0.69970703125;-0.113616943359375;2.92999999260246;294;100 mA
28.6668799276231;-0.69964599609375;-0.113372802734375;2.93999999257721;295;100 mA
28.6768799275978;-0.69964599609375;-0.11395263671875;2.94999999255197;296;100 mA
28.6868799275726;-0.6995849609375;-0.112762451171875;2.95999999252672;297;100 mA
28.6968799275473;-0.69964599609375;-0.1119384765625;2.96999999250147;298;100 mA
28.7068799275221;-0.699676513671875;-0.11376953125;2.97999999247622;299;100 mA
28.7168799274968;-0.699615478515625;-0.113372802734375;2.98999999245098;300;100 mA
28.7268799274716;-0.69964599609375;-0.11297607421875;2.99999999242573;301;100 mA
28.7368799274464;-0.6995849609375;-0.112945556640625;3.00999999240048;302;100 mA
28.7468799274211;-0.69964599609375;-0.114471435546875;3.01999999237523;303;100 mA
28.7568799273959;-0.69970703125;-0.11419677734375;3.02999999234999;304;100 mA
28.7668799273706;-0.699676513671875;-0.115234375;3.03999999232474;305;100 mA
28.7768799273454;-0.699676513671875;-0.115997314453125;3.04999999229949;306;100 mA
28.7868799273201;-0.699615478515625;-0.1151123046875;3.05999999227424;307;100 mA
28.7968799272949;-0.69964599609375;-0.11285400390625;3.069999992249;308;100 mA
28.8068799272696;-0.69964599609375;-0.113128662109375;3.07999999222375;309;100 mA
28.8168799272444;-0.69964599609375;-0.114044189453125;3.0899999921985;310;100 mA
28.8268799272191;-0.699676513671875;-0.11328125;3.09999999217325;311;100 mA
28.8368799271939;-0.699615478515625;-0.112762451171875;3.109999992148;312;100 mA
28.8468799271686;-0.699676513671875;-0.113494873046875;3.11999999212276;313;100 mA
28.8568799271434;-0.69964599609375;-0.112884521484375;3.12999999209751;314;100 mA
28.8668799271181;-0.699676513671875;-0.111724853515625;3.13999999207226;315;100 mA
28.8768799270929;-0.699615478515625;-0.1131591796875;3.14999999204701;316;100 mA
28.8868799270676;-0.699615478515625;-0.11376953125;3.15999999202177;317;100 mA
28.8968799270424;-0.699676513671875;-0.11297607421875;3.16999999199652;318;100 mA
28.9068799270171;-0.699676513671875;-0.111785888671875;3.17999999197127;319;100 mA
28.9168799269919;-0.6995849609375;-0.113067626953125;3.18999999194602;320;100 mA
28.9268799269666;-0.699676513671875;-0.113037109375;3.19999999192078;321;100 mA
28.9368799269414;-0.69964599609375;-0.113677978515625;3.20999999189553;322;100 mA
28.9468799269162;-0.69964599609375;-0.115264892578125;3.21999999187028;323;100 mA
28.9568799268909;-0.6995849609375;-0.116241455078125;3.22999999184503;324;100 mA
28.9668799268657;-0.69964599609375;-0.114471435546875;3.23999999181979;325;100 mA
28.9768799268404;-0.69970703125;-0.114166259765625;3.24999999179454;326;100 mA
28.9868799268152;-0.699615478515625;-0.115142822265625;3.25999999176929;327;100 mA
28.9968799267899;-0.69964599609375;-0.114959716796875;3.26999999174404;328;100 mA
29.0068799267647;-0.699615478515625;-0.11492919921875;3.2799999917188;329;100 mA
29.0168799267394;-0.69964599609375;-0.115997314453125;3.28999999169355;330;100 mA
29.0268799267142;-0.699676513671875;-0.115264892578125;3.2999999916683;331;100 mA
29.0368799266889;-0.699676513671875;-0.113555908203125;3.30999999164305;332;100 mA
29.0468799266637;-0.69964599609375;-0.1142578125;3.31999999161781;333;100 mA
29.0568799266384;-0.69964599609375;-0.114898681640625;3.32999999159256;334;100 mA
29.0668799266132;-0.69964599609375;-0.114105224609375;3.33999999156731;335;100 mA
29.0768799265879;-0.699676513671875;-0.1131591796875;3.34999999154206;336;100 mA
29.0868799265627;-0.699676513671875;-0.1146240234375;3.35999999151682;337;100 mA
29.0968799265374;-0.69970703125;-0.114532470703125;3.36999999149157;338;100 mA
29.1068799265122;-0.699615478515625;-0.115203857421875;3.37999999146632;339;100 mA
29.1168799264869;-0.69964599609375;-0.115753173828125;3.38999999144107;340;100 mA
29.1268799264617;-0.699615478515625;-0.115753173828125;3.39999999141583;341;100 mA
29.1368799264364;-0.69970703125;-0.113922119140625;3.40999999139058;342;100 mA
29.1468799264112;-0.699615478515625;-0.11419677734375;3.41999999136533;343;100 mA
29.156879926386;-0.69964599609375;-0.1163330078125;3.42999999134008;344;100 mA
29.1668799263607;-0.69970703125;-0.115997314453125;3.43999999131483;345;100 mA
29.1768799263355;-0.69964599609375;-0.114715576171875;3.44999999128959;346;100 mA
29.1868799263102;-0.699676513671875;-0.1146240234375;3.45999999126434;347;100 mA
29.196879926285;-0.699554443359375;-0.1141357421875;3.46999999123909;348;100 mA
29.2068799262597;-0.699615478515625;-0.113006591796875;3.47999999121384;349;100 mA
29.2168799262345;-0.69964599609375;-0.11358642578125;3.4899999911886;350;100 mA
29.2268799262092;-0.69964599609375;-0.1141357421875;3.49999999116335;351;100 mA
29.236879926184;-0.699615478515625;-0.113311767578125;3.5099999911381;352;100 mA
29.2468799261587;-0.699676513671875;-0.112213134765625;3.51999999111285;353;100 mA
29.2568799261335;-0.699615478515625;-0.113616943359375;3.52999999108761;354;100 mA
29.2668799261082;-0.699615478515625;-0.1138916015625;3.53999999106236;355;100 mA
29.276879926083;-0.69970703125;-0.114227294921875;3.54999999103711;356;100 mA
29.2868799260577;-0.69970703125;-0.1141357421875;3.55999999101186;357;100 mA
29.2968799260325;-0.69964599609375;-0.114501953125;3.56999999098662;358;100 mA
29.3068799260072;-0.699737548828125;-0.113067626953125;3.57999999096137;359;100 mA
29.316879925982;-0.69970703125;-0.112762451171875;3.58999999093612;360;100 mA
29.3268799259567;-0.69964599609375;-0.1141357421875;3.59999999091087;361;100 mA
29.3368799259315;-0.69964599609375;-0.113922119140625;3.60999999088563;362;100 mA
29.3468799259063;-0.6995849609375;-0.113616943359375;3.61999999086038;363;100 mA
29.356879925881;-0.69964599609375;-0.114471435546875;3.62999999083513;364;100 mA
29.3668799258558;-0.699615478515625;-0.11541748046875;3.63999999080988;365;100 mA
29.3768799258305;-0.69964599609375;-0.115020751953125;3.64999999078464;366;100 mA
29.3868799258053;-0.6995849609375;-0.11517333984375;3.65999999075939;367;100 mA
29.39687992578;-0.699615478515625;-0.115875244140625;3.66999999073414;368;100 mA
29.4068799257548;-0.699615478515625;-0.11474609375;3.67999999070889;369;100 mA
29.4168799257295;-0.69964599609375;-0.113189697265625;3.68999999068365;370;100 mA
29.4268799257043;-0.699615478515625;-0.114501953125;3.6999999906584;371;100 mA
29.436879925679;-0.6995849609375;-0.1148681640625;3.70999999063315;372;100 mA
29.4468799256538;-0.69964599609375;-0.114990234375;3.7199999906079;373;100 mA
29.4568799256285;-0.69964599609375;-0.114776611328125;3.72999999058266;374;100 mA
29.4668799256033;-0.69964599609375;-0.1158447265625;3.73999999055741;375;100 mA
29.476879925578;-0.69964599609375;-0.11456298828125;3.74999999053216;376;100 mA
29.4868799255528;-0.69970703125;-0.11395263671875;3.75999999050691;377;100 mA
29.4968799255275;-0.69964599609375;-0.115386962890625;3.76999999048167;378;100 mA
29.5068799255023;-0.69964599609375;-0.115142822265625;3.77999999045642;379;100 mA
29.516879925477;-0.6995849609375;-0.11395263671875;3.78999999043117;380;100 mA
29.5268799254518;-0.699676513671875;-0.114105224609375;3.79999999040592;381;100 mA
29.5368799254265;-0.699615478515625;-0.114898681640625;3.80999999038067;382;100 mA
29.5468799254013;-0.69964599609375;-0.113983154296875;3.81999999035543;383;100 mA
29.5568799253761;-0.699676513671875;-0.114013671875;3.82999999033018;384;100 mA
29.5668799253508;-0.699615478515625;-0.114776611328125;3.83999999030493;385;100 mA
29.5768799253256;-0.69964599609375;-0.114105224609375;3.84999999027968;386;100 mA
29.5868799253003;-0.69964599609375;-0.1126708984375;3.85999999025444;387;100 mA
29.5968799252751;-0.699676513671875;-0.11376953125;3.86999999022919;388;100 mA
29.6068799252498;-0.699676513671875;-0.11419677734375;3.87999999020394;389;100 mA
29.6168799252246;-0.699676513671875;-0.113677978515625;3.88999999017869;390;100 mA
29.6268799251993;-0.69970703125;-0.112945556640625;3.89999999015345;391;100 mA
29.6368799251741;-0.69964599609375;-0.11444091796875;3.9099999901282;392;100 mA
29.6468799251488;-0.69964599609375;-0.11376953125;3.91999999010295;393;100 mA
29.6568799251236;-0.699615478515625;-0.11346435546875;3.9299999900777;394;100 mA
29.6668799250983;-0.699615478515625;-0.114776611328125;3.93999999005246;395;100 mA
29.6768799250731;-0.699676513671875;-0.115386962890625;3.94999999002721;396;100 mA
29.6868799250478;-0.69964599609375;-0.114044189453125;3.95999999000196;397;100 mA
29.6968799250226;-0.69964599609375;-0.11370849609375;3.96999998997671;398;100 mA
29.7068799249973;-0.699615478515625;-0.114837646484375;3.97999998995147;399;100 mA
29.7168799249721;-0.699615478515625;-0.11419677734375;3.98999998992622;400;100 mA
29.7268799249468;-0.699615478515625;-0.11407470703125;3.99999998990097;401;100 mA
29.7368799249216;-0.69964599609375;-0.114501953125;4.00999998987572;402;100 mA
29.7468799248963;-0.699676513671875;-0.11480712890625;4.01999998985048;403;100 mA
29.7568799248711;-0.699615478515625;-0.1136474609375;4.02999998982523;404;100 mA
29.7668799248459;-0.699615478515625;-0.11407470703125;4.03999998979998;405;100 mA
29.7768799248206;-0.69964599609375;-0.1148681640625;4.04999998977473;406;100 mA
29.7868799247954;-0.699676513671875;-0.114166259765625;4.05999998974949;407;100 mA
29.7968799247701;-0.69970703125;-0.11309814453125;4.06999998972424;408;100 mA
29.8068799247449;-0.69964599609375;-0.11456298828125;4.07999998969899;409;100 mA
29.8168799247196;-0.699615478515625;-0.11383056640625;4.08999998967374;410;100 mA
29.8268799246944;-0.69964599609375;-0.113189697265625;4.0999999896485;411;100 mA
29.8368799246691;-0.699676513671875;-0.1138916015625;4.10999998962325;412;100 mA
29.8468799246439;-0.69964599609375;-0.113983154296875;4.119999989598;413;100 mA
29.8568799246186;-0.699676513671875;-0.112152099609375;4.12999998957275;414;100 mA
29.8668799245934;-0.69970703125;-0.111602783203125;4.1399999895475;415;100 mA
29.8768799245681;-0.69964599609375;-0.1134033203125;4.14999998952226;416;100 mA
29.8868799245429;-0.699676513671875;-0.113128662109375;4.15999998949701;417;100 mA
29.8968799245176;-0.6995849609375;-0.1131591796875;4.16999998947176;418;100 mA
29.9068799244924;-0.69964599609375;-0.113739013671875;4.17999998944651;419;100 mA
29.9168799244671;-0.699615478515625;-0.114044189453125;4.18999998942127;420;100 mA
29.9268799244419;-0.699676513671875;-0.112152099609375;4.19999998939602;421;100 mA
29.9368799244166;-0.69964599609375;-0.1121826171875;4.20999998937077;422;100 mA
29.9468799243914;-0.69964599609375;-0.113433837890625;4.21999998934552;423;100 mA
29.9568799243661;-0.69964599609375;-0.112548828125;4.22999998932028;424;100 mA
29.9668799243409;-0.69964599609375;-0.111236572265625;4.23999998929503;425;100 mA
29.9768799243157;-0.69964599609375;-0.112548828125;4.24999998926978;426;100 mA
29.9868799242904;-0.69970703125;-0.112274169921875;4.25999998924453;427;100 mA
29.9968799242652;-0.69970703125;-0.111572265625;4.26999998921929;428;100 mA
30.0068799242399;-0.69964599609375;-0.111785888671875;4.27999998919404;429;100 mA
30.0168799242147;-0.69964599609375;-0.113037109375;4.28999998916879;430;100 mA
30.0268799241894;-0.699676513671875;-0.111724853515625;4.29999998914354;431;100 mA
30.0368799241642;-0.699676513671875;-0.11065673828125;4.3099999891183;432;100 mA
30.0468799241389;-0.699676513671875;-0.112091064453125;4.31999998909305;433;100 mA
30.0568799241137;-0.699676513671875;-0.111846923828125;4.3299999890678;434;100 mA
30.0668799240884;-0.69964599609375;-0.111602783203125;4.33999998904255;435;100 mA
30.0768799240632;-0.69970703125;-0.11175537109375;4.34999998901731;436;100 mA
30.0868799240379;-0.69964599609375;-0.112701416015625;4.35999998899206;437;100 mA
30.0968799240127;-0.69964599609375;-0.111724853515625;4.36999998896681;438;100 mA
30.1068799239874;-0.699615478515625;-0.1119384765625;4.37999998894156;439;100 mA
30.1168799239622;-0.699615478515625;-0.11309814453125;4.38999998891632;440;100 mA
30.1268799239369;-0.699615478515625;-0.11236572265625;4.39999998889107;441;100 mA
30.1368799239117;-0.699615478515625;-0.111328125;4.40999998886582;442;100 mA
30.1468799238864;-0.699615478515625;-0.112701416015625;4.41999998884057;443;100 mA
30.1568799238612;-0.699615478515625;-0.11297607421875;4.42999998881533;444;100 mA
30.1668799238359;-0.699615478515625;-0.1126708984375;4.43999998879008;445;100 mA
30.1768799238107;-0.699554443359375;-0.113037109375;4.44999998876483;446;100 mA
30.1868799237855;-0.699676513671875;-0.114654541015625;4.45999998873958;447;100 mA
30.1968799237602;-0.699615478515625;-0.11383056640625;4.46999998871433;448;100 mA
30.206879923735;-0.699615478515625;-0.112762451171875;4.47999998868909;449;100 mA
30.2168799237097;-0.69964599609375;-0.11407470703125;4.48999998866384;450;100 mA
30.2268799236845;-0.6995849609375;-0.11407470703125;4.49999998863859;451;100 mA
30.2368799236592;-0.69964599609375;-0.11297607421875;4.50999998861334;452;100 mA
30.246879923634;-0.699676513671875;-0.11236572265625;4.5199999885881;453;100 mA
30.2568799236087;-0.699615478515625;-0.11358642578125;4.52999998856285;454;100 mA
30.2668799235835;-0.69964599609375;-0.112518310546875;4.5399999885376;455;100 mA
30.2768799235582;-0.69964599609375;-0.112579345703125;4.54999998851235;456;100 mA
30.286879923533;-0.69964599609375;-0.114044189453125;4.55999998848711;457;100 mA
30.2968799235077;-0.699615478515625;-0.113677978515625;4.56999998846186;458;100 mA
30.3068799234825;-0.699676513671875;-0.111602783203125;4.57999998843661;459;100 mA
30.3168799234572;-0.699676513671875;-0.112457275390625;4.58999998841136;460;100 mA
30.326879923432;-0.699676513671875;-0.11346435546875;4.59999998838612;461;100 mA
30.3368799234067;-0.69970703125;-0.1131591796875;4.60999998836087;462;100 mA
30.3468799233815;-0.699676513671875;-0.112823486328125;4.61999998833562;463;100 mA
30.3568799233562;-0.69964599609375;-0.113494873046875;4.62999998831037;464;100 mA
30.366879923331;-0.699676513671875;-0.1124267578125;4.63999998828513;465;100 mA
30.3768799233058;-0.6995849609375;-0.111419677734375;4.64999998825988;466;100 mA
30.3868799232805;-0.69964599609375;-0.112548828125;4.65999998823463;467;100 mA
30.3968799232553;-0.699676513671875;-0.112579345703125;4.66999998820938;468;100 mA
30.40687992323;-0.69970703125;-0.111724853515625;4.67999998818414;469;100 mA
30.4168799232048;-0.69970703125;-0.11102294921875;4.68999998815889;470;100 mA
30.4268799231795;-0.699676513671875;-0.112274169921875;4.69999998813364;471;100 mA
30.4368799231543;-0.69964599609375;-0.11138916015625;4.70999998810839;472;100 mA
30.446879923129;-0.699615478515625;-0.11126708984375;4.71999998808315;473;100 mA
30.4568799231038;-0.699615478515625;-0.112152099609375;4.7299999880579;474;100 mA
30.4668799230785;-0.69964599609375;-0.11181640625;4.73999998803265;475;100 mA
30.4768799230533;-0.69970703125;-0.10986328125;4.7499999880074;476;100 mA
30.486879923028;-0.69970703125;-0.11004638671875;4.75999998798216;477;100 mA
30.4968799230028;-0.699676513671875;-0.11114501953125;4.76999998795691;478;100 mA
30.5068799229775;-0.699737548828125;-0.11065673828125;4.77999998793166;479;100 mA
30.5168799229523;-0.69964599609375;-0.110107421875;4.78999998790641;480;100 mA
30.526879922927;-0.69964599609375;-0.110595703125;4.79999998788116;481;100 mA
30.5368799229018;-0.69964599609375;-0.1104736328125;4.80999998785592;482;100 mA
30.5468799228765;-0.69964599609375;-0.109649658203125;4.81999998783067;483;100 mA
30.5568799228513;-0.69970703125;-0.110321044921875;4.82999998780542;484;100 mA
30.566879922826;-0.699676513671875;-0.11083984375;4.83999998778017;485;100 mA
30.5768799228008;-0.69964599609375;-0.1102294921875;4.84999998775493;486;100 mA
30.5868799227756;-0.699615478515625;-0.10943603515625;4.85999998772968;487;100 mA
30.5968799227503;-0.699615478515625;-0.110748291015625;4.86999998770443;488;100 mA
30.6068799227251;-0.699676513671875;-0.11029052734375;4.87999998767918;489;100 mA
30.6168799226998;-0.69970703125;-0.110260009765625;4.88999998765394;490;100 mA
30.6268799226746;-0.699676513671875;-0.110198974609375;4.89999998762869;491;100 mA
30.6368799226493;-0.6995849609375;-0.109649658203125;4.90999998760344;492;100 mA
30.6468799226241;-0.69970703125;-0.10797119140625;4.91999998757819;493;100 mA
30.6568799225988;-0.699676513671875;-0.107818603515625;4.92999998755295;494;100 mA
30.6668799225736;-0.69964599609375;-0.108428955078125;4.9399999875277;495;100 mA
30.6768799225483;-0.699615478515625;-0.10784912109375;4.94999998750245;496;100 mA
30.6868799225231;-0.699615478515625;-0.10772705078125;4.9599999874772;497;100 mA
30.6968799224978;-0.699615478515625;-0.10845947265625;4.96999998745196;498;100 mA
30.7068799224726;-0.69964599609375;-0.1083984375;4.97999998742671;499;100 mA
30.7168799224473;-0.69970703125;-0.1075439453125;4.98999998740146;500;100 mA
30.7268799224221;-0.699676513671875;-0.108123779296875;4.99999998737621;501;100 mA
30.7368799223968;-0.699615478515625;-0.108642578125;5.00999998735097;502;100 mA
30.7468799223716;-0.699615478515625;-0.107757568359375;5.01999998732572;503;100 mA
30.7568799223463;-0.699676513671875;-0.1070556640625;5.02999998730047;504;100 mA
30.7668799223211;-0.699676513671875;-0.1083984375;5.03999998727522;505;100 mA
30.7768799222958;-0.699615478515625;-0.10791015625;5.04999998724998;506;100 mA
30.7868799222706;-0.699615478515625;-0.1077880859375;5.05999998722473;507;100 mA
30.7968799222454;-0.699615478515625;-0.10809326171875;5.06999998719948;508;100 mA
30.8068799222201;-0.699615478515625;-0.1083984375;5.07999998717423;509;100 mA
30.8168799221949;-0.699676513671875;-0.107208251953125;5.08999998714899;510;100 mA
30.8268799221696;-0.699615478515625;-0.107391357421875;5.09999998712374;511;100 mA
30.8368799221444;-0.699615478515625;-0.108795166015625;5.10999998709849;512;100 mA
30.8468799221191;-0.6995849609375;-0.108551025390625;5.11999998707324;513;100 mA
30.8568799220939;-0.699615478515625;-0.107757568359375;5.129999987048;514;100 mA
30.8668799220686;-0.699737548828125;-0.107940673828125;5.13999998702275;515;100 mA
30.8768799220434;-0.699554443359375;-0.10784912109375;5.1499999869975;516;100 mA
30.8868799220181;-0.699676513671875;-0.107421875;5.15999998697225;517;100 mA
30.8968799219929;-0.699615478515625;-0.10833740234375;5.169999986947;518;100 mA
30.9068799219676;-0.699615478515625;-0.109405517578125;5.17999998692176;519;100 mA
30.9168799219424;-0.69964599609375;-0.108551025390625;5.18999998689651;520;100 mA
30.9268799219171;-0.699676513671875;-0.107452392578125;5.19999998687126;521;100 mA
30.9368799218919;-0.69964599609375;-0.108428955078125;5.20999998684601;522;100 mA
30.9468799218666;-0.699615478515625;-0.10784912109375;5.21999998682077;523;100 mA
30.9568799218414;-0.699676513671875;-0.107757568359375;5.22999998679552;524;100 mA
30.9668799218161;-0.69964599609375;-0.10748291015625;5.23999998677027;525;100 mA
30.9768799217909;-0.69970703125;-0.10784912109375;5.24999998674502;526;100 mA
30.9868799217656;-0.699676513671875;-0.10638427734375;5.25999998671978;527;100 mA
30.9968799217404;-0.69964599609375;-0.1063232421875;5.26999998669453;528;100 mA
31.0068799217152;-0.699615478515625;-0.107177734375;5.27999998666928;529;100 mA
31.0168799216899;-0.699676513671875;-0.10675048828125;5.28999998664403;530;100 mA
31.0268799216647;-0.699676513671875;-0.105987548828125;5.29999998661879;531;100 mA
31.0368799216394;-0.69964599609375;-0.10626220703125;5.30999998659354;532;100 mA
31.0468799216142;-0.699676513671875;-0.106689453125;5.31999998656829;533;100 mA
31.0568799215889;-0.69964599609375;-0.106201171875;5.32999998654304;534;100 mA
31.0668799215637;-0.699676513671875;-0.106414794921875;5.3399999865178;535;100 mA
31.0768799215384;-0.699615478515625;-0.107147216796875;5.34999998649255;536;100 mA
31.0868799215132;-0.699615478515625;-0.106353759765625;5.3599999864673;537;100 mA
31.0968799214879;-0.699615478515625;-0.105316162109375;5.36999998644205;538;100 mA
31.1068799214627;-0.69964599609375;-0.10662841796875;5.37999998641681;539;100 mA
31.1168799214374;-0.69964599609375;-0.107147216796875;5.38999998639156;540;100 mA
31.1268799214122;-0.699615478515625;-0.1070556640625;5.39999998636631;541;100 mA
31.1368799213869;-0.69970703125;-0.10693359375;5.40999998634106;542;100 mA
31.1468799213617;-0.69964599609375;-0.1080322265625;5.41999998631582;543;100 mA
31.1568799213364;-0.69964599609375;-0.107086181640625;5.42999998629057;544;100 mA
31.1668799213112;-0.699676513671875;-0.10693359375;5.43999998626532;545;100 mA
31.1768799212859;-0.6995849609375;-0.107940673828125;5.44999998624007;546;100 mA
31.1868799212607;-0.69964599609375;-0.107666015625;5.45999998621483;547;100 mA
31.1968799212354;-0.69970703125;-0.106658935546875;5.46999998618958;548;100 mA
31.2068799212102;-0.699676513671875;-0.10675048828125;5.47999998616433;549;100 mA
31.216879921185;-0.699615478515625;-0.1075439453125;5.48999998613908;550;100 mA
31.2268799211597;-0.69964599609375;-0.10723876953125;5.49999998611383;551;100 mA
31.2368799211345;-0.699615478515625;-0.107269287109375;5.50999998608859;552;100 mA
31.2468799211092;-0.699676513671875;-0.1077880859375;5.51999998606334;553;100 mA
31.256879921084;-0.69964599609375;-0.1072998046875;5.52999998603809;554;100 mA
31.2668799210587;-0.699676513671875;-0.106658935546875;5.53999998601284;555;100 mA
31.2768799210335;-0.69964599609375;-0.10772705078125;5.5499999859876;556;100 mA
31.2868799210082;-0.69964599609375;-0.108367919921875;5.55999998596235;557;100 mA
31.296879920983;-0.69964599609375;-0.1082763671875;5.5699999859371;558;100 mA
31.3068799209577;-0.69964599609375;-0.10809326171875;5.57999998591185;559;100 mA
31.3168799209325;-0.69964599609375;-0.1090087890625;5.58999998588661;560;100 mA
31.3268799209072;-0.699676513671875;-0.108245849609375;5.59999998586136;561;100 mA
31.336879920882;-0.69970703125;-0.108306884765625;5.60999998583611;562;100 mA
31.3468799208567;-0.699615478515625;-0.109161376953125;5.61999998581086;563;100 mA
31.3568799208315;-0.699615478515625;-0.109344482421875;5.62999998578562;564;100 mA
31.3668799208062;-0.69964599609375;-0.1082763671875;5.63999998576037;565;100 mA
31.376879920781;-0.699676513671875;-0.107879638671875;5.64999998573512;566;100 mA
31.3868799207557;-0.69970703125;-0.10888671875;5.65999998570987;567;100 mA
31.3968799207305;-0.6995849609375;-0.108642578125;5.66999998568463;568;100 mA
31.4068799207053;-0.699676513671875;-0.10882568359375;5.67999998565938;569;100 mA
31.41687992068;-0.699615478515625;-0.108917236328125;5.68999998563413;570;100 mA
31.4268799206548;-0.699676513671875;-0.108642578125;5.69999998560888;571;100 mA
31.4368799206295;-0.69970703125;-0.10748291015625;5.70999998558364;572;100 mA
31.4468799206043;-0.699615478515625;-0.107757568359375;5.71999998555839;573;100 mA
31.456879920579;-0.69970703125;-0.1077880859375;5.72999998553314;574;100 mA
31.4668799205538;-0.69964599609375;-0.10675048828125;5.73999998550789;575;100 mA
31.4768799205285;-0.69964599609375;-0.10589599609375;5.74999998548265;576;100 mA
31.4868799205033;-0.699615478515625;-0.107208251953125;5.7599999854574;577;100 mA
31.496879920478;-0.699676513671875;-0.1072998046875;5.76999998543215;578;100 mA
31.5068799204528;-0.69964599609375;-0.107513427734375;5.7799999854069;579;100 mA
31.5168799204275;-0.69964599609375;-0.1077880859375;5.78999998538166;580;100 mA
31.5268799204023;-0.699615478515625;-0.108367919921875;5.79999998535641;581;100 mA
31.536879920377;-0.69964599609375;-0.107879638671875;5.80999998533116;582;100 mA
31.5468799203518;-0.6995849609375;-0.107421875;5.81999998530591;583;100 mA
31.5568799203265;-0.69964599609375;-0.10882568359375;5.82999998528066;584;100 mA
31.5668799203013;-0.699676513671875;-0.10888671875;5.83999998525542;585;100 mA
31.576879920276;-0.69964599609375;-0.10882568359375;5.84999998523017;586;100 mA
31.5868799202508;-0.69964599609375;-0.108795166015625;5.85999998520492;587;100 mA
31.5968799202255;-0.69964599609375;-0.108917236328125;5.86999998517967;588;100 mA
31.6068799202003;-0.699676513671875;-0.10797119140625;5.87999998515443;589;100 mA
31.6168799201751;-0.699676513671875;-0.108184814453125;5.88999998512918;590;100 mA
31.6268799201498;-0.699615478515625;-0.108428955078125;5.89999998510393;591;100 mA
31.6368799201246;-0.69964599609375;-0.107452392578125;5.90999998507868;592;100 mA
31.6468799200993;-0.69970703125;-0.10662841796875;5.91999998505344;593;100 mA
31.6568799200741;-0.69964599609375;-0.10772705078125;5.92999998502819;594;100 mA
31.6668799200488;-0.699615478515625;-0.10797119140625;5.93999998500294;595;100 mA
31.6768799200236;-0.69964599609375;-0.108001708984375;5.94999998497769;596;100 mA
31.6868799199983;-0.69964599609375;-0.108367919921875;5.95999998495245;597;100 mA
31.6968799199731;-0.699676513671875;-0.109344482421875;5.9699999849272;598;100 mA
31.7068799199478;-0.699615478515625;-0.108184814453125;5.97999998490195;599;100 mA
31.7168799199226;-0.69964599609375;-0.107391357421875;5.9899999848767;600;100 mA
31.7268799198973;-0.699676513671875;-0.10858154296875;5.99999998485146;601;100 mA
31.7368799198721;-0.69976806640625;-0.108642578125;6.00999998482621;602;100 mA
31.7468799198468;-0.69964599609375;-0.10845947265625;6.01999998480096;603;100 mA
31.7568799198216;-0.699676513671875;-0.10821533203125;6.02999998477571;604;100 mA
31.7668799197963;-0.699676513671875;-0.1083984375;6.03999998475047;605;100 mA
31.7768799197711;-0.69964599609375;-0.1075439453125;6.04999998472522;606;100 mA
31.7868799197458;-0.69964599609375;-0.107818603515625;6.05999998469997;607;100 mA
31.7968799197206;-0.69964599609375;-0.108184814453125;6.06999998467472;608;100 mA
31.8068799196953;-0.69970703125;-0.10711669921875;6.07999998464948;609;100 mA
31.8168799196701;-0.699676513671875;-0.105865478515625;6.08999998462423;610;100 mA
31.8268799196449;-0.69964599609375;-0.106536865234375;6.09999998459898;611;100 mA
31.8368799196196;-0.69964599609375;-0.107086181640625;6.10999998457373;612;100 mA
31.8468799195944;-0.69964599609375;-0.107574462890625;6.11999998454849;613;100 mA
31.8568799195691;-0.69964599609375;-0.107696533203125;6.12999998452324;614;100 mA
31.8668799195439;-0.69970703125;-0.108245849609375;6.13999998449799;615;100 mA
31.8768799195186;-0.69964599609375;-0.107025146484375;6.14999998447274;616;100 mA
31.8868799194934;-0.699615478515625;-0.106475830078125;6.1599999844475;617;100 mA
31.8968799194681;-0.69964599609375;-0.10723876953125;6.16999998442225;618;100 mA
31.9068799194429;-0.699676513671875;-0.10693359375;6.179999984397;619;100 mA
31.9168799194176;-0.69964599609375;-0.106536865234375;6.18999998437175;620;100 mA
31.9268799193924;-0.69964599609375;-0.106536865234375;6.1999999843465;621;100 mA
31.9368799193671;-0.699676513671875;-0.107421875;6.20999998432126;622;100 mA
31.9468799193419;-0.699676513671875;-0.106719970703125;6.21999998429601;623;100 mA
31.9568799193166;-0.699676513671875;-0.10699462890625;6.22999998427076;624;100 mA
31.9668799192914;-0.69964599609375;-0.108062744140625;6.23999998424551;625;100 mA
31.9768799192661;-0.699676513671875;-0.1080322265625;6.24999998422027;626;100 mA
31.9868799192409;-0.699676513671875;-0.107330322265625;6.25999998419502;627;100 mA
31.9968799192156;-0.699676513671875;-0.107757568359375;6.26999998416977;628;100 mA
32.0068799191904;-0.69970703125;-0.108001708984375;6.27999998414452;629;100 mA
32.0168799191651;-0.699676513671875;-0.108001708984375;6.28999998411928;630;100 mA
32.0268799191399;-0.699676513671875;-0.10760498046875;6.29999998409403;631;100 mA
32.0368799191147;-0.69964599609375;-0.108428955078125;6.30999998406878;632;100 mA
32.0468799190894;-0.699615478515625;-0.108062744140625;6.31999998404353;633;100 mA
32.0568799190642;-0.69970703125;-0.107574462890625;6.32999998401829;634;100 mA
32.0668799190389;-0.69964599609375;-0.10784912109375;6.33999998399304;635;100 mA
32.0768799190137;-0.69964599609375;-0.107452392578125;6.34999998396779;636;100 mA
32.0868799189884;-0.69964599609375;-0.10662841796875;6.35999998394254;637;100 mA
32.0968799189632;-0.69970703125;-0.106170654296875;6.3699999839173;638;100 mA
32.1068799189379;-0.69970703125;-0.106964111328125;6.37999998389205;639;100 mA
32.1168799189127;-0.699615478515625;-0.106353759765625;6.3899999838668;640;100 mA
32.1268799188874;-0.699615478515625;-0.106536865234375;6.39999998384155;641;100 mA
32.1368799188622;-0.699676513671875;-0.10699462890625;6.40999998381631;642;100 mA
32.1468799188369;-0.699615478515625;-0.10687255859375;6.41999998379106;643;100 mA
32.1568799188117;-0.699676513671875;-0.105712890625;6.42999998376581;644;100 mA
32.1668799187864;-0.699676513671875;-0.105926513671875;6.43999998374056;645;100 mA
32.1768799187612;-0.69964599609375;-0.106475830078125;6.44999998371532;646;100 mA
32.1868799187359;-0.69964599609375;-0.106475830078125;6.45999998369007;647;100 mA
32.1968799187107;-0.699676513671875;-0.106597900390625;6.46999998366482;648;100 mA
32.2068799186854;-0.699615478515625;-0.107421875;6.47999998363957;649;100 mA
32.2168799186602;-0.69976806640625;-0.10693359375;6.48999998361433;650;100 mA
32.2268799186349;-0.69964599609375;-0.106414794921875;6.49999998358908;651;100 mA
32.2368799186097;-0.69964599609375;-0.10723876953125;6.50999998356383;652;100 mA
32.2468799185845;-0.69964599609375;-0.107879638671875;6.51999998353858;653;100 mA
32.2568799185592;-0.699676513671875;-0.10723876953125;6.52999998351333;654;100 mA
32.266879918534;-0.69964599609375;-0.10650634765625;6.53999998348809;655;100 mA
32.2768799185087;-0.69964599609375;-0.1072998046875;6.54999998346284;656;100 mA
32.2868799184835;-0.69964599609375;-0.107086181640625;6.55999998343759;657;100 mA
32.2968799184582;-0.699615478515625;-0.107421875;6.56999998341234;658;100 mA
32.306879918433;-0.699676513671875;-0.10760498046875;6.5799999833871;659;100 mA
32.3168799184077;-0.6995849609375;-0.107757568359375;6.58999998336185;660;100 mA
32.3268799183825;-0.699676513671875;-0.106109619140625;6.5999999833366;661;100 mA
32.3368799183572;-0.699676513671875;-0.10595703125;6.60999998331135;662;100 mA
32.346879918332;-0.699615478515625;-0.106597900390625;6.61999998328611;663;100 mA
32.3568799183067;-0.699615478515625;-0.1060791015625;6.62999998326086;664;100 mA
32.3668799182815;-0.69964599609375;-0.105377197265625;6.63999998323561;665;100 mA
32.3768799182562;-0.69964599609375;-0.1058349609375;6.64999998321036;666;100 mA
32.386879918231;-0.69970703125;-0.1055908203125;6.65999998318512;667;100 mA
32.3968799182057;-0.699615478515625;-0.105316162109375;6.66999998315987;668;100 mA
32.4068799181805;-0.69964599609375;-0.105682373046875;6.67999998313462;669;100 mA
32.4168799181552;-0.69964599609375;-0.106170654296875;6.68999998310937;670;100 mA
32.42687991813;-0.699676513671875;-0.105377197265625;6.69999998308413;671;100 mA
32.4368799181048;-0.69964599609375;-0.104522705078125;6.70999998305888;672;100 mA
32.4468799180795;-0.699615478515625;-0.105255126953125;6.71999998303363;673;100 mA
32.4568799180543;-0.699676513671875;-0.10516357421875;6.72999998300838;674;100 mA
32.466879918029;-0.69964599609375;-0.10595703125;6.73999998298314;675;100 mA
32.4768799180038;-0.699737548828125;-0.106201171875;6.74999998295789;676;100 mA
32.4868799179785;-0.69970703125;-0.1068115234375;6.75999998293264;677;100 mA
32.4968799179533;-0.699676513671875;-0.105560302734375;6.76999998290739;678;100 mA
32.506879917928;-0.699676513671875;-0.105133056640625;6.77999998288215;679;100 mA
32.5168799179028;-0.69964599609375;-0.106109619140625;6.7899999828569;680;100 mA
32.5268799178775;-0.69964599609375;-0.10650634765625;6.79999998283165;681;100 mA
32.5368799178523;-0.69964599609375;-0.1060791015625;6.8099999828064;682;100 mA
32.546879917827;-0.69964599609375;-0.106353759765625;6.81999998278116;683;100 mA
32.5568799178018;-0.699676513671875;-0.106353759765625;6.82999998275591;684;100 mA
32.5668799177765;-0.69964599609375;-0.1063232421875;6.83999998273066;685;100 mA
32.5768799177513;-0.699676513671875;-0.1060791015625;6.84999998270541;686;100 mA
32.586879917726;-0.699615478515625;-0.10650634765625;6.85999998268016;687;100 mA
32.5968799177008;-0.699676513671875;-0.1060791015625;6.86999998265492;688;100 mA
32.6068799176755;-0.699676513671875;-0.105224609375;6.87999998262967;689;100 mA
32.6168799176503;-0.6995849609375;-0.105926513671875;6.88999998260442;690;100 mA
32.626879917625;-0.69964599609375;-0.10595703125;6.89999998257917;691;100 mA
32.6368799175998;-0.69964599609375;-0.1064453125;6.90999998255393;692;100 mA
32.6468799175746;-0.69964599609375;-0.10626220703125;6.91999998252868;693;100 mA
32.6568799175493;-0.69964599609375;-0.106903076171875;6.92999998250343;694;100 mA
32.6668799175241;-0.69964599609375;-0.1060791015625;6.93999998247818;695;100 mA
32.6768799174988;-0.69964599609375;-0.10565185546875;6.94999998245294;696;100 mA
32.6868799174736;-0.699676513671875;-0.106231689453125;6.95999998242769;697;100 mA
32.6968799174483;-0.699615478515625;-0.10589599609375;6.96999998240244;698;100 mA
32.7068799174231;-0.699676513671875;-0.10498046875;6.97999998237719;699;100 mA
32.7168799173978;-0.69970703125;-0.104888916015625;6.98999998235195;700;100 mA
