Time (s);WE(1).Potential (V);WE(1).Current (A);Corrected time (s);Index;Current range
71.2147018202002;-0.89996337890625;-0.318634033203125;0;1;100 mA
71.2247018201749;-0.89996337890625;-0.241729736328125;0.00999999997475243;2;100 mA
71.2347018201497;-0.89935302734375;-0.201690673828125;0.0199999999495049;3;100 mA
71.2447018201244;-0.899658203125;-0.178955078125;0.0299999999242573;4;100 mA
71.2547018200992;-0.8990478515625;-0.168121337890625;0.0399999998990097;5;100 mA
71.2647018200739;-0.89996337890625;-0.158843994140625;0.0499999998737621;6;100 mA
71.2747018200487;-0.899658203125;-0.1514892578125;0.0599999998485146;7;100 mA
71.2847018200234;-0.89996337890625;-0.1463623046875;0.069999999823267;8;100 mA
71.2947018199982;-0.89935302734375;-0.143951416015625;0.0799999997980194;9;100 mA
71.3047018199729;-0.89996337890625;-0.13848876953125;0.0899999997727718;10;100 mA
71.3147018199477;-0.899658203125;-0.137786865234375;0.0999999997475243;11;100 mA
71.3247018199224;-0.899658203125;-0.1380615234375;0.109999999722277;12;100 mA
71.3347018198972;-0.8990478515625;-0.13525390625;0.119999999697029;13;100 mA
71.3447018198719;-0.9002685546875;-0.131866455078125;0.129999999671782;14;100 mA
71.3547018198467;-0.89996337890625;-0.13177490234375;0.139999999646534;15;100 mA
71.3647018198214;-0.899658203125;-0.131134033203125;0.149999999621286;16;100 mA
71.3747018197962;-0.899658203125;-0.128997802734375;0.159999999596039;17;100 mA
71.384701819771;-0.89935302734375;-0.129150390625;0.169999999570791;18;100 mA
71.3947018197457;-0.89935302734375;-0.13079833984375;0.179999999545544;19;100 mA
71.4047018197205;-0.899658203125;-0.129180908203125;0.189999999520296;20;100 mA
71.4147018196952;-0.89935302734375;-0.128326416015625;0.199999999495049;21;100 mA
71.42470181967;-0.899658203125;-0.1312255859375;0.209999999469801;22;100 mA
71.4347018196447;-0.899658203125;-0.12994384765625;0.219999999444553;23;100 mA
71.4447018196195;-0.8990478515625;-0.127960205078125;0.229999999419306;24;100 mA
71.4547018195942;-0.899658203125;-0.12841796875;0.239999999394058;25;100 mA
71.464701819569;-0.899658203125;-0.131072998046875;0.249999999368811;26;100 mA
71.4747018195437;-0.89996337890625;-0.128448486328125;0.259999999343563;27;100 mA
71.4847018195185;-0.89935302734375;-0.129302978515625;0.269999999318316;28;100 mA
71.4947018194932;-0.8990478515625;-0.13018798828125;0.279999999293068;29;100 mA
71.504701819468;-0.899658203125;-0.127685546875;0.28999999926782;30;100 mA
71.5147018194427;-0.89996337890625;-0.124267578125;0.299999999242573;31;100 mA
71.5247018194175;-0.899658203125;-0.1260986328125;0.309999999217325;32;100 mA
71.5347018193922;-0.89935302734375;-0.12713623046875;0.319999999192078;33;100 mA
71.544701819367;-0.899658203125;-0.1259765625;0.32999999916683;34;100 mA
71.5547018193417;-0.899658203125;-0.127044677734375;0.339999999141583;35;100 mA
71.5647018193165;-0.899658203125;-0.129180908203125;0.349999999116335;36;100 mA
71.5747018192912;-0.89874267578125;-0.127166748046875;0.359999999091087;37;100 mA
71.584701819266;-0.899658203125;-0.1260986328125;0.36999999906584;38;100 mA
71.5947018192408;-0.89935302734375;-0.1287841796875;0.379999999040592;39;100 mA
71.6047018192155;-0.89935302734375;-0.128387451171875;0.389999999015345;40;100 mA
71.6147018191903;-0.89935302734375;-0.12652587890625;0.399999998990097;41;100 mA
71.624701819165;-0.89935302734375;-0.126129150390625;0.40999999896485;42;100 mA
71.6347018191398;-0.899658203125;-0.12811279296875;0.419999998939602;43;100 mA
71.6447018191145;-0.899658203125;-0.126312255859375;0.429999998914354;44;100 mA
71.6547018190893;-0.89996337890625;-0.12591552734375;0.439999998889107;45;100 mA
71.664701819064;-0.899658203125;-0.127471923828125;0.449999998863859;46;100 mA
71.6747018190388;-0.89935302734375;-0.128021240234375;0.459999998838612;47;100 mA
71.6847018190135;-0.899658203125;-0.12554931640625;0.469999998813364;48;100 mA
71.6947018189883;-0.89996337890625;-0.12664794921875;0.479999998788116;49;100 mA
71.704701818963;-0.89996337890625;-0.1282958984375;0.489999998762869;50;100 mA
71.7147018189378;-0.9002685546875;-0.1270751953125;0.499999998737621;51;100 mA
71.7247018189125;-0.89935302734375;-0.127227783203125;0.509999998712374;52;100 mA
71.7347018188873;-0.89874267578125;-0.129547119140625;0.519999998687126;53;100 mA
71.744701818862;-0.89935302734375;-0.1278076171875;0.529999998661879;54;100 mA
71.7547018188368;-0.89996337890625;-0.126129150390625;0.539999998636631;55;100 mA
71.7647018188115;-0.899658203125;-0.12841796875;0.549999998611383;56;100 mA
71.7747018187863;-0.8990478515625;-0.12872314453125;0.559999998586136;57;100 mA
71.7847018187611;-0.899658203125;-0.12591552734375;0.569999998560888;58;100 mA
71.7947018187358;-0.899658203125;-0.124298095703125;0.579999998535641;59;100 mA
71.8047018187106;-0.899658203125;-0.12689208984375;0.589999998510393;60;100 mA
71.8147018186853;-0.8990478515625;-0.125885009765625;0.599999998485146;61;100 mA
71.8247018186601;-0.899658203125;-0.12640380859375;0.609999998459898;62;100 mA
71.8347018186348;-0.899658203125;-0.1278076171875;0.61999999843465;63;100 mA
71.8447018186096;-0.8990478515625;-0.12762451171875;0.629999998409403;64;100 mA
71.8547018185843;-0.9002685546875;-0.12371826171875;0.639999998384155;65;100 mA
71.8647018185591;-0.899658203125;-0.1239013671875;0.649999998358908;66;100 mA
71.8747018185338;-0.89935302734375;-0.125579833984375;0.65999999833366;67;100 mA
71.8847018185086;-0.89935302734375;-0.124359130859375;0.669999998308413;68;100 mA
71.8947018184833;-0.89935302734375;-0.124786376953125;0.679999998283165;69;100 mA
71.9047018184581;-0.89935302734375;-0.127593994140625;0.689999998257917;70;100 mA
71.9147018184328;-0.89935302734375;-0.126861572265625;0.69999999823267;71;100 mA
71.9247018184076;-0.899658203125;-0.124481201171875;0.709999998207422;72;100 mA
71.9347018183823;-0.899658203125;-0.12615966796875;0.719999998182175;73;100 mA
71.9447018183571;-0.89935302734375;-0.12786865234375;0.729999998156927;74;100 mA
71.9547018183318;-0.89935302734375;-0.12591552734375;0.73999999813168;75;100 mA
71.9647018183066;-0.8990478515625;-0.12457275390625;0.749999998106432;76;100 mA
71.9747018182813;-0.899658203125;-0.127716064453125;0.759999998081184;77;100 mA
71.9847018182561;-0.89935302734375;-0.12615966796875;0.769999998055937;78;100 mA
71.9947018182309;-0.8990478515625;-0.126068115234375;0.779999998030689;79;100 mA
72.0047018182056;-0.8990478515625;-0.12738037109375;0.789999998005442;80;100 mA
72.0147018181804;-0.89935302734375;-0.128570556640625;0.799999997980194;81;100 mA
72.0247018181551;-0.899658203125;-0.125335693359375;0.809999997954947;82;100 mA
72.0347018181299;-0.899658203125;-0.12451171875;0.819999997929699;83;100 mA
72.0447018181046;-0.89996337890625;-0.12689208984375;0.829999997904451;84;100 mA
72.0547018180794;-0.89996337890625;-0.126007080078125;0.839999997879204;85;100 mA
72.0647018180541;-0.899658203125;-0.12506103515625;0.849999997853956;86;100 mA
72.0747018180289;-0.899658203125;-0.1265869140625;0.859999997828709;87;100 mA
72.0847018180036;-0.899658203125;-0.126739501953125;0.869999997803461;88;100 mA
72.0947018179784;-0.89935302734375;-0.124603271484375;0.879999997778214;89;100 mA
72.1047018179531;-0.899658203125;-0.12615966796875;0.889999997752966;90;100 mA
72.1147018179279;-0.89935302734375;-0.127899169921875;0.899999997727718;91;100 mA
72.1247018179026;-0.89935302734375;-0.125823974609375;0.909999997702471;92;100 mA
72.1347018178774;-0.89935302734375;-0.123870849609375;0.919999997677223;93;100 mA
72.1447018178521;-0.89935302734375;-0.128082275390625;0.929999997651976;94;100 mA
72.1547018178269;-0.899658203125;-0.127197265625;0.939999997626728;95;100 mA
72.1647018178016;-0.89996337890625;-0.12542724609375;0.949999997601481;96;100 mA
72.1747018177764;-0.89935302734375;-0.1260986328125;0.959999997576233;97;100 mA
72.1847018177511;-0.89935302734375;-0.1280517578125;0.969999997550985;98;100 mA
72.1947018177259;-0.899658203125;-0.125152587890625;0.979999997525738;99;100 mA
72.2047018177007;-0.89935302734375;-0.1246337890625;0.98999999750049;100;100 mA
72.2147018176754;-0.899658203125;-0.128265380859375;0.999999997475243;101;100 mA
72.2247018176502;-0.8990478515625;-0.12738037109375;1.00999999745;102;100 mA
72.2347018176249;-0.899658203125;-0.12481689453125;1.01999999742475;103;100 mA
72.2447018175997;-0.8990478515625;-0.126068115234375;1.0299999973995;104;100 mA
72.2547018175744;-0.8990478515625;-0.12713623046875;1.03999999737425;105;100 mA
72.2647018175492;-0.899658203125;-0.12506103515625;1.049999997349;106;100 mA
72.2747018175239;-0.89935302734375;-0.1253662109375;1.05999999732376;107;100 mA
72.2847018174987;-0.8990478515625;-0.126922607421875;1.06999999729851;108;100 mA
72.2947018174734;-0.899658203125;-0.12548828125;1.07999999727326;109;100 mA
72.3047018174482;-0.899658203125;-0.1229248046875;1.08999999724801;110;100 mA
72.3147018174229;-0.899658203125;-0.1241455078125;1.09999999722277;111;100 mA
72.3247018173977;-0.8990478515625;-0.12384033203125;1.10999999719752;112;100 mA
72.3347018173724;-0.899658203125;-0.123321533203125;1.11999999717227;113;100 mA
72.3447018173472;-0.899658203125;-0.123504638671875;1.12999999714702;114;100 mA
72.3547018173219;-0.899658203125;-0.126708984375;1.13999999712178;115;100 mA
72.3647018172967;-0.89996337890625;-0.1256103515625;1.14999999709653;116;100 mA
72.3747018172714;-0.899658203125;-0.1256103515625;1.15999999707128;117;100 mA
72.3847018172462;-0.899658203125;-0.128082275390625;1.16999999704603;118;100 mA
72.3947018172209;-0.89935302734375;-0.126556396484375;1.17999999702079;119;100 mA
72.4047018171957;-0.89935302734375;-0.1226806640625;1.18999999699554;120;100 mA
72.4147018171705;-0.899658203125;-0.12298583984375;1.19999999697029;121;100 mA
72.4247018171452;-0.89996337890625;-0.12530517578125;1.20999999694504;122;100 mA
72.43470181712;-0.899658203125;-0.123931884765625;1.2199999969198;123;100 mA
72.4447018170947;-0.899658203125;-0.1241455078125;1.22999999689455;124;100 mA
72.4547018170695;-0.8990478515625;-0.12615966796875;1.2399999968693;125;100 mA
72.4647018170442;-0.89935302734375;-0.125732421875;1.24999999684405;126;100 mA
72.474701817019;-0.89935302734375;-0.123260498046875;1.25999999681881;127;100 mA
72.4847018169937;-0.89935302734375;-0.12628173828125;1.26999999679356;128;100 mA
72.4947018169685;-0.899658203125;-0.1273193359375;1.27999999676831;129;100 mA
72.5047018169432;-0.89996337890625;-0.125274658203125;1.28999999674306;130;100 mA
72.514701816918;-0.89996337890625;-0.124847412109375;1.29999999671782;131;100 mA
72.5247018168927;-0.8990478515625;-0.127960205078125;1.30999999669257;132;100 mA
72.5347018168675;-0.89935302734375;-0.1263427734375;1.31999999666732;133;100 mA
72.5447018168422;-0.8990478515625;-0.125579833984375;1.32999999664207;134;100 mA
72.554701816817;-0.899658203125;-0.127593994140625;1.33999999661683;135;100 mA
72.5647018167917;-0.89935302734375;-0.1280517578125;1.34999999659158;136;100 mA
72.5747018167665;-0.89935302734375;-0.12457275390625;1.35999999656633;137;100 mA
72.5847018167412;-0.89935302734375;-0.124420166015625;1.36999999654108;138;100 mA
72.594701816716;-0.89935302734375;-0.12677001953125;1.37999999651583;139;100 mA
72.6047018166907;-0.89935302734375;-0.125762939453125;1.38999999649059;140;100 mA
72.6147018166655;-0.89935302734375;-0.125732421875;1.39999999646534;141;100 mA
72.6247018166403;-0.899658203125;-0.127349853515625;1.40999999644009;142;100 mA
72.634701816615;-0.89935302734375;-0.127960205078125;1.41999999641484;143;100 mA
72.6447018165898;-0.899658203125;-0.12554931640625;1.4299999963896;144;100 mA
72.6547018165645;-0.89935302734375;-0.126983642578125;1.43999999636435;145;100 mA
72.6647018165393;-0.89935302734375;-0.12774658203125;1.4499999963391;146;100 mA
72.674701816514;-0.8990478515625;-0.12554931640625;1.45999999631385;147;100 mA
72.6847018164888;-0.899658203125;-0.1241455078125;1.46999999628861;148;100 mA
72.6947018164635;-0.89935302734375;-0.126983642578125;1.47999999626336;149;100 mA
72.7047018164383;-0.899658203125;-0.12579345703125;1.48999999623811;150;100 mA
72.714701816413;-0.89935302734375;-0.125;1.49999999621286;151;100 mA
72.7247018163878;-0.9002685546875;-0.12530517578125;1.50999999618762;152;100 mA
72.7347018163625;-0.899658203125;-0.12542724609375;1.51999999616237;153;100 mA
72.7447018163373;-0.89874267578125;-0.12249755859375;1.52999999613712;154;100 mA
72.754701816312;-0.89996337890625;-0.12255859375;1.53999999611187;155;100 mA
72.7647018162868;-0.89935302734375;-0.125579833984375;1.54999999608663;156;100 mA
72.7747018162615;-0.899658203125;-0.125152587890625;1.55999999606138;157;100 mA
72.7847018162363;-0.8990478515625;-0.1246337890625;1.56999999603613;158;100 mA
72.794701816211;-0.8990478515625;-0.12542724609375;1.57999999601088;159;100 mA
72.8047018161858;-0.89996337890625;-0.125823974609375;1.58999999598564;160;100 mA
72.8147018161606;-0.9002685546875;-0.12347412109375;1.59999999596039;161;100 mA
72.8247018161353;-0.89996337890625;-0.123687744140625;1.60999999593514;162;100 mA
72.8347018161101;-0.899658203125;-0.123992919921875;1.61999999590989;163;100 mA
72.8447018160848;-0.89935302734375;-0.1220703125;1.62999999588465;164;100 mA
72.8547018160596;-0.89996337890625;-0.12042236328125;1.6399999958594;165;100 mA
72.8647018160343;-0.899658203125;-0.1226806640625;1.64999999583415;166;100 mA
72.8747018160091;-0.89935302734375;-0.12213134765625;1.6599999958089;167;100 mA
72.8847018159838;-0.89935302734375;-0.12152099609375;1.66999999578366;168;100 mA
72.8947018159586;-0.899658203125;-0.1219482421875;1.67999999575841;169;100 mA
72.9047018159333;-0.899658203125;-0.1226806640625;1.68999999573316;170;100 mA
72.9147018159081;-0.8990478515625;-0.120574951171875;1.69999999570791;171;100 mA
72.9247018158828;-0.8990478515625;-0.120849609375;1.70999999568267;172;100 mA
72.9347018158576;-0.8990478515625;-0.12359619140625;1.71999999565742;173;100 mA
72.9447018158323;-0.89874267578125;-0.122406005859375;1.72999999563217;174;100 mA
72.9547018158071;-0.899658203125;-0.120269775390625;1.73999999560692;175;100 mA
72.9647018157818;-0.899658203125;-0.120361328125;1.74999999558167;176;100 mA
72.9747018157566;-0.8990478515625;-0.120849609375;1.75999999555643;177;100 mA
72.9847018157313;-0.8990478515625;-0.119049072265625;1.76999999553118;178;100 mA
72.9947018157061;-0.899658203125;-0.120025634765625;1.77999999550593;179;100 mA
73.0047018156808;-0.899658203125;-0.121337890625;1.78999999548068;180;100 mA
73.0147018156556;-0.899658203125;-0.11993408203125;1.79999999545544;181;100 mA
73.0247018156304;-0.8990478515625;-0.118194580078125;1.80999999543019;182;100 mA
73.0347018156051;-0.899658203125;-0.120330810546875;1.81999999540494;183;100 mA
73.0447018155799;-0.899658203125;-0.120391845703125;1.82999999537969;184;100 mA
73.0547018155546;-0.899658203125;-0.119659423828125;1.83999999535445;185;100 mA
73.0647018155294;-0.899658203125;-0.119659423828125;1.8499999953292;186;100 mA
73.0747018155041;-0.89935302734375;-0.1212158203125;1.85999999530395;187;100 mA
73.0847018154789;-0.89874267578125;-0.119659423828125;1.8699999952787;188;100 mA
73.0947018154536;-0.899658203125;-0.119384765625;1.87999999525346;189;100 mA
73.1047018154284;-0.89935302734375;-0.1214599609375;1.88999999522821;190;100 mA
73.1147018154031;-0.89996337890625;-0.121246337890625;1.89999999520296;191;100 mA
73.1247018153779;-0.8990478515625;-0.11968994140625;1.90999999517771;192;100 mA
73.1347018153526;-0.89935302734375;-0.120208740234375;1.91999999515247;193;100 mA
73.1447018153274;-0.899658203125;-0.121826171875;1.92999999512722;194;100 mA
73.1547018153021;-0.899658203125;-0.120330810546875;1.93999999510197;195;100 mA
73.1647018152769;-0.899658203125;-0.120819091796875;1.94999999507672;196;100 mA
73.1747018152516;-0.89935302734375;-0.122222900390625;1.95999999505148;197;100 mA
73.1847018152264;-0.89935302734375;-0.12139892578125;1.96999999502623;198;100 mA
73.1947018152011;-0.89996337890625;-0.1190185546875;1.97999999500098;199;100 mA
73.2047018151759;-0.899658203125;-0.120452880859375;1.98999999497573;200;100 mA
73.2147018151506;-0.89935302734375;-0.12139892578125;1.99999999495049;201;100 mA
73.2247018151254;-0.899658203125;-0.1204833984375;2.00999999492524;202;100 mA
73.2347018151002;-0.89935302734375;-0.1201171875;2.01999999489999;203;100 mA
73.2447018150749;-0.899658203125;-0.122161865234375;2.02999999487474;204;100 mA
73.2547018150497;-0.89935302734375;-0.120880126953125;2.0399999948495;205;100 mA
73.2647018150244;-0.899658203125;-0.11993408203125;2.04999999482425;206;100 mA
73.2747018149992;-0.89935302734375;-0.121978759765625;2.059999994799;207;100 mA
73.2847018149739;-0.899658203125;-0.1219482421875;2.06999999477375;208;100 mA
73.2947018149487;-0.8990478515625;-0.119781494140625;2.0799999947485;209;100 mA
73.3047018149234;-0.8990478515625;-0.119873046875;2.08999999472326;210;100 mA
73.3147018148982;-0.899658203125;-0.122406005859375;2.09999999469801;211;100 mA
73.3247018148729;-0.899658203125;-0.1219482421875;2.10999999467276;212;100 mA
73.3347018148477;-0.89935302734375;-0.122222900390625;2.11999999464751;213;100 mA
73.3447018148224;-0.89935302734375;-0.123199462890625;2.12999999462227;214;100 mA
73.3547018147972;-0.89935302734375;-0.123260498046875;2.13999999459702;215;100 mA
73.3647018147719;-0.89996337890625;-0.121185302734375;2.14999999457177;216;100 mA
73.3747018147467;-0.89935302734375;-0.122406005859375;2.15999999454652;217;100 mA
73.3847018147214;-0.899658203125;-0.1224365234375;2.16999999452128;218;100 mA
73.3947018146962;-0.8990478515625;-0.120361328125;2.17999999449603;219;100 mA
73.4047018146709;-0.89935302734375;-0.119720458984375;2.18999999447078;220;100 mA
73.4147018146457;-0.89935302734375;-0.12200927734375;2.19999999444553;221;100 mA
73.4247018146204;-0.8990478515625;-0.120941162109375;2.20999999442029;222;100 mA
73.4347018145952;-0.89935302734375;-0.119964599609375;2.21999999439504;223;100 mA
73.44470181457;-0.89996337890625;-0.1214599609375;2.22999999436979;224;100 mA
73.4547018145447;-0.899658203125;-0.122833251953125;2.23999999434454;225;100 mA
73.4647018145195;-0.89996337890625;-0.121551513671875;2.2499999943193;226;100 mA
73.4747018144942;-0.9002685546875;-0.12127685546875;2.25999999429405;227;100 mA
73.484701814469;-0.899658203125;-0.123565673828125;2.2699999942688;228;100 mA
73.4947018144437;-0.899658203125;-0.1220703125;2.27999999424355;229;100 mA
73.5047018144185;-0.8990478515625;-0.121917724609375;2.28999999421831;230;100 mA
73.5147018143932;-0.899658203125;-0.122406005859375;2.29999999419306;231;100 mA
73.524701814368;-0.89874267578125;-0.122467041015625;2.30999999416781;232;100 mA
73.5347018143427;-0.8990478515625;-0.11981201171875;2.31999999414256;233;100 mA
73.5447018143175;-0.8990478515625;-0.120361328125;2.32999999411732;234;100 mA
73.5547018142922;-0.89935302734375;-0.121429443359375;2.33999999409207;235;100 mA
73.564701814267;-0.8990478515625;-0.12054443359375;2.34999999406682;236;100 mA
73.5747018142417;-0.8990478515625;-0.119659423828125;2.35999999404157;237;100 mA
73.5847018142165;-0.9002685546875;-0.12127685546875;2.36999999401633;238;100 mA
73.5947018141912;-0.89996337890625;-0.120697021484375;2.37999999399108;239;100 mA
73.604701814166;-0.89996337890625;-0.1202392578125;2.38999999396583;240;100 mA
73.6147018141407;-0.899658203125;-0.1214599609375;2.39999999394058;241;100 mA
73.6247018141155;-0.899658203125;-0.12274169921875;2.40999999391533;242;100 mA
73.6347018140902;-0.8990478515625;-0.12060546875;2.41999999389009;243;100 mA
73.644701814065;-0.89935302734375;-0.11907958984375;2.42999999386484;244;100 mA
73.6547018140398;-0.899658203125;-0.120941162109375;2.43999999383959;245;100 mA
73.6647018140145;-0.899658203125;-0.12054443359375;2.44999999381434;246;100 mA
73.6747018139893;-0.899658203125;-0.120849609375;2.4599999937891;247;100 mA
73.684701813964;-0.899658203125;-0.121917724609375;2.46999999376385;248;100 mA
73.6947018139388;-0.89935302734375;-0.1229248046875;2.4799999937386;249;100 mA
73.7047018139135;-0.89935302734375;-0.12115478515625;2.48999999371335;250;100 mA
73.7147018138883;-0.89935302734375;-0.121795654296875;2.49999999368811;251;100 mA
73.724701813863;-0.89935302734375;-0.123138427734375;2.50999999366286;252;100 mA
73.7347018138378;-0.89935302734375;-0.121429443359375;2.51999999363761;253;100 mA
73.7447018138125;-0.89935302734375;-0.11968994140625;2.52999999361236;254;100 mA
73.7547018137873;-0.89935302734375;-0.12127685546875;2.53999999358712;255;100 mA
73.764701813762;-0.89996337890625;-0.121978759765625;2.54999999356187;256;100 mA
73.7747018137368;-0.89996337890625;-0.120941162109375;2.55999999353662;257;100 mA
73.7847018137115;-0.899658203125;-0.121307373046875;2.56999999351137;258;100 mA
73.7947018136863;-0.89996337890625;-0.12255859375;2.57999999348613;259;100 mA
73.804701813661;-0.89935302734375;-0.120758056640625;2.58999999346088;260;100 mA
73.8147018136358;-0.899658203125;-0.118988037109375;2.59999999343563;261;100 mA
73.8247018136105;-0.89935302734375;-0.120880126953125;2.60999999341038;262;100 mA
73.8347018135853;-0.899658203125;-0.12139892578125;2.61999999338514;263;100 mA
73.8447018135601;-0.899658203125;-0.12164306640625;2.62999999335989;264;100 mA
73.8547018135348;-0.8990478515625;-0.12139892578125;2.63999999333464;265;100 mA
73.8647018135096;-0.89935302734375;-0.12261962890625;2.64999999330939;266;100 mA
73.8747018134843;-0.89996337890625;-0.121551513671875;2.65999999328415;267;100 mA
73.8847018134591;-0.8990478515625;-0.12115478515625;2.6699999932589;268;100 mA
73.8947018134338;-0.89935302734375;-0.1226806640625;2.67999999323365;269;100 mA
73.9047018134086;-0.8990478515625;-0.122589111328125;2.6899999932084;270;100 mA
73.9147018133833;-0.89935302734375;-0.12042236328125;2.69999999318316;271;100 mA
73.9247018133581;-0.89935302734375;-0.1207275390625;2.70999999315791;272;100 mA
73.9347018133328;-0.89935302734375;-0.12200927734375;2.71999999313266;273;100 mA
73.9447018133076;-0.89935302734375;-0.12127685546875;2.72999999310741;274;100 mA
73.9547018132823;-0.89935302734375;-0.1209716796875;2.73999999308217;275;100 mA
73.9647018132571;-0.89996337890625;-0.1217041015625;2.74999999305692;276;100 mA
73.9747018132318;-0.899658203125;-0.120574951171875;2.75999999303167;277;100 mA
73.9847018132066;-0.899658203125;-0.11907958984375;2.76999999300642;278;100 mA
73.9947018131813;-0.89935302734375;-0.1207275390625;2.77999999298117;279;100 mA
74.0047018131561;-0.899658203125;-0.120452880859375;2.78999999295593;280;100 mA
74.0147018131308;-0.89935302734375;-0.119171142578125;2.79999999293068;281;100 mA
74.0247018131056;-0.899658203125;-0.118255615234375;2.80999999290543;282;100 mA
74.0347018130803;-0.899658203125;-0.120361328125;2.81999999288018;283;100 mA
74.0447018130551;-0.9002685546875;-0.120452880859375;2.82999999285494;284;100 mA
74.0547018130299;-0.89996337890625;-0.1209716796875;2.83999999282969;285;100 mA
74.0647018130046;-0.89935302734375;-0.122222900390625;2.84999999280444;286;100 mA
74.0747018129794;-0.89935302734375;-0.121826171875;2.85999999277919;287;100 mA
74.0847018129541;-0.899658203125;-0.11944580078125;2.86999999275395;288;100 mA
74.0947018129289;-0.89996337890625;-0.11968994140625;2.8799999927287;289;100 mA
74.1047018129036;-0.899658203125;-0.121368408203125;2.88999999270345;290;100 mA
74.1147018128784;-0.89935302734375;-0.120574951171875;2.8999999926782;291;100 mA
74.1247018128531;-0.899658203125;-0.120025634765625;2.90999999265296;292;100 mA
74.1347018128279;-0.899658203125;-0.1209716796875;2.91999999262771;293;100 mA
74.1447018128026;-0.899658203125;-0.120452880859375;2.92999999260246;294;100 mA
74.1547018127774;-0.899658203125;-0.119293212890625;2.93999999257721;295;100 mA
74.1647018127521;-0.899658203125;-0.12091064453125;2.94999999255197;296;100 mA
74.1747018127269;-0.89935302734375;-0.120758056640625;2.95999999252672;297;100 mA
74.1847018127016;-0.89996337890625;-0.119110107421875;2.96999999250147;298;100 mA
74.1947018126764;-0.899658203125;-0.11822509765625;2.97999999247622;299;100 mA
74.2047018126511;-0.9002685546875;-0.120330810546875;2.98999999245098;300;100 mA
74.2147018126259;-0.8990478515625;-0.119598388671875;2.99999999242573;301;100 mA
74.2247018126006;-0.899658203125;-0.119171142578125;3.00999999240048;302;100 mA
74.2347018125754;-0.89935302734375;-0.119537353515625;3.01999999237523;303;100 mA
74.2447018125501;-0.89935302734375;-0.119293212890625;3.02999999234999;304;100 mA
74.2547018125249;-0.899658203125;-0.11767578125;3.03999999232474;305;100 mA
74.2647018124997;-0.899658203125;-0.11846923828125;3.04999999229949;306;100 mA
74.2747018124744;-0.8990478515625;-0.12066650390625;3.05999999227424;307;100 mA
74.2847018124492;-0.899658203125;-0.11993408203125;3.069999992249;308;100 mA
74.2947018124239;-0.899658203125;-0.119598388671875;3.07999999222375;309;100 mA
74.3047018123987;-0.89935302734375;-0.120330810546875;3.0899999921985;310;100 mA
74.3147018123734;-0.8990478515625;-0.120361328125;3.09999999217325;311;100 mA
74.3247018123482;-0.89935302734375;-0.119232177734375;3.109999992148;312;100 mA
74.3347018123229;-0.899658203125;-0.120391845703125;3.11999999212276;313;100 mA
74.3447018122977;-0.89996337890625;-0.12139892578125;3.12999999209751;314;100 mA
74.3547018122724;-0.89935302734375;-0.1201171875;3.13999999207226;315;100 mA
74.3647018122472;-0.8990478515625;-0.119049072265625;3.14999999204701;316;100 mA
74.3747018122219;-0.8990478515625;-0.121429443359375;3.15999999202177;317;100 mA
74.3847018121967;-0.8990478515625;-0.121307373046875;3.16999999199652;318;100 mA
74.3947018121714;-0.899658203125;-0.120880126953125;3.17999999197127;319;100 mA
74.4047018121462;-0.899658203125;-0.12139892578125;3.18999999194602;320;100 mA
74.4147018121209;-0.9002685546875;-0.12322998046875;3.19999999192078;321;100 mA
74.4247018120957;-0.89935302734375;-0.121673583984375;3.20999999189553;322;100 mA
74.4347018120704;-0.89935302734375;-0.12078857421875;3.21999999187028;323;100 mA
74.4447018120452;-0.89935302734375;-0.12164306640625;3.22999999184503;324;100 mA
74.4547018120199;-0.89996337890625;-0.12030029296875;3.23999999181979;325;100 mA
74.4647018119947;-0.899658203125;-0.118988037109375;3.24999999179454;326;100 mA
74.4747018119695;-0.899658203125;-0.119384765625;3.25999999176929;327;100 mA
74.4847018119442;-0.89996337890625;-0.12060546875;3.26999999174404;328;100 mA
74.494701811919;-0.89935302734375;-0.1190185546875;3.2799999917188;329;100 mA
74.5047018118937;-0.899658203125;-0.119384765625;3.28999999169355;330;100 mA
74.5147018118685;-0.89935302734375;-0.121368408203125;3.2999999916683;331;100 mA
74.5247018118432;-0.899658203125;-0.12017822265625;3.30999999164305;332;100 mA
74.534701811818;-0.89996337890625;-0.118499755859375;3.31999999161781;333;100 mA
74.5447018117927;-0.89996337890625;-0.1201171875;3.32999999159256;334;100 mA
74.5547018117675;-0.89996337890625;-0.11981201171875;3.33999999156731;335;100 mA
74.5647018117422;-0.899658203125;-0.118804931640625;3.34999999154206;336;100 mA
74.574701811717;-0.89996337890625;-0.119049072265625;3.35999999151682;337;100 mA
74.5847018116917;-0.89935302734375;-0.121307373046875;3.36999999149157;338;100 mA
74.5947018116665;-0.89935302734375;-0.12042236328125;3.37999999146632;339;100 mA
74.6047018116412;-0.89935302734375;-0.1204833984375;3.38999999144107;340;100 mA
74.614701811616;-0.899658203125;-0.122344970703125;3.39999999141583;341;100 mA
74.6247018115907;-0.899658203125;-0.122039794921875;3.40999999139058;342;100 mA
74.6347018115655;-0.899658203125;-0.1209716796875;3.41999999136533;343;100 mA
74.6447018115402;-0.899658203125;-0.120849609375;3.42999999134008;344;100 mA
74.654701811515;-0.89935302734375;-0.12127685546875;3.43999999131483;345;100 mA
74.6647018114897;-0.89935302734375;-0.119140625;3.44999999128959;346;100 mA
74.6747018114645;-0.89996337890625;-0.119140625;3.45999999126434;347;100 mA
74.6847018114393;-0.899658203125;-0.120269775390625;3.46999999123909;348;100 mA
74.694701811414;-0.89935302734375;-0.11907958984375;3.47999999121384;349;100 mA
74.7047018113888;-0.899658203125;-0.1165771484375;3.4899999911886;350;100 mA
74.7147018113635;-0.8990478515625;-0.1181640625;3.49999999116335;351;100 mA
74.7247018113383;-0.89996337890625;-0.119232177734375;3.5099999911381;352;100 mA
74.734701811313;-0.89935302734375;-0.119049072265625;3.51999999111285;353;100 mA
74.7447018112878;-0.899658203125;-0.11883544921875;3.52999999108761;354;100 mA
74.7547018112625;-0.899658203125;-0.120330810546875;3.53999999106236;355;100 mA
74.7647018112373;-0.89935302734375;-0.119232177734375;3.54999999103711;356;100 mA
74.774701811212;-0.89935302734375;-0.118255615234375;3.55999999101186;357;100 mA
74.7847018111868;-0.899658203125;-0.119232177734375;3.56999999098662;358;100 mA
74.7947018111615;-0.89996337890625;-0.119293212890625;3.57999999096137;359;100 mA
74.8047018111363;-0.89935302734375;-0.1180419921875;3.58999999093612;360;100 mA
74.814701811111;-0.89935302734375;-0.117706298828125;3.59999999091087;361;100 mA
74.8247018110858;-0.89996337890625;-0.119140625;3.60999999088563;362;100 mA
74.8347018110605;-0.89935302734375;-0.118194580078125;3.61999999086038;363;100 mA
74.8447018110353;-0.899658203125;-0.1187744140625;3.62999999083513;364;100 mA
74.85470181101;-0.8990478515625;-0.120269775390625;3.63999999080988;365;100 mA
74.8647018109848;-0.899658203125;-0.119781494140625;3.64999999078464;366;100 mA
74.8747018109596;-0.89935302734375;-0.117462158203125;3.65999999075939;367;100 mA
74.8847018109343;-0.899658203125;-0.11846923828125;3.66999999073414;368;100 mA
74.8947018109091;-0.899658203125;-0.11968994140625;3.67999999070889;369;100 mA
74.9047018108838;-0.89935302734375;-0.119384765625;3.68999999068365;370;100 mA
74.9147018108586;-0.899658203125;-0.11865234375;3.6999999906584;371;100 mA
74.9247018108333;-0.89935302734375;-0.12030029296875;3.70999999063315;372;100 mA
74.9347018108081;-0.89996337890625;-0.119232177734375;3.7199999906079;373;100 mA
74.9447018107828;-0.8990478515625;-0.11810302734375;3.72999999058266;374;100 mA
74.9547018107576;-0.89935302734375;-0.118988037109375;3.73999999055741;375;100 mA
74.9647018107323;-0.899658203125;-0.118743896484375;3.74999999053216;376;100 mA
74.9747018107071;-0.899658203125;-0.11676025390625;3.75999999050691;377;100 mA
74.9847018106818;-0.89935302734375;-0.116363525390625;3.76999999048167;378;100 mA
74.9947018106566;-0.899658203125;-0.11810302734375;3.77999999045642;379;100 mA
75.0047018106313;-0.89935302734375;-0.117401123046875;3.78999999043117;380;100 mA
75.0147018106061;-0.899658203125;-0.117584228515625;3.79999999040592;381;100 mA
75.0247018105808;-0.899658203125;-0.1185302734375;3.80999999038067;382;100 mA
75.0347018105556;-0.89996337890625;-0.118560791015625;3.81999999035543;383;100 mA
75.0447018105303;-0.89935302734375;-0.116973876953125;3.82999999033018;384;100 mA
75.0547018105051;-0.89935302734375;-0.11798095703125;3.83999999030493;385;100 mA
75.0647018104798;-0.89935302734375;-0.119384765625;3.84999999027968;386;100 mA
75.0747018104546;-0.899658203125;-0.11834716796875;3.85999999025444;387;100 mA
75.0847018104294;-0.899658203125;-0.1173095703125;3.86999999022919;388;100 mA
75.0947018104041;-0.8990478515625;-0.11895751953125;3.87999999020394;389;100 mA
75.1047018103789;-0.89935302734375;-0.119171142578125;3.88999999017869;390;100 mA
75.1147018103536;-0.8990478515625;-0.11920166015625;3.89999999015345;391;100 mA
75.1247018103284;-0.89935302734375;-0.120452880859375;3.9099999901282;392;100 mA
75.1347018103031;-0.8990478515625;-0.12109375;3.91999999010295;393;100 mA
75.1447018102779;-0.89996337890625;-0.1192626953125;3.9299999900777;394;100 mA
75.1547018102526;-0.89935302734375;-0.118865966796875;3.93999999005246;395;100 mA
75.1647018102274;-0.899658203125;-0.121063232421875;3.94999999002721;396;100 mA
75.1747018102021;-0.899658203125;-0.120697021484375;3.95999999000196;397;100 mA
75.1847018101769;-0.8990478515625;-0.120086669921875;3.96999998997671;398;100 mA
75.1947018101516;-0.89935302734375;-0.1201171875;3.97999998995147;399;100 mA
75.2047018101264;-0.899658203125;-0.12042236328125;3.98999998992622;400;100 mA
75.2147018101011;-0.8990478515625;-0.118743896484375;3.99999998990097;401;100 mA
75.2247018100759;-0.89935302734375;-0.118927001953125;4.00999998987572;402;100 mA
75.2347018100506;-0.8990478515625;-0.119964599609375;4.01999998985048;403;100 mA
75.2447018100254;-0.899658203125;-0.11865234375;4.02999998982523;404;100 mA
75.2547018100001;-0.89996337890625;-0.1170654296875;4.03999998979998;405;100 mA
75.2647018099749;-0.89935302734375;-0.118133544921875;4.04999998977473;406;100 mA
75.2747018099496;-0.89935302734375;-0.11822509765625;4.05999998974949;407;100 mA
75.2847018099244;-0.9002685546875;-0.117706298828125;4.06999998972424;408;100 mA
75.2947018098992;-0.899658203125;-0.117889404296875;4.07999998969899;409;100 mA
75.3047018098739;-0.899658203125;-0.118499755859375;4.08999998967374;410;100 mA
75.3147018098487;-0.89935302734375;-0.116668701171875;4.0999999896485;411;100 mA
75.3247018098234;-0.89935302734375;-0.1158447265625;4.10999998962325;412;100 mA
75.3347018097982;-0.89935302734375;-0.117156982421875;4.119999989598;413;100 mA
75.3447018097729;-0.89935302734375;-0.1168212890625;4.12999998957275;414;100 mA
75.3547018097477;-0.89996337890625;-0.116424560546875;4.1399999895475;415;100 mA
75.3647018097224;-0.899658203125;-0.116241455078125;4.14999998952226;416;100 mA
75.3747018096972;-0.899658203125;-0.117218017578125;4.15999998949701;417;100 mA
75.3847018096719;-0.89996337890625;-0.11578369140625;4.16999998947176;418;100 mA
75.3947018096467;-0.899658203125;-0.1158447265625;4.17999998944651;419;100 mA
75.4047018096214;-0.89935302734375;-0.117218017578125;4.18999998942127;420;100 mA
75.4147018095962;-0.899658203125;-0.116943359375;4.19999998939602;421;100 mA
75.4247018095709;-0.89935302734375;-0.115814208984375;4.20999998937077;422;100 mA
75.4347018095457;-0.89996337890625;-0.116119384765625;4.21999998934552;423;100 mA
75.4447018095204;-0.8990478515625;-0.116119384765625;4.22999998932028;424;100 mA
75.4547018094952;-0.89935302734375;-0.115570068359375;4.23999998929503;425;100 mA
75.4647018094699;-0.89996337890625;-0.11541748046875;4.24999998926978;426;100 mA
75.4747018094447;-0.89935302734375;-0.11614990234375;4.25999998924453;427;100 mA
75.4847018094194;-0.8990478515625;-0.11492919921875;4.26999998921929;428;100 mA
75.4947018093942;-0.89935302734375;-0.114166259765625;4.27999998919404;429;100 mA
75.504701809369;-0.899658203125;-0.1158447265625;4.28999998916879;430;100 mA
75.5147018093437;-0.89935302734375;-0.11663818359375;4.29999998914354;431;100 mA
75.5247018093185;-0.899658203125;-0.116363525390625;4.3099999891183;432;100 mA
75.5347018092932;-0.89935302734375;-0.115997314453125;4.31999998909305;433;100 mA
75.544701809268;-0.9002685546875;-0.1171875;4.3299999890678;434;100 mA
75.5547018092427;-0.89996337890625;-0.115997314453125;4.33999998904255;435;100 mA
75.5647018092175;-0.89935302734375;-0.115966796875;4.34999998901731;436;100 mA
75.5747018091922;-0.899658203125;-0.117034912109375;4.35999998899206;437;100 mA
75.584701809167;-0.89935302734375;-0.116973876953125;4.36999998896681;438;100 mA
75.5947018091417;-0.899658203125;-0.115478515625;4.37999998894156;439;100 mA
75.6047018091165;-0.89935302734375;-0.115509033203125;4.38999998891632;440;100 mA
75.6147018090912;-0.89935302734375;-0.11566162109375;4.39999998889107;441;100 mA
75.624701809066;-0.89996337890625;-0.114715576171875;4.40999998886582;442;100 mA
75.6347018090407;-0.89935302734375;-0.1143798828125;4.41999998884057;443;100 mA
75.6447018090155;-0.89935302734375;-0.114898681640625;4.42999998881533;444;100 mA
75.6547018089902;-0.8990478515625;-0.11358642578125;4.43999998879008;445;100 mA
75.664701808965;-0.899658203125;-0.112060546875;4.44999998876483;446;100 mA
75.6747018089397;-0.8990478515625;-0.11309814453125;4.45999998873958;447;100 mA
75.6847018089145;-0.89935302734375;-0.113494873046875;4.46999998871433;448;100 mA
75.6947018088892;-0.899658203125;-0.1124267578125;4.47999998868909;449;100 mA
75.704701808864;-0.89935302734375;-0.112091064453125;4.48999998866384;450;100 mA
75.7147018088388;-0.89935302734375;-0.1134033203125;4.49999998863859;451;100 mA
75.7247018088135;-0.8990478515625;-0.1124267578125;4.50999998861334;452;100 mA
75.7347018087883;-0.89935302734375;-0.11273193359375;4.5199999885881;453;100 mA
75.744701808763;-0.89935302734375;-0.113525390625;4.52999998856285;454;100 mA
75.7547018087378;-0.89874267578125;-0.1134033203125;4.5399999885376;455;100 mA
75.7647018087125;-0.89935302734375;-0.111572265625;4.54999998851235;456;100 mA
75.7747018086873;-0.899658203125;-0.112030029296875;4.55999998848711;457;100 mA
75.784701808662;-0.899658203125;-0.112762451171875;4.56999998846186;458;100 mA
75.7947018086368;-0.899658203125;-0.112518310546875;4.57999998843661;459;100 mA
75.8047018086115;-0.89935302734375;-0.112579345703125;4.58999998841136;460;100 mA
75.8147018085863;-0.89935302734375;-0.113311767578125;4.59999998838612;461;100 mA
75.824701808561;-0.89935302734375;-0.112823486328125;4.60999998836087;462;100 mA
75.8347018085358;-0.89996337890625;-0.1119384765625;4.61999998833562;463;100 mA
75.8447018085105;-0.899658203125;-0.11279296875;4.62999998831037;464;100 mA
75.8547018084853;-0.89996337890625;-0.113128662109375;4.63999998828513;465;100 mA
75.86470180846;-0.89935302734375;-0.112152099609375;4.64999998825988;466;100 mA
75.8747018084348;-0.89935302734375;-0.11163330078125;4.65999998823463;467;100 mA
75.8847018084095;-0.89935302734375;-0.112823486328125;4.66999998820938;468;100 mA
75.8947018083843;-0.899658203125;-0.11224365234375;4.67999998818414;469;100 mA
75.9047018083591;-0.89874267578125;-0.112945556640625;4.68999998815889;470;100 mA
75.9147018083338;-0.899658203125;-0.113555908203125;4.69999998813364;471;100 mA
75.9247018083086;-0.89935302734375;-0.114105224609375;4.70999998810839;472;100 mA
75.9347018082833;-0.89996337890625;-0.112884521484375;4.71999998808315;473;100 mA
75.9447018082581;-0.89935302734375;-0.113037109375;4.7299999880579;474;100 mA
75.9547018082328;-0.8990478515625;-0.11419677734375;4.73999998803265;475;100 mA
75.9647018082076;-0.899658203125;-0.1138916015625;4.7499999880074;476;100 mA
75.9747018081823;-0.899658203125;-0.11334228515625;4.75999998798216;477;100 mA
75.9847018081571;-0.89874267578125;-0.11376953125;4.76999998795691;478;100 mA
75.9947018081318;-0.89935302734375;-0.114013671875;4.77999998793166;479;100 mA
76.0047018081066;-0.89935302734375;-0.11370849609375;4.78999998790641;480;100 mA
76.0147018080813;-0.89935302734375;-0.1136474609375;4.79999998788116;481;100 mA
76.0247018080561;-0.89935302734375;-0.113983154296875;4.80999998785592;482;100 mA
76.0347018080308;-0.89935302734375;-0.11279296875;4.81999998783067;483;100 mA
76.0447018080056;-0.89935302734375;-0.112060546875;4.82999998780542;484;100 mA
76.0547018079803;-0.89996337890625;-0.11322021484375;4.83999998778017;485;100 mA
76.0647018079551;-0.8990478515625;-0.11273193359375;4.84999998775493;486;100 mA
76.0747018079298;-0.89935302734375;-0.112884521484375;4.85999998772968;487;100 mA
76.0847018079046;-0.89935302734375;-0.11260986328125;4.86999998770443;488;100 mA
76.0947018078793;-0.899658203125;-0.112884521484375;4.87999998767918;489;100 mA
76.1047018078541;-0.89935302734375;-0.11114501953125;4.88999998765394;490;100 mA
76.1147018078289;-0.89996337890625;-0.11102294921875;4.89999998762869;491;100 mA
76.1247018078036;-0.899658203125;-0.11199951171875;4.90999998760344;492;100 mA
76.1347018077784;-0.89935302734375;-0.111846923828125;4.91999998757819;493;100 mA
76.1447018077531;-0.899658203125;-0.111419677734375;4.92999998755295;494;100 mA
76.1547018077279;-0.899658203125;-0.1119384765625;4.9399999875277;495;100 mA
76.1647018077026;-0.89935302734375;-0.112213134765625;4.94999998750245;496;100 mA
76.1747018076774;-0.899658203125;-0.111480712890625;4.9599999874772;497;100 mA
76.1847018076521;-0.89996337890625;-0.111846923828125;4.96999998745196;498;100 mA
76.1947018076269;-0.89935302734375;-0.112091064453125;4.97999998742671;499;100 mA
76.2047018076016;-0.899658203125;-0.110595703125;4.98999998740146;500;100 mA
76.2147018075764;-0.89935302734375;-0.10968017578125;4.99999998737621;501;100 mA
76.2247018075511;-0.89935302734375;-0.11065673828125;5.00999998735097;502;100 mA
76.2347018075259;-0.89935302734375;-0.110809326171875;5.01999998732572;503;100 mA
76.2447018075006;-0.899658203125;-0.1112060546875;5.02999998730047;504;100 mA
76.2547018074754;-0.899658203125;-0.11077880859375;5.03999998727522;505;100 mA
76.2647018074501;-0.899658203125;-0.11163330078125;5.04999998724998;506;100 mA
76.2747018074249;-0.89996337890625;-0.111083984375;5.05999998722473;507;100 mA
76.2847018073996;-0.899658203125;-0.11126708984375;5.06999998719948;508;100 mA
76.2947018073744;-0.899658203125;-0.1116943359375;5.07999998717423;509;100 mA
76.3047018073491;-0.899658203125;-0.111114501953125;5.08999998714899;510;100 mA
76.3147018073239;-0.89935302734375;-0.110015869140625;5.09999998712374;511;100 mA
76.3247018072987;-0.89935302734375;-0.11016845703125;5.10999998709849;512;100 mA
76.3347018072734;-0.89935302734375;-0.11053466796875;5.11999998707324;513;100 mA
76.3447018072482;-0.899658203125;-0.11016845703125;5.129999987048;514;100 mA
76.3547018072229;-0.89996337890625;-0.110443115234375;5.13999998702275;515;100 mA
76.3647018071977;-0.8990478515625;-0.111175537109375;5.1499999869975;516;100 mA
76.3747018071724;-0.899658203125;-0.1103515625;5.15999998697225;517;100 mA
76.3847018071472;-0.8990478515625;-0.109283447265625;5.169999986947;518;100 mA
76.3947018071219;-0.89935302734375;-0.109954833984375;5.17999998692176;519;100 mA
76.4047018070967;-0.89996337890625;-0.1104736328125;5.18999998689651;520;100 mA
76.4147018070714;-0.899658203125;-0.110076904296875;5.19999998687126;521;100 mA
76.4247018070462;-0.89874267578125;-0.10955810546875;5.20999998684601;522;100 mA
76.4347018070209;-0.899658203125;-0.1104736328125;5.21999998682077;523;100 mA
76.4447018069957;-0.89935302734375;-0.10980224609375;5.22999998679552;524;100 mA
76.4547018069704;-0.89935302734375;-0.110107421875;5.23999998677027;525;100 mA
76.4647018069452;-0.89996337890625;-0.110992431640625;5.24999998674502;526;100 mA
76.4747018069199;-0.89935302734375;-0.111175537109375;5.25999998671978;527;100 mA
76.4847018068947;-0.8990478515625;-0.110015869140625;5.26999998669453;528;100 mA
76.4947018068694;-0.8990478515625;-0.109619140625;5.27999998666928;529;100 mA
76.5047018068442;-0.8990478515625;-0.11029052734375;5.28999998664403;530;100 mA
76.5147018068189;-0.899658203125;-0.110015869140625;5.29999998661879;531;100 mA
76.5247018067937;-0.8990478515625;-0.109710693359375;5.30999998659354;532;100 mA
76.5347018067685;-0.899658203125;-0.10955810546875;5.31999998656829;533;100 mA
76.5447018067432;-0.89935302734375;-0.1090087890625;5.32999998654304;534;100 mA
76.554701806718;-0.89935302734375;-0.108245849609375;5.3399999865178;535;100 mA
76.5647018066927;-0.899658203125;-0.10894775390625;5.34999998649255;536;100 mA
76.5747018066675;-0.8990478515625;-0.109832763671875;5.3599999864673;537;100 mA
76.5847018066422;-0.8990478515625;-0.109222412109375;5.36999998644205;538;100 mA
76.594701806617;-0.899658203125;-0.10845947265625;5.37999998641681;539;100 mA
76.6047018065917;-0.899658203125;-0.1090087890625;5.38999998639156;540;100 mA
76.6147018065665;-0.89935302734375;-0.108245849609375;5.39999998636631;541;100 mA
76.6247018065412;-0.8990478515625;-0.1083984375;5.40999998634106;542;100 mA
76.634701806516;-0.89935302734375;-0.108673095703125;5.41999998631582;543;100 mA
76.6447018064907;-0.899658203125;-0.1087646484375;5.42999998629057;544;100 mA
76.6547018064655;-0.89935302734375;-0.107513427734375;5.43999998626532;545;100 mA
76.6647018064402;-0.8990478515625;-0.107452392578125;5.44999998624007;546;100 mA
76.674701806415;-0.899658203125;-0.10845947265625;5.45999998621483;547;100 mA
76.6847018063897;-0.89996337890625;-0.10797119140625;5.46999998618958;548;100 mA
76.6947018063645;-0.899658203125;-0.10833740234375;5.47999998616433;549;100 mA
76.7047018063392;-0.89935302734375;-0.108978271484375;5.48999998613908;550;100 mA
76.714701806314;-0.89996337890625;-0.108978271484375;5.49999998611383;551;100 mA
76.7247018062887;-0.89996337890625;-0.108001708984375;5.50999998608859;552;100 mA
76.7347018062635;-0.899658203125;-0.108612060546875;5.51999998606334;553;100 mA
76.7447018062383;-0.8990478515625;-0.108795166015625;5.52999998603809;554;100 mA
76.754701806213;-0.8990478515625;-0.108123779296875;5.53999998601284;555;100 mA
76.7647018061878;-0.89935302734375;-0.107452392578125;5.5499999859876;556;100 mA
76.7747018061625;-0.89935302734375;-0.10821533203125;5.55999998596235;557;100 mA
76.7847018061373;-0.89996337890625;-0.1082763671875;5.5699999859371;558;100 mA
76.794701806112;-0.89935302734375;-0.10858154296875;5.57999998591185;559;100 mA
76.8047018060868;-0.89996337890625;-0.10845947265625;5.58999998588661;560;100 mA
76.8147018060615;-0.89935302734375;-0.10888671875;5.59999998586136;561;100 mA
76.8247018060363;-0.89935302734375;-0.1080322265625;5.60999998583611;562;100 mA
76.834701806011;-0.89935302734375;-0.10821533203125;5.61999998581086;563;100 mA
76.8447018059858;-0.89935302734375;-0.109222412109375;5.62999998578562;564;100 mA
76.8547018059605;-0.89935302734375;-0.109100341796875;5.63999998576037;565;100 mA
76.8647018059353;-0.899658203125;-0.109405517578125;5.64999998573512;566;100 mA
76.87470180591;-0.899658203125;-0.109710693359375;5.65999998570987;567;100 mA
76.8847018058848;-0.8990478515625;-0.11016845703125;5.66999998568463;568;100 mA
76.8947018058595;-0.899658203125;-0.109588623046875;5.67999998565938;569;100 mA
76.9047018058343;-0.8984375;-0.109832763671875;5.68999998563413;570;100 mA
76.914701805809;-0.89935302734375;-0.110626220703125;5.69999998560888;571;100 mA
76.9247018057838;-0.89996337890625;-0.110198974609375;5.70999998558364;572;100 mA
76.9347018057586;-0.8990478515625;-0.10931396484375;5.71999998555839;573;100 mA
76.9447018057333;-0.89996337890625;-0.109832763671875;5.72999998553314;574;100 mA
76.9547018057081;-0.899658203125;-0.10955810546875;5.73999998550789;575;100 mA
76.9647018056828;-0.8990478515625;-0.1097412109375;5.74999998548265;576;100 mA
76.9747018056576;-0.899658203125;-0.110076904296875;5.7599999854574;577;100 mA
76.9847018056323;-0.899658203125;-0.111297607421875;5.76999998543215;578;100 mA
76.9947018056071;-0.899658203125;-0.110107421875;5.7799999854069;579;100 mA
77.0047018055818;-0.8990478515625;-0.109466552734375;5.78999998538166;580;100 mA
77.0147018055566;-0.899658203125;-0.110504150390625;5.79999998535641;581;100 mA
77.0247018055313;-0.8990478515625;-0.11065673828125;5.80999998533116;582;100 mA
77.0347018055061;-0.89935302734375;-0.11029052734375;5.81999998530591;583;100 mA
77.0447018054808;-0.899658203125;-0.11004638671875;5.82999998528066;584;100 mA
77.0547018054556;-0.899658203125;-0.110321044921875;5.83999998525542;585;100 mA
77.0647018054303;-0.89935302734375;-0.10992431640625;5.84999998523017;586;100 mA
77.0747018054051;-0.89935302734375;-0.1103515625;5.85999998520492;587;100 mA
77.0847018053798;-0.899658203125;-0.111114501953125;5.86999998517967;588;100 mA
77.0947018053546;-0.8990478515625;-0.110626220703125;5.87999998515443;589;100 mA
77.1047018053293;-0.8984375;-0.109588623046875;5.88999998512918;590;100 mA
77.1147018053041;-0.89935302734375;-0.110198974609375;5.89999998510393;591;100 mA
77.1247018052788;-0.899658203125;-0.110321044921875;5.90999998507868;592;100 mA
77.1347018052536;-0.89935302734375;-0.109710693359375;5.91999998505344;593;100 mA
77.1447018052284;-0.899658203125;-0.109283447265625;5.92999998502819;594;100 mA
77.1547018052031;-0.89996337890625;-0.109954833984375;5.93999998500294;595;100 mA
77.1647018051779;-0.899658203125;-0.108673095703125;5.94999998497769;596;100 mA
77.1747018051526;-0.89996337890625;-0.10821533203125;5.95999998495245;597;100 mA
77.1847018051274;-0.89935302734375;-0.109100341796875;5.9699999849272;598;100 mA
77.1947018051021;-0.9002685546875;-0.1092529296875;5.97999998490195;599;100 mA
77.2047018050769;-0.899658203125;-0.108367919921875;5.9899999848767;600;100 mA
77.2147018050516;-0.89935302734375;-0.1082763671875;5.99999998485146;601;100 mA
77.2247018050264;-0.899658203125;-0.10931396484375;6.00999998482621;602;100 mA
77.2347018050011;-0.89935302734375;-0.109130859375;6.01999998480096;603;100 mA
77.2447018049759;-0.89935302734375;-0.109649658203125;6.02999998477571;604;100 mA
77.2547018049506;-0.89996337890625;-0.1103515625;6.03999998475047;605;100 mA
77.2647018049254;-0.899658203125;-0.109588623046875;6.04999998472522;606;100 mA
77.2747018049001;-0.8990478515625;-0.108154296875;6.05999998469997;607;100 mA
77.2847018048749;-0.899658203125;-0.108489990234375;6.06999998467472;608;100 mA
77.2947018048496;-0.89996337890625;-0.1090087890625;6.07999998464948;609;100 mA
77.3047018048244;-0.9002685546875;-0.108856201171875;6.08999998462423;610;100 mA
77.3147018047991;-0.89996337890625;-0.108551025390625;6.09999998459898;611;100 mA
77.3247018047739;-0.89996337890625;-0.10955810546875;6.10999998457373;612;100 mA
77.3347018047486;-0.899658203125;-0.109283447265625;6.11999998454849;613;100 mA
77.3447018047234;-0.89935302734375;-0.109161376953125;6.12999998452324;614;100 mA
77.3547018046982;-0.8990478515625;-0.1102294921875;6.13999998449799;615;100 mA
77.3647018046729;-0.899658203125;-0.1116943359375;6.14999998447274;616;100 mA
77.3747018046477;-0.899658203125;-0.1112060546875;6.1599999844475;617;100 mA
77.3847018046224;-0.8990478515625;-0.11065673828125;6.16999998442225;618;100 mA
77.3947018045972;-0.899658203125;-0.11163330078125;6.179999984397;619;100 mA
77.4047018045719;-0.89935302734375;-0.111297607421875;6.18999998437175;620;100 mA
77.4147018045467;-0.8990478515625;-0.11151123046875;6.1999999843465;621;100 mA
77.4247018045214;-0.8990478515625;-0.112030029296875;6.20999998432126;622;100 mA
77.4347018044962;-0.8990478515625;-0.1116943359375;6.21999998429601;623;100 mA
77.4447018044709;-0.8990478515625;-0.1103515625;6.22999998427076;624;100 mA
77.4547018044457;-0.89935302734375;-0.11053466796875;6.23999998424551;625;100 mA
77.4647018044204;-0.899658203125;-0.110992431640625;6.24999998422027;626;100 mA
77.4747018043952;-0.89996337890625;-0.110595703125;6.25999998419502;627;100 mA
77.4847018043699;-0.9002685546875;-0.109954833984375;6.26999998416977;628;100 mA
77.4947018043447;-0.899658203125;-0.1103515625;6.27999998414452;629;100 mA
77.5047018043194;-0.8990478515625;-0.110137939453125;6.28999998411928;630;100 mA
77.5147018042942;-0.8990478515625;-0.10968017578125;6.29999998409403;631;100 mA
77.5247018042689;-0.89935302734375;-0.110015869140625;6.30999998406878;632;100 mA
77.5347018042437;-0.899658203125;-0.11077880859375;6.31999998404353;633;100 mA
77.5447018042184;-0.89935302734375;-0.109771728515625;6.32999998401829;634;100 mA
77.5547018041932;-0.899658203125;-0.109100341796875;6.33999998399304;635;100 mA
77.564701804168;-0.899658203125;-0.109954833984375;6.34999998396779;636;100 mA
77.5747018041427;-0.89935302734375;-0.10919189453125;6.35999998394254;637;100 mA
77.5847018041175;-0.899658203125;-0.1090087890625;6.3699999839173;638;100 mA
77.5947018040922;-0.89935302734375;-0.109161376953125;6.37999998389205;639;100 mA
77.604701804067;-0.899658203125;-0.109130859375;6.3899999838668;640;100 mA
77.6147018040417;-0.89996337890625;-0.10821533203125;6.39999998384155;641;100 mA
77.6247018040165;-0.899658203125;-0.108734130859375;6.40999998381631;642;100 mA
77.6347018039912;-0.8990478515625;-0.109710693359375;6.41999998379106;643;100 mA
77.644701803966;-0.899658203125;-0.10919189453125;6.42999998376581;644;100 mA
77.6547018039407;-0.8990478515625;-0.108795166015625;6.43999998374056;645;100 mA
77.6647018039155;-0.8990478515625;-0.10955810546875;6.44999998371532;646;100 mA
77.6747018038902;-0.899658203125;-0.10955810546875;6.45999998369007;647;100 mA
77.684701803865;-0.89935302734375;-0.109710693359375;6.46999998366482;648;100 mA
77.6947018038397;-0.899658203125;-0.1104736328125;6.47999998363957;649;100 mA
77.7047018038145;-0.89996337890625;-0.111175537109375;6.48999998361433;650;100 mA
77.7147018037892;-0.8990478515625;-0.11041259765625;6.49999998358908;651;100 mA
77.724701803764;-0.899658203125;-0.109893798828125;6.50999998356383;652;100 mA
77.7347018037387;-0.89996337890625;-0.11090087890625;6.51999998353858;653;100 mA
77.7447018037135;-0.899658203125;-0.110504150390625;6.52999998351333;654;100 mA
77.7547018036882;-0.8990478515625;-0.110504150390625;6.53999998348809;655;100 mA
77.764701803663;-0.899658203125;-0.110198974609375;6.54999998346284;656;100 mA
77.7747018036378;-0.899658203125;-0.11077880859375;6.55999998343759;657;100 mA
77.7847018036125;-0.89935302734375;-0.109893798828125;6.56999998341234;658;100 mA
77.7947018035873;-0.89935302734375;-0.11004638671875;6.5799999833871;659;100 mA
77.804701803562;-0.9002685546875;-0.110931396484375;6.58999998336185;660;100 mA
77.8147018035368;-0.899658203125;-0.1103515625;6.5999999833366;661;100 mA
77.8247018035115;-0.89996337890625;-0.109344482421875;6.60999998331135;662;100 mA
77.8347018034863;-0.899658203125;-0.109527587890625;6.61999998328611;663;100 mA
77.844701803461;-0.899658203125;-0.109710693359375;6.62999998326086;664;100 mA
77.8547018034358;-0.89935302734375;-0.10919189453125;6.63999998323561;665;100 mA
77.8647018034105;-0.89996337890625;-0.1087646484375;6.64999998321036;666;100 mA
77.8747018033853;-0.89996337890625;-0.109222412109375;6.65999998318512;667;100 mA
77.88470180336;-0.899658203125;-0.109039306640625;6.66999998315987;668;100 mA
77.8947018033348;-0.89935302734375;-0.108734130859375;6.67999998313462;669;100 mA
77.9047018033095;-0.89935302734375;-0.1099853515625;6.68999998310937;670;100 mA
77.9147018032843;-0.89996337890625;-0.110748291015625;6.69999998308413;671;100 mA
77.924701803259;-0.8990478515625;-0.11053466796875;6.70999998305888;672;100 mA
77.9347018032338;-0.8990478515625;-0.109954833984375;6.71999998303363;673;100 mA
77.9447018032085;-0.899658203125;-0.1109619140625;6.72999998300838;674;100 mA
77.9547018031833;-0.899658203125;-0.11029052734375;6.73999998298314;675;100 mA
77.9647018031581;-0.89935302734375;-0.110382080078125;6.74999998295789;676;100 mA
77.9747018031328;-0.89935302734375;-0.111175537109375;6.75999998293264;677;100 mA
77.9847018031076;-0.899658203125;-0.11090087890625;6.76999998290739;678;100 mA
77.9947018030823;-0.899658203125;-0.10931396484375;6.77999998288215;679;100 mA
78.0047018030571;-0.899658203125;-0.109405517578125;6.7899999828569;680;100 mA
78.0147018030318;-0.899658203125;-0.11016845703125;6.79999998283165;681;100 mA
78.0247018030066;-0.8990478515625;-0.10992431640625;6.8099999828064;682;100 mA
78.0347018029813;-0.899658203125;-0.109588623046875;6.81999998278116;683;100 mA
78.0447018029561;-0.89935302734375;-0.1099853515625;6.82999998275591;684;100 mA
78.0547018029308;-0.899658203125;-0.109405517578125;6.83999998273066;685;100 mA
78.0647018029056;-0.89935302734375;-0.1085205078125;6.84999998270541;686;100 mA
78.0747018028803;-0.89935302734375;-0.109100341796875;6.85999998268016;687;100 mA
78.0847018028551;-0.899658203125;-0.109527587890625;6.86999998265492;688;100 mA
78.0947018028298;-0.89935302734375;-0.109222412109375;6.87999998262967;689;100 mA
78.1047018028046;-0.89935302734375;-0.1087646484375;6.88999998260442;690;100 mA
78.1147018027793;-0.89935302734375;-0.10968017578125;6.89999998257917;691;100 mA
78.1247018027541;-0.899658203125;-0.109222412109375;6.90999998255393;692;100 mA
78.1347018027288;-0.89935302734375;-0.109161376953125;6.91999998252868;693;100 mA
78.1447018027036;-0.89874267578125;-0.10943603515625;6.92999998250343;694;100 mA
78.1547018026783;-0.89935302734375;-0.10955810546875;6.93999998247818;695;100 mA
78.1647018026531;-0.89935302734375;-0.10821533203125;6.94999998245294;696;100 mA
78.1747018026279;-0.899658203125;-0.108062744140625;6.95999998242769;697;100 mA
78.1847018026026;-0.89935302734375;-0.109161376953125;6.96999998240244;698;100 mA
78.1947018025774;-0.89996337890625;-0.1092529296875;6.97999998237719;699;100 mA
78.2047018025521;-0.899658203125;-0.10906982421875;6.98999998235195;700;100 mA
