Time (s);WE(1).Potential (V);WE(1).Current (A);Corrected time (s);Index;Current range
7.66035598065946;0.39947509765625;0.0171295166015625;0;1;100 mA
7.67035598063421;0.399688720703125;0.012811279296875;0.00999999997475243;2;100 mA
7.68035598060897;0.39971923828125;0.0107177734375;0.0199999999495049;3;100 mA
7.69035598058372;0.399688720703125;0.0093048095703125;0.0299999999242573;4;100 mA
7.70035598055847;0.399810791015625;0.008544921875;0.0399999998990097;5;100 mA
7.71035598053322;0.39971923828125;0.0078399658203125;0.0499999998737621;6;100 mA
7.72035598050797;0.399688720703125;0.007269287109375;0.0599999998485146;7;100 mA
7.73035598048273;0.39971923828125;0.0067779541015625;0.069999999823267;8;100 mA
7.74035598045748;0.39971923828125;0.0064697265625;0.0799999997980194;9;100 mA
7.75035598043223;0.399749755859375;0.0061370849609375;0.0899999997727718;10;100 mA
7.76035598040698;0.399688720703125;0.0058441162109375;0.0999999997475243;11;100 mA
7.77035598038174;0.39971923828125;0.0055694580078125;0.109999999722277;12;100 mA
7.78035598035649;0.399688720703125;0.00545654296875;0.119999999697029;13;100 mA
7.79035598033124;0.399688720703125;0.0052520751953125;0.129999999671782;14;100 mA
7.80035598030599;0.399688720703125;0.0050567626953125;0.139999999646534;15;100 mA
7.81035598028075;0.399688720703125;0.0048828125;0.149999999621286;16;100 mA
7.8203559802555;0.399749755859375;0.0048004150390625;0.159999999596039;17;100 mA
7.83035598023025;0.39971923828125;0.00467041015625;0.169999999570791;18;100 mA
7.840355980205;0.3997802734375;0.00454833984375;0.179999999545544;19;100 mA
7.85035598017976;0.399749755859375;0.0044390869140625;0.189999999520296;20;100 mA
7.86035598015451;0.399749755859375;0.0043914794921875;0.199999999495049;21;100 mA
7.87035598012926;0.39971923828125;0.00427001953125;0.209999999469801;22;100 mA
7.88035598010401;0.399749755859375;0.00419769287109375;0.219999999444553;23;100 mA
7.89035598007877;0.399749755859375;0.00411041259765625;0.229999999419306;24;100 mA
7.90035598005352;0.399810791015625;0.00410430908203125;0.239999999394058;25;100 mA
7.91035598002827;0.399749755859375;0.004029541015625;0.249999999368811;26;100 mA
7.92035598000302;0.39971923828125;0.00394439697265625;0.259999999343563;27;100 mA
7.93035597997778;0.3997802734375;0.00389373779296875;0.269999999318316;28;100 mA
7.94035597995253;0.399749755859375;0.0038690185546875;0.279999999293068;29;100 mA
7.95035597992728;0.3997802734375;0.0038043212890625;0.28999999926782;30;100 mA
7.96035597990203;0.399810791015625;0.00374481201171875;0.299999999242573;31;100 mA
7.97035597987679;0.3997802734375;0.00370574951171875;0.309999999217325;32;100 mA
7.98035597985154;0.399810791015625;0.00374267578125;0.319999999192078;33;100 mA
7.99035597982629;0.399810791015625;0.0036773681640625;0.32999999916683;34;100 mA
8.00035597980104;0.3997802734375;0.0036285400390625;0.339999999141583;35;100 mA
8.0103559797758;0.399810791015625;0.00360198974609375;0.349999999116335;36;100 mA
8.02035597975055;0.399749755859375;0.00360137939453125;0.359999999091087;37;100 mA
8.0303559797253;0.399810791015625;0.003555908203125;0.36999999906584;38;100 mA
8.04035597970005;0.39971923828125;0.00349029541015625;0.379999999040592;39;100 mA
8.0503559796748;0.399749755859375;0.00346038818359375;0.389999999015345;40;100 mA
8.06035597964956;0.399749755859375;0.00349029541015625;0.399999998990097;41;100 mA
8.07035597962431;0.39971923828125;0.00345489501953125;0.40999999896485;42;100 mA
8.08035597959906;0.399749755859375;0.00342803955078125;0.419999998939602;43;100 mA
8.09035597957381;0.399749755859375;0.00338897705078125;0.429999998914354;44;100 mA
8.10035597954857;0.399810791015625;0.0034320068359375;0.439999998889107;45;100 mA
8.11035597952332;0.399749755859375;0.0033624267578125;0.449999998863859;46;100 mA
8.12035597949807;0.399810791015625;0.0033233642578125;0.459999998838612;47;100 mA
8.13035597947282;0.3997802734375;0.003304443359375;0.469999998813364;48;100 mA
8.14035597944758;0.3997802734375;0.00331817626953125;0.479999998788116;49;100 mA
8.15035597942233;0.39971923828125;0.003270263671875;0.489999998762869;50;100 mA
8.16035597939708;0.399810791015625;0.00322296142578125;0.499999998737621;51;100 mA
8.17035597937183;0.399749755859375;0.0032049560546875;0.509999998712374;52;100 mA
8.18035597934659;0.399749755859375;0.0032659912109375;0.519999998687126;53;100 mA
8.19035597932134;0.39971923828125;0.00321075439453125;0.529999998661879;54;100 mA
8.20035597929609;0.399810791015625;0.00319732666015625;0.539999998636631;55;100 mA
8.21035597927084;0.399810791015625;0.0031756591796875;0.549999998611383;56;100 mA
8.2203559792456;0.3997802734375;0.0032025146484375;0.559999998586136;57;100 mA
8.23035597922035;0.399749755859375;0.00316192626953125;0.569999998560888;58;100 mA
8.2403559791951;0.3997802734375;0.003114013671875;0.579999998535641;59;100 mA
8.25035597916985;0.3997802734375;0.00311920166015625;0.589999998510393;60;100 mA
8.26035597914461;0.3997802734375;0.00315460205078125;0.599999998485146;61;100 mA
8.27035597911936;0.3997802734375;0.0031060791015625;0.609999998459898;62;100 mA
8.28035597909411;0.3997802734375;0.00308380126953125;0.61999999843465;63;100 mA
8.29035597906886;0.399749755859375;0.0030718994140625;0.629999998409403;64;100 mA
8.30035597904362;0.3997802734375;0.00313690185546875;0.639999998384155;65;100 mA
8.31035597901837;0.399749755859375;0.00309722900390625;0.649999998358908;66;100 mA
8.32035597899312;0.3997802734375;0.00308258056640625;0.65999999833366;67;100 mA
8.33035597896787;0.399810791015625;0.00308349609375;0.669999998308413;68;100 mA
8.34035597894263;0.399749755859375;0.00310516357421875;0.679999998283165;69;100 mA
8.35035597891738;0.39971923828125;0.00307708740234375;0.689999998257917;70;100 mA
8.36035597889213;0.399749755859375;0.00303863525390625;0.69999999823267;71;100 mA
8.37035597886688;0.399749755859375;0.00303070068359375;0.709999998207422;72;100 mA
8.38035597884164;0.399749755859375;0.0030706787109375;0.719999998182175;73;100 mA
8.39035597881639;0.399749755859375;0.00301971435546875;0.729999998156927;74;100 mA
8.40035597879114;0.399749755859375;0.00300689697265625;0.73999999813168;75;100 mA
8.41035597876589;0.399688720703125;0.00299774169921875;0.749999998106432;76;100 mA
8.42035597874064;0.39984130859375;0.00304473876953125;0.759999998081184;77;100 mA
8.4303559787154;0.399810791015625;0.0030078125;0.769999998055937;78;100 mA
8.44035597869015;0.3997802734375;0.00298309326171875;0.779999998030689;79;100 mA
8.4503559786649;0.399810791015625;0.00298553466796875;0.789999998005442;80;100 mA
8.46035597863965;0.399749755859375;0.00298858642578125;0.799999997980194;81;100 mA
8.47035597861441;0.3997802734375;0.00295623779296875;0.809999997954947;82;100 mA
8.48035597858916;0.399749755859375;0.0029339599609375;0.819999997929699;83;100 mA
8.49035597856391;0.3997802734375;0.00292327880859375;0.829999997904451;84;100 mA
8.50035597853866;0.399810791015625;0.002978515625;0.839999997879204;85;100 mA
8.51035597851342;0.399810791015625;0.00293304443359375;0.849999997853956;86;100 mA
8.52035597848817;0.399749755859375;0.00292388916015625;0.859999997828709;87;100 mA
8.53035597846292;0.3997802734375;0.00290740966796875;0.869999997803461;88;100 mA
8.54035597843767;0.399749755859375;0.00292724609375;0.879999997778214;89;100 mA
8.55035597841243;0.3997802734375;0.00290618896484375;0.889999997752966;90;100 mA
8.56035597838718;0.399749755859375;0.00286834716796875;0.899999997727718;91;100 mA
8.57035597836193;0.399810791015625;0.00287322998046875;0.909999997702471;92;100 mA
8.58035597833668;0.399749755859375;0.0028936767578125;0.919999997677223;93;100 mA
8.59035597831144;0.399749755859375;0.00284454345703125;0.929999997651976;94;100 mA
8.60035597828619;0.399749755859375;0.0028289794921875;0.939999997626728;95;100 mA
8.61035597826094;0.3997802734375;0.00281646728515625;0.949999997601481;96;100 mA
8.62035597823569;0.399810791015625;0.00287445068359375;0.959999997576233;97;100 mA
8.63035597821045;0.399810791015625;0.00285247802734375;0.969999997550985;98;100 mA
8.6403559781852;0.399749755859375;0.0028387451171875;0.979999997525738;99;100 mA
8.65035597815995;0.399810791015625;0.0028570556640625;0.98999999750049;100;100 mA
8.6603559781347;0.3997802734375;0.00286895751953125;0.999999997475243;101;100 mA
8.67035597810946;0.3997802734375;0.00284149169921875;1.00999999745;102;100 mA
8.68035597808421;0.3997802734375;0.002818603515625;1.01999999742475;103;100 mA
8.69035597805896;0.3997802734375;0.0028131103515625;1.0299999973995;104;100 mA
8.70035597803371;0.399749755859375;0.00287109375;1.03999999737425;105;100 mA
8.71035597800847;0.3997802734375;0.00283599853515625;1.049999997349;106;100 mA
8.72035597798322;0.39971923828125;0.0028424072265625;1.05999999732376;107;100 mA
8.73035597795797;0.3997802734375;0.00283233642578125;1.06999999729851;108;100 mA
8.74035597793272;0.399749755859375;0.00284515380859375;1.07999999727326;109;100 mA
8.75035597790747;0.399810791015625;0.0028253173828125;1.08999999724801;110;100 mA
8.76035597788223;0.3997802734375;0.0027923583984375;1.09999999722277;111;100 mA
8.77035597785698;0.399749755859375;0.00280731201171875;1.10999999719752;112;100 mA
8.78035597783173;0.399749755859375;0.00282806396484375;1.11999999717227;113;100 mA
8.79035597780648;0.399810791015625;0.00280059814453125;1.12999999714702;114;100 mA
8.80035597778124;0.39971923828125;0.00278076171875;1.13999999712178;115;100 mA
8.81035597775599;0.3997802734375;0.002763671875;1.14999999709653;116;100 mA
8.82035597773074;0.3997802734375;0.00281524658203125;1.15999999707128;117;100 mA
8.83035597770549;0.399688720703125;0.0027850341796875;1.16999999704603;118;100 mA
8.84035597768025;0.39971923828125;0.00276519775390625;1.17999999702079;119;100 mA
8.850355977655;0.39971923828125;0.0027728271484375;1.18999999699554;120;100 mA
8.86035597762975;0.399810791015625;0.002777099609375;1.19999999697029;121;100 mA
8.8703559776045;0.39971923828125;0.0027642822265625;1.20999999694504;122;100 mA
8.88035597757926;0.399749755859375;0.00274322509765625;1.2199999969198;123;100 mA
8.89035597755401;0.3997802734375;0.00274871826171875;1.22999999689455;124;100 mA
8.90035597752876;0.39971923828125;0.00279815673828125;1.2399999968693;125;100 mA
8.91035597750351;0.399749755859375;0.0027655029296875;1.24999999684405;126;100 mA
8.92035597747827;0.399810791015625;0.00275146484375;1.25999999681881;127;100 mA
8.93035597745302;0.3997802734375;0.00273193359375;1.26999999679356;128;100 mA
8.94035597742777;0.3997802734375;0.00274871826171875;1.27999999676831;129;100 mA
8.95035597740252;0.399810791015625;0.002720947265625;1.28999999674306;130;100 mA
8.96035597737728;0.399749755859375;0.0026824951171875;1.29999999671782;131;100 mA
8.97035597735203;0.3997802734375;0.00270355224609375;1.30999999669257;132;100 mA
8.98035597732678;0.39984130859375;0.002720947265625;1.31999999666732;133;100 mA
8.99035597730153;0.3997802734375;0.002698974609375;1.32999999664207;134;100 mA
9.00035597727629;0.39971923828125;0.00267669677734375;1.33999999661683;135;100 mA
9.01035597725104;0.3997802734375;0.00266876220703125;1.34999999659158;136;100 mA
9.02035597722579;0.399749755859375;0.0027203369140625;1.35999999656633;137;100 mA
9.03035597720054;0.3997802734375;0.00269439697265625;1.36999999654108;138;100 mA
9.0403559771753;0.3997802734375;0.0026904296875;1.37999999651583;139;100 mA
9.05035597715005;0.3997802734375;0.00270843505859375;1.38999999649059;140;100 mA
9.0603559771248;0.399749755859375;0.00273712158203125;1.39999999646534;141;100 mA
9.07035597709955;0.399749755859375;0.00272705078125;1.40999999644009;142;100 mA
9.0803559770743;0.3997802734375;0.00268585205078125;1.41999999641484;143;100 mA
9.09035597704906;0.3997802734375;0.00268096923828125;1.4299999963896;144;100 mA
9.10035597702381;0.3997802734375;0.0027191162109375;1.43999999636435;145;100 mA
9.11035597699856;0.3997802734375;0.00268585205078125;1.4499999963391;146;100 mA
9.12035597697331;0.399749755859375;0.002677001953125;1.45999999631385;147;100 mA
9.13035597694807;0.39971923828125;0.00266998291015625;1.46999999628861;148;100 mA
9.14035597692282;0.39984130859375;0.0027166748046875;1.47999999626336;149;100 mA
9.15035597689757;0.399749755859375;0.00268768310546875;1.48999999623811;150;100 mA
9.16035597687232;0.3997802734375;0.0026690673828125;1.49999999621286;151;100 mA
9.17035597684708;0.399810791015625;0.0026910400390625;1.50999999618762;152;100 mA
9.18035597682183;0.399749755859375;0.0026971435546875;1.51999999616237;153;100 mA
9.19035597679658;0.399749755859375;0.0026666259765625;1.52999999613712;154;100 mA
9.20035597677133;0.399810791015625;0.00263641357421875;1.53999999611187;155;100 mA
9.21035597674609;0.399749755859375;0.00263275146484375;1.54999999608663;156;100 mA
9.22035597672084;0.3997802734375;0.00270263671875;1.55999999606138;157;100 mA
9.23035597669559;0.399810791015625;0.00267730712890625;1.56999999603613;158;100 mA
9.24035597667034;0.399688720703125;0.0026788330078125;1.57999999601088;159;100 mA
9.2503559766451;0.399810791015625;0.00267852783203125;1.58999999598564;160;100 mA
9.26035597661985;0.399749755859375;0.0026898193359375;1.59999999596039;161;100 mA
9.2703559765946;0.3997802734375;0.00267303466796875;1.60999999593514;162;100 mA
9.28035597656935;0.399749755859375;0.00262847900390625;1.61999999590989;163;100 mA
9.29035597654411;0.3997802734375;0.0026312255859375;1.62999999588465;164;100 mA
9.30035597651886;0.3997802734375;0.00264373779296875;1.6399999958594;165;100 mA
9.31035597649361;0.3997802734375;0.00261199951171875;1.64999999583415;166;100 mA
9.32035597646836;0.399749755859375;0.002598876953125;1.6599999958089;167;100 mA
9.33035597644312;0.399749755859375;0.002593994140625;1.66999999578366;168;100 mA
9.34035597641787;0.399749755859375;0.00264129638671875;1.67999999575841;169;100 mA
9.35035597639262;0.399749755859375;0.00261474609375;1.68999999573316;170;100 mA
9.36035597636737;0.399749755859375;0.0025933837890625;1.69999999570791;171;100 mA
9.37035597634213;0.399810791015625;0.00260101318359375;1.70999999568267;172;100 mA
9.38035597631688;0.3997802734375;0.00260772705078125;1.71999999565742;173;100 mA
9.39035597629163;0.3997802734375;0.0026007080078125;1.72999999563217;174;100 mA
9.40035597626638;0.399749755859375;0.0025701904296875;1.73999999560692;175;100 mA
9.41035597624114;0.399810791015625;0.002567138671875;1.74999999558167;176;100 mA
9.42035597621589;0.399810791015625;0.00261199951171875;1.75999999555643;177;100 mA
9.43035597619064;0.3997802734375;0.00258026123046875;1.76999999553118;178;100 mA
9.44035597616539;0.399749755859375;0.0025909423828125;1.77999999550593;179;100 mA
9.45035597614014;0.39971923828125;0.00259735107421875;1.78999999548068;180;100 mA
9.4603559761149;0.399749755859375;0.00261993408203125;1.79999999545544;181;100 mA
9.47035597608965;0.3997802734375;0.0026043701171875;1.80999999543019;182;100 mA
9.4803559760644;0.399749755859375;0.002568359375;1.81999999540494;183;100 mA
9.49035597603915;0.3997802734375;0.00257843017578125;1.82999999537969;184;100 mA
9.50035597601391;0.3997802734375;0.00260498046875;1.83999999535445;185;100 mA
9.51035597598866;0.39971923828125;0.00258056640625;1.8499999953292;186;100 mA
9.52035597596341;0.3997802734375;0.002567138671875;1.85999999530395;187;100 mA
9.53035597593816;0.3997802734375;0.00256103515625;1.8699999952787;188;100 mA
9.54035597591292;0.399810791015625;0.00261871337890625;1.87999999525346;189;100 mA
9.55035597588767;0.399749755859375;0.0025885009765625;1.88999999522821;190;100 mA
9.56035597586242;0.39971923828125;0.0025799560546875;1.89999999520296;191;100 mA
9.57035597583717;0.399810791015625;0.002601318359375;1.90999999517771;192;100 mA
9.58035597581193;0.399810791015625;0.00261474609375;1.91999999515247;193;100 mA
9.59035597578668;0.3997802734375;0.0026007080078125;1.92999999512722;194;100 mA
9.60035597576143;0.399749755859375;0.0025653076171875;1.93999999510197;195;100 mA
9.61035597573618;0.3997802734375;0.00256134033203125;1.94999999507672;196;100 mA
9.62035597571094;0.399749755859375;0.00259521484375;1.95999999505148;197;100 mA
9.63035597568569;0.399749755859375;0.00255401611328125;1.96999999502623;198;100 mA
9.64035597566044;0.3997802734375;0.00255340576171875;1.97999999500098;199;100 mA
9.65035597563519;0.3997802734375;0.00255889892578125;1.98999999497573;200;100 mA
9.66035597560995;0.399749755859375;0.0025970458984375;1.99999999495049;201;100 mA
9.6703559755847;0.3997802734375;0.0025927734375;2.00999999492524;202;100 mA
9.68035597555945;0.399749755859375;0.002567138671875;2.01999999489999;203;100 mA
9.6903559755342;0.399810791015625;0.00259368896484375;2.02999999487474;204;100 mA
9.70035597550896;0.3997802734375;0.002607421875;2.0399999948495;205;100 mA
9.71035597548371;0.39971923828125;0.0025860595703125;2.04999999482425;206;100 mA
9.72035597545846;0.399749755859375;0.0025714111328125;2.059999994799;207;100 mA
9.73035597543321;0.399810791015625;0.0025701904296875;2.06999999477375;208;100 mA
9.74035597540797;0.399749755859375;0.0026275634765625;2.0799999947485;209;100 mA
9.75035597538272;0.39971923828125;0.0025933837890625;2.08999999472326;210;100 mA
9.76035597535747;0.399749755859375;0.00259521484375;2.09999999469801;211;100 mA
9.77035597533222;0.39971923828125;0.00260711669921875;2.10999999467276;212;100 mA
9.78035597530697;0.39971923828125;0.0026141357421875;2.11999999464751;213;100 mA
9.79035597528173;0.399749755859375;0.0025927734375;2.12999999462227;214;100 mA
9.80035597525648;0.3997802734375;0.00255218505859375;2.13999999459702;215;100 mA
9.81035597523123;0.39984130859375;0.00255279541015625;2.14999999457177;216;100 mA
9.82035597520598;0.39971923828125;0.002586669921875;2.15999999454652;217;100 mA
9.83035597518074;0.399749755859375;0.00253570556640625;2.16999999452128;218;100 mA
9.84035597515549;0.399810791015625;0.00251953125;2.17999999449603;219;100 mA
9.85035597513024;0.39971923828125;0.0025048828125;2.18999999447078;220;100 mA
9.86035597510499;0.399749755859375;0.00253570556640625;2.19999999444553;221;100 mA
9.87035597507975;0.39971923828125;0.00252349853515625;2.20999999442029;222;100 mA
9.8803559750545;0.3997802734375;0.00249908447265625;2.21999999439504;223;100 mA
9.89035597502925;0.3997802734375;0.002525634765625;2.22999999436979;224;100 mA
9.900355975004;0.399749755859375;0.00252838134765625;2.23999999434454;225;100 mA
9.91035597497876;0.399749755859375;0.0024981689453125;2.2499999943193;226;100 mA
9.92035597495351;0.39984130859375;0.00247467041015625;2.25999999429405;227;100 mA
9.93035597492826;0.3997802734375;0.00247283935546875;2.2699999942688;228;100 mA
9.94035597490301;0.399749755859375;0.00253082275390625;2.27999999424355;229;100 mA
9.95035597487777;0.399810791015625;0.002506103515625;2.28999999421831;230;100 mA
9.96035597485252;0.399749755859375;0.002513427734375;2.29999999419306;231;100 mA
9.97035597482727;0.3997802734375;0.00251708984375;2.30999999416781;232;100 mA
9.98035597480202;0.399688720703125;0.00252410888671875;2.31999999414256;233;100 mA
9.99035597477678;0.3997802734375;0.00252197265625;2.32999999411732;234;100 mA
10.0003559747515;0.399688720703125;0.0024749755859375;2.33999999409207;235;100 mA
10.0103559747263;0.399810791015625;0.00248382568359375;2.34999999406682;236;100 mA
10.020355974701;0.39971923828125;0.00251190185546875;2.35999999404157;237;100 mA
10.0303559746758;0.399810791015625;0.002486572265625;2.36999999401633;238;100 mA
10.0403559746505;0.399810791015625;0.0024945068359375;2.37999999399108;239;100 mA
10.0503559746253;0.399810791015625;0.00249755859375;2.38999999396583;240;100 mA
10.0603559746;0.3997802734375;0.0025579833984375;2.39999999394058;241;100 mA
10.0703559745748;0.399749755859375;0.00253387451171875;2.40999999391533;242;100 mA
10.0803559745495;0.399749755859375;0.00251556396484375;2.41999999389009;243;100 mA
10.0903559745243;0.39971923828125;0.00253814697265625;2.42999999386484;244;100 mA
10.1003559744991;0.39984130859375;0.00253997802734375;2.43999999383959;245;100 mA
10.1103559744738;0.3997802734375;0.0025299072265625;2.44999999381434;246;100 mA
10.1203559744486;0.39984130859375;0.00250732421875;2.4599999937891;247;100 mA
10.1303559744233;0.3997802734375;0.0024993896484375;2.46999999376385;248;100 mA
10.1403559743981;0.39971923828125;0.00254913330078125;2.4799999937386;249;100 mA
10.1503559743728;0.3997802734375;0.0025152587890625;2.48999999371335;250;100 mA
10.1603559743476;0.39971923828125;0.00251953125;2.49999999368811;251;100 mA
10.1703559743223;0.3997802734375;0.0025177001953125;2.50999999366286;252;100 mA
10.1803559742971;0.3997802734375;0.0025323486328125;2.51999999363761;253;100 mA
10.1903559742718;0.3997802734375;0.002515869140625;2.52999999361236;254;100 mA
10.2003559742466;0.399749755859375;0.002481689453125;2.53999999358712;255;100 mA
10.2103559742213;0.39984130859375;0.0025048828125;2.54999999356187;256;100 mA
10.2203559741961;0.399749755859375;0.00253509521484375;2.55999999353662;257;100 mA
10.2303559741708;0.399688720703125;0.0025054931640625;2.56999999351137;258;100 mA
10.2403559741456;0.39971923828125;0.00249542236328125;2.57999999348613;259;100 mA
10.2503559741203;0.399749755859375;0.00249725341796875;2.58999999346088;260;100 mA
10.2603559740951;0.3997802734375;0.002562255859375;2.59999999343563;261;100 mA
10.2703559740698;0.39971923828125;0.00254302978515625;2.60999999341038;262;100 mA
10.2803559740446;0.3997802734375;0.00252410888671875;2.61999999338514;263;100 mA
10.2903559740193;0.3997802734375;0.0025323486328125;2.62999999335989;264;100 mA
10.3003559739941;0.3997802734375;0.00251953125;2.63999999333464;265;100 mA
10.3103559739689;0.399749755859375;0.0025152587890625;2.64999999330939;266;100 mA
10.3203559739436;0.399749755859375;0.00248687744140625;2.65999999328415;267;100 mA
10.3303559739184;0.3997802734375;0.002493896484375;2.6699999932589;268;100 mA
10.3403559738931;0.39971923828125;0.00254852294921875;2.67999999323365;269;100 mA
10.3503559738679;0.399810791015625;0.00252227783203125;2.6899999932084;270;100 mA
10.3603559738426;0.3997802734375;0.00253631591796875;2.69999999318316;271;100 mA
10.3703559738174;0.399688720703125;0.0025396728515625;2.70999999315791;272;100 mA
10.3803559737921;0.39971923828125;0.002554931640625;2.71999999313266;273;100 mA
10.3903559737669;0.3997802734375;0.002547607421875;2.72999999310741;274;100 mA
10.4003559737416;0.39984130859375;0.00251007080078125;2.73999999308217;275;100 mA
10.4103559737164;0.399810791015625;0.00252838134765625;2.74999999305692;276;100 mA
10.4203559736911;0.3997802734375;0.00253448486328125;2.75999999303167;277;100 mA
10.4303559736659;0.39984130859375;0.00251434326171875;2.76999999300642;278;100 mA
10.4403559736406;0.399749755859375;0.0025140380859375;2.77999999298117;279;100 mA
10.4503559736154;0.399871826171875;0.00250946044921875;2.78999999295593;280;100 mA
10.4603559735901;0.399749755859375;0.0025653076171875;2.79999999293068;281;100 mA
10.4703559735649;0.399810791015625;0.0025445556640625;2.80999999290543;282;100 mA
10.4803559735396;0.39971923828125;0.00254730224609375;2.81999999288018;283;100 mA
10.4903559735144;0.399749755859375;0.00256378173828125;2.82999999285494;284;100 mA
10.5003559734891;0.3997802734375;0.00256622314453125;2.83999999282969;285;100 mA
10.5103559734639;0.39971923828125;0.00255157470703125;2.84999999280444;286;100 mA
10.5203559734387;0.399749755859375;0.0025115966796875;2.85999999277919;287;100 mA
10.5303559734134;0.399749755859375;0.002513427734375;2.86999999275395;288;100 mA
10.5403559733882;0.39984130859375;0.00255615234375;2.8799999927287;289;100 mA
10.5503559733629;0.3997802734375;0.00253204345703125;2.88999999270345;290;100 mA
10.5603559733377;0.39984130859375;0.00253570556640625;2.8999999926782;291;100 mA
10.5703559733124;0.399749755859375;0.00252655029296875;2.90999999265296;292;100 mA
10.5803559732872;0.399749755859375;0.0025494384765625;2.91999999262771;293;100 mA
10.5903559732619;0.399749755859375;0.00253387451171875;2.92999999260246;294;100 mA
10.6003559732367;0.3997802734375;0.0024896240234375;2.93999999257721;295;100 mA
10.6103559732114;0.39984130859375;0.00250457763671875;2.94999999255197;296;100 mA
10.6203559731862;0.399810791015625;0.00250946044921875;2.95999999252672;297;100 mA
10.6303559731609;0.399810791015625;0.00249298095703125;2.96999999250147;298;100 mA
10.6403559731357;0.399749755859375;0.002469482421875;2.97999999247622;299;100 mA
10.6503559731104;0.399749755859375;0.0024603271484375;2.98999999245098;300;100 mA
10.6603559730852;0.3997802734375;0.002518310546875;2.99999999242573;301;100 mA
10.6703559730599;0.39971923828125;0.0024896240234375;3.00999999240048;302;100 mA
10.6803559730347;0.39971923828125;0.0024908447265625;3.01999999237523;303;100 mA
10.6903559730094;0.399749755859375;0.00250335693359375;3.02999999234999;304;100 mA
10.7003559729842;0.39971923828125;0.0025091552734375;3.03999999232474;305;100 mA
10.710355972959;0.399688720703125;0.0025164794921875;3.04999999229949;306;100 mA
10.7203559729337;0.399810791015625;0.00248992919921875;3.05999999227424;307;100 mA
10.7303559729085;0.39971923828125;0.00250030517578125;3.069999992249;308;100 mA
10.7403559728832;0.399749755859375;0.002545166015625;3.07999999222375;309;100 mA
10.750355972858;0.3997802734375;0.00251800537109375;3.0899999921985;310;100 mA
10.7603559728327;0.3997802734375;0.00251861572265625;3.09999999217325;311;100 mA
10.7703559728075;0.39971923828125;0.00250030517578125;3.109999992148;312;100 mA
10.7803559727822;0.3997802734375;0.00254150390625;3.11999999212276;313;100 mA
10.790355972757;0.399749755859375;0.00252655029296875;3.12999999209751;314;100 mA
10.8003559727317;0.399810791015625;0.0025;3.13999999207226;315;100 mA
10.8103559727065;0.399749755859375;0.00251068115234375;3.14999999204701;316;100 mA
10.8203559726812;0.39984130859375;0.00249969482421875;3.15999999202177;317;100 mA
10.830355972656;0.399749755859375;0.0024761962890625;3.16999999199652;318;100 mA
10.8403559726307;0.399810791015625;0.00244903564453125;3.17999999197127;319;100 mA
10.8503559726055;0.3997802734375;0.00244354248046875;3.18999999194602;320;100 mA
10.8603559725802;0.3997802734375;0.00250701904296875;3.19999999192078;321;100 mA
10.870355972555;0.3997802734375;0.00248321533203125;3.20999999189553;322;100 mA
10.8803559725297;0.39971923828125;0.0024896240234375;3.21999999187028;323;100 mA
10.8903559725045;0.3997802734375;0.0024908447265625;3.22999999184503;324;100 mA
10.9003559724792;0.399749755859375;0.00250518798828125;3.23999999181979;325;100 mA
10.910355972454;0.399749755859375;0.00250732421875;3.24999999179454;326;100 mA
10.9203559724288;0.399749755859375;0.00247283935546875;3.25999999176929;327;100 mA
10.9303559724035;0.39971923828125;0.00247894287109375;3.26999999174404;328;100 mA
10.9403559723783;0.3997802734375;0.00250244140625;3.2799999917188;329;100 mA
10.950355972353;0.399749755859375;0.00247955322265625;3.28999999169355;330;100 mA
10.9603559723278;0.399749755859375;0.0024774169921875;3.2999999916683;331;100 mA
10.9703559723025;0.3997802734375;0.00246826171875;3.30999999164305;332;100 mA
10.9803559722773;0.3997802734375;0.002528076171875;3.31999999161781;333;100 mA
10.990355972252;0.399810791015625;0.0025177001953125;3.32999999159256;334;100 mA
11.0003559722268;0.3997802734375;0.00250244140625;3.33999999156731;335;100 mA
11.0103559722015;0.399749755859375;0.0025201416015625;3.34999999154206;336;100 mA
11.0203559721763;0.399749755859375;0.0025244140625;3.35999999151682;337;100 mA
11.030355972151;0.39984130859375;0.0025146484375;3.36999999149157;338;100 mA
11.0403559721258;0.399749755859375;0.0024847412109375;3.37999999146632;339;100 mA
11.0503559721005;0.399749755859375;0.00246978759765625;3.38999999144107;340;100 mA
11.0603559720753;0.3997802734375;0.0025042724609375;3.39999999141583;341;100 mA
11.07035597205;0.399810791015625;0.002462158203125;3.40999999139058;342;100 mA
11.0803559720248;0.3997802734375;0.0024658203125;3.41999999136533;343;100 mA
11.0903559719995;0.399749755859375;0.0024786376953125;3.42999999134008;344;100 mA
11.1003559719743;0.39971923828125;0.00250762939453125;3.43999999131483;345;100 mA
11.110355971949;0.399810791015625;0.00250457763671875;3.44999999128959;346;100 mA
11.1203559719238;0.399810791015625;0.0024749755859375;3.45999999126434;347;100 mA
11.1303559718986;0.3997802734375;0.0024859619140625;3.46999999123909;348;100 mA
11.1403559718733;0.39971923828125;0.0025054931640625;3.47999999121384;349;100 mA
11.1503559718481;0.3997802734375;0.00248260498046875;3.4899999911886;350;100 mA
11.1603559718228;0.399749755859375;0.00247589111328125;3.49999999116335;351;100 mA
11.1703559717976;0.399749755859375;0.00247161865234375;3.5099999911381;352;100 mA
11.1803559717723;0.399749755859375;0.00253265380859375;3.51999999111285;353;100 mA
11.1903559717471;0.3997802734375;0.00249481201171875;3.52999999108761;354;100 mA
11.2003559717218;0.39971923828125;0.00248016357421875;3.53999999106236;355;100 mA
11.2103559716966;0.3997802734375;0.00250152587890625;3.54999999103711;356;100 mA
11.2203559716713;0.399749755859375;0.00250946044921875;3.55999999101186;357;100 mA
11.2303559716461;0.3997802734375;0.00249542236328125;3.56999999098662;358;100 mA
11.2403559716208;0.39971923828125;0.002464599609375;3.57999999096137;359;100 mA
11.2503559715956;0.399749755859375;0.00246246337890625;3.58999999093612;360;100 mA
11.2603559715703;0.3997802734375;0.0025054931640625;3.59999999091087;361;100 mA
11.2703559715451;0.3997802734375;0.00246246337890625;3.60999999088563;362;100 mA
11.2803559715198;0.399810791015625;0.00246185302734375;3.61999999086038;363;100 mA
11.2903559714946;0.399749755859375;0.00246002197265625;3.62999999083513;364;100 mA
11.3003559714693;0.3997802734375;0.00248809814453125;3.63999999080988;365;100 mA
11.3103559714441;0.3997802734375;0.00246917724609375;3.64999999078464;366;100 mA
11.3203559714188;0.3997802734375;0.00242462158203125;3.65999999075939;367;100 mA
11.3303559713936;0.3997802734375;0.002440185546875;3.66999999073414;368;100 mA
11.3403559713684;0.399810791015625;0.002467041015625;3.67999999070889;369;100 mA
11.3503559713431;0.399810791015625;0.00244842529296875;3.68999999068365;370;100 mA
11.3603559713179;0.39971923828125;0.0024298095703125;3.6999999906584;371;100 mA
11.3703559712926;0.3997802734375;0.00241943359375;3.70999999063315;372;100 mA
11.3803559712674;0.3997802734375;0.00247344970703125;3.7199999906079;373;100 mA
11.3903559712421;0.399749755859375;0.00244659423828125;3.72999999058266;374;100 mA
11.4003559712169;0.399810791015625;0.0024468994140625;3.73999999055741;375;100 mA
11.4103559711916;0.3997802734375;0.00246856689453125;3.74999999053216;376;100 mA
11.4203559711664;0.399749755859375;0.00247955322265625;3.75999999050691;377;100 mA
11.4303559711411;0.399688720703125;0.0024755859375;3.76999999048167;378;100 mA
11.4403559711159;0.39971923828125;0.0024420166015625;3.77999999045642;379;100 mA
11.4503559710906;0.399749755859375;0.002440185546875;3.78999999043117;380;100 mA
11.4603559710654;0.3997802734375;0.0024713134765625;3.79999999040592;381;100 mA
11.4703559710401;0.399810791015625;0.00244232177734375;3.80999999038067;382;100 mA
11.4803559710149;0.39971923828125;0.0024456787109375;3.81999999035543;383;100 mA
11.4903559709896;0.3997802734375;0.002447509765625;3.82999999033018;384;100 mA
11.5003559709644;0.399810791015625;0.00248687744140625;3.83999999030493;385;100 mA
11.5103559709391;0.3997802734375;0.00246917724609375;3.84999999027968;386;100 mA
11.5203559709139;0.399749755859375;0.00244049072265625;3.85999999025444;387;100 mA
11.5303559708886;0.3997802734375;0.00246551513671875;3.86999999022919;388;100 mA
11.5403559708634;0.3997802734375;0.002481689453125;3.87999999020394;389;100 mA
11.5503559708382;0.3997802734375;0.0024505615234375;3.88999999017869;390;100 mA
11.5603559708129;0.39971923828125;0.00242462158203125;3.89999999015345;391;100 mA
11.5703559707877;0.399810791015625;0.0024176025390625;3.9099999901282;392;100 mA
11.5803559707624;0.3997802734375;0.00246917724609375;3.91999999010295;393;100 mA
11.5903559707372;0.3997802734375;0.002440185546875;3.9299999900777;394;100 mA
11.6003559707119;0.399749755859375;0.00243682861328125;3.93999999005246;395;100 mA
11.6103559706867;0.3997802734375;0.0024395751953125;3.94999999002721;396;100 mA
11.6203559706614;0.399749755859375;0.00245819091796875;3.95999999000196;397;100 mA
11.6303559706362;0.3997802734375;0.00245941162109375;3.96999998997671;398;100 mA
11.6403559706109;0.399749755859375;0.0024200439453125;3.97999998995147;399;100 mA
11.6503559705857;0.399749755859375;0.00243133544921875;3.98999998992622;400;100 mA
11.6603559705604;0.39971923828125;0.0024658203125;3.99999998990097;401;100 mA
11.6703559705352;0.39971923828125;0.00243865966796875;4.00999998987572;402;100 mA
11.6803559705099;0.3997802734375;0.0024371337890625;4.01999998985048;403;100 mA
11.6903559704847;0.399749755859375;0.0024267578125;4.02999998982523;404;100 mA
11.7003559704594;0.399810791015625;0.0024688720703125;4.03999998979998;405;100 mA
11.7103559704342;0.3997802734375;0.00245025634765625;4.04999998977473;406;100 mA
11.7203559704089;0.3997802734375;0.0024310302734375;4.05999998974949;407;100 mA
11.7303559703837;0.399749755859375;0.00244720458984375;4.06999998972424;408;100 mA
11.7403559703585;0.3997802734375;0.00245025634765625;4.07999998969899;409;100 mA
11.7503559703332;0.399810791015625;0.00243896484375;4.08999998967374;410;100 mA
11.760355970308;0.399810791015625;0.00241790771484375;4.0999999896485;411;100 mA
11.7703559702827;0.399749755859375;0.0024029541015625;4.10999998962325;412;100 mA
11.7803559702575;0.39971923828125;0.00244537353515625;4.119999989598;413;100 mA
11.7903559702322;0.399810791015625;0.0024212646484375;4.12999998957275;414;100 mA
11.800355970207;0.399749755859375;0.0024285888671875;4.1399999895475;415;100 mA
11.8103559701817;0.3997802734375;0.00242340087890625;4.14999998952226;416;100 mA
11.8203559701565;0.399749755859375;0.0024371337890625;4.15999998949701;417;100 mA
11.8303559701312;0.3997802734375;0.00242645263671875;4.16999998947176;418;100 mA
11.840355970106;0.39971923828125;0.0023968505859375;4.17999998944651;419;100 mA
11.8503559700807;0.3997802734375;0.0024072265625;4.18999998942127;420;100 mA
11.8603559700555;0.399749755859375;0.00242218017578125;4.19999998939602;421;100 mA
11.8703559700302;0.3997802734375;0.002396240234375;4.20999998937077;422;100 mA
11.880355970005;0.399749755859375;0.002386474609375;4.21999998934552;423;100 mA
11.8903559699797;0.39971923828125;0.0023822021484375;4.22999998932028;424;100 mA
11.9003559699545;0.399810791015625;0.00242340087890625;4.23999998929503;425;100 mA
11.9103559699292;0.39971923828125;0.002401123046875;4.24999998926978;426;100 mA
11.920355969904;0.3997802734375;0.00238922119140625;4.25999998924453;427;100 mA
11.9303559698787;0.39971923828125;0.002396240234375;4.26999998921929;428;100 mA
11.9403559698535;0.399810791015625;0.002401123046875;4.27999998919404;429;100 mA
11.9503559698283;0.3997802734375;0.00239898681640625;4.28999998916879;430;100 mA
11.960355969803;0.399749755859375;0.00237274169921875;4.29999998914354;431;100 mA
11.9703559697778;0.39971923828125;0.002374267578125;4.3099999891183;432;100 mA
11.9803559697525;0.399749755859375;0.00240875244140625;4.31999998909305;433;100 mA
11.9903559697273;0.399871826171875;0.00238037109375;4.3299999890678;434;100 mA
12.000355969702;0.399810791015625;0.00238616943359375;4.33999998904255;435;100 mA
12.0103559696768;0.399810791015625;0.0023974609375;4.34999998901731;436;100 mA
12.0203559696515;0.39971923828125;0.00242523193359375;4.35999998899206;437;100 mA
12.0303559696263;0.39984130859375;0.00242156982421875;4.36999998896681;438;100 mA
12.040355969601;0.39971923828125;0.0023992919921875;4.37999998894156;439;100 mA
12.0503559695758;0.399749755859375;0.00241424560546875;4.38999998891632;440;100 mA
12.0603559695505;0.399810791015625;0.002430419921875;4.39999998889107;441;100 mA
12.0703559695253;0.3997802734375;0.002406005859375;4.40999998886582;442;100 mA
12.0803559695;0.399749755859375;0.0023883056640625;4.41999998884057;443;100 mA
12.0903559694748;0.3997802734375;0.00237762451171875;4.42999998881533;444;100 mA
12.1003559694495;0.39971923828125;0.00242767333984375;4.43999998879008;445;100 mA
12.1103559694243;0.3997802734375;0.0024066162109375;4.44999998876483;446;100 mA
12.120355969399;0.3997802734375;0.00239471435546875;4.45999998873958;447;100 mA
12.1303559693738;0.399749755859375;0.00240234375;4.46999998871433;448;100 mA
12.1403559693485;0.3997802734375;0.0024078369140625;4.47999998868909;449;100 mA
12.1503559693233;0.399871826171875;0.002398681640625;4.48999998866384;450;100 mA
12.1603559692981;0.399749755859375;0.0023681640625;4.49999998863859;451;100 mA
12.1703559692728;0.39971923828125;0.0023773193359375;4.50999998861334;452;100 mA
12.1803559692476;0.3997802734375;0.00241058349609375;4.5199999885881;453;100 mA
12.1903559692223;0.3997802734375;0.00237823486328125;4.52999998856285;454;100 mA
12.2003559691971;0.3997802734375;0.00237396240234375;4.5399999885376;455;100 mA
12.2103559691718;0.399810791015625;0.00237091064453125;4.54999998851235;456;100 mA
12.2203559691466;0.399749755859375;0.00240997314453125;4.55999998848711;457;100 mA
12.2303559691213;0.399749755859375;0.00238677978515625;4.56999998846186;458;100 mA
12.2403559690961;0.3997802734375;0.00236358642578125;4.57999998843661;459;100 mA
12.2503559690708;0.399749755859375;0.00238739013671875;4.58999998841136;460;100 mA
12.2603559690456;0.399749755859375;0.0023944091796875;4.59999998838612;461;100 mA
12.2703559690203;0.3997802734375;0.00236968994140625;4.60999998836087;462;100 mA
12.2803559689951;0.399749755859375;0.0023541259765625;4.61999998833562;463;100 mA
12.2903559689698;0.3997802734375;0.00235870361328125;4.62999998831037;464;100 mA
12.3003559689446;0.3997802734375;0.00241912841796875;4.63999998828513;465;100 mA
12.3103559689193;0.399749755859375;0.00239471435546875;4.64999998825988;466;100 mA
12.3203559688941;0.399810791015625;0.0023980712890625;4.65999998823463;467;100 mA
12.3303559688688;0.3997802734375;0.00240875244140625;4.66999998820938;468;100 mA
12.3403559688436;0.399749755859375;0.00242156982421875;4.67999998818414;469;100 mA
12.3503559688183;0.399749755859375;0.0024151611328125;4.68999998815889;470;100 mA
12.3603559687931;0.3997802734375;0.0023797607421875;4.69999998813364;471;100 mA
12.3703559687679;0.3997802734375;0.00238372802734375;4.70999998810839;472;100 mA
12.3803559687426;0.399749755859375;0.00240997314453125;4.71999998808315;473;100 mA
12.3903559687174;0.39971923828125;0.0023797607421875;4.7299999880579;474;100 mA
12.4003559686921;0.399810791015625;0.00237152099609375;4.73999998803265;475;100 mA
12.4103559686669;0.399749755859375;0.00237548828125;4.7499999880074;476;100 mA
12.4203559686416;0.3997802734375;0.002420654296875;4.75999998798216;477;100 mA
12.4303559686164;0.3997802734375;0.0023956298828125;4.76999998795691;478;100 mA
12.4403559685911;0.3997802734375;0.00238189697265625;4.77999998793166;479;100 mA
12.4503559685659;0.399810791015625;0.00240997314453125;4.78999998790641;480;100 mA
12.4603559685406;0.399749755859375;0.00240020751953125;4.79999998788116;481;100 mA
12.4703559685154;0.399749755859375;0.0023834228515625;4.80999998785592;482;100 mA
12.4803559684901;0.399810791015625;0.00236602783203125;4.81999998783067;483;100 mA
12.4903559684649;0.399749755859375;0.0023663330078125;4.82999998780542;484;100 mA
12.5003559684396;0.3997802734375;0.0024114990234375;4.83999998778017;485;100 mA
12.5103559684144;0.3997802734375;0.0023773193359375;4.84999998775493;486;100 mA
12.5203559683891;0.399749755859375;0.0023626708984375;4.85999998772968;487;100 mA
12.5303559683639;0.399810791015625;0.0023577880859375;4.86999998770443;488;100 mA
12.5403559683386;0.399749755859375;0.0023809814453125;4.87999998767918;489;100 mA
12.5503559683134;0.399749755859375;0.00237762451171875;4.88999998765394;490;100 mA
12.5603559682881;0.3997802734375;0.0023516845703125;4.89999998762869;491;100 mA
12.5703559682629;0.39971923828125;0.00236602783203125;4.90999998760344;492;100 mA
12.5803559682377;0.399749755859375;0.00237884521484375;4.91999998757819;493;100 mA
12.5903559682124;0.399810791015625;0.00234649658203125;4.92999998755295;494;100 mA
12.6003559681872;0.39971923828125;0.00234344482421875;4.9399999875277;495;100 mA
12.6103559681619;0.399749755859375;0.0023529052734375;4.94999998750245;496;100 mA
12.6203559681367;0.3997802734375;0.0024005126953125;4.9599999874772;497;100 mA
12.6303559681114;0.399749755859375;0.00237762451171875;4.96999998745196;498;100 mA
12.6403559680862;0.399810791015625;0.0023748779296875;4.97999998742671;499;100 mA
12.6503559680609;0.39971923828125;0.00239013671875;4.98999998740146;500;100 mA
12.6603559680357;0.3997802734375;0.002391357421875;4.99999998737621;501;100 mA
12.6703559680104;0.39971923828125;0.00237396240234375;5.00999998735097;502;100 mA
12.6803559679852;0.399749755859375;0.0023486328125;5.01999998732572;503;100 mA
12.6903559679599;0.3997802734375;0.0023541259765625;5.02999998730047;504;100 mA
12.7003559679347;0.399749755859375;0.00240264892578125;5.03999998727522;505;100 mA
12.7103559679094;0.399810791015625;0.0023779296875;5.04999998724998;506;100 mA
12.7203559678842;0.3997802734375;0.00238189697265625;5.05999998722473;507;100 mA
12.7303559678589;0.399810791015625;0.0023870849609375;5.06999998719948;508;100 mA
12.7403559678337;0.399810791015625;0.00241241455078125;5.07999998717423;509;100 mA
12.7503559678084;0.399810791015625;0.002396240234375;5.08999998714899;510;100 mA
12.7603559677832;0.399810791015625;0.0023699951171875;5.09999998712374;511;100 mA
12.770355967758;0.399749755859375;0.002386474609375;5.10999998709849;512;100 mA
12.7803559677327;0.39971923828125;0.00239593505859375;5.11999998707324;513;100 mA
12.7903559677075;0.399749755859375;0.00237518310546875;5.129999987048;514;100 mA
12.8003559676822;0.3997802734375;0.0023651123046875;5.13999998702275;515;100 mA
12.810355967657;0.399749755859375;0.00235748291015625;5.1499999869975;516;100 mA
12.8203559676317;0.3997802734375;0.0024041748046875;5.15999998697225;517;100 mA
12.8303559676065;0.39971923828125;0.00237518310546875;5.169999986947;518;100 mA
12.8403559675812;0.399749755859375;0.002371826171875;5.17999998692176;519;100 mA
12.850355967556;0.39971923828125;0.00239013671875;5.18999998689651;520;100 mA
12.8603559675307;0.39971923828125;0.00240081787109375;5.19999998687126;521;100 mA
12.8703559675055;0.39971923828125;0.0023785400390625;5.20999998684601;522;100 mA
12.8803559674802;0.399810791015625;0.0023419189453125;5.21999998682077;523;100 mA
12.890355967455;0.399749755859375;0.00234619140625;5.22999998679552;524;100 mA
12.9003559674297;0.399749755859375;0.0023858642578125;5.23999998677027;525;100 mA
12.9103559674045;0.3997802734375;0.00235870361328125;5.24999998674502;526;100 mA
12.9203559673792;0.399810791015625;0.00236175537109375;5.25999998671978;527;100 mA
12.930355967354;0.399810791015625;0.0023675537109375;5.26999998669453;528;100 mA
12.9403559673287;0.399749755859375;0.002403564453125;5.27999998666928;529;100 mA
12.9503559673035;0.3997802734375;0.00238037109375;5.28999998664403;530;100 mA
12.9603559672782;0.39971923828125;0.00234771728515625;5.29999998661879;531;100 mA
12.970355967253;0.399749755859375;0.0023687744140625;5.30999998659354;532;100 mA
12.9803559672278;0.399749755859375;0.00237823486328125;5.31999998656829;533;100 mA
12.9903559672025;0.399749755859375;0.00235137939453125;5.32999998654304;534;100 mA
13.0003559671773;0.399749755859375;0.00233917236328125;5.3399999865178;535;100 mA
13.010355967152;0.3997802734375;0.00234527587890625;5.34999998649255;536;100 mA
13.0203559671268;0.3997802734375;0.00239501953125;5.3599999864673;537;100 mA
13.0303559671015;0.399749755859375;0.00236358642578125;5.36999998644205;538;100 mA
13.0403559670763;0.399810791015625;0.0023553466796875;5.37999998641681;539;100 mA
13.050355967051;0.3997802734375;0.0023736572265625;5.38999998639156;540;100 mA
13.0603559670258;0.399749755859375;0.00239593505859375;5.39999998636631;541;100 mA
13.0703559670005;0.399749755859375;0.00237640380859375;5.40999998634106;542;100 mA
13.0803559669753;0.399749755859375;0.00234710693359375;5.41999998631582;543;100 mA
13.09035596695;0.39971923828125;0.00236175537109375;5.42999998629057;544;100 mA
13.1003559669248;0.3997802734375;0.0023895263671875;5.43999998626532;545;100 mA
13.1103559668995;0.399810791015625;0.00236419677734375;5.44999998624007;546;100 mA
13.1203559668743;0.3997802734375;0.00235931396484375;5.45999998621483;547;100 mA
13.130355966849;0.3997802734375;0.00237457275390625;5.46999998618958;548;100 mA
13.1403559668238;0.399749755859375;0.00240570068359375;5.47999998616433;549;100 mA
13.1503559667985;0.399871826171875;0.00237579345703125;5.48999998613908;550;100 mA
13.1603559667733;0.3997802734375;0.0023565673828125;5.49999998611383;551;100 mA
13.170355966748;0.399749755859375;0.002373046875;5.50999998608859;552;100 mA
13.1803559667228;0.399810791015625;0.00237762451171875;5.51999998606334;553;100 mA
13.1903559666976;0.399749755859375;0.00235137939453125;5.52999998603809;554;100 mA
13.2003559666723;0.3997802734375;0.00233489990234375;5.53999998601284;555;100 mA
13.2103559666471;0.39971923828125;0.0023333740234375;5.5499999859876;556;100 mA
13.2203559666218;0.399749755859375;0.002371826171875;5.55999998596235;557;100 mA
13.2303559665966;0.3997802734375;0.0023406982421875;5.5699999859371;558;100 mA
13.2403559665713;0.399810791015625;0.00235107421875;5.57999998591185;559;100 mA
13.2503559665461;0.3997802734375;0.00237060546875;5.58999998588661;560;100 mA
13.2603559665208;0.399688720703125;0.00239044189453125;5.59999998586136;561;100 mA
13.2703559664956;0.399749755859375;0.00237945556640625;5.60999998583611;562;100 mA
13.2803559664703;0.399749755859375;0.002347412109375;5.61999998581086;563;100 mA
13.2903559664451;0.399810791015625;0.00236328125;5.62999998578562;564;100 mA
13.3003559664198;0.399749755859375;0.00237396240234375;5.63999998576037;565;100 mA
13.3103559663946;0.39971923828125;0.00234161376953125;5.64999998573512;566;100 mA
13.3203559663693;0.3997802734375;0.00234710693359375;5.65999998570987;567;100 mA
13.3303559663441;0.3997802734375;0.0023468017578125;5.66999998568463;568;100 mA
13.3403559663188;0.399749755859375;0.00239166259765625;5.67999998565938;569;100 mA
13.3503559662936;0.399749755859375;0.00237274169921875;5.68999998563413;570;100 mA
13.3603559662683;0.399810791015625;0.00235992431640625;5.69999998560888;571;100 mA
13.3703559662431;0.39971923828125;0.00237335205078125;5.70999998558364;572;100 mA
13.3803559662178;0.399749755859375;0.00237335205078125;5.71999998555839;573;100 mA
13.3903559661926;0.399810791015625;0.00236175537109375;5.72999998553314;574;100 mA
13.4003559661674;0.399749755859375;0.00233978271484375;5.73999998550789;575;100 mA
13.4103559661421;0.3997802734375;0.00234100341796875;5.74999998548265;576;100 mA
13.4203559661169;0.39971923828125;0.00238372802734375;5.7599999854574;577;100 mA
13.4303559660916;0.3997802734375;0.00236968994140625;5.76999998543215;578;100 mA
13.4403559660664;0.399749755859375;0.002379150390625;5.7799999854069;579;100 mA
13.4503559660411;0.3997802734375;0.00238494873046875;5.78999998538166;580;100 mA
13.4603559660159;0.399810791015625;0.00239776611328125;5.79999998535641;581;100 mA
13.4703559659906;0.399749755859375;0.00238433837890625;5.80999998533116;582;100 mA
13.4803559659654;0.399749755859375;0.002362060546875;5.81999998530591;583;100 mA
13.4903559659401;0.39971923828125;0.00238433837890625;5.82999998528066;584;100 mA
13.5003559659149;0.39971923828125;0.0023944091796875;5.83999998525542;585;100 mA
13.5103559658896;0.3997802734375;0.0023687744140625;5.84999998523017;586;100 mA
13.5203559658644;0.399810791015625;0.0023590087890625;5.85999998520492;587;100 mA
13.5303559658391;0.399749755859375;0.0023529052734375;5.86999998517967;588;100 mA
13.5403559658139;0.3997802734375;0.00239715576171875;5.87999998515443;589;100 mA
13.5503559657886;0.399749755859375;0.00237060546875;5.88999998512918;590;100 mA
13.5603559657634;0.3997802734375;0.002364501953125;5.89999998510393;591;100 mA
13.5703559657381;0.399810791015625;0.0023675537109375;5.90999998507868;592;100 mA
13.5803559657129;0.3997802734375;0.0023583984375;5.91999998505344;593;100 mA
13.5903559656876;0.399810791015625;0.002353515625;5.92999998502819;594;100 mA
13.6003559656624;0.399749755859375;0.00234222412109375;5.93999998500294;595;100 mA
13.6103559656372;0.39971923828125;0.00235260009765625;5.94999998497769;596;100 mA
13.6203559656119;0.39971923828125;0.00237640380859375;5.95999998495245;597;100 mA
13.6303559655867;0.3997802734375;0.002342529296875;5.9699999849272;598;100 mA
13.6403559655614;0.399749755859375;0.002342529296875;5.97999998490195;599;100 mA
13.6503559655362;0.39971923828125;0.00234375;5.9899999848767;600;100 mA
13.6603559655109;0.39971923828125;0.00236480712890625;5.99999998485146;601;100 mA
13.6703559654857;0.39971923828125;0.00235626220703125;6.00999998482621;602;100 mA
13.6803559654604;0.3997802734375;0.00233734130859375;6.01999998480096;603;100 mA
13.6903559654352;0.3997802734375;0.00235565185546875;6.02999998477571;604;100 mA
13.7003559654099;0.3997802734375;0.00235626220703125;6.03999998475047;605;100 mA
13.7103559653847;0.399810791015625;0.002337646484375;6.04999998472522;606;100 mA
13.7203559653594;0.399749755859375;0.0023236083984375;6.05999998469997;607;100 mA
13.7303559653342;0.399749755859375;0.00232818603515625;6.06999998467472;608;100 mA
13.7403559653089;0.399749755859375;0.00238311767578125;6.07999998464948;609;100 mA
13.7503559652837;0.399810791015625;0.0023516845703125;6.08999998462423;610;100 mA
13.7603559652584;0.39971923828125;0.00235198974609375;6.09999998459898;611;100 mA
13.7703559652332;0.39971923828125;0.0023565673828125;6.10999998457373;612;100 mA
13.7803559652079;0.399810791015625;0.00234954833984375;6.11999998454849;613;100 mA
13.7903559651827;0.399749755859375;0.00234222412109375;6.12999998452324;614;100 mA
13.8003559651575;0.399749755859375;0.002318115234375;6.13999998449799;615;100 mA
13.8103559651322;0.399810791015625;0.00233642578125;6.14999998447274;616;100 mA
13.820355965107;0.399688720703125;0.00236968994140625;6.1599999844475;617;100 mA
13.8303559650817;0.3997802734375;0.0023443603515625;6.16999998442225;618;100 mA
13.8403559650565;0.399749755859375;0.002347412109375;6.179999984397;619;100 mA
13.8503559650312;0.3997802734375;0.00233917236328125;6.18999998437175;620;100 mA
13.860355965006;0.3997802734375;0.00237548828125;6.1999999843465;621;100 mA
13.8703559649807;0.3997802734375;0.00235321044921875;6.20999998432126;622;100 mA
13.8803559649555;0.399688720703125;0.0023272705078125;6.21999998429601;623;100 mA
13.8903559649302;0.3997802734375;0.00235015869140625;6.22999998427076;624;100 mA
13.900355964905;0.39971923828125;0.00234832763671875;6.23999998424551;625;100 mA
13.9103559648797;0.399749755859375;0.0023309326171875;6.24999998422027;626;100 mA
13.9203559648545;0.399810791015625;0.0023162841796875;6.25999998419502;627;100 mA
13.9303559648292;0.39971923828125;0.00231658935546875;6.26999998416977;628;100 mA
13.940355964804;0.3997802734375;0.00236328125;6.27999998414452;629;100 mA
13.9503559647787;0.3997802734375;0.00233489990234375;6.28999998411928;630;100 mA
13.9603559647535;0.399749755859375;0.002335205078125;6.29999998409403;631;100 mA
13.9703559647282;0.399810791015625;0.00233245849609375;6.30999998406878;632;100 mA
13.980355964703;0.3997802734375;0.00233367919921875;6.31999998404353;633;100 mA
13.9903559646777;0.399749755859375;0.00233642578125;6.32999998401829;634;100 mA
14.0003559646525;0.399810791015625;0.0023101806640625;6.33999998399304;635;100 mA
14.0103559646273;0.3997802734375;0.00232757568359375;6.34999998396779;636;100 mA
14.020355964602;0.399749755859375;0.0023468017578125;6.35999998394254;637;100 mA
14.0303559645768;0.3997802734375;0.00231292724609375;6.3699999839173;638;100 mA
14.0403559645515;0.399749755859375;0.0023175048828125;6.37999998389205;639;100 mA
14.0503559645263;0.3997802734375;0.00230987548828125;6.3899999838668;640;100 mA
14.060355964501;0.3997802734375;0.00235015869140625;6.39999998384155;641;100 mA
14.0703559644758;0.399810791015625;0.002332763671875;6.40999998381631;642;100 mA
14.0803559644505;0.39971923828125;0.00232025146484375;6.41999998379106;643;100 mA
14.0903559644253;0.3997802734375;0.00234100341796875;6.42999998376581;644;100 mA
14.1003559644;0.399749755859375;0.00234039306640625;6.43999998374056;645;100 mA
14.1103559643748;0.39971923828125;0.00233154296875;6.44999998371532;646;100 mA
14.1203559643495;0.399749755859375;0.00229949951171875;6.45999998369007;647;100 mA
14.1303559643243;0.39971923828125;0.00229827880859375;6.46999998366482;648;100 mA
14.140355964299;0.3997802734375;0.00235687255859375;6.47999998363957;649;100 mA
14.1503559642738;0.399749755859375;0.00233734130859375;6.48999998361433;650;100 mA
14.1603559642485;0.399749755859375;0.00234710693359375;6.49999998358908;651;100 mA
14.1703559642233;0.3997802734375;0.002344970703125;6.50999998356383;652;100 mA
14.180355964198;0.399749755859375;0.0023602294921875;6.51999998353858;653;100 mA
14.1903559641728;0.39971923828125;0.00236358642578125;6.52999998351333;654;100 mA
14.2003559641475;0.39984130859375;0.00233367919921875;6.53999998348809;655;100 mA
14.2103559641223;0.39971923828125;0.0023565673828125;6.54999998346284;656;100 mA
14.2203559640971;0.399749755859375;0.00237518310546875;6.55999998343759;657;100 mA
14.2303559640718;0.399749755859375;0.00234771728515625;6.56999998341234;658;100 mA
14.2403559640466;0.3997802734375;0.00232879638671875;6.5799999833871;659;100 mA
14.2503559640213;0.399810791015625;0.00232330322265625;6.58999998336185;660;100 mA
14.2603559639961;0.39984130859375;0.00236541748046875;6.5999999833366;661;100 mA
14.2703559639708;0.399810791015625;0.0023486328125;6.60999998331135;662;100 mA
14.2803559639456;0.399749755859375;0.00234222412109375;6.61999998328611;663;100 mA
14.2903559639203;0.399749755859375;0.00235626220703125;6.62999998326086;664;100 mA
14.3003559638951;0.399749755859375;0.00234619140625;6.63999998323561;665;100 mA
14.3103559638698;0.399749755859375;0.0023388671875;6.64999998321036;666;100 mA
14.3203559638446;0.3997802734375;0.0023162841796875;6.65999998318512;667;100 mA
14.3303559638193;0.39971923828125;0.00231597900390625;6.66999998315987;668;100 mA
14.3403559637941;0.3997802734375;0.00236572265625;6.67999998313462;669;100 mA
14.3503559637688;0.39971923828125;0.00235321044921875;6.68999998310937;670;100 mA
14.3603559637436;0.3997802734375;0.0023541259765625;6.69999998308413;671;100 mA
14.3703559637183;0.3997802734375;0.0023455810546875;6.70999998305888;672;100 mA
14.3803559636931;0.3997802734375;0.0023638916015625;6.71999998303363;673;100 mA
14.3903559636678;0.399810791015625;0.00235443115234375;6.72999998300838;674;100 mA
14.4003559636426;0.399749755859375;0.002314453125;6.73999998298314;675;100 mA
14.4103559636173;0.3997802734375;0.00231964111328125;6.74999998295789;676;100 mA
14.4203559635921;0.399749755859375;0.0023223876953125;6.75999998293264;677;100 mA
14.4303559635669;0.399749755859375;0.00230316162109375;6.76999998290739;678;100 mA
14.4403559635416;0.399810791015625;0.00229583740234375;6.77999998288215;679;100 mA
14.4503559635164;0.399749755859375;0.00229644775390625;6.7899999828569;680;100 mA
14.4603559634911;0.399749755859375;0.0023614501953125;6.79999998283165;681;100 mA
14.4703559634659;0.3997802734375;0.00233917236328125;6.8099999828064;682;100 mA
14.4803559634406;0.399749755859375;0.00233642578125;6.81999998278116;683;100 mA
14.4903559634154;0.3997802734375;0.0023541259765625;6.82999998275591;684;100 mA
14.5003559633901;0.399688720703125;0.00235565185546875;6.83999998273066;685;100 mA
14.5103559633649;0.3997802734375;0.00234405517578125;6.84999998270541;686;100 mA
14.5203559633396;0.399749755859375;0.0023126220703125;6.85999998268016;687;100 mA
14.5303559633144;0.3997802734375;0.00231597900390625;6.86999998265492;688;100 mA
14.5403559632891;0.3997802734375;0.0023553466796875;6.87999998262967;689;100 mA
14.5503559632639;0.399749755859375;0.002327880859375;6.88999998260442;690;100 mA
14.5603559632386;0.3997802734375;0.00232269287109375;6.89999998257917;691;100 mA
14.5703559632134;0.399749755859375;0.0023187255859375;6.90999998255393;692;100 mA
14.5803559631881;0.3997802734375;0.00234344482421875;6.91999998252868;693;100 mA
14.5903559631629;0.399749755859375;0.002330322265625;6.92999998250343;694;100 mA
14.6003559631376;0.399749755859375;0.0022943115234375;6.93999998247818;695;100 mA
14.6103559631124;0.3997802734375;0.0023095703125;6.94999998245294;696;100 mA
14.6203559630871;0.399810791015625;0.00231719970703125;6.95999998242769;697;100 mA
14.6303559630619;0.399749755859375;0.00229705810546875;6.96999998240244;698;100 mA
14.6403559630367;0.3997802734375;0.00228729248046875;6.97999998237719;699;100 mA
14.6503559630114;0.399688720703125;0.00229278564453125;6.98999998235195;700;100 mA
