Time (s);WE(1).Potential (V);WE(1).Current (A);Corrected time (s);Index;Current range
15.1394989617764;0.2998046875;0.00117156982421875;0;1;100 mA
15.1494989617512;0.299896240234375;0.00144622802734375;0.00999999997475243;2;100 mA
15.1594989617259;0.29986572265625;0.0015643310546875;0.0199999999495049;3;100 mA
15.1694989617007;0.299774169921875;0.00167205810546875;0.0299999999242573;4;100 mA
15.1794989616754;0.299835205078125;0.0017193603515625;0.0399999998990097;5;100 mA
15.1894989616502;0.29986572265625;0.00176605224609375;0.0499999998737621;6;100 mA
15.199498961625;0.299896240234375;0.0018157958984375;0.0599999998485146;7;100 mA
15.2094989615997;0.29986572265625;0.0018505859375;0.069999999823267;8;100 mA
15.2194989615745;0.2998046875;0.00185089111328125;0.0799999997980194;9;100 mA
15.2294989615492;0.299835205078125;0.00185455322265625;0.0899999997727718;10;100 mA
15.239498961524;0.29986572265625;0.0018585205078125;0.0999999997475243;11;100 mA
15.2494989614987;0.29986572265625;0.00191650390625;0.109999999722277;12;100 mA
15.2594989614735;0.29986572265625;0.001903076171875;0.119999999697029;13;100 mA
15.2694989614482;0.29986572265625;0.00193115234375;0.129999999671782;14;100 mA
15.279498961423;0.299835205078125;0.001932373046875;0.139999999646534;15;100 mA
15.2894989613977;0.29986572265625;0.001951904296875;0.149999999621286;16;100 mA
15.2994989613725;0.2998046875;0.00194488525390625;0.159999999596039;17;100 mA
15.3094989613472;0.29986572265625;0.00192535400390625;0.169999999570791;18;100 mA
15.319498961322;0.299835205078125;0.001937255859375;0.179999999545544;19;100 mA
15.3294989612967;0.299835205078125;0.00195770263671875;0.189999999520296;20;100 mA
15.3394989612715;0.299774169921875;0.00192230224609375;0.199999999495049;21;100 mA
15.3494989612462;0.299896240234375;0.00194122314453125;0.209999999469801;22;100 mA
15.359498961221;0.2998046875;0.0019342041015625;0.219999999444553;23;100 mA
15.3694989611957;0.299896240234375;0.001986083984375;0.229999999419306;24;100 mA
15.3794989611705;0.299774169921875;0.001966552734375;0.239999999394058;25;100 mA
15.3894989611453;0.29986572265625;0.0019659423828125;0.249999999368811;26;100 mA
15.39949896112;0.299896240234375;0.001976318359375;0.259999999343563;27;100 mA
15.4094989610948;0.29986572265625;0.001978759765625;0.269999999318316;28;100 mA
15.4194989610695;0.299835205078125;0.0019610595703125;0.279999999293068;29;100 mA
15.4294989610443;0.299835205078125;0.00194427490234375;0.28999999926782;30;100 mA
15.439498961019;0.29986572265625;0.00193572998046875;0.299999999242573;31;100 mA
15.4494989609938;0.299835205078125;0.00197845458984375;0.309999999217325;32;100 mA
15.4594989609685;0.299835205078125;0.00194793701171875;0.319999999192078;33;100 mA
15.4694989609433;0.299835205078125;0.00196868896484375;0.32999999916683;34;100 mA
15.479498960918;0.29986572265625;0.00196563720703125;0.339999999141583;35;100 mA
15.4894989608928;0.299835205078125;0.00200286865234375;0.349999999116335;36;100 mA
15.4994989608675;0.29986572265625;0.00199615478515625;0.359999999091087;37;100 mA
15.5094989608423;0.2998046875;0.00198089599609375;0.36999999906584;38;100 mA
15.519498960817;0.299896240234375;0.00199554443359375;0.379999999040592;39;100 mA
15.5294989607918;0.29986572265625;0.00201934814453125;0.389999999015345;40;100 mA
15.5394989607665;0.29974365234375;0.001982421875;0.399999998990097;41;100 mA
15.5494989607413;0.29986572265625;0.0019921875;0.40999999896485;42;100 mA
15.559498960716;0.299896240234375;0.00198822021484375;0.419999998939602;43;100 mA
15.5694989606908;0.299896240234375;0.00204620361328125;0.429999998914354;44;100 mA
15.5794989606655;0.299774169921875;0.00202239990234375;0.439999998889107;45;100 mA
15.5894989606403;0.29986572265625;0.00203582763671875;0.449999998863859;46;100 mA
15.5994989606151;0.29986572265625;0.0020440673828125;0.459999998838612;47;100 mA
15.6094989605898;0.299835205078125;0.0020513916015625;0.469999998813364;48;100 mA
15.6194989605646;0.299835205078125;0.002032470703125;0.479999998788116;49;100 mA
15.6294989605393;0.299835205078125;0.00201202392578125;0.489999998762869;50;100 mA
15.6394989605141;0.29986572265625;0.00200592041015625;0.499999998737621;51;100 mA
15.6494989604888;0.299835205078125;0.002044677734375;0.509999998712374;52;100 mA
15.6594989604636;0.2998046875;0.002008056640625;0.519999998687126;53;100 mA
15.6694989604383;0.299774169921875;0.00202880859375;0.529999998661879;54;100 mA
15.6794989604131;0.299835205078125;0.00201690673828125;0.539999998636631;55;100 mA
15.6894989603878;0.299835205078125;0.0020501708984375;0.549999998611383;56;100 mA
15.6994989603626;0.299774169921875;0.00203643798828125;0.559999998586136;57;100 mA
15.7094989603373;0.2998046875;0.0020196533203125;0.569999998560888;58;100 mA
15.7194989603121;0.299896240234375;0.0020355224609375;0.579999998535641;59;100 mA
15.7294989602868;0.2998046875;0.00205841064453125;0.589999998510393;60;100 mA
15.7394989602616;0.2998046875;0.0020294189453125;0.599999998485146;61;100 mA
15.7494989602363;0.29986572265625;0.0020269775390625;0.609999998459898;62;100 mA
15.7594989602111;0.2998046875;0.0020086669921875;0.61999999843465;63;100 mA
15.7694989601858;0.29986572265625;0.00206146240234375;0.629999998409403;64;100 mA
15.7794989601606;0.299835205078125;0.00204010009765625;0.639999998384155;65;100 mA
15.7894989601353;0.2999267578125;0.002042236328125;0.649999998358908;66;100 mA
15.7994989601101;0.299896240234375;0.00202545166015625;0.65999999833366;67;100 mA
15.8094989600849;0.299835205078125;0.00203582763671875;0.669999998308413;68;100 mA
15.8194989600596;0.2998046875;0.00203094482421875;0.679999998283165;69;100 mA
15.8294989600344;0.29986572265625;0.00201324462890625;0.689999998257917;70;100 mA
15.8394989600091;0.299896240234375;0.00202178955078125;0.69999999823267;71;100 mA
15.8494989599839;0.29986572265625;0.00205902099609375;0.709999998207422;72;100 mA
15.8594989599586;0.299835205078125;0.00202423095703125;0.719999998182175;73;100 mA
15.8694989599334;0.29986572265625;0.00204803466796875;0.729999998156927;74;100 mA
15.8794989599081;0.29986572265625;0.00203857421875;0.73999999813168;75;100 mA
15.8894989598829;0.299835205078125;0.00207977294921875;0.749999998106432;76;100 mA
15.8994989598576;0.2998046875;0.00206207275390625;0.759999998081184;77;100 mA
15.9094989598324;0.299774169921875;0.0020452880859375;0.769999998055937;78;100 mA
15.9194989598071;0.299835205078125;0.0020489501953125;0.779999998030689;79;100 mA
15.9294989597819;0.29986572265625;0.00205596923828125;0.789999998005442;80;100 mA
15.9394989597566;0.299774169921875;0.0020306396484375;0.799999997980194;81;100 mA
15.9494989597314;0.299774169921875;0.0020306396484375;0.809999997954947;82;100 mA
15.9594989597061;0.299896240234375;0.0020208740234375;0.819999997929699;83;100 mA
15.9694989596809;0.299896240234375;0.0020697021484375;0.829999997904451;84;100 mA
15.9794989596556;0.299774169921875;0.0020306396484375;0.839999997879204;85;100 mA
15.9894989596304;0.299774169921875;0.00203704833984375;0.849999997853956;86;100 mA
15.9994989596051;0.29986572265625;0.00202911376953125;0.859999997828709;87;100 mA
16.0094989595799;0.29986572265625;0.00204345703125;0.869999997803461;88;100 mA
16.0194989595547;0.299774169921875;0.00202880859375;0.879999997778214;89;100 mA
16.0294989595294;0.299896240234375;0.00200225830078125;0.889999997752966;90;100 mA
16.0394989595042;0.299957275390625;0.0020037841796875;0.899999997727718;91;100 mA
16.0494989594789;0.2998046875;0.002032470703125;0.909999997702471;92;100 mA
16.0594989594537;0.299835205078125;0.0019903564453125;0.919999997677223;93;100 mA
16.0694989594284;0.299835205078125;0.0019921875;0.929999997651976;94;100 mA
16.0794989594032;0.2999267578125;0.001986083984375;0.939999997626728;95;100 mA
16.0894989593779;0.299774169921875;0.00204315185546875;0.949999997601481;96;100 mA
16.0994989593527;0.2998046875;0.00201171875;0.959999997576233;97;100 mA
16.1094989593274;0.29986572265625;0.00200408935546875;0.969999997550985;98;100 mA
16.1194989593022;0.299896240234375;0.00201446533203125;0.979999997525738;99;100 mA
16.1294989592769;0.299835205078125;0.0020281982421875;0.98999999750049;100;100 mA
16.1394989592517;0.2998046875;0.00201934814453125;0.999999997475243;101;100 mA
16.1494989592264;0.299835205078125;0.002008056640625;1.00999999745;102;100 mA
16.1594989592012;0.29986572265625;0.00199615478515625;1.01999999742475;103;100 mA
16.1694989591759;0.299835205078125;0.00204376220703125;1.0299999973995;104;100 mA
16.1794989591507;0.299835205078125;0.00200958251953125;1.03999999737425;105;100 mA
16.1894989591254;0.29986572265625;0.0020281982421875;1.049999997349;106;100 mA
16.1994989591002;0.299835205078125;0.00202789306640625;1.05999999732376;107;100 mA
16.2094989590749;0.29986572265625;0.00206787109375;1.06999999729851;108;100 mA
16.2194989590497;0.2998046875;0.0020611572265625;1.07999999727326;109;100 mA
16.2294989590245;0.29986572265625;0.00203094482421875;1.08999999724801;110;100 mA
16.2394989589992;0.299896240234375;0.00203857421875;1.09999999722277;111;100 mA
16.249498958974;0.299835205078125;0.002064208984375;1.10999999719752;112;100 mA
16.2594989589487;0.2998046875;0.00202880859375;1.11999999717227;113;100 mA
16.2694989589235;0.29986572265625;0.00202484130859375;1.12999999714702;114;100 mA
16.2794989588982;0.299835205078125;0.00201019287109375;1.13999999712178;115;100 mA
16.289498958873;0.29986572265625;0.00205718994140625;1.14999999709653;116;100 mA
16.2994989588477;0.299835205078125;0.0020257568359375;1.15999999707128;117;100 mA
16.3094989588225;0.29986572265625;0.00203155517578125;1.16999999704603;118;100 mA
16.3194989587972;0.2999267578125;0.00203399658203125;1.17999999702079;119;100 mA
16.329498958772;0.299835205078125;0.00204681396484375;1.18999999699554;120;100 mA
16.3394989587467;0.2998046875;0.00203948974609375;1.19999999697029;121;100 mA
16.3494989587215;0.2998046875;0.002034912109375;1.20999999694504;122;100 mA
16.3594989586962;0.29986572265625;0.00203033447265625;1.2199999969198;123;100 mA
16.369498958671;0.29986572265625;0.002076416015625;1.22999999689455;124;100 mA
16.3794989586457;0.299774169921875;0.002032470703125;1.2399999968693;125;100 mA
16.3894989586205;0.29986572265625;0.0020477294921875;1.24999999684405;126;100 mA
16.3994989585952;0.2999267578125;0.00204803466796875;1.25999999681881;127;100 mA
16.40949895857;0.299896240234375;0.0020928955078125;1.26999999679356;128;100 mA
16.4194989585448;0.2998046875;0.002083740234375;1.27999999676831;129;100 mA
16.4294989585195;0.299835205078125;0.00206512451171875;1.28999999674306;130;100 mA
16.4394989584943;0.299896240234375;0.0020684814453125;1.29999999671782;131;100 mA
16.449498958469;0.29986572265625;0.0020819091796875;1.30999999669257;132;100 mA
16.4594989584438;0.2998046875;0.00204315185546875;1.31999999666732;133;100 mA
16.4694989584185;0.29986572265625;0.00202972412109375;1.32999999664207;134;100 mA
16.4794989583933;0.299896240234375;0.002008056640625;1.33999999661683;135;100 mA
16.489498958368;0.29986572265625;0.002061767578125;1.34999999659158;136;100 mA
16.4994989583428;0.299835205078125;0.0020294189453125;1.35999999656633;137;100 mA
16.5094989583175;0.29986572265625;0.0020404052734375;1.36999999654108;138;100 mA
16.5194989582923;0.299835205078125;0.00204925537109375;1.37999999651583;139;100 mA
16.529498958267;0.29986572265625;0.0020623779296875;1.38999999649059;140;100 mA
16.5394989582418;0.299835205078125;0.0020513916015625;1.39999999646534;141;100 mA
16.5494989582165;0.29986572265625;0.0020257568359375;1.40999999644009;142;100 mA
16.5594989581913;0.2999267578125;0.00202117919921875;1.41999999641484;143;100 mA
16.569498958166;0.299896240234375;0.00206390380859375;1.4299999963896;144;100 mA
16.5794989581408;0.299774169921875;0.002017822265625;1.43999999636435;145;100 mA
16.5894989581155;0.299835205078125;0.0020208740234375;1.4499999963391;146;100 mA
16.5994989580903;0.29986572265625;0.00200927734375;1.45999999631385;147;100 mA
16.609498958065;0.29986572265625;0.00205810546875;1.46999999628861;148;100 mA
16.6194989580398;0.2998046875;0.00204559326171875;1.47999999626336;149;100 mA
16.6294989580146;0.29986572265625;0.00203582763671875;1.48999999623811;150;100 mA
16.6394989579893;0.29986572265625;0.0020489501953125;1.49999999621286;151;100 mA
16.6494989579641;0.29986572265625;0.0020745849609375;1.50999999618762;152;100 mA
16.6594989579388;0.2998046875;0.00205841064453125;1.51999999616237;153;100 mA
16.6694989579136;0.2999267578125;0.00205718994140625;1.52999999613712;154;100 mA
16.6794989578883;0.2999267578125;0.00203948974609375;1.53999999611187;155;100 mA
16.6894989578631;0.29986572265625;0.00208465576171875;1.54999999608663;156;100 mA
16.6994989578378;0.299774169921875;0.0020458984375;1.55999999606138;157;100 mA
16.7094989578126;0.29986572265625;0.00205352783203125;1.56999999603613;158;100 mA
16.7194989577873;0.29986572265625;0.00205108642578125;1.57999999601088;159;100 mA
16.7294989577621;0.29986572265625;0.0020733642578125;1.58999999598564;160;100 mA
16.7394989577368;0.299835205078125;0.0020770263671875;1.59999999596039;161;100 mA
16.7494989577116;0.299896240234375;0.00206329345703125;1.60999999593514;162;100 mA
16.7594989576863;0.299896240234375;0.00205780029296875;1.61999999590989;163;100 mA
16.7694989576611;0.29986572265625;0.0020928955078125;1.62999999588465;164;100 mA
16.7794989576358;0.299835205078125;0.002034912109375;1.6399999958594;165;100 mA
16.7894989576106;0.29986572265625;0.0020404052734375;1.64999999583415;166;100 mA
16.7994989575853;0.299957275390625;0.00202423095703125;1.6599999958089;167;100 mA
16.8094989575601;0.29986572265625;0.00206451416015625;1.66999999578366;168;100 mA
16.8194989575348;0.2998046875;0.00204315185546875;1.67999999575841;169;100 mA
16.8294989575096;0.2998046875;0.0020343017578125;1.68999999573316;170;100 mA
16.8394989574844;0.29986572265625;0.00203826904296875;1.69999999570791;171;100 mA
16.8494989574591;0.299835205078125;0.00205718994140625;1.70999999568267;172;100 mA
16.8594989574339;0.2998046875;0.00203399658203125;1.71999999565742;173;100 mA
16.8694989574086;0.29986572265625;0.0020172119140625;1.72999999563217;174;100 mA
16.8794989573834;0.2999267578125;0.00200592041015625;1.73999999560692;175;100 mA
16.8894989573581;0.29986572265625;0.00205047607421875;1.74999999558167;176;100 mA
16.8994989573329;0.2998046875;0.0020135498046875;1.75999999555643;177;100 mA
16.9094989573076;0.299896240234375;0.0020196533203125;1.76999999553118;178;100 mA
16.9194989572824;0.2999267578125;0.0020196533203125;1.77999999550593;179;100 mA
16.9294989572571;0.299896240234375;0.002054443359375;1.78999999548068;180;100 mA
16.9394989572319;0.299835205078125;0.00204925537109375;1.79999999545544;181;100 mA
16.9494989572066;0.299835205078125;0.00202606201171875;1.80999999543019;182;100 mA
16.9594989571814;0.299896240234375;0.0020263671875;1.81999999540494;183;100 mA
16.9694989571561;0.299835205078125;0.00206146240234375;1.82999999537969;184;100 mA
16.9794989571309;0.299835205078125;0.00202484130859375;1.83999999535445;185;100 mA
16.9894989571056;0.29986572265625;0.00201629638671875;1.8499999953292;186;100 mA
16.9994989570804;0.299835205078125;0.00199798583984375;1.85999999530395;187;100 mA
17.0094989570551;0.299835205078125;0.002061767578125;1.8699999952787;188;100 mA
17.0194989570299;0.29986572265625;0.00204986572265625;1.87999999525346;189;100 mA
17.0294989570046;0.2998046875;0.0020355224609375;1.88999999522821;190;100 mA
17.0394989569794;0.299957275390625;0.00203857421875;1.89999999520296;191;100 mA
17.0494989569542;0.29986572265625;0.002047119140625;1.90999999517771;192;100 mA
17.0594989569289;0.29986572265625;0.00203277587890625;1.91999999515247;193;100 mA
17.0694989569037;0.29986572265625;0.00201812744140625;1.92999999512722;194;100 mA
17.0794989568784;0.299896240234375;0.00200836181640625;1.93999999510197;195;100 mA
17.0894989568532;0.2998046875;0.0020550537109375;1.94999999507672;196;100 mA
17.0994989568279;0.2998046875;0.0020294189453125;1.95999999505148;197;100 mA
17.1094989568027;0.299835205078125;0.00204437255859375;1.96999999502623;198;100 mA
17.1194989567774;0.299896240234375;0.0020458984375;1.97999999500098;199;100 mA
17.1294989567522;0.299835205078125;0.0020806884765625;1.98999999497573;200;100 mA
17.1394989567269;0.2998046875;0.0020782470703125;1.99999999495049;201;100 mA
17.1494989567017;0.29986572265625;0.00206207275390625;2.00999999492524;202;100 mA
17.1594989566764;0.2999267578125;0.0020556640625;2.01999999489999;203;100 mA
17.1694989566512;0.299896240234375;0.00206695556640625;2.02999999487474;204;100 mA
17.1794989566259;0.2998046875;0.00203277587890625;2.0399999948495;205;100 mA
17.1894989566007;0.2998046875;0.00203704833984375;2.04999999482425;206;100 mA
17.1994989565754;0.299896240234375;0.00202423095703125;2.059999994799;207;100 mA
17.2094989565502;0.2998046875;0.0020684814453125;2.06999999477375;208;100 mA
17.2194989565249;0.299835205078125;0.00204559326171875;2.0799999947485;209;100 mA
17.2294989564997;0.299896240234375;0.002047119140625;2.08999999472326;210;100 mA
17.2394989564744;0.2999267578125;0.00204498291015625;2.09999999469801;211;100 mA
17.2494989564492;0.29986572265625;0.002056884765625;2.10999999467276;212;100 mA
17.259498956424;0.2998046875;0.0020404052734375;2.11999999464751;213;100 mA
17.2694989563987;0.299835205078125;0.00201385498046875;2.12999999462227;214;100 mA
17.2794989563735;0.29998779296875;0.00199676513671875;2.13999999459702;215;100 mA
17.2894989563482;0.299835205078125;0.002030029296875;2.14999999457177;216;100 mA
17.299498956323;0.299835205078125;0.00199432373046875;2.15999999454652;217;100 mA
17.3094989562977;0.29986572265625;0.001998291015625;2.16999999452128;218;100 mA
17.3194989562725;0.299957275390625;0.00199127197265625;2.17999999449603;219;100 mA
17.3294989562472;0.29986572265625;0.002037353515625;2.18999999447078;220;100 mA
17.339498956222;0.299835205078125;0.002042236328125;2.19999999444553;221;100 mA
17.3494989561967;0.299835205078125;0.00202972412109375;2.20999999442029;222;100 mA
17.3594989561715;0.29986572265625;0.00204437255859375;2.21999999439504;223;100 mA
17.3694989561462;0.29986572265625;0.00206878662109375;2.22999999436979;224;100 mA
17.379498956121;0.29974365234375;0.0020281982421875;2.23999999434454;225;100 mA
17.3894989560957;0.299835205078125;0.00201202392578125;2.2499999943193;226;100 mA
17.3994989560705;0.29986572265625;0.0019976806640625;2.25999999429405;227;100 mA
17.4094989560452;0.299896240234375;0.00205047607421875;2.2699999942688;228;100 mA
17.41949895602;0.299774169921875;0.0020269775390625;2.27999999424355;229;100 mA
17.4294989559947;0.299896240234375;0.0020343017578125;2.28999999421831;230;100 mA
17.4394989559695;0.29986572265625;0.00203857421875;2.29999999419306;231;100 mA
17.4494989559443;0.29986572265625;0.002059326171875;2.30999999416781;232;100 mA
17.459498955919;0.2998046875;0.00204986572265625;2.31999999414256;233;100 mA
17.4694989558938;0.29986572265625;0.00203277587890625;2.32999999411732;234;100 mA
17.4794989558685;0.2999267578125;0.00202117919921875;2.33999999409207;235;100 mA
17.4894989558433;0.299835205078125;0.0020635986328125;2.34999999406682;236;100 mA
17.499498955818;0.299896240234375;0.0020269775390625;2.35999999404157;237;100 mA
17.5094989557928;0.299957275390625;0.00203826904296875;2.36999999401633;238;100 mA
17.5194989557675;0.2999267578125;0.00202789306640625;2.37999999399108;239;100 mA
17.5294989557423;0.299896240234375;0.00207305908203125;2.38999999396583;240;100 mA
17.539498955717;0.29986572265625;0.00207305908203125;2.39999999394058;241;100 mA
17.5494989556918;0.29986572265625;0.00206573486328125;2.40999999391533;242;100 mA
17.5594989556665;0.2999267578125;0.002064208984375;2.41999999389009;243;100 mA
17.5694989556413;0.299835205078125;0.00207061767578125;2.42999999386484;244;100 mA
17.579498955616;0.29986572265625;0.002049560546875;2.43999999383959;245;100 mA
17.5894989555908;0.299835205078125;0.00204742431640625;2.44999999381434;246;100 mA
17.5994989555655;0.299835205078125;0.0020318603515625;2.4599999937891;247;100 mA
17.6094989555403;0.2998046875;0.00209197998046875;2.46999999376385;248;100 mA
17.619498955515;0.2998046875;0.00207427978515625;2.4799999937386;249;100 mA
17.6294989554898;0.299835205078125;0.00208343505859375;2.48999999371335;250;100 mA
17.6394989554645;0.2999267578125;0.0020770263671875;2.49999999368811;251;100 mA
17.6494989554393;0.299896240234375;0.00209259033203125;2.50999999366286;252;100 mA
17.6594989554141;0.299774169921875;0.00208343505859375;2.51999999363761;253;100 mA
17.6694989553888;0.29986572265625;0.002047119140625;2.52999999361236;254;100 mA
17.6794989553636;0.29986572265625;0.0020318603515625;2.53999999358712;255;100 mA
17.6894989553383;0.299835205078125;0.00205535888671875;2.54999999356187;256;100 mA
17.6994989553131;0.29974365234375;0.002027587890625;2.55999999353662;257;100 mA
17.7094989552878;0.2998046875;0.00203125;2.56999999351137;258;100 mA
17.7194989552626;0.29986572265625;0.0020184326171875;2.57999999348613;259;100 mA
17.7294989552373;0.2999267578125;0.00206085205078125;2.58999999346088;260;100 mA
17.7394989552121;0.2998046875;0.0020458984375;2.59999999343563;261;100 mA
17.7494989551868;0.29986572265625;0.00204437255859375;2.60999999341038;262;100 mA
17.7594989551616;0.2999267578125;0.00203857421875;2.61999999338514;263;100 mA
17.7694989551363;0.2998046875;0.00204833984375;2.62999999335989;264;100 mA
17.7794989551111;0.299835205078125;0.00202972412109375;2.63999999333464;265;100 mA
17.7894989550858;0.29986572265625;0.00201446533203125;2.64999999330939;266;100 mA
17.7994989550606;0.299896240234375;0.00199737548828125;2.65999999328415;267;100 mA
17.8094989550353;0.299774169921875;0.0020477294921875;2.6699999932589;268;100 mA
17.8194989550101;0.29986572265625;0.00202423095703125;2.67999999323365;269;100 mA
17.8294989549848;0.299835205078125;0.00203155517578125;2.6899999932084;270;100 mA
17.8394989549596;0.2999267578125;0.00202301025390625;2.69999999318316;271;100 mA
17.8494989549343;0.29986572265625;0.00204437255859375;2.70999999315791;272;100 mA
17.8594989549091;0.299835205078125;0.002030029296875;2.71999999313266;273;100 mA
17.8694989548839;0.299896240234375;0.00201202392578125;2.72999999310741;274;100 mA
17.8794989548586;0.2999267578125;0.0020098876953125;2.73999999308217;275;100 mA
17.8894989548334;0.2998046875;0.00203857421875;2.74999999305692;276;100 mA
17.8994989548081;0.29974365234375;0.00201080322265625;2.75999999303167;277;100 mA
17.9094989547829;0.29986572265625;0.00200653076171875;2.76999999300642;278;100 mA
17.9194989547576;0.299896240234375;0.0019805908203125;2.77999999298117;279;100 mA
17.9294989547324;0.29986572265625;0.00202117919921875;2.78999999295593;280;100 mA
17.9394989547071;0.299835205078125;0.00200836181640625;2.79999999293068;281;100 mA
17.9494989546819;0.299896240234375;0.0020184326171875;2.80999999290543;282;100 mA
17.9594989546566;0.299896240234375;0.002017822265625;2.81999999288018;283;100 mA
17.9694989546314;0.299835205078125;0.002030029296875;2.82999999285494;284;100 mA
17.9794989546061;0.29986572265625;0.00202667236328125;2.83999999282969;285;100 mA
17.9894989545809;0.29986572265625;0.00202239990234375;2.84999999280444;286;100 mA
17.9994989545556;0.299896240234375;0.00201934814453125;2.85999999277919;287;100 mA
18.0094989545304;0.299896240234375;0.00205596923828125;2.86999999275395;288;100 mA
18.0194989545051;0.299835205078125;0.00203704833984375;2.8799999927287;289;100 mA
18.0294989544799;0.299896240234375;0.00204132080078125;2.88999999270345;290;100 mA
18.0394989544546;0.2999267578125;0.0020159912109375;2.8999999926782;291;100 mA
18.0494989544294;0.29986572265625;0.00203460693359375;2.90999999265296;292;100 mA
18.0594989544041;0.299896240234375;0.00201751708984375;2.91999999262771;293;100 mA
18.0694989543789;0.299835205078125;0.00200592041015625;2.92999999260246;294;100 mA
18.0794989543537;0.299957275390625;0.00200469970703125;2.93999999257721;295;100 mA
18.0894989543284;0.299835205078125;0.00201629638671875;2.94999999255197;296;100 mA
18.0994989543032;0.299835205078125;0.00199859619140625;2.95999999252672;297;100 mA
18.1094989542779;0.299896240234375;0.0020050048828125;2.96999999250147;298;100 mA
18.1194989542527;0.299957275390625;0.00198760986328125;2.97999999247622;299;100 mA
18.1294989542274;0.299835205078125;0.00203582763671875;2.98999999245098;300;100 mA
18.1394989542022;0.29986572265625;0.00201934814453125;2.99999999242573;301;100 mA
18.1494989541769;0.29986572265625;0.00201934814453125;3.00999999240048;302;100 mA
18.1594989541517;0.299896240234375;0.0020074462890625;3.01999999237523;303;100 mA
18.1694989541264;0.299835205078125;0.0020123291015625;3.02999999234999;304;100 mA
18.1794989541012;0.2998046875;0.00200408935546875;3.03999999232474;305;100 mA
18.1894989540759;0.299835205078125;0.00199310302734375;3.04999999229949;306;100 mA
18.1994989540507;0.29986572265625;0.0019921875;3.05999999227424;307;100 mA
18.2094989540254;0.2998046875;0.0020147705078125;3.069999992249;308;100 mA
18.2194989540002;0.2998046875;0.0019781494140625;3.07999999222375;309;100 mA
18.2294989539749;0.299835205078125;0.0019842529296875;3.0899999921985;310;100 mA
18.2394989539497;0.299835205078125;0.00198028564453125;3.09999999217325;311;100 mA
18.2494989539244;0.299835205078125;0.00202911376953125;3.109999992148;312;100 mA
18.2594989538992;0.299774169921875;0.00203155517578125;3.11999999212276;313;100 mA
18.2694989538739;0.299896240234375;0.0020294189453125;3.12999999209751;314;100 mA
18.2794989538487;0.2999267578125;0.0020306396484375;3.13999999207226;315;100 mA
18.2894989538235;0.299896240234375;0.00203948974609375;3.14999999204701;316;100 mA
18.2994989537982;0.299835205078125;0.0020220947265625;3.15999999202177;317;100 mA
18.309498953773;0.29986572265625;0.00202392578125;3.16999999199652;318;100 mA
18.3194989537477;0.299957275390625;0.00200958251953125;3.17999999197127;319;100 mA
18.3294989537225;0.29986572265625;0.002047119140625;3.18999999194602;320;100 mA
18.3394989536972;0.299896240234375;0.0020123291015625;3.19999999192078;321;100 mA
18.349498953672;0.299835205078125;0.0020184326171875;3.20999999189553;322;100 mA
18.3594989536467;0.2999267578125;0.0020062255859375;3.21999999187028;323;100 mA
18.3694989536215;0.29986572265625;0.00202667236328125;3.22999999184503;324;100 mA
18.3794989535962;0.299835205078125;0.00201507568359375;3.23999999181979;325;100 mA
18.389498953571;0.299835205078125;0.00199676513671875;3.24999999179454;326;100 mA
18.3994989535457;0.29986572265625;0.00199920654296875;3.25999999176929;327;100 mA
18.4094989535205;0.29986572265625;0.002034912109375;3.26999999174404;328;100 mA
18.4194989534952;0.2998046875;0.002005615234375;3.2799999917188;329;100 mA
18.42949895347;0.299835205078125;0.00200927734375;3.28999999169355;330;100 mA
18.4394989534447;0.2999267578125;0.001998291015625;3.2999999916683;331;100 mA
18.4494989534195;0.2998046875;0.00205718994140625;3.30999999164305;332;100 mA
18.4594989533942;0.299835205078125;0.002049560546875;3.31999999161781;333;100 mA
18.469498953369;0.29986572265625;0.00205596923828125;3.32999999159256;334;100 mA
18.4794989533438;0.299896240234375;0.0020623779296875;3.33999999156731;335;100 mA
18.4894989533185;0.2998046875;0.00207305908203125;3.34999999154206;336;100 mA
18.4994989532933;0.2998046875;0.00204559326171875;3.35999999151682;337;100 mA
18.509498953268;0.299835205078125;0.002025146484375;3.36999999149157;338;100 mA
18.5194989532428;0.299896240234375;0.0020068359375;3.37999999146632;339;100 mA
18.5294989532175;0.29986572265625;0.00204803466796875;3.38999999144107;340;100 mA
18.5394989531923;0.299835205078125;0.002025146484375;3.39999999141583;341;100 mA
18.549498953167;0.299896240234375;0.002034912109375;3.40999999139058;342;100 mA
18.5594989531418;0.299957275390625;0.00202117919921875;3.41999999136533;343;100 mA
18.5694989531165;0.2999267578125;0.00205322265625;3.42999999134008;344;100 mA
18.5794989530913;0.299835205078125;0.002049560546875;3.43999999131483;345;100 mA
18.589498953066;0.299835205078125;0.00203338623046875;3.44999999128959;346;100 mA
18.5994989530408;0.2999267578125;0.002037353515625;3.45999999126434;347;100 mA
18.6094989530155;0.299835205078125;0.0020684814453125;3.46999999123909;348;100 mA
18.6194989529903;0.29986572265625;0.002047119140625;3.47999999121384;349;100 mA
18.629498952965;0.299835205078125;0.002052001953125;3.4899999911886;350;100 mA
18.6394989529398;0.2999267578125;0.0020263671875;3.49999999116335;351;100 mA
18.6494989529145;0.299835205078125;0.00206939697265625;3.5099999911381;352;100 mA
18.6594989528893;0.29986572265625;0.0020513916015625;3.51999999111285;353;100 mA
18.669498952864;0.299835205078125;0.00205078125;3.52999999108761;354;100 mA
18.6794989528388;0.299957275390625;0.00203582763671875;3.53999999106236;355;100 mA
18.6894989528136;0.2998046875;0.00203460693359375;3.54999999103711;356;100 mA
18.6994989527883;0.299896240234375;0.0020172119140625;3.55999999101186;357;100 mA
18.7094989527631;0.299896240234375;0.0020062255859375;3.56999999098662;358;100 mA
18.7194989527378;0.29986572265625;0.001995849609375;3.57999999096137;359;100 mA
18.7294989527126;0.299896240234375;0.0020281982421875;3.58999999093612;360;100 mA
18.7394989526873;0.29986572265625;0.00200927734375;3.59999999091087;361;100 mA
18.7494989526621;0.29986572265625;0.002025146484375;3.60999999088563;362;100 mA
18.7594989526368;0.2999267578125;0.00200042724609375;3.61999999086038;363;100 mA
18.7694989526116;0.2998046875;0.002022705078125;3.62999999083513;364;100 mA
18.7794989525863;0.29986572265625;0.00201812744140625;3.63999999080988;365;100 mA
18.7894989525611;0.299774169921875;0.00201873779296875;3.64999999078464;366;100 mA
18.7994989525358;0.29986572265625;0.00202606201171875;3.65999999075939;367;100 mA
18.8094989525106;0.299896240234375;0.0020465087890625;3.66999999073414;368;100 mA
18.8194989524853;0.29974365234375;0.0020294189453125;3.67999999070889;369;100 mA
18.8294989524601;0.29986572265625;0.00203338623046875;3.68999999068365;370;100 mA
18.8394989524348;0.299957275390625;0.00201446533203125;3.6999999906584;371;100 mA
18.8494989524096;0.29986572265625;0.002059326171875;3.70999999063315;372;100 mA
18.8594989523843;0.299896240234375;0.00204315185546875;3.7199999906079;373;100 mA
18.8694989523591;0.299896240234375;0.0020587158203125;3.72999999058266;374;100 mA
18.8794989523338;0.299896240234375;0.00204437255859375;3.73999999055741;375;100 mA
18.8894989523086;0.29986572265625;0.00204620361328125;3.74999999053216;376;100 mA
18.8994989522834;0.29986572265625;0.0020245361328125;3.75999999050691;377;100 mA
18.9094989522581;0.299835205078125;0.00200653076171875;3.76999999048167;378;100 mA
18.9194989522329;0.29986572265625;0.00199737548828125;3.77999999045642;379;100 mA
18.9294989522076;0.299835205078125;0.0020355224609375;3.78999999043117;380;100 mA
18.9394989521824;0.299835205078125;0.00201263427734375;3.79999999040592;381;100 mA
18.9494989521571;0.29986572265625;0.002022705078125;3.80999999038067;382;100 mA
18.9594989521319;0.299896240234375;0.00199951171875;3.81999999035543;383;100 mA
18.9694989521066;0.299835205078125;0.0020208740234375;3.82999999033018;384;100 mA
18.9794989520814;0.299835205078125;0.00199615478515625;3.83999999030493;385;100 mA
18.9894989520561;0.299896240234375;0.00199249267578125;3.84999999027968;386;100 mA
18.9994989520309;0.2999267578125;0.00200469970703125;3.85999999025444;387;100 mA
19.0094989520056;0.299835205078125;0.002022705078125;3.86999999022919;388;100 mA
19.0194989519804;0.29986572265625;0.0020001220703125;3.87999999020394;389;100 mA
19.0294989519551;0.2998046875;0.00199432373046875;3.88999999017869;390;100 mA
19.0394989519299;0.29986572265625;0.001982421875;3.89999999015345;391;100 mA
19.0494989519046;0.299896240234375;0.00204071044921875;3.9099999901282;392;100 mA
19.0594989518794;0.2998046875;0.002025146484375;3.91999999010295;393;100 mA
19.0694989518541;0.299835205078125;0.002039794921875;3.9299999900777;394;100 mA
19.0794989518289;0.299896240234375;0.002025146484375;3.93999999005246;395;100 mA
19.0894989518036;0.29986572265625;0.0020355224609375;3.94999999002721;396;100 mA
19.0994989517784;0.299896240234375;0.002030029296875;3.95999999000196;397;100 mA
19.1094989517532;0.29986572265625;0.00200897216796875;3.96999998997671;398;100 mA
19.1194989517279;0.2999267578125;0.0020098876953125;3.97999998995147;399;100 mA
19.1294989517027;0.299835205078125;0.00203887939453125;3.98999998992622;400;100 mA
19.1394989516774;0.299835205078125;0.00200775146484375;3.99999998990097;401;100 mA
19.1494989516522;0.299896240234375;0.00202117919921875;4.00999998987572;402;100 mA
19.1594989516269;0.299896240234375;0.0020098876953125;4.01999998985048;403;100 mA
19.1694989516017;0.299896240234375;0.00206756591796875;4.02999998982523;404;100 mA
19.1794989515764;0.299835205078125;0.002060546875;4.03999998979998;405;100 mA
19.1894989515512;0.299835205078125;0.00205657958984375;4.04999998977473;406;100 mA
19.1994989515259;0.299896240234375;0.00206634521484375;4.05999998974949;407;100 mA
19.2094989515007;0.299835205078125;0.00207305908203125;4.06999998972424;408;100 mA
19.2194989514754;0.29986572265625;0.00204833984375;4.07999998969899;409;100 mA
19.2294989514502;0.299896240234375;0.00203277587890625;4.08999998967374;410;100 mA
19.2394989514249;0.299896240234375;0.00201629638671875;4.0999999896485;411;100 mA
19.2494989513997;0.299835205078125;0.00206817626953125;4.10999998962325;412;100 mA
19.2594989513744;0.2998046875;0.0020452880859375;4.119999989598;413;100 mA
19.2694989513492;0.299957275390625;0.0020599365234375;4.12999998957275;414;100 mA
19.2794989513239;0.299896240234375;0.002061767578125;4.1399999895475;415;100 mA
19.2894989512987;0.29986572265625;0.00208465576171875;4.14999998952226;416;100 mA
19.2994989512734;0.2998046875;0.0020819091796875;4.15999998949701;417;100 mA
19.3094989512482;0.2998046875;0.002064208984375;4.16999998947176;418;100 mA
19.319498951223;0.2999267578125;0.00206695556640625;4.17999998944651;419;100 mA
19.3294989511977;0.299896240234375;0.002099609375;4.18999998942127;420;100 mA
19.3394989511725;0.299835205078125;0.0020751953125;4.19999998939602;421;100 mA
19.3494989511472;0.29986572265625;0.002091064453125;4.20999998937077;422;100 mA
19.359498951122;0.29986572265625;0.002076416015625;4.21999998934552;423;100 mA
19.3694989510967;0.299835205078125;0.00212738037109375;4.22999998932028;424;100 mA
19.3794989510715;0.299835205078125;0.0021124267578125;4.23999998929503;425;100 mA
19.3894989510462;0.299835205078125;0.00210906982421875;4.24999998926978;426;100 mA
19.399498951021;0.299896240234375;0.0021044921875;4.25999998924453;427;100 mA
19.4094989509957;0.299835205078125;0.00210540771484375;4.26999998921929;428;100 mA
19.4194989509705;0.2998046875;0.00207733154296875;4.27999998919404;429;100 mA
19.4294989509452;0.2998046875;0.0020562744140625;4.28999998916879;430;100 mA
19.43949895092;0.299896240234375;0.00203704833984375;4.29999998914354;431;100 mA
19.4494989508947;0.299835205078125;0.00208984375;4.3099999891183;432;100 mA
19.4594989508695;0.29986572265625;0.00206085205078125;4.31999998909305;433;100 mA
19.4694989508442;0.299896240234375;0.00207611083984375;4.3299999890678;434;100 mA
19.479498950819;0.299896240234375;0.00207305908203125;4.33999998904255;435;100 mA
19.4894989507937;0.299896240234375;0.00210723876953125;4.34999998901731;436;100 mA
19.4994989507685;0.2998046875;0.0021014404296875;4.35999998899206;437;100 mA
19.5094989507433;0.299835205078125;0.00208282470703125;4.36999998896681;438;100 mA
19.519498950718;0.29986572265625;0.00208221435546875;4.37999998894156;439;100 mA
19.5294989506928;0.299835205078125;0.00209686279296875;4.38999998891632;440;100 mA
19.5394989506675;0.2998046875;0.002056884765625;4.39999998889107;441;100 mA
19.5494989506423;0.299896240234375;0.00205474853515625;4.40999998886582;442;100 mA
19.559498950617;0.299896240234375;0.0020355224609375;4.41999998884057;443;100 mA
19.5694989505918;0.299835205078125;0.002081298828125;4.42999998881533;444;100 mA
19.5794989505665;0.299835205078125;0.00205078125;4.43999998879008;445;100 mA
19.5894989505413;0.299896240234375;0.00205108642578125;4.44999998876483;446;100 mA
19.599498950516;0.299896240234375;0.002056884765625;4.45999998873958;447;100 mA
19.6094989504908;0.29986572265625;0.002076416015625;4.46999998871433;448;100 mA
19.6194989504655;0.299896240234375;0.00206634521484375;4.47999998868909;449;100 mA
19.6294989504403;0.2998046875;0.0020416259765625;4.48999998866384;450;100 mA
19.639498950415;0.29998779296875;0.00202728271484375;4.49999998863859;451;100 mA
19.6494989503898;0.299835205078125;0.00207672119140625;4.50999998861334;452;100 mA
19.6594989503645;0.299835205078125;0.002037353515625;4.5199999885881;453;100 mA
19.6694989503393;0.2998046875;0.00204315185546875;4.52999998856285;454;100 mA
19.679498950314;0.299896240234375;0.002032470703125;4.5399999885376;455;100 mA
19.6894989502888;0.29986572265625;0.00205810546875;4.54999998851235;456;100 mA
19.6994989502635;0.2998046875;0.0020330810546875;4.55999998848711;457;100 mA
19.7094989502383;0.299835205078125;0.0020111083984375;4.56999998846186;458;100 mA
19.7194989502131;0.299896240234375;0.00201446533203125;4.57999998843661;459;100 mA
19.7294989501878;0.29986572265625;0.0020343017578125;4.58999998841136;460;100 mA
19.7394989501626;0.2998046875;0.0020086669921875;4.59999998838612;461;100 mA
19.7494989501373;0.2998046875;0.00201171875;4.60999998836087;462;100 mA
19.7594989501121;0.2999267578125;0.0019921875;4.61999998833562;463;100 mA
19.7694989500868;0.299835205078125;0.002042236328125;4.62999998831037;464;100 mA
19.7794989500616;0.2998046875;0.00201080322265625;4.63999998828513;465;100 mA
19.7894989500363;0.2998046875;0.002015380859375;4.64999998825988;466;100 mA
19.7994989500111;0.29986572265625;0.00201873779296875;4.65999998823463;467;100 mA
19.8094989499858;0.299896240234375;0.00203460693359375;4.66999998820938;468;100 mA
19.8194989499606;0.299835205078125;0.002022705078125;4.67999998818414;469;100 mA
19.8294989499353;0.299835205078125;0.001998291015625;4.68999998815889;470;100 mA
19.8394989499101;0.2999267578125;0.001993408203125;4.69999998813364;471;100 mA
19.8494989498848;0.299835205078125;0.00203521728515625;4.70999998810839;472;100 mA
19.8594989498596;0.29986572265625;0.0020001220703125;4.71999998808315;473;100 mA
19.8694989498343;0.299896240234375;0.002008056640625;4.7299999880579;474;100 mA
19.8794989498091;0.29986572265625;0.00199249267578125;4.73999998803265;475;100 mA
19.8894989497838;0.29986572265625;0.00203460693359375;4.7499999880074;476;100 mA
19.8994989497586;0.299835205078125;0.0020196533203125;4.75999998798216;477;100 mA
19.9094989497333;0.299896240234375;0.002015380859375;4.76999998795691;478;100 mA
19.9194989497081;0.2999267578125;0.0020294189453125;4.77999998793166;479;100 mA
19.9294989496829;0.299896240234375;0.00204315185546875;4.78999998790641;480;100 mA
19.9394989496576;0.299835205078125;0.002025146484375;4.79999998788116;481;100 mA
19.9494989496324;0.299835205078125;0.00202056884765625;4.80999998785592;482;100 mA
19.9594989496071;0.2999267578125;0.00200042724609375;4.81999998783067;483;100 mA
19.9694989495819;0.2998046875;0.0020391845703125;4.82999998780542;484;100 mA
19.9794989495566;0.299835205078125;0.00199951171875;4.83999998778017;485;100 mA
19.9894989495314;0.29986572265625;0.00200653076171875;4.84999998775493;486;100 mA
19.9994989495061;0.299896240234375;0.0020001220703125;4.85999998772968;487;100 mA
20.0094989494809;0.2998046875;0.00201995849609375;4.86999998770443;488;100 mA
20.0194989494556;0.299835205078125;0.0020159912109375;4.87999998767918;489;100 mA
20.0294989494304;0.29986572265625;0.00199737548828125;4.88999998765394;490;100 mA
20.0394989494051;0.29986572265625;0.00199493408203125;4.89999998762869;491;100 mA
20.0494989493799;0.2998046875;0.0020166015625;4.90999998760344;492;100 mA
20.0594989493546;0.299835205078125;0.00197509765625;4.91999998757819;493;100 mA
20.0694989493294;0.2999267578125;0.001981201171875;4.92999998755295;494;100 mA
20.0794989493041;0.2999267578125;0.00196624755859375;4.9399999875277;495;100 mA
20.0894989492789;0.299835205078125;0.0020062255859375;4.94999998750245;496;100 mA
20.0994989492536;0.2998046875;0.0019805908203125;4.9599999874772;497;100 mA
20.1094989492284;0.29986572265625;0.0019781494140625;4.96999998745196;498;100 mA
20.1194989492031;0.2998046875;0.0019891357421875;4.97999998742671;499;100 mA
20.1294989491779;0.299835205078125;0.00199737548828125;4.98999998740146;500;100 mA
20.1394989491527;0.29986572265625;0.0019793701171875;4.99999998737621;501;100 mA
20.1494989491274;0.299896240234375;0.00197540283203125;5.00999998735097;502;100 mA
20.1594989491022;0.2999267578125;0.00196563720703125;5.01999998732572;503;100 mA
20.1694989490769;0.299835205078125;0.00201385498046875;5.02999998730047;504;100 mA
20.1794989490517;0.299835205078125;0.00197509765625;5.03999998727522;505;100 mA
20.1894989490264;0.29986572265625;0.00199066162109375;5.04999998724998;506;100 mA
20.1994989490012;0.299896240234375;0.00198211669921875;5.05999998722473;507;100 mA
20.2094989489759;0.2998046875;0.002001953125;5.06999998719948;508;100 mA
20.2194989489507;0.2998046875;0.0019891357421875;5.07999998717423;509;100 mA
20.2294989489254;0.299896240234375;0.0019622802734375;5.08999998714899;510;100 mA
20.2394989489002;0.29986572265625;0.0019696044921875;5.09999998712374;511;100 mA
20.2494989488749;0.299896240234375;0.00199462890625;5.10999998709849;512;100 mA
20.2594989488497;0.299896240234375;0.00195770263671875;5.11999998707324;513;100 mA
20.2694989488244;0.299835205078125;0.0019598388671875;5.129999987048;514;100 mA
20.2794989487992;0.299896240234375;0.0019488525390625;5.13999998702275;515;100 mA
20.2894989487739;0.29986572265625;0.0020013427734375;5.1499999869975;516;100 mA
20.2994989487487;0.299835205078125;0.0019769287109375;5.15999998697225;517;100 mA
20.3094989487234;0.29986572265625;0.0019757080078125;5.169999986947;518;100 mA
20.3194989486982;0.2999267578125;0.0019830322265625;5.17999998692176;519;100 mA
20.3294989486729;0.299835205078125;0.00199951171875;5.18999998689651;520;100 mA
20.3394989486477;0.29986572265625;0.001995849609375;5.19999998687126;521;100 mA
20.3494989486225;0.2999267578125;0.0019805908203125;5.20999998684601;522;100 mA
20.3594989485972;0.2999267578125;0.00197509765625;5.21999998682077;523;100 mA
20.369498948572;0.299896240234375;0.00202056884765625;5.22999998679552;524;100 mA
20.3794989485467;0.29986572265625;0.0019818115234375;5.23999998677027;525;100 mA
20.3894989485215;0.299835205078125;0.0019940185546875;5.24999998674502;526;100 mA
20.3994989484962;0.299957275390625;0.00198516845703125;5.25999998671978;527;100 mA
20.409498948471;0.29986572265625;0.00202117919921875;5.26999998669453;528;100 mA
20.4194989484457;0.299896240234375;0.00201934814453125;5.27999998666928;529;100 mA
20.4294989484205;0.29986572265625;0.00200775146484375;5.28999998664403;530;100 mA
20.4394989483952;0.2999267578125;0.0020220947265625;5.29999998661879;531;100 mA
20.44949894837;0.29986572265625;0.00205352783203125;5.30999998659354;532;100 mA
20.4594989483447;0.299835205078125;0.00202606201171875;5.31999998656829;533;100 mA
20.4694989483195;0.299835205078125;0.00201873779296875;5.32999998654304;534;100 mA
20.4794989482942;0.299896240234375;0.001998291015625;5.3399999865178;535;100 mA
20.489498948269;0.299835205078125;0.00206207275390625;5.34999998649255;536;100 mA
20.4994989482437;0.299835205078125;0.00203765869140625;5.3599999864673;537;100 mA
20.5094989482185;0.299835205078125;0.0020404052734375;5.36999998644205;538;100 mA
20.5194989481932;0.29986572265625;0.002044677734375;5.37999998641681;539;100 mA
20.529498948168;0.299835205078125;0.00205108642578125;5.38999998639156;540;100 mA
20.5394989481428;0.299896240234375;0.002034912109375;5.39999998636631;541;100 mA
20.5494989481175;0.29986572265625;0.0020098876953125;5.40999998634106;542;100 mA
20.5594989480923;0.2999267578125;0.00200103759765625;5.41999998631582;543;100 mA
20.569498948067;0.299835205078125;0.0020477294921875;5.42999998629057;544;100 mA
20.5794989480418;0.29986572265625;0.00200958251953125;5.43999998626532;545;100 mA
20.5894989480165;0.29986572265625;0.00202484130859375;5.44999998624007;546;100 mA
20.5994989479913;0.2999267578125;0.00201019287109375;5.45999998621483;547;100 mA
20.609498947966;0.299896240234375;0.00204742431640625;5.46999998618958;548;100 mA
20.6194989479408;0.299896240234375;0.002044677734375;5.47999998616433;549;100 mA
20.6294989479155;0.29986572265625;0.002044677734375;5.48999998613908;550;100 mA
20.6394989478903;0.299957275390625;0.00205657958984375;5.49999998611383;551;100 mA
20.649498947865;0.299835205078125;0.0020660400390625;5.50999998608859;552;100 mA
20.6594989478398;0.299896240234375;0.00204010009765625;5.51999998606334;553;100 mA
20.6694989478145;0.2998046875;0.0020458984375;5.52999998603809;554;100 mA
20.6794989477893;0.299835205078125;0.00203277587890625;5.53999998601284;555;100 mA
20.689498947764;0.299835205078125;0.0020916748046875;5.5499999859876;556;100 mA
20.6994989477388;0.2999267578125;0.00207672119140625;5.55999998596235;557;100 mA
20.7094989477135;0.29986572265625;0.002091064453125;5.5699999859371;558;100 mA
20.7194989476883;0.29986572265625;0.00208526611328125;5.57999998591185;559;100 mA
20.729498947663;0.299835205078125;0.00210052490234375;5.58999998588661;560;100 mA
20.7394989476378;0.2998046875;0.00208526611328125;5.59999998586136;561;100 mA
20.7494989476126;0.299835205078125;0.0020574951171875;5.60999998583611;562;100 mA
20.7594989475873;0.299896240234375;0.00204864501953125;5.61999998581086;563;100 mA
20.7694989475621;0.299835205078125;0.0020794677734375;5.62999998578562;564;100 mA
20.7794989475368;0.299896240234375;0.00204498291015625;5.63999998576037;565;100 mA
20.7894989475116;0.29986572265625;0.0020574951171875;5.64999998573512;566;100 mA
20.7994989474863;0.29986572265625;0.0020391845703125;5.65999998570987;567;100 mA
20.8094989474611;0.2999267578125;0.0020794677734375;5.66999998568463;568;100 mA
20.8194989474358;0.299835205078125;0.0020635986328125;5.67999998565938;569;100 mA
20.8294989474106;0.299835205078125;0.00205169677734375;5.68999998563413;570;100 mA
20.8394989473853;0.299896240234375;0.002044677734375;5.69999998560888;571;100 mA
20.8494989473601;0.29986572265625;0.002049560546875;5.70999998558364;572;100 mA
20.8594989473348;0.2999267578125;0.002025146484375;5.71999998555839;573;100 mA
20.8694989473096;0.2999267578125;0.00201080322265625;5.72999998553314;574;100 mA
20.8794989472843;0.2999267578125;0.0019952392578125;5.73999998550789;575;100 mA
20.8894989472591;0.299835205078125;0.002047119140625;5.74999998548265;576;100 mA
20.8994989472338;0.299957275390625;0.00201995849609375;5.7599999854574;577;100 mA
20.9094989472086;0.299835205078125;0.00202880859375;5.76999998543215;578;100 mA
20.9194989471833;0.299835205078125;0.002017822265625;5.7799999854069;579;100 mA
20.9294989471581;0.299896240234375;0.002039794921875;5.78999998538166;580;100 mA
20.9394989471328;0.2998046875;0.002039794921875;5.79999998535641;581;100 mA
20.9494989471076;0.299835205078125;0.00202056884765625;5.80999998533116;582;100 mA
20.9594989470824;0.29986572265625;0.00201507568359375;5.81999998530591;583;100 mA
20.9694989470571;0.2998046875;0.00203582763671875;5.82999998528066;584;100 mA
20.9794989470319;0.29986572265625;0.0020013427734375;5.83999998525542;585;100 mA
20.9894989470066;0.299835205078125;0.00200225830078125;5.84999998523017;586;100 mA
20.9994989469814;0.2998046875;0.00199310302734375;5.85999998520492;587;100 mA
21.0094989469561;0.299896240234375;0.0020416259765625;5.86999998517967;588;100 mA
21.0194989469309;0.2998046875;0.002015380859375;5.87999998515443;589;100 mA
21.0294989469056;0.299835205078125;0.00200775146484375;5.88999998512918;590;100 mA
21.0394989468804;0.29986572265625;0.002012939453125;5.89999998510393;591;100 mA
21.0494989468551;0.29986572265625;0.0020166015625;5.90999998507868;592;100 mA
21.0594989468299;0.29986572265625;0.00200164794921875;5.91999998505344;593;100 mA
21.0694989468046;0.299896240234375;0.00198577880859375;5.92999998502819;594;100 mA
21.0794989467794;0.299896240234375;0.00197601318359375;5.93999998500294;595;100 mA
21.0894989467541;0.299835205078125;0.00202178955078125;5.94999998497769;596;100 mA
21.0994989467289;0.299835205078125;0.00199127197265625;5.95999998495245;597;100 mA
21.1094989467036;0.299896240234375;0.00199310302734375;5.9699999849272;598;100 mA
21.1194989466784;0.2999267578125;0.00198150634765625;5.97999998490195;599;100 mA
21.1294989466531;0.299835205078125;0.00200286865234375;5.9899999848767;600;100 mA
21.1394989466279;0.29986572265625;0.00199981689453125;5.99999998485146;601;100 mA
21.1494989466026;0.29986572265625;0.00199249267578125;6.00999998482621;602;100 mA
21.1594989465774;0.299896240234375;0.00200103759765625;6.01999998480096;603;100 mA
21.1694989465522;0.2998046875;0.0020196533203125;6.02999998477571;604;100 mA
21.1794989465269;0.299835205078125;0.00198577880859375;6.03999998475047;605;100 mA
21.1894989465017;0.29986572265625;0.00199249267578125;6.04999998472522;606;100 mA
21.1994989464764;0.299957275390625;0.0019744873046875;6.05999998469997;607;100 mA
21.2094989464512;0.299835205078125;0.00201019287109375;6.06999998467472;608;100 mA
21.2194989464259;0.2998046875;0.00197479248046875;6.07999998464948;609;100 mA
21.2294989464007;0.299835205078125;0.00197967529296875;6.08999998462423;610;100 mA
21.2394989463754;0.29986572265625;0.00197998046875;6.09999998459898;611;100 mA
21.2494989463502;0.29986572265625;0.0019842529296875;6.10999998457373;612;100 mA
21.2594989463249;0.299835205078125;0.00197021484375;6.11999998454849;613;100 mA
21.2694989462997;0.29986572265625;0.00195465087890625;6.12999998452324;614;100 mA
21.2794989462744;0.299896240234375;0.0019476318359375;6.13999998449799;615;100 mA
21.2894989462492;0.299835205078125;0.0019866943359375;6.14999998447274;616;100 mA
21.2994989462239;0.299835205078125;0.00196441650390625;6.1599999844475;617;100 mA
21.3094989461987;0.29986572265625;0.00197906494140625;6.16999998442225;618;100 mA
21.3194989461734;0.2999267578125;0.00196502685546875;6.179999984397;619;100 mA
21.3294989461482;0.29986572265625;0.00200164794921875;6.18999998437175;620;100 mA
21.3394989461229;0.29986572265625;0.0019915771484375;6.1999999843465;621;100 mA
21.3494989460977;0.299835205078125;0.00198455810546875;6.20999998432126;622;100 mA
21.3594989460724;0.299957275390625;0.00199005126953125;6.21999998429601;623;100 mA
21.3694989460472;0.2999267578125;0.001995849609375;6.22999998427076;624;100 mA
21.379498946022;0.29986572265625;0.00197113037109375;6.23999998424551;625;100 mA
21.3894989459967;0.2998046875;0.00196685791015625;6.24999998422027;626;100 mA
21.3994989459715;0.299896240234375;0.00194610595703125;6.25999998419502;627;100 mA
21.4094989459462;0.299835205078125;0.0019976806640625;6.26999998416977;628;100 mA
21.419498945921;0.29986572265625;0.0019744873046875;6.27999998414452;629;100 mA
21.4294989458957;0.29986572265625;0.00198638916015625;6.28999998411928;630;100 mA
21.4394989458705;0.2999267578125;0.00198974609375;6.29999998409403;631;100 mA
21.4494989458452;0.29986572265625;0.00201324462890625;6.30999998406878;632;100 mA
21.45949894582;0.299835205078125;0.00201263427734375;6.31999998404353;633;100 mA
21.4694989457947;0.29986572265625;0.00200103759765625;6.32999998401829;634;100 mA
21.4794989457695;0.299835205078125;0.00199920654296875;6.33999998399304;635;100 mA
21.4894989457442;0.299835205078125;0.00203582763671875;6.34999998396779;636;100 mA
21.499498945719;0.2998046875;0.00200592041015625;6.35999998394254;637;100 mA
21.5094989456937;0.29986572265625;0.00201141357421875;6.3699999839173;638;100 mA
21.5194989456685;0.29998779296875;0.001986083984375;6.37999998389205;639;100 mA
21.5294989456432;0.299835205078125;0.0020208740234375;6.3899999838668;640;100 mA
21.539498945618;0.299835205078125;0.00200958251953125;6.39999998384155;641;100 mA
21.5494989455927;0.2999267578125;0.0020068359375;6.40999998381631;642;100 mA
21.5594989455675;0.29986572265625;0.00200714111328125;6.41999998379106;643;100 mA
21.5694989455423;0.299896240234375;0.00201507568359375;6.42999998376581;644;100 mA
21.579498945517;0.299835205078125;0.00198638916015625;6.43999998374056;645;100 mA
21.5894989454918;0.299896240234375;0.00196563720703125;6.44999998371532;646;100 mA
21.5994989454665;0.299957275390625;0.0019439697265625;6.45999998369007;647;100 mA
21.6094989454413;0.29986572265625;0.00199554443359375;6.46999998366482;648;100 mA
21.619498945416;0.299835205078125;0.00196563720703125;6.47999998363957;649;100 mA
21.6294989453908;0.29986572265625;0.001981201171875;6.48999998361433;650;100 mA
21.6394989453655;0.299896240234375;0.001981201171875;6.49999998358908;651;100 mA
21.6494989453403;0.29986572265625;0.0019976806640625;6.50999998356383;652;100 mA
21.659498945315;0.299896240234375;0.00199432373046875;6.51999998353858;653;100 mA
21.6694989452898;0.299835205078125;0.0019781494140625;6.52999998351333;654;100 mA
21.6794989452645;0.299957275390625;0.00197662353515625;6.53999998348809;655;100 mA
21.6894989452393;0.29986572265625;0.0020037841796875;6.54999998346284;656;100 mA
21.699498945214;0.29986572265625;0.001973876953125;6.55999998343759;657;100 mA
21.7094989451888;0.299774169921875;0.0019775390625;6.56999998341234;658;100 mA
21.7194989451635;0.299835205078125;0.00195648193359375;6.5799999833871;659;100 mA
21.7294989451383;0.299835205078125;0.0020123291015625;6.58999998336185;660;100 mA
21.739498945113;0.29986572265625;0.0020037841796875;6.5999999833366;661;100 mA
21.7494989450878;0.29986572265625;0.0020111083984375;6.60999998331135;662;100 mA
21.7594989450625;0.29986572265625;0.0020147705078125;6.61999998328611;663;100 mA
21.7694989450373;0.299835205078125;0.0020306396484375;6.62999998326086;664;100 mA
21.7794989450121;0.29986572265625;0.00201751708984375;6.63999998323561;665;100 mA
21.7894989449868;0.299896240234375;0.00199920654296875;6.64999998321036;666;100 mA
21.7994989449616;0.299896240234375;0.0019854736328125;6.65999998318512;667;100 mA
21.8094989449363;0.299896240234375;0.00202850341796875;6.66999998315987;668;100 mA
21.8194989449111;0.299896240234375;0.00199981689453125;6.67999998313462;669;100 mA
21.8294989448858;0.299835205078125;0.0020172119140625;6.68999998310937;670;100 mA
21.8394989448606;0.299896240234375;0.00200958251953125;6.69999998308413;671;100 mA
21.8494989448353;0.29986572265625;0.00203277587890625;6.70999998305888;672;100 mA
21.8594989448101;0.29986572265625;0.00202789306640625;6.71999998303363;673;100 mA
21.8694989447848;0.29986572265625;0.002008056640625;6.72999998300838;674;100 mA
21.8794989447596;0.29986572265625;0.002001953125;6.73999998298314;675;100 mA
21.8894989447343;0.299835205078125;0.0020233154296875;6.74999998295789;676;100 mA
21.8994989447091;0.29986572265625;0.0019976806640625;6.75999998293264;677;100 mA
21.9094989446838;0.299896240234375;0.00199249267578125;6.76999998290739;678;100 mA
21.9194989446586;0.299896240234375;0.00197418212890625;6.77999998288215;679;100 mA
21.9294989446333;0.29986572265625;0.0020269775390625;6.7899999828569;680;100 mA
21.9394989446081;0.29986572265625;0.002020263671875;6.79999998283165;681;100 mA
21.9494989445828;0.29986572265625;0.00203125;6.8099999828064;682;100 mA
21.9594989445576;0.299957275390625;0.0020245361328125;6.81999998278116;683;100 mA
21.9694989445323;0.29986572265625;0.00202789306640625;6.82999998275591;684;100 mA
21.9794989445071;0.29986572265625;0.0020159912109375;6.83999998273066;685;100 mA
21.9894989444819;0.299896240234375;0.0020013427734375;6.84999998270541;686;100 mA
21.9994989444566;0.29986572265625;0.0019940185546875;6.85999998268016;687;100 mA
22.0094989444314;0.29986572265625;0.0020330810546875;6.86999998265492;688;100 mA
22.0194989444061;0.299835205078125;0.00201171875;6.87999998262967;689;100 mA
22.0294989443809;0.29986572265625;0.0020257568359375;6.88999998260442;690;100 mA
22.0394989443556;0.29986572265625;0.002017822265625;6.89999998257917;691;100 mA
22.0494989443304;0.29986572265625;0.0020440673828125;6.90999998255393;692;100 mA
22.0594989443051;0.2999267578125;0.0020220947265625;6.91999998252868;693;100 mA
22.0694989442799;0.29986572265625;0.0020159912109375;6.92999998250343;694;100 mA
22.0794989442546;0.29986572265625;0.002021484375;6.93999998247818;695;100 mA
22.0894989442294;0.299957275390625;0.0020355224609375;6.94999998245294;696;100 mA
22.0994989442041;0.299835205078125;0.0020068359375;6.95999998242769;697;100 mA
22.1094989441789;0.29986572265625;0.00200714111328125;6.96999998240244;698;100 mA
22.1194989441536;0.2999267578125;0.001990966796875;6.97999998237719;699;100 mA
22.1294989441284;0.299835205078125;0.00203399658203125;6.98999998235195;700;100 mA
