Time (s);WE(1).Potential (V);WE(1).Current (A);Corrected time (s);Index;Current range
30.0949459240176;-0.6998291015625;-0.3319091796875;0;1;100 mA
30.1049459239923;-0.699615478515625;-0.246826171875;0.00999999997475243;2;100 mA
30.1149459239671;-0.699676513671875;-0.2056884765625;0.0199999999495049;3;100 mA
30.1249459239418;-0.69952392578125;-0.182159423828125;0.0299999999242573;4;100 mA
30.1349459239166;-0.6995849609375;-0.165008544921875;0.0399999998990097;5;100 mA
30.1449459238913;-0.699615478515625;-0.15411376953125;0.0499999998737621;6;100 mA
30.1549459238661;-0.699615478515625;-0.146392822265625;0.0599999998485146;7;100 mA
30.1649459238408;-0.699554443359375;-0.140838623046875;0.069999999823267;8;100 mA
30.1749459238156;-0.6995849609375;-0.134429931640625;0.0799999997980194;9;100 mA
30.1849459237903;-0.699615478515625;-0.131591796875;0.0899999997727718;10;100 mA
30.1949459237651;-0.699615478515625;-0.12738037109375;0.0999999997475243;11;100 mA
30.2049459237398;-0.69970703125;-0.125885009765625;0.109999999722277;12;100 mA
30.2149459237146;-0.6995849609375;-0.1226806640625;0.119999999697029;13;100 mA
30.2249459236893;-0.6995849609375;-0.12158203125;0.129999999671782;14;100 mA
30.2349459236641;-0.699676513671875;-0.12164306640625;0.139999999646534;15;100 mA
30.2449459236389;-0.69964599609375;-0.120391845703125;0.149999999621286;16;100 mA
30.2549459236136;-0.69964599609375;-0.11920166015625;0.159999999596039;17;100 mA
30.2649459235884;-0.69964599609375;-0.119476318359375;0.169999999570791;18;100 mA
30.2749459235631;-0.6995849609375;-0.11761474609375;0.179999999545544;19;100 mA
30.2849459235379;-0.699493408203125;-0.117584228515625;0.189999999520296;20;100 mA
30.2949459235126;-0.699615478515625;-0.114898681640625;0.199999999495049;21;100 mA
30.3049459234874;-0.699554443359375;-0.115692138671875;0.209999999469801;22;100 mA
30.3149459234621;-0.699676513671875;-0.1141357421875;0.219999999444553;23;100 mA
30.3249459234369;-0.699462890625;-0.113494873046875;0.229999999419306;24;100 mA
30.3349459234116;-0.699615478515625;-0.112823486328125;0.239999999394058;25;100 mA
30.3449459233864;-0.69964599609375;-0.11297607421875;0.249999999368811;26;100 mA
30.3549459233611;-0.699676513671875;-0.113800048828125;0.259999999343563;27;100 mA
30.3649459233359;-0.699676513671875;-0.113189697265625;0.269999999318316;28;100 mA
30.3749459233106;-0.699676513671875;-0.111846923828125;0.279999999293068;29;100 mA
30.3849459232854;-0.699676513671875;-0.113189697265625;0.28999999926782;30;100 mA
30.3949459232601;-0.699676513671875;-0.111541748046875;0.299999999242573;31;100 mA
30.4049459232349;-0.699676513671875;-0.112335205078125;0.309999999217325;32;100 mA
30.4149459232096;-0.699676513671875;-0.11065673828125;0.319999999192078;33;100 mA
30.4249459231844;-0.699676513671875;-0.111083984375;0.32999999916683;34;100 mA
30.4349459231591;-0.69964599609375;-0.111358642578125;0.339999999141583;35;100 mA
30.4449459231339;-0.699615478515625;-0.1103515625;0.349999999116335;36;100 mA
30.4549459231087;-0.69964599609375;-0.110595703125;0.359999999091087;37;100 mA
30.4649459230834;-0.69964599609375;-0.111480712890625;0.36999999906584;38;100 mA
30.4749459230582;-0.69970703125;-0.110931396484375;0.379999999040592;39;100 mA
30.4849459230329;-0.69964599609375;-0.111480712890625;0.389999999015345;40;100 mA
30.4949459230077;-0.69964599609375;-0.10980224609375;0.399999998990097;41;100 mA
30.5049459229824;-0.699676513671875;-0.111419677734375;0.40999999896485;42;100 mA
30.5149459229572;-0.699615478515625;-0.11083984375;0.419999998939602;43;100 mA
30.5249459229319;-0.699615478515625;-0.110687255859375;0.429999998914354;44;100 mA
30.5349459229067;-0.699615478515625;-0.110321044921875;0.439999998889107;45;100 mA
30.5449459228814;-0.699615478515625;-0.11065673828125;0.449999998863859;46;100 mA
30.5549459228562;-0.69970703125;-0.111541748046875;0.459999998838612;47;100 mA
30.5649459228309;-0.699615478515625;-0.111083984375;0.469999998813364;48;100 mA
30.5749459228057;-0.69964599609375;-0.11041259765625;0.479999998788116;49;100 mA
30.5849459227804;-0.69964599609375;-0.11163330078125;0.489999998762869;50;100 mA
30.5949459227552;-0.69964599609375;-0.1104736328125;0.499999998737621;51;100 mA
30.6049459227299;-0.699615478515625;-0.11126708984375;0.509999998712374;52;100 mA
30.6149459227047;-0.69964599609375;-0.109710693359375;0.519999998687126;53;100 mA
30.6249459226794;-0.699676513671875;-0.110015869140625;0.529999998661879;54;100 mA
30.6349459226542;-0.69964599609375;-0.11016845703125;0.539999998636631;55;100 mA
30.6449459226289;-0.69964599609375;-0.10955810546875;0.549999998611383;56;100 mA
30.6549459226037;-0.699615478515625;-0.10986328125;0.559999998586136;57;100 mA
30.6649459225785;-0.6995849609375;-0.110382080078125;0.569999998560888;58;100 mA
30.6749459225532;-0.69964599609375;-0.110260009765625;0.579999998535641;59;100 mA
30.684945922528;-0.69964599609375;-0.110870361328125;0.589999998510393;60;100 mA
30.6949459225027;-0.699615478515625;-0.1092529296875;0.599999998485146;61;100 mA
30.7049459224775;-0.699676513671875;-0.110595703125;0.609999998459898;62;100 mA
30.7149459224522;-0.699676513671875;-0.10943603515625;0.61999999843465;63;100 mA
30.724945922427;-0.699554443359375;-0.109283447265625;0.629999998409403;64;100 mA
30.7349459224017;-0.69964599609375;-0.1094970703125;0.639999998384155;65;100 mA
30.7449459223765;-0.699676513671875;-0.110260009765625;0.649999998358908;66;100 mA
30.7549459223512;-0.69964599609375;-0.1112060546875;0.65999999833366;67;100 mA
30.764945922326;-0.699615478515625;-0.110687255859375;0.669999998308413;68;100 mA
30.7749459223007;-0.69964599609375;-0.110687255859375;0.679999998283165;69;100 mA
30.7849459222755;-0.699676513671875;-0.112091064453125;0.689999998257917;70;100 mA
30.7949459222502;-0.699615478515625;-0.110748291015625;0.69999999823267;71;100 mA
30.804945922225;-0.69964599609375;-0.111083984375;0.709999998207422;72;100 mA
30.8149459221997;-0.69964599609375;-0.109527587890625;0.719999998182175;73;100 mA
30.8249459221745;-0.699615478515625;-0.110382080078125;0.729999998156927;74;100 mA
30.8349459221492;-0.699615478515625;-0.11102294921875;0.73999999813168;75;100 mA
30.844945922124;-0.69964599609375;-0.110870361328125;0.749999998106432;76;100 mA
30.8549459220988;-0.69964599609375;-0.111663818359375;0.759999998081184;77;100 mA
30.8649459220735;-0.699615478515625;-0.11199951171875;0.769999998055937;78;100 mA
30.8749459220483;-0.69964599609375;-0.11212158203125;0.779999998030689;79;100 mA
30.884945922023;-0.699615478515625;-0.111785888671875;0.789999998005442;80;100 mA
30.8949459219978;-0.699615478515625;-0.110137939453125;0.799999997980194;81;100 mA
30.9049459219725;-0.699615478515625;-0.111907958984375;0.809999997954947;82;100 mA
30.9149459219473;-0.699676513671875;-0.11065673828125;0.819999997929699;83;100 mA
30.924945921922;-0.69964599609375;-0.110504150390625;0.829999997904451;84;100 mA
30.9349459218968;-0.69964599609375;-0.10992431640625;0.839999997879204;85;100 mA
30.9449459218715;-0.699615478515625;-0.11004638671875;0.849999997853956;86;100 mA
30.9549459218463;-0.69970703125;-0.11077880859375;0.859999997828709;87;100 mA
30.964945921821;-0.699615478515625;-0.109619140625;0.869999997803461;88;100 mA
30.9749459217958;-0.699676513671875;-0.10955810546875;0.879999997778214;89;100 mA
30.9849459217705;-0.699615478515625;-0.110321044921875;0.889999997752966;90;100 mA
30.9949459217453;-0.699676513671875;-0.10955810546875;0.899999997727718;91;100 mA
31.00494592172;-0.699615478515625;-0.11004638671875;0.909999997702471;92;100 mA
31.0149459216948;-0.69964599609375;-0.108489990234375;0.919999997677223;93;100 mA
31.0249459216695;-0.69964599609375;-0.1094970703125;0.929999997651976;94;100 mA
31.0349459216443;-0.699676513671875;-0.109710693359375;0.939999997626728;95;100 mA
31.044945921619;-0.6995849609375;-0.109130859375;0.949999997601481;96;100 mA
31.0549459215938;-0.69964599609375;-0.10919189453125;0.959999997576233;97;100 mA
31.0649459215686;-0.69964599609375;-0.109283447265625;0.969999997550985;98;100 mA
31.0749459215433;-0.6995849609375;-0.1102294921875;0.979999997525738;99;100 mA
31.0849459215181;-0.69964599609375;-0.109954833984375;0.98999999750049;100;100 mA
31.0949459214928;-0.69964599609375;-0.108795166015625;0.999999997475243;101;100 mA
31.1049459214676;-0.699676513671875;-0.10986328125;1.00999999745;102;100 mA
31.1149459214423;-0.699676513671875;-0.108856201171875;1.01999999742475;103;100 mA
31.1249459214171;-0.69964599609375;-0.109130859375;1.0299999973995;104;100 mA
31.1349459213918;-0.6995849609375;-0.108917236328125;1.03999999737425;105;100 mA
31.1449459213666;-0.69964599609375;-0.10931396484375;1.049999997349;106;100 mA
31.1549459213413;-0.69964599609375;-0.11065673828125;1.05999999732376;107;100 mA
31.1649459213161;-0.69970703125;-0.10980224609375;1.06999999729851;108;100 mA
31.1749459212908;-0.699615478515625;-0.11065673828125;1.07999999727326;109;100 mA
31.1849459212656;-0.699615478515625;-0.11163330078125;1.08999999724801;110;100 mA
31.1949459212403;-0.699676513671875;-0.111175537109375;1.09999999722277;111;100 mA
31.2049459212151;-0.699615478515625;-0.111175537109375;1.10999999719752;112;100 mA
31.2149459211898;-0.699676513671875;-0.109619140625;1.11999999717227;113;100 mA
31.2249459211646;-0.699676513671875;-0.110198974609375;1.12999999714702;114;100 mA
31.2349459211393;-0.699615478515625;-0.109771728515625;1.13999999712178;115;100 mA
31.2449459211141;-0.699554443359375;-0.108978271484375;1.14999999709653;116;100 mA
31.2549459210888;-0.699615478515625;-0.10906982421875;1.15999999707128;117;100 mA
31.2649459210636;-0.6995849609375;-0.1087646484375;1.16999999704603;118;100 mA
31.2749459210384;-0.699676513671875;-0.109466552734375;1.17999999702079;119;100 mA
31.2849459210131;-0.699676513671875;-0.109039306640625;1.18999999699554;120;100 mA
31.2949459209879;-0.69964599609375;-0.10906982421875;1.19999999697029;121;100 mA
31.3049459209626;-0.69964599609375;-0.11029052734375;1.20999999694504;122;100 mA
31.3149459209374;-0.69964599609375;-0.109161376953125;1.2199999969198;123;100 mA
31.3249459209121;-0.699676513671875;-0.1090087890625;1.22999999689455;124;100 mA
31.3349459208869;-0.69964599609375;-0.107940673828125;1.2399999968693;125;100 mA
31.3449459208616;-0.699737548828125;-0.108184814453125;1.24999999684405;126;100 mA
31.3549459208364;-0.69964599609375;-0.1092529296875;1.25999999681881;127;100 mA
31.3649459208111;-0.69964599609375;-0.10833740234375;1.26999999679356;128;100 mA
31.3749459207859;-0.6995849609375;-0.109100341796875;1.27999999676831;129;100 mA
31.3849459207606;-0.6995849609375;-0.1097412109375;1.28999999674306;130;100 mA
31.3949459207354;-0.69964599609375;-0.109832763671875;1.29999999671782;131;100 mA
31.4049459207101;-0.699554443359375;-0.110260009765625;1.30999999669257;132;100 mA
31.4149459206849;-0.699676513671875;-0.108795166015625;1.31999999666732;133;100 mA
31.4249459206596;-0.699615478515625;-0.10943603515625;1.32999999664207;134;100 mA
31.4349459206344;-0.69964599609375;-0.109100341796875;1.33999999661683;135;100 mA
31.4449459206091;-0.6995849609375;-0.108795166015625;1.34999999659158;136;100 mA
31.4549459205839;-0.69964599609375;-0.108489990234375;1.35999999656633;137;100 mA
31.4649459205586;-0.69964599609375;-0.108123779296875;1.36999999654108;138;100 mA
31.4749459205334;-0.699676513671875;-0.109283447265625;1.37999999651583;139;100 mA
31.4849459205082;-0.69964599609375;-0.1087646484375;1.38999999649059;140;100 mA
31.4949459204829;-0.69964599609375;-0.10882568359375;1.39999999646534;141;100 mA
31.5049459204577;-0.699676513671875;-0.10980224609375;1.40999999644009;142;100 mA
31.5149459204324;-0.699615478515625;-0.108673095703125;1.41999999641484;143;100 mA
31.5249459204072;-0.69970703125;-0.10882568359375;1.4299999963896;144;100 mA
31.5349459203819;-0.699615478515625;-0.108123779296875;1.43999999636435;145;100 mA
31.5449459203567;-0.69964599609375;-0.1090087890625;1.4499999963391;146;100 mA
31.5549459203314;-0.69964599609375;-0.110382080078125;1.45999999631385;147;100 mA
31.5649459203062;-0.69964599609375;-0.10986328125;1.46999999628861;148;100 mA
31.5749459202809;-0.699676513671875;-0.109954833984375;1.47999999626336;149;100 mA
31.5849459202557;-0.699615478515625;-0.109771728515625;1.48999999623811;150;100 mA
31.5949459202304;-0.699676513671875;-0.1094970703125;1.49999999621286;151;100 mA
31.6049459202052;-0.69964599609375;-0.10894775390625;1.50999999618762;152;100 mA
31.6149459201799;-0.6995849609375;-0.107269287109375;1.51999999616237;153;100 mA
31.6249459201547;-0.69964599609375;-0.10833740234375;1.52999999613712;154;100 mA
31.6349459201294;-0.699615478515625;-0.108123779296875;1.53999999611187;155;100 mA
31.6449459201042;-0.69964599609375;-0.107452392578125;1.54999999608663;156;100 mA
31.6549459200789;-0.69964599609375;-0.106719970703125;1.55999999606138;157;100 mA
31.6649459200537;-0.699615478515625;-0.10662841796875;1.56999999603613;158;100 mA
31.6749459200284;-0.6995849609375;-0.108795166015625;1.57999999601088;159;100 mA
31.6849459200032;-0.6995849609375;-0.109130859375;1.58999999598564;160;100 mA
31.694945919978;-0.699615478515625;-0.109527587890625;1.59999999596039;161;100 mA
31.7049459199527;-0.69964599609375;-0.110015869140625;1.60999999593514;162;100 mA
31.7149459199275;-0.69964599609375;-0.109222412109375;1.61999999590989;163;100 mA
31.7249459199022;-0.69964599609375;-0.109619140625;1.62999999588465;164;100 mA
31.734945919877;-0.69964599609375;-0.1087646484375;1.6399999958594;165;100 mA
31.7449459198517;-0.699676513671875;-0.1097412109375;1.64999999583415;166;100 mA
31.7549459198265;-0.699615478515625;-0.11083984375;1.6599999958089;167;100 mA
31.7649459198012;-0.69964599609375;-0.110198974609375;1.66999999578366;168;100 mA
31.774945919776;-0.69964599609375;-0.11163330078125;1.67999999575841;169;100 mA
31.7849459197507;-0.699615478515625;-0.111602783203125;1.68999999573316;170;100 mA
31.7949459197255;-0.69964599609375;-0.112091064453125;1.69999999570791;171;100 mA
31.8049459197002;-0.699676513671875;-0.11138916015625;1.70999999568267;172;100 mA
31.814945919675;-0.699615478515625;-0.110107421875;1.71999999565742;173;100 mA
31.8249459196497;-0.699615478515625;-0.111297607421875;1.72999999563217;174;100 mA
31.8349459196245;-0.69964599609375;-0.11077880859375;1.73999999560692;175;100 mA
31.8449459195992;-0.69964599609375;-0.1104736328125;1.74999999558167;176;100 mA
31.854945919574;-0.6995849609375;-0.109710693359375;1.75999999555643;177;100 mA
31.8649459195487;-0.69964599609375;-0.1094970703125;1.76999999553118;178;100 mA
31.8749459195235;-0.699615478515625;-0.1112060546875;1.77999999550593;179;100 mA
31.8849459194983;-0.6995849609375;-0.110504150390625;1.78999999548068;180;100 mA
31.894945919473;-0.699615478515625;-0.111236572265625;1.79999999545544;181;100 mA
31.9049459194478;-0.699615478515625;-0.111724853515625;1.80999999543019;182;100 mA
31.9149459194225;-0.69964599609375;-0.11114501953125;1.81999999540494;183;100 mA
31.9249459193973;-0.699615478515625;-0.111419677734375;1.82999999537969;184;100 mA
31.934945919372;-0.69964599609375;-0.110260009765625;1.83999999535445;185;100 mA
31.9449459193468;-0.699676513671875;-0.11077880859375;1.8499999953292;186;100 mA
31.9549459193215;-0.699676513671875;-0.11126708984375;1.85999999530395;187;100 mA
31.9649459192963;-0.69964599609375;-0.1103515625;1.8699999952787;188;100 mA
31.974945919271;-0.699615478515625;-0.110443115234375;1.87999999525346;189;100 mA
31.9849459192458;-0.69970703125;-0.109954833984375;1.88999999522821;190;100 mA
31.9949459192205;-0.69964599609375;-0.110748291015625;1.89999999520296;191;100 mA
32.0049459191953;-0.69964599609375;-0.110565185546875;1.90999999517771;192;100 mA
32.01494591917;-0.699615478515625;-0.110260009765625;1.91999999515247;193;100 mA
32.0249459191448;-0.699615478515625;-0.111297607421875;1.92999999512722;194;100 mA
32.0349459191195;-0.699676513671875;-0.1103515625;1.93999999510197;195;100 mA
32.0449459190943;-0.69964599609375;-0.110076904296875;1.94999999507672;196;100 mA
32.054945919069;-0.69964599609375;-0.109954833984375;1.95999999505148;197;100 mA
32.0649459190438;-0.699676513671875;-0.109954833984375;1.96999999502623;198;100 mA
32.0749459190185;-0.69964599609375;-0.111236572265625;1.97999999500098;199;100 mA
32.0849459189933;-0.6995849609375;-0.110260009765625;1.98999999497573;200;100 mA
32.0949459189681;-0.69964599609375;-0.110870361328125;1.99999999495049;201;100 mA
32.1049459189428;-0.699615478515625;-0.111114501953125;2.00999999492524;202;100 mA
32.1149459189176;-0.699615478515625;-0.11114501953125;2.01999999489999;203;100 mA
32.1249459188923;-0.699676513671875;-0.110992431640625;2.02999999487474;204;100 mA
32.1349459188671;-0.6995849609375;-0.108917236328125;2.0399999948495;205;100 mA
32.1449459188418;-0.699676513671875;-0.109527587890625;2.04999999482425;206;100 mA
32.1549459188166;-0.699615478515625;-0.109832763671875;2.059999994799;207;100 mA
32.1649459187913;-0.699615478515625;-0.10906982421875;2.06999999477375;208;100 mA
32.1749459187661;-0.699615478515625;-0.109283447265625;2.0799999947485;209;100 mA
32.1849459187408;-0.699615478515625;-0.109222412109375;2.08999999472326;210;100 mA
32.1949459187156;-0.6995849609375;-0.110809326171875;2.09999999469801;211;100 mA
32.2049459186903;-0.699615478515625;-0.11065673828125;2.10999999467276;212;100 mA
32.2149459186651;-0.69964599609375;-0.11090087890625;2.11999999464751;213;100 mA
32.2249459186398;-0.69964599609375;-0.112457275390625;2.12999999462227;214;100 mA
32.2349459186146;-0.699676513671875;-0.112274169921875;2.13999999459702;215;100 mA
32.2449459185893;-0.699615478515625;-0.112091064453125;2.14999999457177;216;100 mA
32.2549459185641;-0.699615478515625;-0.111083984375;2.15999999454652;217;100 mA
32.2649459185388;-0.699676513671875;-0.110931396484375;2.16999999452128;218;100 mA
32.2749459185136;-0.69964599609375;-0.11212158203125;2.17999999449603;219;100 mA
32.2849459184883;-0.699676513671875;-0.11114501953125;2.18999999447078;220;100 mA
32.2949459184631;-0.699615478515625;-0.111785888671875;2.19999999444553;221;100 mA
32.3049459184379;-0.699615478515625;-0.111846923828125;2.20999999442029;222;100 mA
32.3149459184126;-0.699615478515625;-0.112579345703125;2.21999999439504;223;100 mA
32.3249459183874;-0.6995849609375;-0.112518310546875;2.22999999436979;224;100 mA
32.3349459183621;-0.69964599609375;-0.1109619140625;2.23999999434454;225;100 mA
32.3449459183369;-0.699615478515625;-0.11163330078125;2.2499999943193;226;100 mA
32.3549459183116;-0.699615478515625;-0.111846923828125;2.25999999429405;227;100 mA
32.3649459182864;-0.699615478515625;-0.1112060546875;2.2699999942688;228;100 mA
32.3749459182611;-0.699615478515625;-0.11126708984375;2.27999999424355;229;100 mA
32.3849459182359;-0.699615478515625;-0.1109619140625;2.28999999421831;230;100 mA
32.3949459182106;-0.699615478515625;-0.11279296875;2.29999999419306;231;100 mA
32.4049459181854;-0.69964599609375;-0.112152099609375;2.30999999416781;232;100 mA
32.4149459181601;-0.699615478515625;-0.1123046875;2.31999999414256;233;100 mA
32.4249459181349;-0.69964599609375;-0.112548828125;2.32999999411732;234;100 mA
32.4349459181096;-0.69964599609375;-0.111358642578125;2.33999999409207;235;100 mA
32.4449459180844;-0.699676513671875;-0.110565185546875;2.34999999406682;236;100 mA
32.4549459180591;-0.69970703125;-0.1087646484375;2.35999999404157;237;100 mA
32.4649459180339;-0.69964599609375;-0.108673095703125;2.36999999401633;238;100 mA
32.4749459180086;-0.699676513671875;-0.109771728515625;2.37999999399108;239;100 mA
32.4849459179834;-0.699676513671875;-0.109222412109375;2.38999999396583;240;100 mA
32.4949459179581;-0.699676513671875;-0.10992431640625;2.39999999394058;241;100 mA
32.5049459179329;-0.699615478515625;-0.109466552734375;2.40999999391533;242;100 mA
32.5149459179077;-0.6995849609375;-0.110076904296875;2.41999999389009;243;100 mA
32.5249459178824;-0.6995849609375;-0.110137939453125;2.42999999386484;244;100 mA
32.5349459178572;-0.6995849609375;-0.109161376953125;2.43999999383959;245;100 mA
32.5449459178319;-0.69964599609375;-0.110015869140625;2.44999999381434;246;100 mA
32.5549459178067;-0.699615478515625;-0.110015869140625;2.4599999937891;247;100 mA
32.5649459177814;-0.69964599609375;-0.109375;2.46999999376385;248;100 mA
32.5749459177562;-0.699615478515625;-0.10888671875;2.4799999937386;249;100 mA
32.5849459177309;-0.69964599609375;-0.1082763671875;2.48999999371335;250;100 mA
32.5949459177057;-0.69964599609375;-0.109893798828125;2.49999999368811;251;100 mA
32.6049459176804;-0.699676513671875;-0.109100341796875;2.50999999366286;252;100 mA
32.6149459176552;-0.699615478515625;-0.109130859375;2.51999999363761;253;100 mA
32.6249459176299;-0.6995849609375;-0.10943603515625;2.52999999361236;254;100 mA
32.6349459176047;-0.699615478515625;-0.109405517578125;2.53999999358712;255;100 mA
32.6449459175794;-0.69964599609375;-0.1099853515625;2.54999999356187;256;100 mA
32.6549459175542;-0.699676513671875;-0.10931396484375;2.55999999353662;257;100 mA
32.6649459175289;-0.69964599609375;-0.10955810546875;2.56999999351137;258;100 mA
32.6749459175037;-0.69964599609375;-0.109954833984375;2.57999999348613;259;100 mA
32.6849459174784;-0.699615478515625;-0.10858154296875;2.58999999346088;260;100 mA
32.6949459174532;-0.699615478515625;-0.108489990234375;2.59999999343563;261;100 mA
32.7049459174279;-0.69964599609375;-0.107879638671875;2.60999999341038;262;100 mA
32.7149459174027;-0.699615478515625;-0.108795166015625;2.61999999338514;263;100 mA
32.7249459173775;-0.69964599609375;-0.1090087890625;2.62999999335989;264;100 mA
32.7349459173522;-0.69964599609375;-0.108673095703125;2.63999999333464;265;100 mA
32.744945917327;-0.699615478515625;-0.109710693359375;2.64999999330939;266;100 mA
32.7549459173017;-0.699615478515625;-0.109466552734375;2.65999999328415;267;100 mA
32.7649459172765;-0.699615478515625;-0.10919189453125;2.6699999932589;268;100 mA
32.7749459172512;-0.699615478515625;-0.10858154296875;2.67999999323365;269;100 mA
32.784945917226;-0.699676513671875;-0.108306884765625;2.6899999932084;270;100 mA
32.7949459172007;-0.699615478515625;-0.1097412109375;2.69999999318316;271;100 mA
32.8049459171755;-0.6995849609375;-0.109161376953125;2.70999999315791;272;100 mA
32.8149459171502;-0.69964599609375;-0.10980224609375;2.71999999313266;273;100 mA
32.824945917125;-0.69970703125;-0.1097412109375;2.72999999310741;274;100 mA
32.8349459170997;-0.69964599609375;-0.10943603515625;2.73999999308217;275;100 mA
32.8449459170745;-0.69964599609375;-0.109619140625;2.74999999305692;276;100 mA
32.8549459170492;-0.699676513671875;-0.108367919921875;2.75999999303167;277;100 mA
32.864945917024;-0.69964599609375;-0.10870361328125;2.76999999300642;278;100 mA
32.8749459169987;-0.699737548828125;-0.109100341796875;2.77999999298117;279;100 mA
32.8849459169735;-0.6995849609375;-0.108062744140625;2.78999999295593;280;100 mA
32.8949459169482;-0.699615478515625;-0.108001708984375;2.79999999293068;281;100 mA
32.904945916923;-0.699676513671875;-0.107635498046875;2.80999999290543;282;100 mA
32.9149459168978;-0.69964599609375;-0.10931396484375;2.81999999288018;283;100 mA
32.9249459168725;-0.699615478515625;-0.109130859375;2.82999999285494;284;100 mA
32.9349459168473;-0.699615478515625;-0.10919189453125;2.83999999282969;285;100 mA
32.944945916822;-0.699676513671875;-0.110107421875;2.84999999280444;286;100 mA
32.9549459167968;-0.699615478515625;-0.1097412109375;2.85999999277919;287;100 mA
32.9649459167715;-0.699676513671875;-0.109710693359375;2.86999999275395;288;100 mA
32.9749459167463;-0.699615478515625;-0.108917236328125;2.8799999927287;289;100 mA
32.984945916721;-0.699676513671875;-0.10833740234375;2.88999999270345;290;100 mA
32.9949459166958;-0.699676513671875;-0.108795166015625;2.8999999926782;291;100 mA
33.0049459166705;-0.69964599609375;-0.107635498046875;2.90999999265296;292;100 mA
33.0149459166453;-0.69964599609375;-0.108367919921875;2.91999999262771;293;100 mA
33.02494591662;-0.699676513671875;-0.108673095703125;2.92999999260246;294;100 mA
33.0349459165948;-0.69964599609375;-0.109039306640625;2.93999999257721;295;100 mA
33.0449459165695;-0.699615478515625;-0.10894775390625;2.94999999255197;296;100 mA
33.0549459165443;-0.69964599609375;-0.107574462890625;2.95999999252672;297;100 mA
33.064945916519;-0.69964599609375;-0.107818603515625;2.96999999250147;298;100 mA
33.0749459164938;-0.69964599609375;-0.107635498046875;2.97999999247622;299;100 mA
33.0849459164685;-0.69964599609375;-0.106536865234375;2.98999999245098;300;100 mA
33.0949459164433;-0.69970703125;-0.10626220703125;2.99999999242573;301;100 mA
33.104945916418;-0.699676513671875;-0.105865478515625;3.00999999240048;302;100 mA
33.1149459163928;-0.699676513671875;-0.107421875;3.01999999237523;303;100 mA
33.1249459163676;-0.699676513671875;-0.107330322265625;3.02999999234999;304;100 mA
33.1349459163423;-0.69970703125;-0.107666015625;3.03999999232474;305;100 mA
33.1449459163171;-0.69964599609375;-0.108306884765625;3.04999999229949;306;100 mA
33.1549459162918;-0.69964599609375;-0.10791015625;3.05999999227424;307;100 mA
33.1649459162666;-0.699615478515625;-0.10797119140625;3.069999992249;308;100 mA
33.1749459162413;-0.69964599609375;-0.10699462890625;3.07999999222375;309;100 mA
33.1849459162161;-0.699615478515625;-0.10693359375;3.0899999921985;310;100 mA
33.1949459161908;-0.699554443359375;-0.108245849609375;3.09999999217325;311;100 mA
33.2049459161656;-0.69964599609375;-0.10748291015625;3.109999992148;312;100 mA
33.2149459161403;-0.69970703125;-0.108001708984375;3.11999999212276;313;100 mA
33.2249459161151;-0.699615478515625;-0.10772705078125;3.12999999209751;314;100 mA
33.2349459160898;-0.699676513671875;-0.1083984375;3.13999999207226;315;100 mA
33.2449459160646;-0.69970703125;-0.10845947265625;3.14999999204701;316;100 mA
33.2549459160393;-0.6995849609375;-0.10748291015625;3.15999999202177;317;100 mA
33.2649459160141;-0.699676513671875;-0.108062744140625;3.16999999199652;318;100 mA
33.2749459159888;-0.69964599609375;-0.108062744140625;3.17999999197127;319;100 mA
33.2849459159636;-0.699676513671875;-0.10797119140625;3.18999999194602;320;100 mA
33.2949459159383;-0.699676513671875;-0.108245849609375;3.19999999192078;321;100 mA
33.3049459159131;-0.699615478515625;-0.1077880859375;3.20999999189553;322;100 mA
33.3149459158878;-0.699615478515625;-0.1094970703125;3.21999999187028;323;100 mA
33.3249459158626;-0.69964599609375;-0.109283447265625;3.22999999184503;324;100 mA
33.3349459158374;-0.699615478515625;-0.109893798828125;3.23999999181979;325;100 mA
33.3449459158121;-0.69970703125;-0.11029052734375;3.24999999179454;326;100 mA
33.3549459157869;-0.699737548828125;-0.109954833984375;3.25999999176929;327;100 mA
33.3649459157616;-0.6995849609375;-0.10992431640625;3.26999999174404;328;100 mA
33.3749459157364;-0.699676513671875;-0.108367919921875;3.2799999917188;329;100 mA
33.3849459157111;-0.699615478515625;-0.108001708984375;3.28999999169355;330;100 mA
33.3949459156859;-0.699615478515625;-0.108428955078125;3.2999999916683;331;100 mA
33.4049459156606;-0.69964599609375;-0.107574462890625;3.30999999164305;332;100 mA
33.4149459156354;-0.699676513671875;-0.1080322265625;3.31999999161781;333;100 mA
33.4249459156101;-0.69964599609375;-0.107452392578125;3.32999999159256;334;100 mA
33.4349459155849;-0.699615478515625;-0.108306884765625;3.33999999156731;335;100 mA
33.4449459155596;-0.699676513671875;-0.108306884765625;3.34999999154206;336;100 mA
33.4549459155344;-0.699676513671875;-0.107574462890625;3.35999999151682;337;100 mA
33.4649459155091;-0.699676513671875;-0.10791015625;3.36999999149157;338;100 mA
33.4749459154839;-0.699615478515625;-0.107635498046875;3.37999999146632;339;100 mA
33.4849459154586;-0.69964599609375;-0.107635498046875;3.38999999144107;340;100 mA
33.4949459154334;-0.699615478515625;-0.107421875;3.39999999141583;341;100 mA
33.5049459154081;-0.69964599609375;-0.10693359375;3.40999999139058;342;100 mA
33.5149459153829;-0.69964599609375;-0.1083984375;3.41999999136533;343;100 mA
33.5249459153576;-0.69970703125;-0.10797119140625;3.42999999134008;344;100 mA
33.5349459153324;-0.699676513671875;-0.1085205078125;3.43999999131483;345;100 mA
33.5449459153072;-0.69964599609375;-0.1083984375;3.44999999128959;346;100 mA
33.5549459152819;-0.699615478515625;-0.10791015625;3.45999999126434;347;100 mA
33.5649459152567;-0.69964599609375;-0.10784912109375;3.46999999123909;348;100 mA
33.5749459152314;-0.69964599609375;-0.106475830078125;3.47999999121384;349;100 mA
33.5849459152062;-0.69964599609375;-0.10638427734375;3.4899999911886;350;100 mA
33.5949459151809;-0.699676513671875;-0.106536865234375;3.49999999116335;351;100 mA
33.6049459151557;-0.699615478515625;-0.10577392578125;3.5099999911381;352;100 mA
33.6149459151304;-0.699676513671875;-0.105865478515625;3.51999999111285;353;100 mA
33.6249459151052;-0.699676513671875;-0.105194091796875;3.52999999108761;354;100 mA
33.6349459150799;-0.69964599609375;-0.106170654296875;3.53999999106236;355;100 mA
33.6449459150547;-0.6995849609375;-0.10614013671875;3.54999999103711;356;100 mA
33.6549459150294;-0.699615478515625;-0.106048583984375;3.55999999101186;357;100 mA
33.6649459150042;-0.69964599609375;-0.10687255859375;3.56999999098662;358;100 mA
33.6749459149789;-0.699615478515625;-0.106842041015625;3.57999999096137;359;100 mA
33.6849459149537;-0.69964599609375;-0.10687255859375;3.58999999093612;360;100 mA
33.6949459149284;-0.69964599609375;-0.106292724609375;3.59999999091087;361;100 mA
33.7049459149032;-0.699676513671875;-0.10577392578125;3.60999999088563;362;100 mA
33.7149459148779;-0.699615478515625;-0.107025146484375;3.61999999086038;363;100 mA
33.7249459148527;-0.699676513671875;-0.1068115234375;3.62999999083513;364;100 mA
33.7349459148274;-0.69964599609375;-0.10748291015625;3.63999999080988;365;100 mA
33.7449459148022;-0.69964599609375;-0.10723876953125;3.64999999078464;366;100 mA
33.754945914777;-0.69964599609375;-0.1070556640625;3.65999999075939;367;100 mA
33.7649459147517;-0.69964599609375;-0.107086181640625;3.66999999073414;368;100 mA
33.7749459147265;-0.69964599609375;-0.106170654296875;3.67999999070889;369;100 mA
33.7849459147012;-0.69964599609375;-0.106475830078125;3.68999999068365;370;100 mA
33.794945914676;-0.699676513671875;-0.106597900390625;3.6999999906584;371;100 mA
33.8049459146507;-0.699615478515625;-0.106109619140625;3.70999999063315;372;100 mA
33.8149459146255;-0.699676513671875;-0.10638427734375;3.7199999906079;373;100 mA
33.8249459146002;-0.69970703125;-0.1058349609375;3.72999999058266;374;100 mA
33.834945914575;-0.699615478515625;-0.1068115234375;3.73999999055741;375;100 mA
33.8449459145497;-0.699676513671875;-0.106597900390625;3.74999999053216;376;100 mA
33.8549459145245;-0.699615478515625;-0.10650634765625;3.75999999050691;377;100 mA
33.8649459144992;-0.69964599609375;-0.106719970703125;3.76999999048167;378;100 mA
33.874945914474;-0.699676513671875;-0.10662841796875;3.77999999045642;379;100 mA
33.8849459144487;-0.699676513671875;-0.10675048828125;3.78999999043117;380;100 mA
33.8949459144235;-0.699676513671875;-0.1063232421875;3.79999999040592;381;100 mA
33.9049459143982;-0.69964599609375;-0.106231689453125;3.80999999038067;382;100 mA
33.914945914373;-0.69964599609375;-0.107086181640625;3.81999999035543;383;100 mA
33.9249459143477;-0.699615478515625;-0.1063232421875;3.82999999033018;384;100 mA
33.9349459143225;-0.69964599609375;-0.106658935546875;3.83999999030493;385;100 mA
33.9449459142973;-0.699676513671875;-0.1060791015625;3.84999999027968;386;100 mA
33.954945914272;-0.699615478515625;-0.106536865234375;3.85999999025444;387;100 mA
33.9649459142468;-0.699676513671875;-0.10711669921875;3.86999999022919;388;100 mA
33.9749459142215;-0.699676513671875;-0.106536865234375;3.87999999020394;389;100 mA
33.9849459141963;-0.69970703125;-0.10638427734375;3.88999999017869;390;100 mA
33.994945914171;-0.69964599609375;-0.10577392578125;3.89999999015345;391;100 mA
34.0049459141458;-0.69964599609375;-0.105072021484375;3.9099999901282;392;100 mA
34.0149459141205;-0.6995849609375;-0.10498046875;3.91999999010295;393;100 mA
34.0249459140953;-0.69970703125;-0.1043701171875;3.9299999900777;394;100 mA
34.03494591407;-0.6995849609375;-0.105438232421875;3.93999999005246;395;100 mA
34.0449459140448;-0.699676513671875;-0.10565185546875;3.94999999002721;396;100 mA
34.0549459140195;-0.699615478515625;-0.106231689453125;3.95999999000196;397;100 mA
34.0649459139943;-0.69970703125;-0.106231689453125;3.96999998997671;398;100 mA
34.074945913969;-0.699676513671875;-0.105621337890625;3.97999998995147;399;100 mA
34.0849459139438;-0.69964599609375;-0.105560302734375;3.98999998992622;400;100 mA
34.0949459139185;-0.69964599609375;-0.10479736328125;3.99999998990097;401;100 mA
34.1049459138933;-0.69964599609375;-0.10443115234375;4.00999998987572;402;100 mA
34.114945913868;-0.69964599609375;-0.10498046875;4.01999998985048;403;100 mA
34.1249459138428;-0.69964599609375;-0.104095458984375;4.02999998982523;404;100 mA
34.1349459138175;-0.69964599609375;-0.1043701171875;4.03999998979998;405;100 mA
34.1449459137923;-0.699676513671875;-0.103973388671875;4.04999998977473;406;100 mA
34.1549459137671;-0.699676513671875;-0.104644775390625;4.05999998974949;407;100 mA
34.1649459137418;-0.69964599609375;-0.104827880859375;4.06999998972424;408;100 mA
34.1749459137166;-0.69964599609375;-0.10418701171875;4.07999998969899;409;100 mA
34.1849459136913;-0.699615478515625;-0.104461669921875;4.08999998967374;410;100 mA
34.1949459136661;-0.699676513671875;-0.103851318359375;4.0999999896485;411;100 mA
34.2049459136408;-0.69964599609375;-0.103240966796875;4.10999998962325;412;100 mA
34.2149459136156;-0.69964599609375;-0.10308837890625;4.119999989598;413;100 mA
34.2249459135903;-0.69964599609375;-0.10272216796875;4.12999998957275;414;100 mA
34.2349459135651;-0.699615478515625;-0.10400390625;4.1399999895475;415;100 mA
34.2449459135398;-0.69964599609375;-0.104339599609375;4.14999998952226;416;100 mA
34.2549459135146;-0.699676513671875;-0.105194091796875;4.15999998949701;417;100 mA
34.2649459134893;-0.699676513671875;-0.105316162109375;4.16999998947176;418;100 mA
34.2749459134641;-0.699615478515625;-0.105010986328125;4.17999998944651;419;100 mA
34.2849459134388;-0.699615478515625;-0.1048583984375;4.18999998942127;420;100 mA
34.2949459134136;-0.69964599609375;-0.1038818359375;4.19999998939602;421;100 mA
34.3049459133883;-0.69964599609375;-0.103729248046875;4.20999998937077;422;100 mA
34.3149459133631;-0.699676513671875;-0.104217529296875;4.21999998934552;423;100 mA
34.3249459133378;-0.699615478515625;-0.103546142578125;4.22999998932028;424;100 mA
34.3349459133126;-0.699676513671875;-0.10394287109375;4.23999998929503;425;100 mA
34.3449459132873;-0.69970703125;-0.103057861328125;4.24999998926978;426;100 mA
34.3549459132621;-0.69964599609375;-0.103607177734375;4.25999998924453;427;100 mA
34.3649459132369;-0.699615478515625;-0.103515625;4.26999998921929;428;100 mA
34.3749459132116;-0.699676513671875;-0.10345458984375;4.27999998919404;429;100 mA
34.3849459131864;-0.69964599609375;-0.103912353515625;4.28999998916879;430;100 mA
34.3949459131611;-0.699676513671875;-0.103302001953125;4.29999998914354;431;100 mA
34.4049459131359;-0.699615478515625;-0.10284423828125;4.3099999891183;432;100 mA
34.4149459131106;-0.699676513671875;-0.102264404296875;4.31999998909305;433;100 mA
34.4249459130854;-0.69970703125;-0.10162353515625;4.3299999890678;434;100 mA
34.4349459130601;-0.69964599609375;-0.10260009765625;4.33999998904255;435;100 mA
34.4449459130349;-0.699615478515625;-0.102203369140625;4.34999998901731;436;100 mA
34.4549459130096;-0.699676513671875;-0.10321044921875;4.35999998899206;437;100 mA
34.4649459129844;-0.69970703125;-0.10333251953125;4.36999998896681;438;100 mA
34.4749459129591;-0.699676513671875;-0.103363037109375;4.37999998894156;439;100 mA
34.4849459129339;-0.69964599609375;-0.103607177734375;4.38999998891632;440;100 mA
34.4949459129086;-0.699676513671875;-0.102813720703125;4.39999998889107;441;100 mA
34.5049459128834;-0.699676513671875;-0.10302734375;4.40999998886582;442;100 mA
34.5149459128581;-0.6995849609375;-0.1031494140625;4.41999998884057;443;100 mA
34.5249459128329;-0.69964599609375;-0.102508544921875;4.42999998881533;444;100 mA
34.5349459128076;-0.699676513671875;-0.102874755859375;4.43999998879008;445;100 mA
34.5449459127824;-0.69970703125;-0.1024169921875;4.44999998876483;446;100 mA
34.5549459127571;-0.699676513671875;-0.10321044921875;4.45999998873958;447;100 mA
34.5649459127319;-0.699676513671875;-0.1029052734375;4.46999998871433;448;100 mA
34.5749459127067;-0.699676513671875;-0.1025390625;4.47999998868909;449;100 mA
34.5849459126814;-0.69964599609375;-0.10260009765625;4.48999998866384;450;100 mA
34.5949459126562;-0.69964599609375;-0.1019287109375;4.49999998863859;451;100 mA
34.6049459126309;-0.6995849609375;-0.1015625;4.50999998861334;452;100 mA
34.6149459126057;-0.699615478515625;-0.1009521484375;4.5199999885881;453;100 mA
34.6249459125804;-0.69970703125;-0.100738525390625;4.52999998856285;454;100 mA
34.6349459125552;-0.69964599609375;-0.101715087890625;4.5399999885376;455;100 mA
34.6449459125299;-0.699615478515625;-0.101409912109375;4.54999998851235;456;100 mA
34.6549459125047;-0.699676513671875;-0.1024169921875;4.55999998848711;457;100 mA
34.6649459124794;-0.699615478515625;-0.1025390625;4.56999998846186;458;100 mA
34.6749459124542;-0.699737548828125;-0.10296630859375;4.57999998843661;459;100 mA
34.6849459124289;-0.699615478515625;-0.102935791015625;4.58999998841136;460;100 mA
34.6949459124037;-0.699737548828125;-0.102386474609375;4.59999998838612;461;100 mA
34.7049459123784;-0.69964599609375;-0.102813720703125;4.60999998836087;462;100 mA
34.7149459123532;-0.69964599609375;-0.102691650390625;4.61999998833562;463;100 mA
34.7249459123279;-0.69970703125;-0.101959228515625;4.62999998831037;464;100 mA
34.7349459123027;-0.69970703125;-0.10186767578125;4.63999998828513;465;100 mA
34.7449459122774;-0.6995849609375;-0.101593017578125;4.64999998825988;466;100 mA
34.7549459122522;-0.6995849609375;-0.102783203125;4.65999998823463;467;100 mA
34.7649459122269;-0.69964599609375;-0.102447509765625;4.66999998820938;468;100 mA
34.7749459122017;-0.699676513671875;-0.10272216796875;4.67999998818414;469;100 mA
34.7849459121765;-0.699615478515625;-0.102874755859375;4.68999998815889;470;100 mA
34.7949459121512;-0.699615478515625;-0.102447509765625;4.69999998813364;471;100 mA
34.804945912126;-0.69964599609375;-0.102691650390625;4.70999998810839;472;100 mA
34.8149459121007;-0.699676513671875;-0.102294921875;4.71999998808315;473;100 mA
34.8249459120755;-0.69964599609375;-0.102203369140625;4.7299999880579;474;100 mA
34.8349459120502;-0.699615478515625;-0.102935791015625;4.73999998803265;475;100 mA
34.844945912025;-0.699615478515625;-0.101837158203125;4.7499999880074;476;100 mA
34.8549459119997;-0.69964599609375;-0.101959228515625;4.75999998798216;477;100 mA
34.8649459119745;-0.699676513671875;-0.10174560546875;4.76999998795691;478;100 mA
34.8749459119492;-0.69964599609375;-0.10235595703125;4.77999998793166;479;100 mA
34.884945911924;-0.699676513671875;-0.1025390625;4.78999998790641;480;100 mA
34.8949459118987;-0.69964599609375;-0.10223388671875;4.79999998788116;481;100 mA
34.9049459118735;-0.69964599609375;-0.10260009765625;4.80999998785592;482;100 mA
34.9149459118482;-0.69964599609375;-0.1024169921875;4.81999998783067;483;100 mA
34.924945911823;-0.6995849609375;-0.10205078125;4.82999998780542;484;100 mA
34.9349459117977;-0.69964599609375;-0.101959228515625;4.83999998778017;485;100 mA
34.9449459117725;-0.69970703125;-0.101531982421875;4.84999998775493;486;100 mA
34.9549459117472;-0.69970703125;-0.1025390625;4.85999998772968;487;100 mA
34.964945911722;-0.699615478515625;-0.102081298828125;4.86999998770443;488;100 mA
34.9749459116968;-0.69964599609375;-0.102325439453125;4.87999998767918;489;100 mA
34.9849459116715;-0.699676513671875;-0.1024169921875;4.88999998765394;490;100 mA
34.9949459116463;-0.699615478515625;-0.10223388671875;4.89999998762869;491;100 mA
35.004945911621;-0.699676513671875;-0.102264404296875;4.90999998760344;492;100 mA
35.0149459115958;-0.69964599609375;-0.10162353515625;4.91999998757819;493;100 mA
35.0249459115705;-0.699676513671875;-0.101715087890625;4.92999998755295;494;100 mA
35.0349459115453;-0.699676513671875;-0.102264404296875;4.9399999875277;495;100 mA
35.04494591152;-0.699676513671875;-0.10174560546875;4.94999998750245;496;100 mA
35.0549459114948;-0.699676513671875;-0.10211181640625;4.9599999874772;497;100 mA
35.0649459114695;-0.699676513671875;-0.10162353515625;4.96999998745196;498;100 mA
35.0749459114443;-0.69970703125;-0.1021728515625;4.97999998742671;499;100 mA
35.084945911419;-0.699676513671875;-0.101837158203125;4.98999998740146;500;100 mA
35.0949459113938;-0.699615478515625;-0.101348876953125;4.99999998737621;501;100 mA
35.1049459113685;-0.69970703125;-0.101593017578125;5.00999998735097;502;100 mA
35.1149459113433;-0.69970703125;-0.101226806640625;5.01999998732572;503;100 mA
35.124945911318;-0.69964599609375;-0.100982666015625;5.02999998730047;504;100 mA
35.1349459112928;-0.69964599609375;-0.10101318359375;5.03999998727522;505;100 mA
35.1449459112675;-0.69970703125;-0.100738525390625;5.04999998724998;506;100 mA
35.1549459112423;-0.699676513671875;-0.101715087890625;5.05999998722473;507;100 mA
35.164945911217;-0.699676513671875;-0.100982666015625;5.06999998719948;508;100 mA
35.1749459111918;-0.699676513671875;-0.10150146484375;5.07999998717423;509;100 mA
35.1849459111666;-0.69970703125;-0.101959228515625;5.08999998714899;510;100 mA
35.1949459111413;-0.69964599609375;-0.102294921875;5.09999998712374;511;100 mA
35.2049459111161;-0.699676513671875;-0.1021728515625;5.10999998709849;512;100 mA
35.2149459110908;-0.69970703125;-0.10107421875;5.11999998707324;513;100 mA
35.2249459110656;-0.69964599609375;-0.10089111328125;5.129999987048;514;100 mA
35.2349459110403;-0.699615478515625;-0.100677490234375;5.13999998702275;515;100 mA
35.2449459110151;-0.699676513671875;-0.099884033203125;5.1499999869975;516;100 mA
35.2549459109898;-0.69970703125;-0.10009765625;5.15999998697225;517;100 mA
35.2649459109646;-0.699676513671875;-0.10003662109375;5.169999986947;518;100 mA
35.2749459109393;-0.699676513671875;-0.10107421875;5.17999998692176;519;100 mA
35.2849459109141;-0.69970703125;-0.10107421875;5.18999998689651;520;100 mA
35.2949459108888;-0.69964599609375;-0.101104736328125;5.19999998687126;521;100 mA
35.3049459108636;-0.69964599609375;-0.1015625;5.20999998684601;522;100 mA
35.3149459108383;-0.69964599609375;-0.1016845703125;5.21999998682077;523;100 mA
35.3249459108131;-0.69964599609375;-0.101959228515625;5.22999998679552;524;100 mA
35.3349459107878;-0.69964599609375;-0.101531982421875;5.23999998677027;525;100 mA
35.3449459107626;-0.699676513671875;-0.101165771484375;5.24999998674502;526;100 mA
35.3549459107373;-0.69964599609375;-0.1021728515625;5.25999998671978;527;100 mA
35.3649459107121;-0.699615478515625;-0.1014404296875;5.26999998669453;528;100 mA
35.3749459106868;-0.69970703125;-0.10223388671875;5.27999998666928;529;100 mA
35.3849459106616;-0.699676513671875;-0.10260009765625;5.28999998664403;530;100 mA
35.3949459106364;-0.69964599609375;-0.1031494140625;5.29999998661879;531;100 mA
35.4049459106111;-0.69964599609375;-0.103729248046875;5.30999998659354;532;100 mA
35.4149459105859;-0.69964599609375;-0.103424072265625;5.31999998656829;533;100 mA
35.4249459105606;-0.699615478515625;-0.103759765625;5.32999998654304;534;100 mA
35.4349459105354;-0.69970703125;-0.103851318359375;5.3399999865178;535;100 mA
35.4449459105101;-0.69964599609375;-0.103240966796875;5.34999998649255;536;100 mA
35.4549459104849;-0.699737548828125;-0.103302001953125;5.3599999864673;537;100 mA
35.4649459104596;-0.699676513671875;-0.102813720703125;5.36999998644205;538;100 mA
35.4749459104344;-0.69970703125;-0.103759765625;5.37999998641681;539;100 mA
35.4849459104091;-0.69964599609375;-0.103424072265625;5.38999998639156;540;100 mA
35.4949459103839;-0.699554443359375;-0.103546142578125;5.39999998636631;541;100 mA
35.5049459103586;-0.699676513671875;-0.103790283203125;5.40999998634106;542;100 mA
35.5149459103334;-0.699737548828125;-0.103485107421875;5.41999998631582;543;100 mA
35.5249459103081;-0.69964599609375;-0.103271484375;5.42999998629057;544;100 mA
35.5349459102829;-0.699676513671875;-0.1025390625;5.43999998626532;545;100 mA
35.5449459102576;-0.69964599609375;-0.10247802734375;5.44999998624007;546;100 mA
35.5549459102324;-0.699615478515625;-0.103302001953125;5.45999998621483;547;100 mA
35.5649459102071;-0.69964599609375;-0.1025390625;5.46999998618958;548;100 mA
35.5749459101819;-0.699676513671875;-0.103271484375;5.47999998616433;549;100 mA
35.5849459101566;-0.69970703125;-0.103118896484375;5.48999998613908;550;100 mA
35.5949459101314;-0.699676513671875;-0.10345458984375;5.49999998611383;551;100 mA
35.6049459101062;-0.699615478515625;-0.103271484375;5.50999998608859;552;100 mA
35.6149459100809;-0.69964599609375;-0.1024169921875;5.51999998606334;553;100 mA
35.6249459100557;-0.699676513671875;-0.102630615234375;5.52999998603809;554;100 mA
35.6349459100304;-0.69976806640625;-0.10284423828125;5.53999998601284;555;100 mA
35.6449459100052;-0.6995849609375;-0.1026611328125;5.5499999859876;556;100 mA
35.6549459099799;-0.699676513671875;-0.103057861328125;5.55999998596235;557;100 mA
35.6649459099547;-0.69964599609375;-0.102752685546875;5.5699999859371;558;100 mA
35.6749459099294;-0.699676513671875;-0.1036376953125;5.57999998591185;559;100 mA
35.6849459099042;-0.69964599609375;-0.1031494140625;5.58999998588661;560;100 mA
35.6949459098789;-0.699615478515625;-0.1036376953125;5.59999998586136;561;100 mA
35.7049459098537;-0.69964599609375;-0.104156494140625;5.60999998583611;562;100 mA
35.7149459098284;-0.69970703125;-0.104248046875;5.61999998581086;563;100 mA
35.7249459098032;-0.69964599609375;-0.104095458984375;5.62999998578562;564;100 mA
35.7349459097779;-0.699676513671875;-0.10333251953125;5.63999998576037;565;100 mA
35.7449459097527;-0.69964599609375;-0.103057861328125;5.64999998573512;566;100 mA
35.7549459097274;-0.699676513671875;-0.10382080078125;5.65999998570987;567;100 mA
35.7649459097022;-0.699676513671875;-0.103271484375;5.66999998568463;568;100 mA
35.7749459096769;-0.69970703125;-0.103485107421875;5.67999998565938;569;100 mA
35.7849459096517;-0.69964599609375;-0.102813720703125;5.68999998563413;570;100 mA
35.7949459096264;-0.699615478515625;-0.10333251953125;5.69999998560888;571;100 mA
35.8049459096012;-0.699615478515625;-0.103363037109375;5.70999998558364;572;100 mA
35.814945909576;-0.69964599609375;-0.103057861328125;5.71999998555839;573;100 mA
35.8249459095507;-0.69964599609375;-0.10357666015625;5.72999998553314;574;100 mA
35.8349459095255;-0.69964599609375;-0.103607177734375;5.73999998550789;575;100 mA
35.8449459095002;-0.69970703125;-0.10308837890625;5.74999998548265;576;100 mA
35.854945909475;-0.69964599609375;-0.103057861328125;5.7599999854574;577;100 mA
35.8649459094497;-0.699676513671875;-0.102630615234375;5.76999998543215;578;100 mA
35.8749459094245;-0.69964599609375;-0.103759765625;5.7799999854069;579;100 mA
35.8849459093992;-0.699676513671875;-0.10333251953125;5.78999998538166;580;100 mA
35.894945909374;-0.69964599609375;-0.103607177734375;5.79999998535641;581;100 mA
35.9049459093487;-0.699676513671875;-0.103790283203125;5.80999998533116;582;100 mA
35.9149459093235;-0.69964599609375;-0.103668212890625;5.81999998530591;583;100 mA
35.9249459092982;-0.6995849609375;-0.103515625;5.82999998528066;584;100 mA
35.934945909273;-0.699615478515625;-0.102508544921875;5.83999998525542;585;100 mA
35.9449459092477;-0.69964599609375;-0.102264404296875;5.84999998523017;586;100 mA
35.9549459092225;-0.699615478515625;-0.102783203125;5.85999998520492;587;100 mA
35.9649459091972;-0.69964599609375;-0.102020263671875;5.86999998517967;588;100 mA
35.974945909172;-0.69970703125;-0.102203369140625;5.87999998515443;589;100 mA
35.9849459091467;-0.69964599609375;-0.101837158203125;5.88999998512918;590;100 mA
35.9949459091215;-0.6995849609375;-0.10272216796875;5.89999998510393;591;100 mA
36.0049459090963;-0.69964599609375;-0.102935791015625;5.90999998507868;592;100 mA
36.014945909071;-0.699676513671875;-0.10308837890625;5.91999998505344;593;100 mA
36.0249459090458;-0.69970703125;-0.10382080078125;5.92999998502819;594;100 mA
36.0349459090205;-0.699676513671875;-0.103851318359375;5.93999998500294;595;100 mA
36.0449459089953;-0.699676513671875;-0.103363037109375;5.94999998497769;596;100 mA
36.05494590897;-0.699676513671875;-0.10308837890625;5.95999998495245;597;100 mA
36.0649459089448;-0.69964599609375;-0.10302734375;5.9699999849272;598;100 mA
36.0749459089195;-0.69964599609375;-0.10455322265625;5.97999998490195;599;100 mA
36.0849459088943;-0.699676513671875;-0.10400390625;5.9899999848767;600;100 mA
36.094945908869;-0.699676513671875;-0.10418701171875;5.99999998485146;601;100 mA
36.1049459088438;-0.699615478515625;-0.103607177734375;6.00999998482621;602;100 mA
36.1149459088185;-0.699676513671875;-0.103485107421875;6.01999998480096;603;100 mA
36.1249459087933;-0.69964599609375;-0.10369873046875;6.02999998477571;604;100 mA
36.134945908768;-0.699676513671875;-0.103179931640625;6.03999998475047;605;100 mA
36.1449459087428;-0.69964599609375;-0.10333251953125;6.04999998472522;606;100 mA
36.1549459087175;-0.699615478515625;-0.103607177734375;6.05999998469997;607;100 mA
36.1649459086923;-0.699615478515625;-0.102630615234375;6.06999998467472;608;100 mA
36.174945908667;-0.699615478515625;-0.1026611328125;6.07999998464948;609;100 mA
36.1849459086418;-0.699676513671875;-0.102203369140625;6.08999998462423;610;100 mA
36.1949459086165;-0.69970703125;-0.103057861328125;6.09999998459898;611;100 mA
36.2049459085913;-0.69964599609375;-0.1026611328125;6.10999998457373;612;100 mA
36.2149459085661;-0.69970703125;-0.102203369140625;6.11999998454849;613;100 mA
36.2249459085408;-0.69970703125;-0.1019287109375;6.12999998452324;614;100 mA
36.2349459085156;-0.699615478515625;-0.101470947265625;6.13999998449799;615;100 mA
36.2449459084903;-0.69970703125;-0.101226806640625;6.14999998447274;616;100 mA
36.2549459084651;-0.699615478515625;-0.100555419921875;6.1599999844475;617;100 mA
36.2649459084398;-0.699676513671875;-0.100128173828125;6.16999998442225;618;100 mA
36.2749459084146;-0.699676513671875;-0.101226806640625;6.179999984397;619;100 mA
36.2849459083893;-0.699676513671875;-0.100830078125;6.18999998437175;620;100 mA
36.2949459083641;-0.699676513671875;-0.101348876953125;6.1999999843465;621;100 mA
36.3049459083388;-0.699676513671875;-0.101043701171875;6.20999998432126;622;100 mA
36.3149459083136;-0.69964599609375;-0.1011962890625;6.21999998429601;623;100 mA
36.3249459082883;-0.69970703125;-0.100982666015625;6.22999998427076;624;100 mA
36.3349459082631;-0.699615478515625;-0.10003662109375;6.23999998424551;625;100 mA
36.3449459082378;-0.699615478515625;-0.10028076171875;6.24999998422027;626;100 mA
36.3549459082126;-0.699615478515625;-0.100555419921875;6.25999998419502;627;100 mA
36.3649459081873;-0.69964599609375;-0.10015869140625;6.26999998416977;628;100 mA
36.3749459081621;-0.699676513671875;-0.10003662109375;6.27999998414452;629;100 mA
36.3849459081368;-0.699676513671875;-0.0997314453125;6.28999998411928;630;100 mA
36.3949459081116;-0.699676513671875;-0.10101318359375;6.29999998409403;631;100 mA
36.4049459080863;-0.699676513671875;-0.100860595703125;6.30999998406878;632;100 mA
36.4149459080611;-0.699676513671875;-0.101287841796875;6.31999998404353;633;100 mA
36.4249459080359;-0.699615478515625;-0.101776123046875;6.32999998401829;634;100 mA
36.4349459080106;-0.69970703125;-0.1019287109375;6.33999998399304;635;100 mA
36.4449459079854;-0.6995849609375;-0.102386474609375;6.34999998396779;636;100 mA
36.4549459079601;-0.699615478515625;-0.102264404296875;6.35999998394254;637;100 mA
36.4649459079349;-0.699615478515625;-0.102508544921875;6.3699999839173;638;100 mA
36.4749459079096;-0.699615478515625;-0.103485107421875;6.37999998389205;639;100 mA
36.4849459078844;-0.699676513671875;-0.103179931640625;6.3899999838668;640;100 mA
36.4949459078591;-0.699615478515625;-0.103729248046875;6.39999998384155;641;100 mA
36.5049459078339;-0.69970703125;-0.103302001953125;6.40999998381631;642;100 mA
36.5149459078086;-0.699676513671875;-0.103546142578125;6.41999998379106;643;100 mA
36.5249459077834;-0.69964599609375;-0.10321044921875;6.42999998376581;644;100 mA
36.5349459077581;-0.6995849609375;-0.10235595703125;6.43999998374056;645;100 mA
36.5449459077329;-0.699676513671875;-0.102447509765625;6.44999998371532;646;100 mA
36.5549459077076;-0.69964599609375;-0.102142333984375;6.45999998369007;647;100 mA
36.5649459076824;-0.69964599609375;-0.101531982421875;6.46999998366482;648;100 mA
36.5749459076571;-0.699676513671875;-0.101165771484375;6.47999998363957;649;100 mA
36.5849459076319;-0.69970703125;-0.10064697265625;6.48999998361433;650;100 mA
36.5949459076066;-0.69970703125;-0.10162353515625;6.49999998358908;651;100 mA
36.6049459075814;-0.69970703125;-0.1014404296875;6.50999998356383;652;100 mA
36.6149459075561;-0.6995849609375;-0.102020263671875;6.51999998353858;653;100 mA
36.6249459075309;-0.69964599609375;-0.102386474609375;6.52999998351333;654;100 mA
36.6349459075057;-0.69970703125;-0.102447509765625;6.53999998348809;655;100 mA
36.6449459074804;-0.699615478515625;-0.102752685546875;6.54999998346284;656;100 mA
36.6549459074552;-0.699676513671875;-0.102081298828125;6.55999998343759;657;100 mA
36.6649459074299;-0.699737548828125;-0.102081298828125;6.56999998341234;658;100 mA
36.6749459074047;-0.699676513671875;-0.1026611328125;6.5799999833871;659;100 mA
36.6849459073794;-0.69970703125;-0.10205078125;6.58999998336185;660;100 mA
36.6949459073542;-0.69964599609375;-0.10205078125;6.5999999833366;661;100 mA
36.7049459073289;-0.699676513671875;-0.1014404296875;6.60999998331135;662;100 mA
36.7149459073037;-0.699676513671875;-0.1019287109375;6.61999998328611;663;100 mA
36.7249459072784;-0.69964599609375;-0.101806640625;6.62999998326086;664;100 mA
36.7349459072532;-0.699676513671875;-0.1014404296875;6.63999998323561;665;100 mA
36.7449459072279;-0.69964599609375;-0.101959228515625;6.64999998321036;666;100 mA
36.7549459072027;-0.69964599609375;-0.1019287109375;6.65999998318512;667;100 mA
36.7649459071774;-0.69970703125;-0.10162353515625;6.66999998315987;668;100 mA
36.7749459071522;-0.69964599609375;-0.101226806640625;6.67999998313462;669;100 mA
36.7849459071269;-0.69970703125;-0.100738525390625;6.68999998310937;670;100 mA
36.7949459071017;-0.69964599609375;-0.102203369140625;6.69999998308413;671;100 mA
36.8049459070764;-0.69964599609375;-0.102142333984375;6.70999998305888;672;100 mA
36.8149459070512;-0.69964599609375;-0.10260009765625;6.71999998303363;673;100 mA
36.8249459070259;-0.699676513671875;-0.10247802734375;6.72999998300838;674;100 mA
36.8349459070007;-0.69970703125;-0.102691650390625;6.73999998298314;675;100 mA
36.8449459069755;-0.699615478515625;-0.10272216796875;6.74999998295789;676;100 mA
36.8549459069502;-0.699615478515625;-0.101806640625;6.75999998293264;677;100 mA
36.864945906925;-0.699737548828125;-0.1016845703125;6.76999998290739;678;100 mA
36.8749459068997;-0.699615478515625;-0.101898193359375;6.77999998288215;679;100 mA
36.8849459068745;-0.699676513671875;-0.100982666015625;6.7899999828569;680;100 mA
36.8949459068492;-0.699676513671875;-0.100921630859375;6.79999998283165;681;100 mA
36.904945906824;-0.699676513671875;-0.100311279296875;6.8099999828064;682;100 mA
36.9149459067987;-0.69970703125;-0.1011962890625;6.81999998278116;683;100 mA
36.9249459067735;-0.699615478515625;-0.101348876953125;6.82999998275591;684;100 mA
36.9349459067482;-0.699676513671875;-0.1015625;6.83999998273066;685;100 mA
36.944945906723;-0.69964599609375;-0.10211181640625;6.84999998270541;686;100 mA
36.9549459066977;-0.69964599609375;-0.1024169921875;6.85999998268016;687;100 mA
36.9649459066725;-0.699615478515625;-0.102783203125;6.86999998265492;688;100 mA
36.9749459066472;-0.69964599609375;-0.102813720703125;6.87999998262967;689;100 mA
36.984945906622;-0.699737548828125;-0.102386474609375;6.88999998260442;690;100 mA
36.9949459065967;-0.69964599609375;-0.103271484375;6.89999998257917;691;100 mA
37.0049459065715;-0.699676513671875;-0.102783203125;6.90999998255393;692;100 mA
37.0149459065462;-0.699676513671875;-0.103302001953125;6.91999998252868;693;100 mA
37.024945906521;-0.699676513671875;-0.10302734375;6.92999998250343;694;100 mA
37.0349459064958;-0.699676513671875;-0.10302734375;6.93999998247818;695;100 mA
37.0449459064705;-0.699676513671875;-0.103118896484375;6.94999998245294;696;100 mA
37.0549459064453;-0.69964599609375;-0.1025390625;6.95999998242769;697;100 mA
37.06494590642;-0.699676513671875;-0.102691650390625;6.96999998240244;698;100 mA
37.0749459063948;-0.69964599609375;-0.10302734375;6.97999998237719;699;100 mA
37.0849459063695;-0.699676513671875;-0.102813720703125;6.98999998235195;700;100 mA
