Time (s);WE(1).Potential (V);WE(1).Current (A);Corrected time (s);Index;Current range
52.6772078670028;-0.79986572265625;-0.32763671875;0;1;100 mA
52.6872078669776;-0.799560546875;-0.244384765625;0.00999999997475243;2;100 mA
52.6972078669523;-0.79986572265625;-0.207000732421875;0.0199999999495049;3;100 mA
52.7072078669271;-0.80047607421875;-0.1829833984375;0.0299999999242573;4;100 mA
52.7172078669018;-0.79925537109375;-0.166839599609375;0.0399999998990097;5;100 mA
52.7272078668766;-0.79925537109375;-0.1563720703125;0.0499999998737621;6;100 mA
52.7372078668513;-0.799560546875;-0.14801025390625;0.0599999998485146;7;100 mA
52.7472078668261;-0.79925537109375;-0.141937255859375;0.069999999823267;8;100 mA
52.7572078668009;-0.8001708984375;-0.135711669921875;0.0799999997980194;9;100 mA
52.7672078667756;-0.7989501953125;-0.133056640625;0.0899999997727718;10;100 mA
52.7772078667504;-0.79986572265625;-0.131927490234375;0.0999999997475243;11;100 mA
52.7872078667251;-0.79986572265625;-0.129852294921875;0.109999999722277;12;100 mA
52.7972078666999;-0.79986572265625;-0.128631591796875;0.119999999697029;13;100 mA
52.8072078666746;-0.799560546875;-0.127716064453125;0.129999999671782;14;100 mA
52.8172078666494;-0.799560546875;-0.127777099609375;0.139999999646534;15;100 mA
52.8272078666241;-0.79925537109375;-0.1260986328125;0.149999999621286;16;100 mA
52.8372078665989;-0.79986572265625;-0.12310791015625;0.159999999596039;17;100 mA
52.8472078665736;-0.799560546875;-0.124267578125;0.169999999570791;18;100 mA
52.8572078665484;-0.79925537109375;-0.122894287109375;0.179999999545544;19;100 mA
52.8672078665231;-0.8001708984375;-0.122833251953125;0.189999999520296;20;100 mA
52.8772078664979;-0.799560546875;-0.12152099609375;0.199999999495049;21;100 mA
52.8872078664726;-0.79986572265625;-0.121917724609375;0.209999999469801;22;100 mA
52.8972078664474;-0.799560546875;-0.12420654296875;0.219999999444553;23;100 mA
52.9072078664221;-0.79986572265625;-0.123382568359375;0.229999999419306;24;100 mA
52.9172078663969;-0.799560546875;-0.12200927734375;0.239999999394058;25;100 mA
52.9272078663716;-0.79925537109375;-0.121856689453125;0.249999999368811;26;100 mA
52.9372078663464;-0.8001708984375;-0.120452880859375;0.259999999343563;27;100 mA
52.9472078663212;-0.79925537109375;-0.119781494140625;0.269999999318316;28;100 mA
52.9572078662959;-0.799560546875;-0.1173095703125;0.279999999293068;29;100 mA
52.9672078662707;-0.799560546875;-0.119384765625;0.28999999926782;30;100 mA
52.9772078662454;-0.799560546875;-0.119720458984375;0.299999999242573;31;100 mA
52.9872078662202;-0.79925537109375;-0.119171142578125;0.309999999217325;32;100 mA
52.9972078661949;-0.79925537109375;-0.119598388671875;0.319999999192078;33;100 mA
53.0072078661697;-0.79925537109375;-0.120452880859375;0.32999999916683;34;100 mA
53.0172078661444;-0.799560546875;-0.12164306640625;0.339999999141583;35;100 mA
53.0272078661192;-0.799560546875;-0.12042236328125;0.349999999116335;36;100 mA
53.0372078660939;-0.79986572265625;-0.11846923828125;0.359999999091087;37;100 mA
53.0472078660687;-0.8001708984375;-0.120025634765625;0.36999999906584;38;100 mA
53.0572078660434;-0.799560546875;-0.118927001953125;0.379999999040592;39;100 mA
53.0672078660182;-0.799560546875;-0.118896484375;0.389999999015345;40;100 mA
53.0772078659929;-0.799560546875;-0.117095947265625;0.399999998990097;41;100 mA
53.0872078659677;-0.79986572265625;-0.117919921875;0.40999999896485;42;100 mA
53.0972078659424;-0.7989501953125;-0.1197509765625;0.419999998939602;43;100 mA
53.1072078659172;-0.799560546875;-0.1190185546875;0.429999998914354;44;100 mA
53.1172078658919;-0.799560546875;-0.1190185546875;0.439999998889107;45;100 mA
53.1272078658667;-0.79925537109375;-0.11956787109375;0.449999998863859;46;100 mA
53.1372078658414;-0.799560546875;-0.118408203125;0.459999998838612;47;100 mA
53.1472078658162;-0.79925537109375;-0.117828369140625;0.469999998813364;48;100 mA
53.157207865791;-0.79986572265625;-0.115509033203125;0.479999998788116;49;100 mA
53.1672078657657;-0.799560546875;-0.11767578125;0.489999998762869;50;100 mA
53.1772078657405;-0.79986572265625;-0.11773681640625;0.499999998737621;51;100 mA
53.1872078657152;-0.7989501953125;-0.1180419921875;0.509999998712374;52;100 mA
53.19720786569;-0.799560546875;-0.11749267578125;0.519999998687126;53;100 mA
53.2072078656647;-0.79925537109375;-0.117401123046875;0.529999998661879;54;100 mA
53.2172078656395;-0.79925537109375;-0.118865966796875;0.539999998636631;55;100 mA
53.2272078656142;-0.799560546875;-0.11798095703125;0.549999998611383;56;100 mA
53.237207865589;-0.79986572265625;-0.116912841796875;0.559999998586136;57;100 mA
53.2472078655637;-0.799560546875;-0.117767333984375;0.569999998560888;58;100 mA
53.2572078655385;-0.799560546875;-0.116058349609375;0.579999998535641;59;100 mA
53.2672078655132;-0.799560546875;-0.1168212890625;0.589999998510393;60;100 mA
53.277207865488;-0.79986572265625;-0.115264892578125;0.599999998485146;61;100 mA
53.2872078654627;-0.79925537109375;-0.116241455078125;0.609999998459898;62;100 mA
53.2972078654375;-0.79986572265625;-0.1175537109375;0.61999999843465;63;100 mA
53.3072078654122;-0.8001708984375;-0.1171875;0.629999998409403;64;100 mA
53.317207865387;-0.79925537109375;-0.11761474609375;0.639999998384155;65;100 mA
53.3272078653617;-0.799560546875;-0.1173095703125;0.649999998358908;66;100 mA
53.3372078653365;-0.79925537109375;-0.116607666015625;0.65999999833366;67;100 mA
53.3472078653112;-0.799560546875;-0.116455078125;0.669999998308413;68;100 mA
53.357207865286;-0.79925537109375;-0.11468505859375;0.679999998283165;69;100 mA
53.3672078652608;-0.799560546875;-0.11651611328125;0.689999998257917;70;100 mA
53.3772078652355;-0.79925537109375;-0.115478515625;0.69999999823267;71;100 mA
53.3872078652103;-0.79986572265625;-0.11468505859375;0.709999998207422;72;100 mA
53.397207865185;-0.7989501953125;-0.11358642578125;0.719999998182175;73;100 mA
53.4072078651598;-0.79986572265625;-0.11370849609375;0.729999998156927;74;100 mA
53.4172078651345;-0.79986572265625;-0.115264892578125;0.73999999813168;75;100 mA
53.4272078651093;-0.799560546875;-0.115142822265625;0.749999998106432;76;100 mA
53.437207865084;-0.79925537109375;-0.114501953125;0.759999998081184;77;100 mA
53.4472078650588;-0.799560546875;-0.11529541015625;0.769999998055937;78;100 mA
53.4572078650335;-0.799560546875;-0.114532470703125;0.779999998030689;79;100 mA
53.4672078650083;-0.799560546875;-0.114837646484375;0.789999998005442;80;100 mA
53.477207864983;-0.79925537109375;-0.113189697265625;0.799999997980194;81;100 mA
53.4872078649578;-0.7989501953125;-0.114105224609375;0.809999997954947;82;100 mA
53.4972078649325;-0.79986572265625;-0.114898681640625;0.819999997929699;83;100 mA
53.5072078649073;-0.79986572265625;-0.11474609375;0.829999997904451;84;100 mA
53.517207864882;-0.799560546875;-0.115570068359375;0.839999997879204;85;100 mA
53.5272078648568;-0.799560546875;-0.115631103515625;0.849999997853956;86;100 mA
53.5372078648315;-0.7989501953125;-0.11578369140625;0.859999997828709;87;100 mA
53.5472078648063;-0.7989501953125;-0.1156005859375;0.869999997803461;88;100 mA
53.557207864781;-0.799560546875;-0.114044189453125;0.879999997778214;89;100 mA
53.5672078647558;-0.799560546875;-0.11553955078125;0.889999997752966;90;100 mA
53.5772078647306;-0.79986572265625;-0.1142578125;0.899999997727718;91;100 mA
53.5872078647053;-0.799560546875;-0.114013671875;0.909999997702471;92;100 mA
53.5972078646801;-0.7989501953125;-0.113494873046875;0.919999997677223;93;100 mA
53.6072078646548;-0.799560546875;-0.11334228515625;0.929999997651976;94;100 mA
53.6172078646296;-0.7989501953125;-0.114288330078125;0.939999997626728;95;100 mA
53.6272078646043;-0.79925537109375;-0.113372802734375;0.949999997601481;96;100 mA
53.6372078645791;-0.799560546875;-0.113372802734375;0.959999997576233;97;100 mA
53.6472078645538;-0.79925537109375;-0.114013671875;0.969999997550985;98;100 mA
53.6572078645286;-0.799560546875;-0.113250732421875;0.979999997525738;99;100 mA
53.6672078645033;-0.799560546875;-0.11395263671875;0.98999999750049;100;100 mA
53.6772078644781;-0.79986572265625;-0.1126708984375;0.999999997475243;101;100 mA
53.6872078644528;-0.79925537109375;-0.11395263671875;1.00999999745;102;100 mA
53.6972078644276;-0.79925537109375;-0.114227294921875;1.01999999742475;103;100 mA
53.7072078644023;-0.799560546875;-0.113983154296875;1.0299999973995;104;100 mA
53.7172078643771;-0.799560546875;-0.114105224609375;1.03999999737425;105;100 mA
53.7272078643518;-0.79925537109375;-0.1141357421875;1.049999997349;106;100 mA
53.7372078643266;-0.799560546875;-0.115142822265625;1.05999999732376;107;100 mA
53.7472078643013;-0.79925537109375;-0.115447998046875;1.06999999729851;108;100 mA
53.7572078642761;-0.799560546875;-0.11444091796875;1.07999999727326;109;100 mA
53.7672078642508;-0.79925537109375;-0.115509033203125;1.08999999724801;110;100 mA
53.7772078642256;-0.799560546875;-0.114532470703125;1.09999999722277;111;100 mA
53.7872078642004;-0.8001708984375;-0.1146240234375;1.10999999719752;112;100 mA
53.7972078641751;-0.799560546875;-0.11383056640625;1.11999999717227;113;100 mA
53.8072078641499;-0.79925537109375;-0.113739013671875;1.12999999714702;114;100 mA
53.8172078641246;-0.799560546875;-0.114532470703125;1.13999999712178;115;100 mA
53.8272078640994;-0.799560546875;-0.11395263671875;1.14999999709653;116;100 mA
53.8372078640741;-0.79925537109375;-0.114105224609375;1.15999999707128;117;100 mA
53.8472078640489;-0.799560546875;-0.114532470703125;1.16999999704603;118;100 mA
53.8572078640236;-0.799560546875;-0.114349365234375;1.17999999702079;119;100 mA
53.8672078639984;-0.799560546875;-0.115020751953125;1.18999999699554;120;100 mA
53.8772078639731;-0.79925537109375;-0.11376953125;1.19999999697029;121;100 mA
53.8872078639479;-0.79986572265625;-0.114532470703125;1.20999999694504;122;100 mA
53.8972078639226;-0.799560546875;-0.1142578125;1.2199999969198;123;100 mA
53.9072078638974;-0.799560546875;-0.114105224609375;1.22999999689455;124;100 mA
53.9172078638721;-0.799560546875;-0.11395263671875;1.2399999968693;125;100 mA
53.9272078638469;-0.79986572265625;-0.11328125;1.24999999684405;126;100 mA
53.9372078638216;-0.79986572265625;-0.11383056640625;1.25999999681881;127;100 mA
53.9472078637964;-0.799560546875;-0.11334228515625;1.26999999679356;128;100 mA
53.9572078637711;-0.799560546875;-0.112701416015625;1.27999999676831;129;100 mA
53.9672078637459;-0.79986572265625;-0.114013671875;1.28999999674306;130;100 mA
53.9772078637207;-0.799560546875;-0.112701416015625;1.29999999671782;131;100 mA
53.9872078636954;-0.79925537109375;-0.112335205078125;1.30999999669257;132;100 mA
53.9972078636702;-0.79925537109375;-0.1109619140625;1.31999999666732;133;100 mA
54.0072078636449;-0.79925537109375;-0.11114501953125;1.32999999664207;134;100 mA
54.0172078636197;-0.79986572265625;-0.1119384765625;1.33999999661683;135;100 mA
54.0272078635944;-0.799560546875;-0.111785888671875;1.34999999659158;136;100 mA
54.0372078635692;-0.799560546875;-0.11224365234375;1.35999999656633;137;100 mA
54.0472078635439;-0.799560546875;-0.112396240234375;1.36999999654108;138;100 mA
54.0572078635187;-0.799560546875;-0.11212158203125;1.37999999651583;139;100 mA
54.0672078634934;-0.79925537109375;-0.11212158203125;1.38999999649059;140;100 mA
54.0772078634682;-0.79925537109375;-0.110565185546875;1.39999999646534;141;100 mA
54.0872078634429;-0.799560546875;-0.111572265625;1.40999999644009;142;100 mA
54.0972078634177;-0.799560546875;-0.111480712890625;1.41999999641484;143;100 mA
54.1072078633924;-0.799560546875;-0.112152099609375;1.4299999963896;144;100 mA
54.1172078633672;-0.79925537109375;-0.112823486328125;1.43999999636435;145;100 mA
54.1272078633419;-0.799560546875;-0.11297607421875;1.4499999963391;146;100 mA
54.1372078633167;-0.7989501953125;-0.113739013671875;1.45999999631385;147;100 mA
54.1472078632914;-0.79986572265625;-0.113006591796875;1.46999999628861;148;100 mA
54.1572078632662;-0.799560546875;-0.11285400390625;1.47999999626336;149;100 mA
54.1672078632409;-0.799560546875;-0.11376953125;1.48999999623811;150;100 mA
54.1772078632157;-0.799560546875;-0.112457275390625;1.49999999621286;151;100 mA
54.1872078631905;-0.79925537109375;-0.1121826171875;1.50999999618762;152;100 mA
54.1972078631652;-0.799560546875;-0.110931396484375;1.51999999616237;153;100 mA
54.20720786314;-0.79925537109375;-0.11199951171875;1.52999999613712;154;100 mA
54.2172078631147;-0.79925537109375;-0.1129150390625;1.53999999611187;155;100 mA
54.2272078630895;-0.79925537109375;-0.112548828125;1.54999999608663;156;100 mA
54.2372078630642;-0.79925537109375;-0.112640380859375;1.55999999606138;157;100 mA
54.247207863039;-0.79925537109375;-0.112579345703125;1.56999999603613;158;100 mA
54.2572078630137;-0.79986572265625;-0.113128662109375;1.57999999601088;159;100 mA
54.2672078629885;-0.79986572265625;-0.11322021484375;1.58999999598564;160;100 mA
54.2772078629632;-0.799560546875;-0.11199951171875;1.59999999596039;161;100 mA
54.287207862938;-0.79925537109375;-0.112945556640625;1.60999999593514;162;100 mA
54.2972078629127;-0.79986572265625;-0.111419677734375;1.61999999590989;163;100 mA
54.3072078628875;-0.79986572265625;-0.110504150390625;1.62999999588465;164;100 mA
54.3172078628622;-0.79925537109375;-0.10992431640625;1.6399999958594;165;100 mA
54.327207862837;-0.799560546875;-0.1102294921875;1.64999999583415;166;100 mA
54.3372078628117;-0.79986572265625;-0.11163330078125;1.6599999958089;167;100 mA
54.3472078627865;-0.799560546875;-0.111480712890625;1.66999999578366;168;100 mA
54.3572078627612;-0.79925537109375;-0.111663818359375;1.67999999575841;169;100 mA
54.367207862736;-0.79925537109375;-0.1124267578125;1.68999999573316;170;100 mA
54.3772078627107;-0.79986572265625;-0.11212158203125;1.69999999570791;171;100 mA
54.3872078626855;-0.8001708984375;-0.1124267578125;1.70999999568267;172;100 mA
54.3972078626603;-0.799560546875;-0.110870361328125;1.71999999565742;173;100 mA
54.407207862635;-0.799560546875;-0.1114501953125;1.72999999563217;174;100 mA
54.4172078626098;-0.7989501953125;-0.111358642578125;1.73999999560692;175;100 mA
54.4272078625845;-0.799560546875;-0.110809326171875;1.74999999558167;176;100 mA
54.4372078625593;-0.79986572265625;-0.11083984375;1.75999999555643;177;100 mA
54.447207862534;-0.79925537109375;-0.1104736328125;1.76999999553118;178;100 mA
54.4572078625088;-0.79986572265625;-0.111541748046875;1.77999999550593;179;100 mA
54.4672078624835;-0.799560546875;-0.11175537109375;1.78999999548068;180;100 mA
54.4772078624583;-0.79925537109375;-0.110748291015625;1.79999999545544;181;100 mA
54.487207862433;-0.799560546875;-0.111572265625;1.80999999543019;182;100 mA
54.4972078624078;-0.799560546875;-0.110260009765625;1.81999999540494;183;100 mA
54.5072078623825;-0.79986572265625;-0.10992431640625;1.82999999537969;184;100 mA
54.5172078623573;-0.799560546875;-0.109344482421875;1.83999999535445;185;100 mA
54.527207862332;-0.8001708984375;-0.109344482421875;1.8499999953292;186;100 mA
54.5372078623068;-0.79986572265625;-0.11041259765625;1.85999999530395;187;100 mA
54.5472078622815;-0.79925537109375;-0.10955810546875;1.8699999952787;188;100 mA
54.5572078622563;-0.79925537109375;-0.109710693359375;1.87999999525346;189;100 mA
54.567207862231;-0.79986572265625;-0.11004638671875;1.88999999522821;190;100 mA
54.5772078622058;-0.799560546875;-0.109832763671875;1.89999999520296;191;100 mA
54.5872078621805;-0.79925537109375;-0.1104736328125;1.90999999517771;192;100 mA
54.5972078621553;-0.79986572265625;-0.1094970703125;1.91999999515247;193;100 mA
54.6072078621301;-0.79925537109375;-0.110748291015625;1.92999999512722;194;100 mA
54.6172078621048;-0.799560546875;-0.11077880859375;1.93999999510197;195;100 mA
54.6272078620796;-0.799560546875;-0.11041259765625;1.94999999507672;196;100 mA
54.6372078620543;-0.8001708984375;-0.1104736328125;1.95999999505148;197;100 mA
54.6472078620291;-0.8001708984375;-0.110198974609375;1.96999999502623;198;100 mA
54.6572078620038;-0.799560546875;-0.11114501953125;1.97999999500098;199;100 mA
54.6672078619786;-0.79986572265625;-0.11065673828125;1.98999999497573;200;100 mA
54.6772078619533;-0.79986572265625;-0.10986328125;1.99999999495049;201;100 mA
54.6872078619281;-0.79925537109375;-0.11102294921875;2.00999999492524;202;100 mA
54.6972078619028;-0.799560546875;-0.110107421875;2.01999999489999;203;100 mA
54.7072078618776;-0.799560546875;-0.10986328125;2.02999999487474;204;100 mA
54.7172078618523;-0.799560546875;-0.108856201171875;2.0399999948495;205;100 mA
54.7272078618271;-0.799560546875;-0.109100341796875;2.04999999482425;206;100 mA
54.7372078618018;-0.799560546875;-0.109893798828125;2.059999994799;207;100 mA
54.7472078617766;-0.799560546875;-0.109619140625;2.06999999477375;208;100 mA
54.7572078617513;-0.799560546875;-0.110687255859375;2.0799999947485;209;100 mA
54.7672078617261;-0.79986572265625;-0.11151123046875;2.08999999472326;210;100 mA
54.7772078617008;-0.799560546875;-0.11187744140625;2.09999999469801;211;100 mA
54.7872078616756;-0.79925537109375;-0.111907958984375;2.10999999467276;212;100 mA
54.7972078616503;-0.799560546875;-0.110626220703125;2.11999999464751;213;100 mA
54.8072078616251;-0.799560546875;-0.111358642578125;2.12999999462227;214;100 mA
54.8172078615999;-0.799560546875;-0.110687255859375;2.13999999459702;215;100 mA
54.8272078615746;-0.79986572265625;-0.110076904296875;2.14999999457177;216;100 mA
54.8372078615494;-0.79986572265625;-0.109954833984375;2.15999999454652;217;100 mA
54.8472078615241;-0.79925537109375;-0.10992431640625;2.16999999452128;218;100 mA
54.8572078614989;-0.799560546875;-0.111358642578125;2.17999999449603;219;100 mA
54.8672078614736;-0.799560546875;-0.111328125;2.18999999447078;220;100 mA
54.8772078614484;-0.79925537109375;-0.111663818359375;2.19999999444553;221;100 mA
54.8872078614231;-0.80047607421875;-0.112884521484375;2.20999999442029;222;100 mA
54.8972078613979;-0.8001708984375;-0.11212158203125;2.21999999439504;223;100 mA
54.9072078613726;-0.79925537109375;-0.111785888671875;2.22999999436979;224;100 mA
54.9172078613474;-0.799560546875;-0.110626220703125;2.23999999434454;225;100 mA
54.9272078613221;-0.799560546875;-0.110565185546875;2.2499999943193;226;100 mA
54.9372078612969;-0.799560546875;-0.110992431640625;2.25999999429405;227;100 mA
54.9472078612716;-0.8001708984375;-0.110107421875;2.2699999942688;228;100 mA
54.9572078612464;-0.799560546875;-0.110260009765625;2.27999999424355;229;100 mA
54.9672078612211;-0.7989501953125;-0.10992431640625;2.28999999421831;230;100 mA
54.9772078611959;-0.79925537109375;-0.109893798828125;2.29999999419306;231;100 mA
54.9872078611706;-0.799560546875;-0.10968017578125;2.30999999416781;232;100 mA
54.9972078611454;-0.799560546875;-0.108673095703125;2.31999999414256;233;100 mA
55.0072078611202;-0.7989501953125;-0.109832763671875;2.32999999411732;234;100 mA
55.0172078610949;-0.799560546875;-0.109130859375;2.33999999409207;235;100 mA
55.0272078610697;-0.79925537109375;-0.108978271484375;2.34999999406682;236;100 mA
55.0372078610444;-0.79986572265625;-0.10888671875;2.35999999404157;237;100 mA
55.0472078610192;-0.79986572265625;-0.108856201171875;2.36999999401633;238;100 mA
55.0572078609939;-0.8001708984375;-0.10955810546875;2.37999999399108;239;100 mA
55.0672078609687;-0.79925537109375;-0.109039306640625;2.38999999396583;240;100 mA
55.0772078609434;-0.79925537109375;-0.108978271484375;2.39999999394058;241;100 mA
55.0872078609182;-0.79986572265625;-0.109466552734375;2.40999999391533;242;100 mA
55.0972078608929;-0.799560546875;-0.108734130859375;2.41999999389009;243;100 mA
55.1072078608677;-0.799560546875;-0.10870361328125;2.42999999386484;244;100 mA
55.1172078608424;-0.79986572265625;-0.107757568359375;2.43999999383959;245;100 mA
55.1272078608172;-0.799560546875;-0.10858154296875;2.44999999381434;246;100 mA
55.1372078607919;-0.79986572265625;-0.109161376953125;2.4599999937891;247;100 mA
55.1472078607667;-0.799560546875;-0.10894775390625;2.46999999376385;248;100 mA
55.1572078607414;-0.79986572265625;-0.109527587890625;2.4799999937386;249;100 mA
55.1672078607162;-0.799560546875;-0.109649658203125;2.48999999371335;250;100 mA
55.1772078606909;-0.79986572265625;-0.11029052734375;2.49999999368811;251;100 mA
55.1872078606657;-0.799560546875;-0.110748291015625;2.50999999366286;252;100 mA
55.1972078606404;-0.79925537109375;-0.1103515625;2.51999999363761;253;100 mA
55.2072078606152;-0.79986572265625;-0.111358642578125;2.52999999361236;254;100 mA
55.21720786059;-0.79986572265625;-0.110443115234375;2.53999999358712;255;100 mA
55.2272078605647;-0.799560546875;-0.10986328125;2.54999999356187;256;100 mA
55.2372078605395;-0.799560546875;-0.108978271484375;2.55999999353662;257;100 mA
55.2472078605142;-0.79986572265625;-0.108917236328125;2.56999999351137;258;100 mA
55.257207860489;-0.79925537109375;-0.109771728515625;2.57999999348613;259;100 mA
55.2672078604637;-0.79925537109375;-0.109588623046875;2.58999999346088;260;100 mA
55.2772078604385;-0.79925537109375;-0.110198974609375;2.59999999343563;261;100 mA
55.2872078604132;-0.79925537109375;-0.11041259765625;2.60999999341038;262;100 mA
55.297207860388;-0.7989501953125;-0.109832763671875;2.61999999338514;263;100 mA
55.3072078603627;-0.79986572265625;-0.109710693359375;2.62999999335989;264;100 mA
55.3172078603375;-0.79986572265625;-0.10845947265625;2.63999999333464;265;100 mA
55.3272078603122;-0.79986572265625;-0.1092529296875;2.64999999330939;266;100 mA
55.337207860287;-0.79925537109375;-0.1090087890625;2.65999999328415;267;100 mA
55.3472078602617;-0.799560546875;-0.108673095703125;2.6699999932589;268;100 mA
55.3572078602365;-0.79925537109375;-0.10919189453125;2.67999999323365;269;100 mA
55.3672078602112;-0.79986572265625;-0.10943603515625;2.6899999932084;270;100 mA
55.377207860186;-0.799560546875;-0.110748291015625;2.69999999318316;271;100 mA
55.3872078601607;-0.79925537109375;-0.111053466796875;2.70999999315791;272;100 mA
55.3972078601355;-0.8001708984375;-0.110687255859375;2.71999999313266;273;100 mA
55.4072078601102;-0.799560546875;-0.11163330078125;2.72999999310741;274;100 mA
55.417207860085;-0.799560546875;-0.11077880859375;2.73999999308217;275;100 mA
55.4272078600598;-0.799560546875;-0.1099853515625;2.74999999305692;276;100 mA
55.4372078600345;-0.79986572265625;-0.10888671875;2.75999999303167;277;100 mA
55.4472078600093;-0.7989501953125;-0.1090087890625;2.76999999300642;278;100 mA
55.457207859984;-0.7989501953125;-0.110015869140625;2.77999999298117;279;100 mA
55.4672078599588;-0.79925537109375;-0.1094970703125;2.78999999295593;280;100 mA
55.4772078599335;-0.799560546875;-0.109771728515625;2.79999999293068;281;100 mA
55.4872078599083;-0.7989501953125;-0.11004638671875;2.80999999290543;282;100 mA
55.497207859883;-0.799560546875;-0.11029052734375;2.81999999288018;283;100 mA
55.5072078598578;-0.79925537109375;-0.11053466796875;2.82999999285494;284;100 mA
55.5172078598325;-0.799560546875;-0.1094970703125;2.83999999282969;285;100 mA
55.5272078598073;-0.79925537109375;-0.11004638671875;2.84999999280444;286;100 mA
55.537207859782;-0.799560546875;-0.109710693359375;2.85999999277919;287;100 mA
55.5472078597568;-0.799560546875;-0.109161376953125;2.86999999275395;288;100 mA
55.5572078597315;-0.799560546875;-0.10955810546875;2.8799999927287;289;100 mA
55.5672078597063;-0.799560546875;-0.109710693359375;2.88999999270345;290;100 mA
55.577207859681;-0.79925537109375;-0.1107177734375;2.8999999926782;291;100 mA
55.5872078596558;-0.799560546875;-0.110198974609375;2.90999999265296;292;100 mA
55.5972078596305;-0.79925537109375;-0.1099853515625;2.91999999262771;293;100 mA
55.6072078596053;-0.79925537109375;-0.110565185546875;2.92999999260246;294;100 mA
55.61720785958;-0.8001708984375;-0.109832763671875;2.93999999257721;295;100 mA
55.6272078595548;-0.8001708984375;-0.1097412109375;2.94999999255197;296;100 mA
55.6372078595296;-0.799560546875;-0.108367919921875;2.95999999252672;297;100 mA
55.6472078595043;-0.79925537109375;-0.108306884765625;2.96999999250147;298;100 mA
55.6572078594791;-0.79986572265625;-0.10870361328125;2.97999999247622;299;100 mA
55.6672078594538;-0.799560546875;-0.108123779296875;2.98999999245098;300;100 mA
55.6772078594286;-0.799560546875;-0.108489990234375;2.99999999242573;301;100 mA
55.6872078594033;-0.799560546875;-0.108642578125;3.00999999240048;302;100 mA
55.6972078593781;-0.79986572265625;-0.109222412109375;3.01999999237523;303;100 mA
55.7072078593528;-0.799560546875;-0.109344482421875;3.02999999234999;304;100 mA
55.7172078593276;-0.799560546875;-0.108367919921875;3.03999999232474;305;100 mA
55.7272078593023;-0.799560546875;-0.109344482421875;3.04999999229949;306;100 mA
55.7372078592771;-0.7989501953125;-0.10894775390625;3.05999999227424;307;100 mA
55.7472078592518;-0.79925537109375;-0.108673095703125;3.069999992249;308;100 mA
55.7572078592266;-0.799560546875;-0.108428955078125;3.07999999222375;309;100 mA
55.7672078592013;-0.79986572265625;-0.10858154296875;3.0899999921985;310;100 mA
55.7772078591761;-0.799560546875;-0.11016845703125;3.09999999217325;311;100 mA
55.7872078591508;-0.79986572265625;-0.109527587890625;3.109999992148;312;100 mA
55.7972078591256;-0.79925537109375;-0.10968017578125;3.11999999212276;313;100 mA
55.8072078591003;-0.79925537109375;-0.110137939453125;3.12999999209751;314;100 mA
55.8172078590751;-0.7989501953125;-0.109527587890625;3.13999999207226;315;100 mA
55.8272078590498;-0.79986572265625;-0.1094970703125;3.14999999204701;316;100 mA
55.8372078590246;-0.79986572265625;-0.108489990234375;3.15999999202177;317;100 mA
55.8472078589994;-0.79986572265625;-0.10894775390625;3.16999999199652;318;100 mA
55.8572078589741;-0.799560546875;-0.110137939453125;3.17999999197127;319;100 mA
55.8672078589489;-0.80047607421875;-0.1099853515625;3.18999999194602;320;100 mA
55.8772078589236;-0.799560546875;-0.1103515625;3.19999999192078;321;100 mA
55.8872078588984;-0.799560546875;-0.110198974609375;3.20999999189553;322;100 mA
55.8972078588731;-0.7989501953125;-0.110565185546875;3.21999999187028;323;100 mA
55.9072078588479;-0.799560546875;-0.110198974609375;3.22999999184503;324;100 mA
55.9172078588226;-0.799560546875;-0.109405517578125;3.23999999181979;325;100 mA
55.9272078587974;-0.79925537109375;-0.1099853515625;3.24999999179454;326;100 mA
55.9372078587721;-0.7989501953125;-0.10931396484375;3.25999999176929;327;100 mA
55.9472078587469;-0.799560546875;-0.109344482421875;3.26999999174404;328;100 mA
55.9572078587216;-0.799560546875;-0.109954833984375;3.2799999917188;329;100 mA
55.9672078586964;-0.799560546875;-0.110260009765625;3.28999999169355;330;100 mA
55.9772078586711;-0.799560546875;-0.111602783203125;3.2999999916683;331;100 mA
55.9872078586459;-0.7989501953125;-0.111083984375;3.30999999164305;332;100 mA
55.9972078586206;-0.799560546875;-0.110931396484375;3.31999999161781;333;100 mA
56.0072078585954;-0.79986572265625;-0.110748291015625;3.32999999159256;334;100 mA
56.0172078585701;-0.8001708984375;-0.11029052734375;3.33999999156731;335;100 mA
56.0272078585449;-0.79925537109375;-0.109954833984375;3.34999999154206;336;100 mA
56.0372078585197;-0.79925537109375;-0.10858154296875;3.35999999151682;337;100 mA
56.0472078584944;-0.79986572265625;-0.10882568359375;3.36999999149157;338;100 mA
56.0572078584692;-0.8001708984375;-0.108795166015625;3.37999999146632;339;100 mA
56.0672078584439;-0.799560546875;-0.1080322265625;3.38999999144107;340;100 mA
56.0772078584187;-0.799560546875;-0.107757568359375;3.39999999141583;341;100 mA
56.0872078583934;-0.79986572265625;-0.107452392578125;3.40999999139058;342;100 mA
56.0972078583682;-0.799560546875;-0.10791015625;3.41999999136533;343;100 mA
56.1072078583429;-0.799560546875;-0.107330322265625;3.42999999134008;344;100 mA
56.1172078583177;-0.8001708984375;-0.106689453125;3.43999999131483;345;100 mA
56.1272078582924;-0.799560546875;-0.10748291015625;3.44999999128959;346;100 mA
56.1372078582672;-0.79986572265625;-0.107269287109375;3.45999999126434;347;100 mA
56.1472078582419;-0.79986572265625;-0.107421875;3.46999999123909;348;100 mA
56.1572078582167;-0.799560546875;-0.10675048828125;3.47999999121384;349;100 mA
56.1672078581914;-0.799560546875;-0.106842041015625;3.4899999911886;350;100 mA
56.1772078581662;-0.79986572265625;-0.107635498046875;3.49999999116335;351;100 mA
56.1872078581409;-0.799560546875;-0.106689453125;3.5099999911381;352;100 mA
56.1972078581157;-0.79925537109375;-0.106536865234375;3.51999999111285;353;100 mA
56.2072078580904;-0.799560546875;-0.106903076171875;3.52999999108761;354;100 mA
56.2172078580652;-0.79925537109375;-0.10723876953125;3.53999999106236;355;100 mA
56.2272078580399;-0.799560546875;-0.107696533203125;3.54999999103711;356;100 mA
56.2372078580147;-0.79986572265625;-0.10687255859375;3.55999999101186;357;100 mA
56.2472078579895;-0.79986572265625;-0.107208251953125;3.56999999098662;358;100 mA
56.2572078579642;-0.799560546875;-0.106781005859375;3.57999999096137;359;100 mA
56.267207857939;-0.799560546875;-0.1060791015625;3.58999999093612;360;100 mA
56.2772078579137;-0.799560546875;-0.10565185546875;3.59999999091087;361;100 mA
56.2872078578885;-0.8001708984375;-0.104949951171875;3.60999999088563;362;100 mA
56.2972078578632;-0.79925537109375;-0.105438232421875;3.61999999086038;363;100 mA
56.307207857838;-0.799560546875;-0.105133056640625;3.62999999083513;364;100 mA
56.3172078578127;-0.79925537109375;-0.104766845703125;3.63999999080988;365;100 mA
56.3272078577875;-0.799560546875;-0.10552978515625;3.64999999078464;366;100 mA
56.3372078577622;-0.799560546875;-0.105194091796875;3.65999999075939;367;100 mA
56.347207857737;-0.79925537109375;-0.10491943359375;3.66999999073414;368;100 mA
56.3572078577117;-0.799560546875;-0.104156494140625;3.67999999070889;369;100 mA
56.3672078576865;-0.8001708984375;-0.10430908203125;3.68999999068365;370;100 mA
56.3772078576612;-0.79925537109375;-0.104644775390625;3.6999999906584;371;100 mA
56.387207857636;-0.79925537109375;-0.104400634765625;3.70999999063315;372;100 mA
56.3972078576107;-0.799560546875;-0.104949951171875;3.7199999906079;373;100 mA
56.4072078575855;-0.79986572265625;-0.10504150390625;3.72999999058266;374;100 mA
56.4172078575602;-0.799560546875;-0.1053466796875;3.73999999055741;375;100 mA
56.427207857535;-0.799560546875;-0.10577392578125;3.74999999053216;376;100 mA
56.4372078575097;-0.79986572265625;-0.105224609375;3.75999999050691;377;100 mA
56.4472078574845;-0.79986572265625;-0.105865478515625;3.76999999048167;378;100 mA
56.4572078574593;-0.79925537109375;-0.10546875;3.77999999045642;379;100 mA
56.467207857434;-0.79925537109375;-0.105194091796875;3.78999999043117;380;100 mA
56.4772078574088;-0.799560546875;-0.10479736328125;3.79999999040592;381;100 mA
56.4872078573835;-0.799560546875;-0.1044921875;3.80999999038067;382;100 mA
56.4972078573583;-0.799560546875;-0.105438232421875;3.81999999035543;383;100 mA
56.507207857333;-0.79925537109375;-0.105010986328125;3.82999999033018;384;100 mA
56.5172078573078;-0.79986572265625;-0.1053466796875;3.83999999030493;385;100 mA
56.5272078572825;-0.799560546875;-0.105926513671875;3.84999999027968;386;100 mA
56.5372078572573;-0.799560546875;-0.105712890625;3.85999999025444;387;100 mA
56.547207857232;-0.79986572265625;-0.10595703125;3.86999999022919;388;100 mA
56.5572078572068;-0.79925537109375;-0.104949951171875;3.87999999020394;389;100 mA
56.5672078571815;-0.799560546875;-0.10498046875;3.88999999017869;390;100 mA
56.5772078571563;-0.7989501953125;-0.10528564453125;3.89999999015345;391;100 mA
56.587207857131;-0.79925537109375;-0.104827880859375;3.9099999901282;392;100 mA
56.5972078571058;-0.799560546875;-0.10540771484375;3.91999999010295;393;100 mA
56.6072078570805;-0.7989501953125;-0.105743408203125;3.9299999900777;394;100 mA
56.6172078570553;-0.79925537109375;-0.106719970703125;3.93999999005246;395;100 mA
56.62720785703;-0.79986572265625;-0.10736083984375;3.94999999002721;396;100 mA
56.6372078570048;-0.79986572265625;-0.106597900390625;3.95999999000196;397;100 mA
56.6472078569795;-0.799560546875;-0.10723876953125;3.96999998997671;398;100 mA
56.6572078569543;-0.79986572265625;-0.107269287109375;3.97999998995147;399;100 mA
56.6672078569291;-0.79925537109375;-0.10723876953125;3.98999998992622;400;100 mA
56.6772078569038;-0.79986572265625;-0.106964111328125;3.99999998990097;401;100 mA
56.6872078568786;-0.79986572265625;-0.106597900390625;4.00999998987572;402;100 mA
56.6972078568533;-0.799560546875;-0.107330322265625;4.01999998985048;403;100 mA
56.7072078568281;-0.799560546875;-0.1068115234375;4.02999998982523;404;100 mA
56.7172078568028;-0.799560546875;-0.107025146484375;4.03999998979998;405;100 mA
56.7272078567776;-0.799560546875;-0.10736083984375;4.04999998977473;406;100 mA
56.7372078567523;-0.799560546875;-0.10723876953125;4.05999998974949;407;100 mA
56.7472078567271;-0.799560546875;-0.10711669921875;4.06999998972424;408;100 mA
56.7572078567018;-0.79925537109375;-0.105865478515625;4.07999998969899;409;100 mA
56.7672078566766;-0.7989501953125;-0.105987548828125;4.08999998967374;410;100 mA
56.7772078566513;-0.8001708984375;-0.106170654296875;4.0999999896485;411;100 mA
56.7872078566261;-0.799560546875;-0.106109619140625;4.10999998962325;412;100 mA
56.7972078566008;-0.79925537109375;-0.10638427734375;4.119999989598;413;100 mA
56.8072078565756;-0.79925537109375;-0.10614013671875;4.12999998957275;414;100 mA
56.8172078565503;-0.799560546875;-0.106658935546875;4.1399999895475;415;100 mA
56.8272078565251;-0.8001708984375;-0.106231689453125;4.14999998952226;416;100 mA
56.8372078564998;-0.79986572265625;-0.10565185546875;4.15999998949701;417;100 mA
56.8472078564746;-0.79925537109375;-0.106231689453125;4.16999998947176;418;100 mA
56.8572078564493;-0.79986572265625;-0.10546875;4.17999998944651;419;100 mA
56.8672078564241;-0.799560546875;-0.10491943359375;4.18999998942127;420;100 mA
56.8772078563989;-0.79986572265625;-0.104156494140625;4.19999998939602;421;100 mA
56.8872078563736;-0.79925537109375;-0.103973388671875;4.20999998937077;422;100 mA
56.8972078563484;-0.79986572265625;-0.104522705078125;4.21999998934552;423;100 mA
56.9072078563231;-0.79986572265625;-0.103851318359375;4.22999998932028;424;100 mA
56.9172078562979;-0.79925537109375;-0.10406494140625;4.23999998929503;425;100 mA
56.9272078562726;-0.79925537109375;-0.1043701171875;4.24999998926978;426;100 mA
56.9372078562474;-0.799560546875;-0.10455322265625;4.25999998924453;427;100 mA
56.9472078562221;-0.799560546875;-0.104583740234375;4.26999998921929;428;100 mA
56.9572078561969;-0.79986572265625;-0.103851318359375;4.27999998919404;429;100 mA
56.9672078561716;-0.79925537109375;-0.104705810546875;4.28999998916879;430;100 mA
56.9772078561464;-0.799560546875;-0.104888916015625;4.29999998914354;431;100 mA
56.9872078561211;-0.79986572265625;-0.1046142578125;4.3099999891183;432;100 mA
56.9972078560959;-0.79925537109375;-0.104705810546875;4.31999998909305;433;100 mA
57.0072078560706;-0.8001708984375;-0.10443115234375;4.3299999890678;434;100 mA
57.0172078560454;-0.799560546875;-0.10540771484375;4.33999998904255;435;100 mA
57.0272078560201;-0.799560546875;-0.105377197265625;4.34999998901731;436;100 mA
57.0372078559949;-0.799560546875;-0.105377197265625;4.35999998899206;437;100 mA
57.0472078559696;-0.79986572265625;-0.105987548828125;4.36999998896681;438;100 mA
57.0572078559444;-0.79986572265625;-0.10528564453125;4.37999998894156;439;100 mA
57.0672078559192;-0.7989501953125;-0.1048583984375;4.38999998891632;440;100 mA
57.0772078558939;-0.79986572265625;-0.103851318359375;4.39999998889107;441;100 mA
57.0872078558687;-0.799560546875;-0.103729248046875;4.40999998886582;442;100 mA
57.0972078558434;-0.799560546875;-0.10467529296875;4.41999998884057;443;100 mA
57.1072078558182;-0.799560546875;-0.104583740234375;4.42999998881533;444;100 mA
57.1172078557929;-0.799560546875;-0.105224609375;4.43999998879008;445;100 mA
57.1272078557677;-0.799560546875;-0.105224609375;4.44999998876483;446;100 mA
57.1372078557424;-0.79986572265625;-0.105499267578125;4.45999998873958;447;100 mA
57.1472078557172;-0.799560546875;-0.105804443359375;4.46999998871433;448;100 mA
57.1572078556919;-0.79925537109375;-0.105010986328125;4.47999998868909;449;100 mA
57.1672078556667;-0.799560546875;-0.10528564453125;4.48999998866384;450;100 mA
57.1772078556414;-0.799560546875;-0.10491943359375;4.49999998863859;451;100 mA
57.1872078556162;-0.799560546875;-0.104583740234375;4.50999998861334;452;100 mA
57.1972078555909;-0.799560546875;-0.104644775390625;4.5199999885881;453;100 mA
57.2072078555657;-0.799560546875;-0.1043701171875;4.52999998856285;454;100 mA
57.2172078555404;-0.799560546875;-0.105133056640625;4.5399999885376;455;100 mA
57.2272078555152;-0.8001708984375;-0.104766845703125;4.54999998851235;456;100 mA
57.2372078554899;-0.799560546875;-0.10443115234375;4.55999998848711;457;100 mA
57.2472078554647;-0.79925537109375;-0.10467529296875;4.56999998846186;458;100 mA
57.2572078554394;-0.799560546875;-0.10430908203125;4.57999998843661;459;100 mA
57.2672078554142;-0.79925537109375;-0.104644775390625;4.58999998841136;460;100 mA
57.277207855389;-0.79986572265625;-0.104400634765625;4.59999998838612;461;100 mA
57.2872078553637;-0.799560546875;-0.10443115234375;4.60999998836087;462;100 mA
57.2972078553385;-0.79925537109375;-0.10498046875;4.61999998833562;463;100 mA
57.3072078553132;-0.79986572265625;-0.104461669921875;4.62999998831037;464;100 mA
57.317207855288;-0.799560546875;-0.10455322265625;4.63999998828513;465;100 mA
57.3272078552627;-0.79925537109375;-0.104248046875;4.64999998825988;466;100 mA
57.3372078552375;-0.79925537109375;-0.104217529296875;4.65999998823463;467;100 mA
57.3472078552122;-0.79986572265625;-0.10430908203125;4.66999998820938;468;100 mA
57.357207855187;-0.79925537109375;-0.1036376953125;4.67999998818414;469;100 mA
57.3672078551617;-0.79986572265625;-0.104156494140625;4.68999998815889;470;100 mA
57.3772078551365;-0.799560546875;-0.10382080078125;4.69999998813364;471;100 mA
57.3872078551112;-0.7989501953125;-0.103729248046875;4.70999998810839;472;100 mA
57.397207855086;-0.799560546875;-0.10369873046875;4.71999998808315;473;100 mA
57.4072078550607;-0.8001708984375;-0.103729248046875;4.7299999880579;474;100 mA
57.4172078550355;-0.8001708984375;-0.10443115234375;4.73999998803265;475;100 mA
57.4272078550102;-0.799560546875;-0.103851318359375;4.7499999880074;476;100 mA
57.437207854985;-0.79925537109375;-0.104156494140625;4.75999998798216;477;100 mA
57.4472078549597;-0.799560546875;-0.104766845703125;4.76999998795691;478;100 mA
57.4572078549345;-0.79925537109375;-0.104461669921875;4.77999998793166;479;100 mA
57.4672078549092;-0.79986572265625;-0.10455322265625;4.78999998790641;480;100 mA
57.477207854884;-0.79925537109375;-0.10394287109375;4.79999998788116;481;100 mA
57.4872078548588;-0.79925537109375;-0.1046142578125;4.80999998785592;482;100 mA
57.4972078548335;-0.79925537109375;-0.1053466796875;4.81999998783067;483;100 mA
57.5072078548083;-0.79986572265625;-0.10504150390625;4.82999998780542;484;100 mA
57.517207854783;-0.79925537109375;-0.105194091796875;4.83999998778017;485;100 mA
57.5272078547578;-0.799560546875;-0.104766845703125;4.84999998775493;486;100 mA
57.5372078547325;-0.79925537109375;-0.10504150390625;4.85999998772968;487;100 mA
57.5472078547073;-0.79986572265625;-0.105072021484375;4.86999998770443;488;100 mA
57.557207854682;-0.79925537109375;-0.104888916015625;4.87999998767918;489;100 mA
57.5672078546568;-0.799560546875;-0.10552978515625;4.88999998765394;490;100 mA
57.5772078546315;-0.79925537109375;-0.105072021484375;4.89999998762869;491;100 mA
57.5872078546063;-0.799560546875;-0.1048583984375;4.90999998760344;492;100 mA
57.597207854581;-0.7989501953125;-0.105194091796875;4.91999998757819;493;100 mA
57.6072078545558;-0.79925537109375;-0.105133056640625;4.92999998755295;494;100 mA
57.6172078545305;-0.79925537109375;-0.106170654296875;4.9399999875277;495;100 mA
57.6272078545053;-0.79925537109375;-0.10595703125;4.94999998750245;496;100 mA
57.63720785448;-0.799560546875;-0.10626220703125;4.9599999874772;497;100 mA
57.6472078544548;-0.79925537109375;-0.105987548828125;4.96999998745196;498;100 mA
57.6572078544295;-0.79986572265625;-0.105438232421875;4.97999998742671;499;100 mA
57.6672078544043;-0.79925537109375;-0.1053466796875;4.98999998740146;500;100 mA
57.677207854379;-0.79925537109375;-0.104583740234375;4.99999998737621;501;100 mA
57.6872078543538;-0.79986572265625;-0.1048583984375;5.00999998735097;502;100 mA
57.6972078543286;-0.79925537109375;-0.10528564453125;5.01999998732572;503;100 mA
57.7072078543033;-0.79925537109375;-0.104766845703125;5.02999998730047;504;100 mA
57.7172078542781;-0.799560546875;-0.105255126953125;5.03999998727522;505;100 mA
57.7272078542528;-0.79925537109375;-0.104949951171875;5.04999998724998;506;100 mA
57.7372078542276;-0.799560546875;-0.10540771484375;5.05999998722473;507;100 mA
57.7472078542023;-0.79986572265625;-0.105010986328125;5.06999998719948;508;100 mA
57.7572078541771;-0.79925537109375;-0.104827880859375;5.07999998717423;509;100 mA
57.7672078541518;-0.799560546875;-0.10528564453125;5.08999998714899;510;100 mA
57.7772078541266;-0.79986572265625;-0.104949951171875;5.09999998712374;511;100 mA
57.7872078541013;-0.799560546875;-0.104705810546875;5.10999998709849;512;100 mA
57.7972078540761;-0.79925537109375;-0.1041259765625;5.11999998707324;513;100 mA
57.8072078540508;-0.79925537109375;-0.103759765625;5.129999987048;514;100 mA
57.8172078540256;-0.8001708984375;-0.104583740234375;5.13999998702275;515;100 mA
57.8272078540003;-0.799560546875;-0.104522705078125;5.1499999869975;516;100 mA
57.8372078539751;-0.79925537109375;-0.1048583984375;5.15999998697225;517;100 mA
57.8472078539498;-0.79986572265625;-0.104461669921875;5.169999986947;518;100 mA
57.8572078539246;-0.79925537109375;-0.104217529296875;5.17999998692176;519;100 mA
57.8672078538993;-0.799560546875;-0.104156494140625;5.18999998689651;520;100 mA
57.8772078538741;-0.799560546875;-0.10345458984375;5.19999998687126;521;100 mA
57.8872078538488;-0.799560546875;-0.103851318359375;5.20999998684601;522;100 mA
57.8972078538236;-0.799560546875;-0.10406494140625;5.21999998682077;523;100 mA
57.9072078537984;-0.799560546875;-0.103912353515625;5.22999998679552;524;100 mA
57.9172078537731;-0.799560546875;-0.103851318359375;5.23999998677027;525;100 mA
57.9272078537479;-0.799560546875;-0.1033935546875;5.24999998674502;526;100 mA
57.9372078537226;-0.799560546875;-0.103851318359375;5.25999998671978;527;100 mA
57.9472078536974;-0.79986572265625;-0.103546142578125;5.26999998669453;528;100 mA
57.9572078536721;-0.799560546875;-0.103607177734375;5.27999998666928;529;100 mA
57.9672078536469;-0.799560546875;-0.104278564453125;5.28999998664403;530;100 mA
57.9772078536216;-0.79986572265625;-0.104217529296875;5.29999998661879;531;100 mA
57.9872078535964;-0.799560546875;-0.104522705078125;5.30999998659354;532;100 mA
57.9972078535711;-0.79925537109375;-0.104095458984375;5.31999998656829;533;100 mA
58.0072078535459;-0.7989501953125;-0.1041259765625;5.32999998654304;534;100 mA
58.0172078535206;-0.79925537109375;-0.10443115234375;5.3399999865178;535;100 mA
58.0272078534954;-0.8001708984375;-0.1036376953125;5.34999998649255;536;100 mA
58.0372078534701;-0.799560546875;-0.104522705078125;5.3599999864673;537;100 mA
58.0472078534449;-0.79986572265625;-0.105072021484375;5.36999998644205;538;100 mA
58.0572078534196;-0.79986572265625;-0.10546875;5.37999998641681;539;100 mA
58.0672078533944;-0.79864501953125;-0.105682373046875;5.38999998639156;540;100 mA
58.0772078533691;-0.79925537109375;-0.105072021484375;5.39999998636631;541;100 mA
58.0872078533439;-0.79986572265625;-0.10565185546875;5.40999998634106;542;100 mA
58.0972078533187;-0.79925537109375;-0.105682373046875;5.41999998631582;543;100 mA
58.1072078532934;-0.79986572265625;-0.10516357421875;5.42999998629057;544;100 mA
58.1172078532682;-0.79925537109375;-0.104827880859375;5.43999998626532;545;100 mA
58.1272078532429;-0.79925537109375;-0.1044921875;5.44999998624007;546;100 mA
58.1372078532177;-0.799560546875;-0.10552978515625;5.45999998621483;547;100 mA
58.1472078531924;-0.799560546875;-0.10546875;5.46999998618958;548;100 mA
58.1572078531672;-0.799560546875;-0.105987548828125;5.47999998616433;549;100 mA
58.1672078531419;-0.79925537109375;-0.106475830078125;5.48999998613908;550;100 mA
58.1772078531167;-0.79925537109375;-0.106048583984375;5.49999998611383;551;100 mA
58.1872078530914;-0.799560546875;-0.105743408203125;5.50999998608859;552;100 mA
58.1972078530662;-0.79925537109375;-0.1048583984375;5.51999998606334;553;100 mA
58.2072078530409;-0.799560546875;-0.1048583984375;5.52999998603809;554;100 mA
58.2172078530157;-0.799560546875;-0.105255126953125;5.53999998601284;555;100 mA
58.2272078529904;-0.79925537109375;-0.104583740234375;5.5499999859876;556;100 mA
58.2372078529652;-0.79986572265625;-0.104705810546875;5.55999998596235;557;100 mA
58.2472078529399;-0.79986572265625;-0.10455322265625;5.5699999859371;558;100 mA
58.2572078529147;-0.79986572265625;-0.105255126953125;5.57999998591185;559;100 mA
58.2672078528894;-0.799560546875;-0.105621337890625;5.58999998588661;560;100 mA
58.2772078528642;-0.7989501953125;-0.1051025390625;5.59999998586136;561;100 mA
58.2872078528389;-0.79986572265625;-0.10546875;5.60999998583611;562;100 mA
58.2972078528137;-0.799560546875;-0.10528564453125;5.61999998581086;563;100 mA
58.3072078527885;-0.799560546875;-0.1051025390625;5.62999998578562;564;100 mA
58.3172078527632;-0.799560546875;-0.104949951171875;5.63999998576037;565;100 mA
58.327207852738;-0.799560546875;-0.10491943359375;5.64999998573512;566;100 mA
58.3372078527127;-0.79986572265625;-0.106170654296875;5.65999998570987;567;100 mA
58.3472078526875;-0.79925537109375;-0.10638427734375;5.66999998568463;568;100 mA
58.3572078526622;-0.799560546875;-0.1065673828125;5.67999998565938;569;100 mA
58.367207852637;-0.799560546875;-0.10638427734375;5.68999998563413;570;100 mA
58.3772078526117;-0.79986572265625;-0.1058349609375;5.69999998560888;571;100 mA
58.3872078525865;-0.799560546875;-0.1053466796875;5.70999998558364;572;100 mA
58.3972078525612;-0.799560546875;-0.104278564453125;5.71999998555839;573;100 mA
58.407207852536;-0.79925537109375;-0.10430908203125;5.72999998553314;574;100 mA
58.4172078525107;-0.799560546875;-0.104827880859375;5.73999998550789;575;100 mA
58.4272078524855;-0.79925537109375;-0.104644775390625;5.74999998548265;576;100 mA
58.4372078524602;-0.79986572265625;-0.10479736328125;5.7599999854574;577;100 mA
58.447207852435;-0.799560546875;-0.1044921875;5.76999998543215;578;100 mA
58.4572078524097;-0.8001708984375;-0.105316162109375;5.7799999854069;579;100 mA
58.4672078523845;-0.79925537109375;-0.105560302734375;5.78999998538166;580;100 mA
58.4772078523592;-0.79986572265625;-0.1051025390625;5.79999998535641;581;100 mA
58.487207852334;-0.799560546875;-0.105194091796875;5.80999998533116;582;100 mA
58.4972078523087;-0.799560546875;-0.10455322265625;5.81999998530591;583;100 mA
58.5072078522835;-0.79986572265625;-0.104034423828125;5.82999998528066;584;100 mA
58.5172078522583;-0.79925537109375;-0.10357666015625;5.83999998525542;585;100 mA
58.527207852233;-0.79925537109375;-0.103240966796875;5.84999998523017;586;100 mA
58.5372078522078;-0.799560546875;-0.103607177734375;5.85999998520492;587;100 mA
58.5472078521825;-0.79986572265625;-0.1031494140625;5.86999998517967;588;100 mA
58.5572078521573;-0.79986572265625;-0.10345458984375;5.87999998515443;589;100 mA
58.567207852132;-0.79986572265625;-0.103546142578125;5.88999998512918;590;100 mA
58.5772078521068;-0.79986572265625;-0.1033935546875;5.89999998510393;591;100 mA
58.5872078520815;-0.799560546875;-0.103729248046875;5.90999998507868;592;100 mA
58.5972078520563;-0.799560546875;-0.10308837890625;5.91999998505344;593;100 mA
58.607207852031;-0.79925537109375;-0.103179931640625;5.92999998502819;594;100 mA
58.6172078520058;-0.799560546875;-0.10302734375;5.93999998500294;595;100 mA
58.6272078519805;-0.79925537109375;-0.102630615234375;5.94999998497769;596;100 mA
58.6372078519553;-0.799560546875;-0.102569580078125;5.95999998495245;597;100 mA
58.64720785193;-0.799560546875;-0.102142333984375;5.9699999849272;598;100 mA
58.6572078519048;-0.7989501953125;-0.102874755859375;5.97999998490195;599;100 mA
58.6672078518795;-0.799560546875;-0.1031494140625;5.9899999848767;600;100 mA
58.6772078518543;-0.79925537109375;-0.103118896484375;5.99999998485146;601;100 mA
58.687207851829;-0.799560546875;-0.103729248046875;6.00999998482621;602;100 mA
58.6972078518038;-0.799560546875;-0.103607177734375;6.01999998480096;603;100 mA
58.7072078517785;-0.79986572265625;-0.103546142578125;6.02999998477571;604;100 mA
58.7172078517533;-0.799560546875;-0.102935791015625;6.03999998475047;605;100 mA
58.7272078517281;-0.799560546875;-0.102752685546875;6.04999998472522;606;100 mA
58.7372078517028;-0.79986572265625;-0.10333251953125;6.05999998469997;607;100 mA
58.7472078516776;-0.79986572265625;-0.1031494140625;6.06999998467472;608;100 mA
58.7572078516523;-0.79925537109375;-0.1036376953125;6.07999998464948;609;100 mA
58.7672078516271;-0.79925537109375;-0.1033935546875;6.08999998462423;610;100 mA
58.7772078516018;-0.799560546875;-0.103271484375;6.09999998459898;611;100 mA
58.7872078515766;-0.799560546875;-0.103485107421875;6.10999998457373;612;100 mA
58.7972078515513;-0.79925537109375;-0.102996826171875;6.11999998454849;613;100 mA
58.8072078515261;-0.79986572265625;-0.10321044921875;6.12999998452324;614;100 mA
58.8172078515008;-0.79986572265625;-0.10302734375;6.13999998449799;615;100 mA
58.8272078514756;-0.79986572265625;-0.10272216796875;6.14999998447274;616;100 mA
58.8372078514503;-0.799560546875;-0.102691650390625;6.1599999844475;617;100 mA
58.8472078514251;-0.7989501953125;-0.102386474609375;6.16999998442225;618;100 mA
58.8572078513998;-0.799560546875;-0.102874755859375;6.179999984397;619;100 mA
58.8672078513746;-0.7989501953125;-0.10235595703125;6.18999998437175;620;100 mA
58.8772078513493;-0.799560546875;-0.1021728515625;6.1999999843465;621;100 mA
58.8872078513241;-0.799560546875;-0.102569580078125;6.20999998432126;622;100 mA
58.8972078512988;-0.799560546875;-0.102569580078125;6.21999998429601;623;100 mA
58.9072078512736;-0.79925537109375;-0.103118896484375;6.22999998427076;624;100 mA
58.9172078512483;-0.799560546875;-0.10302734375;6.23999998424551;625;100 mA
58.9272078512231;-0.79986572265625;-0.10308837890625;6.24999998422027;626;100 mA
58.9372078511979;-0.79986572265625;-0.103179931640625;6.25999998419502;627;100 mA
58.9472078511726;-0.79925537109375;-0.102447509765625;6.26999998416977;628;100 mA
58.9572078511474;-0.79925537109375;-0.102783203125;6.27999998414452;629;100 mA
58.9672078511221;-0.79925537109375;-0.10272216796875;6.28999998411928;630;100 mA
58.9772078510969;-0.799560546875;-0.102752685546875;6.29999998409403;631;100 mA
58.9872078510716;-0.799560546875;-0.102508544921875;6.30999998406878;632;100 mA
58.9972078510464;-0.7989501953125;-0.10186767578125;6.31999998404353;633;100 mA
59.0072078510211;-0.79925537109375;-0.102294921875;6.32999998401829;634;100 mA
59.0172078509959;-0.79925537109375;-0.101898193359375;6.33999998399304;635;100 mA
59.0272078509706;-0.799560546875;-0.101287841796875;6.34999998396779;636;100 mA
59.0372078509454;-0.799560546875;-0.1009521484375;6.35999998394254;637;100 mA
59.0472078509201;-0.799560546875;-0.1007080078125;6.3699999839173;638;100 mA
59.0572078508949;-0.79986572265625;-0.10125732421875;6.37999998389205;639;100 mA
59.0672078508696;-0.79925537109375;-0.101043701171875;6.3899999838668;640;100 mA
59.0772078508444;-0.79986572265625;-0.101470947265625;6.39999998384155;641;100 mA
59.0872078508191;-0.799560546875;-0.102020263671875;6.40999998381631;642;100 mA
59.0972078507939;-0.799560546875;-0.101959228515625;6.41999998379106;643;100 mA
59.1072078507686;-0.799560546875;-0.10205078125;6.42999998376581;644;100 mA
59.1172078507434;-0.79925537109375;-0.101470947265625;6.43999998374056;645;100 mA
59.1272078507182;-0.79986572265625;-0.10150146484375;6.44999998371532;646;100 mA
59.1372078506929;-0.8001708984375;-0.101409912109375;6.45999998369007;647;100 mA
59.1472078506677;-0.79986572265625;-0.100799560546875;6.46999998366482;648;100 mA
59.1572078506424;-0.79986572265625;-0.10137939453125;6.47999998363957;649;100 mA
59.1672078506172;-0.79925537109375;-0.10137939453125;6.48999998361433;650;100 mA
59.1772078505919;-0.79986572265625;-0.101654052734375;6.49999998358908;651;100 mA
59.1872078505667;-0.79986572265625;-0.101470947265625;6.50999998356383;652;100 mA
59.1972078505414;-0.79925537109375;-0.101226806640625;6.51999998353858;653;100 mA
59.2072078505162;-0.79925537109375;-0.101806640625;6.52999998351333;654;100 mA
59.2172078504909;-0.79925537109375;-0.101287841796875;6.53999998348809;655;100 mA
59.2272078504657;-0.79925537109375;-0.10064697265625;6.54999998346284;656;100 mA
59.2372078504404;-0.799560546875;-0.099884033203125;6.55999998343759;657;100 mA
59.2472078504152;-0.79925537109375;-0.099639892578125;6.56999998341234;658;100 mA
59.2572078503899;-0.799560546875;-0.10003662109375;6.5799999833871;659;100 mA
59.2672078503647;-0.79986572265625;-0.0994873046875;6.58999998336185;660;100 mA
59.2772078503394;-0.79986572265625;-0.09967041015625;6.5999999833366;661;100 mA
59.2872078503142;-0.79925537109375;-0.099761962890625;6.60999998331135;662;100 mA
59.2972078502889;-0.79925537109375;-0.0997314453125;6.61999998328611;663;100 mA
59.3072078502637;-0.79925537109375;-0.0999755859375;6.62999998326086;664;100 mA
59.3172078502384;-0.79986572265625;-0.099517822265625;6.63999998323561;665;100 mA
59.3272078502132;-0.79925537109375;-0.099700927734375;6.64999998321036;666;100 mA
59.337207850188;-0.79925537109375;-0.099700927734375;6.65999998318512;667;100 mA
59.3472078501627;-0.799560546875;-0.098968505859375;6.66999998315987;668;100 mA
59.3572078501375;-0.79986572265625;-0.099365234375;6.67999998313462;669;100 mA
59.3672078501122;-0.79925537109375;-0.0994873046875;6.68999998310937;670;100 mA
59.377207850087;-0.799560546875;-0.099853515625;6.69999998308413;671;100 mA
59.3872078500617;-0.79986572265625;-0.099609375;6.70999998305888;672;100 mA
59.3972078500365;-0.79986572265625;-0.0997314453125;6.71999998303363;673;100 mA
59.4072078500112;-0.7989501953125;-0.100250244140625;6.72999998300838;674;100 mA
59.417207849986;-0.79925537109375;-0.0999755859375;6.73999998298314;675;100 mA
59.4272078499607;-0.79925537109375;-0.099884033203125;6.74999998295789;676;100 mA
59.4372078499355;-0.79925537109375;-0.0994873046875;6.75999998293264;677;100 mA
59.4472078499102;-0.79925537109375;-0.099151611328125;6.76999998290739;678;100 mA
59.457207849885;-0.79925537109375;-0.099517822265625;6.77999998288215;679;100 mA
59.4672078498597;-0.799560546875;-0.0989990234375;6.7899999828569;680;100 mA
59.4772078498345;-0.79986572265625;-0.09912109375;6.79999998283165;681;100 mA
59.4872078498092;-0.79925537109375;-0.099090576171875;6.8099999828064;682;100 mA
59.497207849784;-0.79986572265625;-0.0989990234375;6.81999998278116;683;100 mA
59.5072078497587;-0.79925537109375;-0.098907470703125;6.82999998275591;684;100 mA
59.5172078497335;-0.799560546875;-0.098419189453125;6.83999998273066;685;100 mA
59.5272078497082;-0.799560546875;-0.09893798828125;6.84999998270541;686;100 mA
59.537207849683;-0.799560546875;-0.099090576171875;6.85999998268016;687;100 mA
59.5472078496578;-0.79925537109375;-0.098846435546875;6.86999998265492;688;100 mA
59.5572078496325;-0.799560546875;-0.09869384765625;6.87999998262967;689;100 mA
59.5672078496073;-0.799560546875;-0.09808349609375;6.88999998260442;690;100 mA
59.577207849582;-0.79925537109375;-0.098358154296875;6.89999998257917;691;100 mA
59.5872078495568;-0.79986572265625;-0.098175048828125;6.90999998255393;692;100 mA
59.5972078495315;-0.79925537109375;-0.098358154296875;6.91999998252868;693;100 mA
59.6072078495063;-0.799560546875;-0.09893798828125;6.92999998250343;694;100 mA
59.617207849481;-0.799560546875;-0.098846435546875;6.93999998247818;695;100 mA
59.6272078494558;-0.79925537109375;-0.09893798828125;6.94999998245294;696;100 mA
59.6372078494305;-0.79925537109375;-0.09881591796875;6.95999998242769;697;100 mA
59.6472078494053;-0.79986572265625;-0.098907470703125;6.96999998240244;698;100 mA
59.65720784938;-0.79986572265625;-0.09918212890625;6.97999998237719;699;100 mA
59.6672078493548;-0.8001708984375;-0.098541259765625;6.98999998235195;700;100 mA
