Time (s);WE(1).Potential (V);WE(1).Current (A);Corrected time (s);Index;Current range
75.553780809245;-0.89996337890625;-0.3297119140625;0;1;100 mA
75.5637808092198;-0.9002685546875;-0.24566650390625;0.00999999997475243;2;100 mA
75.5737808091945;-0.89996337890625;-0.206207275390625;0.0199999999495049;3;100 mA
75.5837808091693;-0.9002685546875;-0.181365966796875;0.0299999999242573;4;100 mA
75.5937808091441;-0.899658203125;-0.167205810546875;0.0399999998990097;5;100 mA
75.6037808091188;-0.899658203125;-0.155609130859375;0.0499999998737621;6;100 mA
75.6137808090936;-0.899658203125;-0.147705078125;0.0599999998485146;7;100 mA
75.6237808090683;-0.899658203125;-0.14007568359375;0.069999999823267;8;100 mA
75.6337808090431;-0.899658203125;-0.138641357421875;0.0799999997980194;9;100 mA
75.6437808090178;-0.89935302734375;-0.132415771484375;0.0899999997727718;10;100 mA
75.6537808089926;-0.899658203125;-0.13055419921875;0.0999999997475243;11;100 mA
75.6637808089673;-0.89935302734375;-0.12640380859375;0.109999999722277;12;100 mA
75.6737808089421;-0.899658203125;-0.1270751953125;0.119999999697029;13;100 mA
75.6837808089168;-0.899658203125;-0.12420654296875;0.129999999671782;14;100 mA
75.6937808088916;-0.899658203125;-0.123077392578125;0.139999999646534;15;100 mA
75.7037808088663;-0.899658203125;-0.122314453125;0.149999999621286;16;100 mA
75.7137808088411;-0.89935302734375;-0.123016357421875;0.159999999596039;17;100 mA
75.7237808088158;-0.89935302734375;-0.12078857421875;0.169999999570791;18;100 mA
75.7337808087906;-0.899658203125;-0.12017822265625;0.179999999545544;19;100 mA
75.7437808087653;-0.8990478515625;-0.117706298828125;0.189999999520296;20;100 mA
75.7537808087401;-0.899658203125;-0.120849609375;0.199999999495049;21;100 mA
75.7637808087148;-0.89935302734375;-0.118194580078125;0.209999999469801;22;100 mA
75.7737808086896;-0.89935302734375;-0.118560791015625;0.219999999444553;23;100 mA
75.7837808086643;-0.899658203125;-0.117401123046875;0.229999999419306;24;100 mA
75.7937808086391;-0.89935302734375;-0.118896484375;0.239999999394058;25;100 mA
75.8037808086139;-0.899658203125;-0.118072509765625;0.249999999368811;26;100 mA
75.8137808085886;-0.899658203125;-0.1170654296875;0.259999999343563;27;100 mA
75.8237808085634;-0.899658203125;-0.116455078125;0.269999999318316;28;100 mA
75.8337808085381;-0.89996337890625;-0.118560791015625;0.279999999293068;29;100 mA
75.8437808085129;-0.89935302734375;-0.115966796875;0.28999999926782;30;100 mA
75.8537808084876;-0.89935302734375;-0.117584228515625;0.299999999242573;31;100 mA
75.8637808084624;-0.899658203125;-0.115936279296875;0.309999999217325;32;100 mA
75.8737808084371;-0.899658203125;-0.11895751953125;0.319999999192078;33;100 mA
75.8837808084119;-0.89935302734375;-0.1173095703125;0.32999999916683;34;100 mA
75.8937808083866;-0.89935302734375;-0.1177978515625;0.339999999141583;35;100 mA
75.9037808083614;-0.89935302734375;-0.117584228515625;0.349999999116335;36;100 mA
75.9137808083361;-0.89996337890625;-0.118438720703125;0.359999999091087;37;100 mA
75.9237808083109;-0.89996337890625;-0.1168212890625;0.36999999906584;38;100 mA
75.9337808082856;-0.899658203125;-0.116241455078125;0.379999999040592;39;100 mA
75.9437808082604;-0.899658203125;-0.11468505859375;0.389999999015345;40;100 mA
75.9537808082351;-0.89935302734375;-0.117523193359375;0.399999998990097;41;100 mA
75.9637808082099;-0.89935302734375;-0.114898681640625;0.40999999896485;42;100 mA
75.9737808081846;-0.899658203125;-0.116729736328125;0.419999998939602;43;100 mA
75.9837808081594;-0.89935302734375;-0.115570068359375;0.429999998914354;44;100 mA
75.9937808081341;-0.89935302734375;-0.117279052734375;0.439999998889107;45;100 mA
76.0037808081089;-0.89935302734375;-0.116973876953125;0.449999998863859;46;100 mA
76.0137808080837;-0.899658203125;-0.116729736328125;0.459999998838612;47;100 mA
76.0237808080584;-0.899658203125;-0.116607666015625;0.469999998813364;48;100 mA
76.0337808080332;-0.89935302734375;-0.11798095703125;0.479999998788116;49;100 mA
76.0437808080079;-0.8990478515625;-0.11529541015625;0.489999998762869;50;100 mA
76.0537808079827;-0.9002685546875;-0.1162109375;0.499999998737621;51;100 mA
76.0637808079574;-0.899658203125;-0.11419677734375;0.509999998712374;52;100 mA
76.0737808079322;-0.8990478515625;-0.117218017578125;0.519999998687126;53;100 mA
76.0837808079069;-0.89996337890625;-0.115325927734375;0.529999998661879;54;100 mA
76.0937808078817;-0.89935302734375;-0.116546630859375;0.539999998636631;55;100 mA
76.1037808078564;-0.89935302734375;-0.11651611328125;0.549999998611383;56;100 mA
76.1137808078312;-0.8990478515625;-0.117523193359375;0.559999998586136;57;100 mA
76.1237808078059;-0.899658203125;-0.11676025390625;0.569999998560888;58;100 mA
76.1337808077807;-0.899658203125;-0.1162109375;0.579999998535641;59;100 mA
76.1437808077554;-0.89935302734375;-0.114898681640625;0.589999998510393;60;100 mA
76.1537808077302;-0.89935302734375;-0.117156982421875;0.599999998485146;61;100 mA
76.1637808077049;-0.8990478515625;-0.114044189453125;0.609999998459898;62;100 mA
76.1737808076797;-0.89935302734375;-0.116058349609375;0.61999999843465;63;100 mA
76.1837808076544;-0.89935302734375;-0.1148681640625;0.629999998409403;64;100 mA
76.1937808076292;-0.899658203125;-0.117401123046875;0.639999998384155;65;100 mA
76.2037808076039;-0.89996337890625;-0.11688232421875;0.649999998358908;66;100 mA
76.2137808075787;-0.899658203125;-0.11724853515625;0.65999999833366;67;100 mA
76.2237808075535;-0.89935302734375;-0.117462158203125;0.669999998308413;68;100 mA
76.2337808075282;-0.899658203125;-0.11859130859375;0.679999998283165;69;100 mA
76.243780807503;-0.89996337890625;-0.116363525390625;0.689999998257917;70;100 mA
76.2537808074777;-0.8990478515625;-0.11712646484375;0.69999999823267;71;100 mA
76.2637808074525;-0.89935302734375;-0.11529541015625;0.709999998207422;72;100 mA
76.2737808074272;-0.89935302734375;-0.118621826171875;0.719999998182175;73;100 mA
76.283780807402;-0.89935302734375;-0.116241455078125;0.729999998156927;74;100 mA
76.2937808073767;-0.89935302734375;-0.116851806640625;0.73999999813168;75;100 mA
76.3037808073515;-0.89935302734375;-0.11590576171875;0.749999998106432;76;100 mA
76.3137808073262;-0.89935302734375;-0.117034912109375;0.759999998081184;77;100 mA
76.323780807301;-0.899658203125;-0.116302490234375;0.769999998055937;78;100 mA
76.3337808072757;-0.8990478515625;-0.115509033203125;0.779999998030689;79;100 mA
76.3437808072505;-0.899658203125;-0.114654541015625;0.789999998005442;80;100 mA
76.3537808072252;-0.89996337890625;-0.1165771484375;0.799999997980194;81;100 mA
76.3637808072;-0.899658203125;-0.1136474609375;0.809999997954947;82;100 mA
76.3737808071747;-0.89935302734375;-0.115447998046875;0.819999997929699;83;100 mA
76.3837808071495;-0.89935302734375;-0.114288330078125;0.829999997904451;84;100 mA
76.3937808071242;-0.899658203125;-0.1170654296875;0.839999997879204;85;100 mA
76.403780807099;-0.89935302734375;-0.116058349609375;0.849999997853956;86;100 mA
76.4137808070737;-0.89935302734375;-0.11639404296875;0.859999997828709;87;100 mA
76.4237808070485;-0.89935302734375;-0.116851806640625;0.869999997803461;88;100 mA
76.4337808070233;-0.899658203125;-0.118011474609375;0.879999997778214;89;100 mA
76.443780806998;-0.89996337890625;-0.116546630859375;0.889999997752966;90;100 mA
76.4537808069728;-0.899658203125;-0.11712646484375;0.899999997727718;91;100 mA
76.4637808069475;-0.899658203125;-0.11517333984375;0.909999997702471;92;100 mA
76.4737808069223;-0.899658203125;-0.117706298828125;0.919999997677223;93;100 mA
76.483780806897;-0.89996337890625;-0.11529541015625;0.929999997651976;94;100 mA
76.4937808068718;-0.89935302734375;-0.116455078125;0.939999997626728;95;100 mA
76.5037808068465;-0.899658203125;-0.115234375;0.949999997601481;96;100 mA
76.5137808068213;-0.899658203125;-0.1163330078125;0.959999997576233;97;100 mA
76.523780806796;-0.89935302734375;-0.115997314453125;0.969999997550985;98;100 mA
76.5337808067708;-0.89996337890625;-0.115570068359375;0.979999997525738;99;100 mA
76.5437808067455;-0.89996337890625;-0.11474609375;0.98999999750049;100;100 mA
76.5537808067203;-0.899658203125;-0.11627197265625;0.999999997475243;101;100 mA
76.563780806695;-0.899658203125;-0.11346435546875;1.00999999745;102;100 mA
76.5737808066698;-0.89996337890625;-0.11407470703125;1.01999999742475;103;100 mA
76.5837808066445;-0.89996337890625;-0.1123046875;1.0299999973995;104;100 mA
76.5937808066193;-0.899658203125;-0.11505126953125;1.03999999737425;105;100 mA
76.603780806594;-0.899658203125;-0.11383056640625;1.049999997349;106;100 mA
76.6137808065688;-0.89935302734375;-0.114410400390625;1.05999999732376;107;100 mA
76.6237808065436;-0.899658203125;-0.114288330078125;1.06999999729851;108;100 mA
76.6337808065183;-0.899658203125;-0.115234375;1.07999999727326;109;100 mA
76.6437808064931;-0.8990478515625;-0.114349365234375;1.08999999724801;110;100 mA
76.6537808064678;-0.899658203125;-0.114776611328125;1.09999999722277;111;100 mA
76.6637808064426;-0.8990478515625;-0.112823486328125;1.10999999719752;112;100 mA
76.6737808064173;-0.8990478515625;-0.114837646484375;1.11999999717227;113;100 mA
76.6837808063921;-0.89935302734375;-0.11151123046875;1.12999999714702;114;100 mA
76.6937808063668;-0.89996337890625;-0.11279296875;1.13999999712178;115;100 mA
76.7037808063416;-0.89935302734375;-0.111541748046875;1.14999999709653;116;100 mA
76.7137808063163;-0.89935302734375;-0.11279296875;1.15999999707128;117;100 mA
76.7237808062911;-0.9002685546875;-0.11224365234375;1.16999999704603;118;100 mA
76.7337808062658;-0.89935302734375;-0.112579345703125;1.17999999702079;119;100 mA
76.7437808062406;-0.899658203125;-0.112640380859375;1.18999999699554;120;100 mA
76.7537808062153;-0.89935302734375;-0.1138916015625;1.19999999697029;121;100 mA
76.7637808061901;-0.899658203125;-0.111236572265625;1.20999999694504;122;100 mA
76.7737808061648;-0.89935302734375;-0.11248779296875;1.2199999969198;123;100 mA
76.7837808061396;-0.8990478515625;-0.11102294921875;1.22999999689455;124;100 mA
76.7937808061143;-0.89935302734375;-0.113983154296875;1.2399999968693;125;100 mA
76.8037808060891;-0.899658203125;-0.11285400390625;1.24999999684405;126;100 mA
76.8137808060638;-0.89935302734375;-0.113922119140625;1.25999999681881;127;100 mA
76.8237808060386;-0.89935302734375;-0.113677978515625;1.26999999679356;128;100 mA
76.8337808060134;-0.89935302734375;-0.114593505859375;1.27999999676831;129;100 mA
76.8437808059881;-0.89935302734375;-0.113128662109375;1.28999999674306;130;100 mA
76.8537808059629;-0.89935302734375;-0.11297607421875;1.29999999671782;131;100 mA
76.8637808059376;-0.89935302734375;-0.111328125;1.30999999669257;132;100 mA
76.8737808059124;-0.89935302734375;-0.113525390625;1.31999999666732;133;100 mA
76.8837808058871;-0.89935302734375;-0.110443115234375;1.32999999664207;134;100 mA
76.8937808058619;-0.89935302734375;-0.111785888671875;1.33999999661683;135;100 mA
76.9037808058366;-0.89996337890625;-0.11126708984375;1.34999999659158;136;100 mA
76.9137808058114;-0.89935302734375;-0.11376953125;1.35999999656633;137;100 mA
76.9237808057861;-0.89996337890625;-0.1131591796875;1.36999999654108;138;100 mA
76.9337808057609;-0.89935302734375;-0.11358642578125;1.37999999651583;139;100 mA
76.9437808057356;-0.899658203125;-0.114044189453125;1.38999999649059;140;100 mA
76.9537808057104;-0.89935302734375;-0.115509033203125;1.39999999646534;141;100 mA
76.9637808056851;-0.89935302734375;-0.113525390625;1.40999999644009;142;100 mA
76.9737808056599;-0.899658203125;-0.1143798828125;1.41999999641484;143;100 mA
76.9837808056346;-0.8990478515625;-0.112640380859375;1.4299999963896;144;100 mA
76.9937808056094;-0.9002685546875;-0.115325927734375;1.43999999636435;145;100 mA
77.0037808055841;-0.89935302734375;-0.11297607421875;1.4499999963391;146;100 mA
77.0137808055589;-0.9002685546875;-0.113494873046875;1.45999999631385;147;100 mA
77.0237808055336;-0.899658203125;-0.113006591796875;1.46999999628861;148;100 mA
77.0337808055084;-0.89935302734375;-0.114044189453125;1.47999999626336;149;100 mA
77.0437808054832;-0.899658203125;-0.112945556640625;1.48999999623811;150;100 mA
77.0537808054579;-0.899658203125;-0.112884521484375;1.49999999621286;151;100 mA
77.0637808054327;-0.89874267578125;-0.112213134765625;1.50999999618762;152;100 mA
77.0737808054074;-0.8990478515625;-0.114471435546875;1.51999999616237;153;100 mA
77.0837808053822;-0.899658203125;-0.111480712890625;1.52999999613712;154;100 mA
77.0937808053569;-0.89935302734375;-0.112579345703125;1.53999999611187;155;100 mA
77.1037808053317;-0.8990478515625;-0.111175537109375;1.54999999608663;156;100 mA
77.1137808053064;-0.8990478515625;-0.11370849609375;1.55999999606138;157;100 mA
77.1237808052812;-0.899658203125;-0.112579345703125;1.56999999603613;158;100 mA
77.1337808052559;-0.89996337890625;-0.11285400390625;1.57999999601088;159;100 mA
77.1437808052307;-0.89996337890625;-0.113372802734375;1.58999999598564;160;100 mA
77.1537808052054;-0.89935302734375;-0.11431884765625;1.59999999596039;161;100 mA
77.1637808051802;-0.89935302734375;-0.11224365234375;1.60999999593514;162;100 mA
77.1737808051549;-0.89935302734375;-0.11248779296875;1.61999999590989;163;100 mA
77.1837808051297;-0.8990478515625;-0.110809326171875;1.62999999588465;164;100 mA
77.1937808051044;-0.899658203125;-0.11346435546875;1.6399999958594;165;100 mA
77.2037808050792;-0.89935302734375;-0.1107177734375;1.64999999583415;166;100 mA
77.2137808050539;-0.899658203125;-0.111572265625;1.6599999958089;167;100 mA
77.2237808050287;-0.89935302734375;-0.111328125;1.66999999578366;168;100 mA
77.2337808050034;-0.89935302734375;-0.112823486328125;1.67999999575841;169;100 mA
77.2437808049782;-0.899658203125;-0.112152099609375;1.68999999573316;170;100 mA
77.253780804953;-0.89935302734375;-0.111358642578125;1.69999999570791;171;100 mA
77.2637808049277;-0.89935302734375;-0.110443115234375;1.70999999568267;172;100 mA
77.2737808049025;-0.899658203125;-0.112396240234375;1.71999999565742;173;100 mA
77.2837808048772;-0.899658203125;-0.110137939453125;1.72999999563217;174;100 mA
77.293780804852;-0.8990478515625;-0.111663818359375;1.73999999560692;175;100 mA
77.3037808048267;-0.89874267578125;-0.11065673828125;1.74999999558167;176;100 mA
77.3137808048015;-0.89935302734375;-0.113494873046875;1.75999999555643;177;100 mA
77.3237808047762;-0.89935302734375;-0.11248779296875;1.76999999553118;178;100 mA
77.333780804751;-0.89935302734375;-0.112518310546875;1.77999999550593;179;100 mA
77.3437808047257;-0.899658203125;-0.11224365234375;1.78999999548068;180;100 mA
77.3537808047005;-0.9002685546875;-0.11309814453125;1.79999999545544;181;100 mA
77.3637808046752;-0.89935302734375;-0.1116943359375;1.80999999543019;182;100 mA
77.37378080465;-0.89996337890625;-0.111663818359375;1.81999999540494;183;100 mA
77.3837808046247;-0.899658203125;-0.110076904296875;1.82999999537969;184;100 mA
77.3937808045995;-0.9002685546875;-0.11285400390625;1.83999999535445;185;100 mA
77.4037808045742;-0.899658203125;-0.11090087890625;1.8499999953292;186;100 mA
77.413780804549;-0.89935302734375;-0.11224365234375;1.85999999530395;187;100 mA
77.4237808045237;-0.899658203125;-0.11090087890625;1.8699999952787;188;100 mA
77.4337808044985;-0.899658203125;-0.11175537109375;1.87999999525346;189;100 mA
77.4437808044732;-0.89935302734375;-0.11114501953125;1.88999999522821;190;100 mA
77.453780804448;-0.899658203125;-0.110626220703125;1.89999999520296;191;100 mA
77.4637808044228;-0.8990478515625;-0.110015869140625;1.90999999517771;192;100 mA
77.4737808043975;-0.899658203125;-0.111358642578125;1.91999999515247;193;100 mA
77.4837808043723;-0.89935302734375;-0.10906982421875;1.92999999512722;194;100 mA
77.493780804347;-0.899658203125;-0.11004638671875;1.93999999510197;195;100 mA
77.5037808043218;-0.899658203125;-0.10882568359375;1.94999999507672;196;100 mA
77.5137808042965;-0.89996337890625;-0.11114501953125;1.95999999505148;197;100 mA
77.5237808042713;-0.89935302734375;-0.110198974609375;1.96999999502623;198;100 mA
77.533780804246;-0.899658203125;-0.110626220703125;1.97999999500098;199;100 mA
77.5437808042208;-0.899658203125;-0.110809326171875;1.98999999497573;200;100 mA
77.5537808041955;-0.899658203125;-0.111907958984375;1.99999999495049;201;100 mA
77.5637808041703;-0.89935302734375;-0.111083984375;2.00999999492524;202;100 mA
77.573780804145;-0.899658203125;-0.11083984375;2.01999999489999;203;100 mA
77.5837808041198;-0.89935302734375;-0.10919189453125;2.02999999487474;204;100 mA
77.5937808040945;-0.89874267578125;-0.11138916015625;2.0399999948495;205;100 mA
77.6037808040693;-0.899658203125;-0.108795166015625;2.04999999482425;206;100 mA
77.613780804044;-0.9002685546875;-0.1099853515625;2.059999994799;207;100 mA
77.6237808040188;-0.89935302734375;-0.10931396484375;2.06999999477375;208;100 mA
77.6337808039935;-0.89935302734375;-0.111114501953125;2.0799999947485;209;100 mA
77.6437808039683;-0.899658203125;-0.110748291015625;2.08999999472326;210;100 mA
77.6537808039431;-0.89935302734375;-0.110107421875;2.09999999469801;211;100 mA
77.6637808039178;-0.89935302734375;-0.109375;2.10999999467276;212;100 mA
77.6737808038926;-0.89935302734375;-0.110870361328125;2.11999999464751;213;100 mA
77.6837808038673;-0.899658203125;-0.1087646484375;2.12999999462227;214;100 mA
77.6937808038421;-0.89935302734375;-0.10943603515625;2.13999999459702;215;100 mA
77.7037808038168;-0.89935302734375;-0.107696533203125;2.14999999457177;216;100 mA
77.7137808037916;-0.89935302734375;-0.110137939453125;2.15999999454652;217;100 mA
77.7237808037663;-0.899658203125;-0.1092529296875;2.16999999452128;218;100 mA
77.7337808037411;-0.89935302734375;-0.11016845703125;2.17999999449603;219;100 mA
77.7437808037158;-0.89935302734375;-0.1099853515625;2.18999999447078;220;100 mA
77.7537808036906;-0.899658203125;-0.11053466796875;2.19999999444553;221;100 mA
77.7637808036653;-0.899658203125;-0.1092529296875;2.20999999442029;222;100 mA
77.7737808036401;-0.89935302734375;-0.109161376953125;2.21999999439504;223;100 mA
77.7837808036148;-0.899658203125;-0.108154296875;2.22999999436979;224;100 mA
77.7937808035896;-0.89935302734375;-0.110321044921875;2.23999999434454;225;100 mA
77.8037808035643;-0.89935302734375;-0.107940673828125;2.2499999943193;226;100 mA
77.8137808035391;-0.9002685546875;-0.10919189453125;2.25999999429405;227;100 mA
77.8237808035138;-0.899658203125;-0.108001708984375;2.2699999942688;228;100 mA
77.8337808034886;-0.899658203125;-0.10955810546875;2.27999999424355;229;100 mA
77.8437808034633;-0.899658203125;-0.10919189453125;2.28999999421831;230;100 mA
77.8537808034381;-0.89996337890625;-0.1092529296875;2.29999999419306;231;100 mA
77.8637808034129;-0.899658203125;-0.109344482421875;2.30999999416781;232;100 mA
77.8737808033876;-0.8990478515625;-0.110870361328125;2.31999999414256;233;100 mA
77.8837808033624;-0.899658203125;-0.10931396484375;2.32999999411732;234;100 mA
77.8937808033371;-0.89996337890625;-0.109954833984375;2.33999999409207;235;100 mA
77.9037808033119;-0.89874267578125;-0.108795166015625;2.34999999406682;236;100 mA
77.9137808032866;-0.899658203125;-0.11151123046875;2.35999999404157;237;100 mA
77.9237808032614;-0.89935302734375;-0.11053466796875;2.36999999401633;238;100 mA
77.9337808032361;-0.899658203125;-0.1114501953125;2.37999999399108;239;100 mA
77.9437808032109;-0.899658203125;-0.110992431640625;2.38999999396583;240;100 mA
77.9537808031856;-0.899658203125;-0.112060546875;2.39999999394058;241;100 mA
77.9637808031604;-0.89935302734375;-0.11126708984375;2.40999999391533;242;100 mA
77.9737808031351;-0.899658203125;-0.110748291015625;2.41999999389009;243;100 mA
77.9837808031099;-0.89996337890625;-0.10992431640625;2.42999999386484;244;100 mA
77.9937808030846;-0.899658203125;-0.11175537109375;2.43999999383959;245;100 mA
78.0037808030594;-0.89935302734375;-0.109466552734375;2.44999999381434;246;100 mA
78.0137808030341;-0.89874267578125;-0.110321044921875;2.4599999937891;247;100 mA
78.0237808030089;-0.899658203125;-0.108917236328125;2.46999999376385;248;100 mA
78.0337808029836;-0.89935302734375;-0.1112060546875;2.4799999937386;249;100 mA
78.0437808029584;-0.899658203125;-0.110931396484375;2.48999999371335;250;100 mA
78.0537808029331;-0.89935302734375;-0.111480712890625;2.49999999368811;251;100 mA
78.0637808029079;-0.899658203125;-0.1112060546875;2.50999999366286;252;100 mA
78.0737808028827;-0.89996337890625;-0.11175537109375;2.51999999363761;253;100 mA
78.0837808028574;-0.89935302734375;-0.10992431640625;2.52999999361236;254;100 mA
78.0937808028322;-0.89874267578125;-0.109619140625;2.53999999358712;255;100 mA
78.1037808028069;-0.89935302734375;-0.10797119140625;2.54999999356187;256;100 mA
78.1137808027817;-0.899658203125;-0.1099853515625;2.55999999353662;257;100 mA
78.1237808027564;-0.8990478515625;-0.108154296875;2.56999999351137;258;100 mA
78.1337808027312;-0.89935302734375;-0.109375;2.57999999348613;259;100 mA
78.1437808027059;-0.899658203125;-0.108917236328125;2.58999999346088;260;100 mA
78.1537808026807;-0.899658203125;-0.10986328125;2.59999999343563;261;100 mA
78.1637808026554;-0.89935302734375;-0.109375;2.60999999341038;262;100 mA
78.1737808026302;-0.89996337890625;-0.10894775390625;2.61999999338514;263;100 mA
78.1837808026049;-0.899658203125;-0.108428955078125;2.62999999335989;264;100 mA
78.1937808025797;-0.89935302734375;-0.110076904296875;2.63999999333464;265;100 mA
78.2037808025544;-0.89996337890625;-0.107818603515625;2.64999999330939;266;100 mA
78.2137808025292;-0.899658203125;-0.10809326171875;2.65999999328415;267;100 mA
78.2237808025039;-0.8990478515625;-0.106903076171875;2.6699999932589;268;100 mA
78.2337808024787;-0.899658203125;-0.10906982421875;2.67999999323365;269;100 mA
78.2437808024534;-0.89996337890625;-0.108154296875;2.6899999932084;270;100 mA
78.2537808024282;-0.899658203125;-0.10809326171875;2.69999999318316;271;100 mA
78.2637808024029;-0.89935302734375;-0.107818603515625;2.70999999315791;272;100 mA
78.2737808023777;-0.899658203125;-0.10906982421875;2.71999999313266;273;100 mA
78.2837808023525;-0.89996337890625;-0.1082763671875;2.72999999310741;274;100 mA
78.2937808023272;-0.8990478515625;-0.1082763671875;2.73999999308217;275;100 mA
78.303780802302;-0.89996337890625;-0.106964111328125;2.74999999305692;276;100 mA
78.3137808022767;-0.899658203125;-0.10931396484375;2.75999999303167;277;100 mA
78.3237808022515;-0.89935302734375;-0.107879638671875;2.76999999300642;278;100 mA
78.3337808022262;-0.899658203125;-0.1097412109375;2.77999999298117;279;100 mA
78.343780802201;-0.899658203125;-0.110015869140625;2.78999999295593;280;100 mA
78.3537808021757;-0.899658203125;-0.11163330078125;2.79999999293068;281;100 mA
78.3637808021505;-0.89996337890625;-0.11102294921875;2.80999999290543;282;100 mA
78.3737808021252;-0.8990478515625;-0.110443115234375;2.81999999288018;283;100 mA
78.3837808021;-0.899658203125;-0.1097412109375;2.82999999285494;284;100 mA
78.3937808020747;-0.89996337890625;-0.110626220703125;2.83999999282969;285;100 mA
78.4037808020495;-0.9002685546875;-0.1087646484375;2.84999999280444;286;100 mA
78.4137808020242;-0.899658203125;-0.10919189453125;2.85999999277919;287;100 mA
78.423780801999;-0.8990478515625;-0.107666015625;2.86999999275395;288;100 mA
78.4337808019737;-0.89996337890625;-0.11004638671875;2.8799999927287;289;100 mA
78.4437808019485;-0.899658203125;-0.10919189453125;2.88999999270345;290;100 mA
78.4537808019232;-0.899658203125;-0.110382080078125;2.8999999926782;291;100 mA
78.463780801898;-0.899658203125;-0.110198974609375;2.90999999265296;292;100 mA
78.4737808018727;-0.899658203125;-0.11090087890625;2.91999999262771;293;100 mA
78.4837808018475;-0.899658203125;-0.109893798828125;2.92999999260246;294;100 mA
78.4937808018223;-0.899658203125;-0.10955810546875;2.93999999257721;295;100 mA
78.503780801797;-0.899658203125;-0.108367919921875;2.94999999255197;296;100 mA
78.5137808017718;-0.89874267578125;-0.1107177734375;2.95999999252672;297;100 mA
78.5237808017465;-0.899658203125;-0.109466552734375;2.96999999250147;298;100 mA
78.5337808017213;-0.8990478515625;-0.11004638671875;2.97999999247622;299;100 mA
78.543780801696;-0.8990478515625;-0.10870361328125;2.98999999245098;300;100 mA
78.5537808016708;-0.89935302734375;-0.1103515625;2.99999999242573;301;100 mA
78.5637808016455;-0.89996337890625;-0.110443115234375;3.00999999240048;302;100 mA
78.5737808016203;-0.899658203125;-0.11041259765625;3.01999999237523;303;100 mA
78.583780801595;-0.899658203125;-0.10980224609375;3.02999999234999;304;100 mA
78.5937808015698;-0.89935302734375;-0.110443115234375;3.03999999232474;305;100 mA
78.6037808015445;-0.8990478515625;-0.109100341796875;3.04999999229949;306;100 mA
78.6137808015193;-0.89996337890625;-0.10980224609375;3.05999999227424;307;100 mA
78.623780801494;-0.9002685546875;-0.1085205078125;3.069999992249;308;100 mA
78.6337808014688;-0.899658203125;-0.1103515625;3.07999999222375;309;100 mA
78.6437808014435;-0.899658203125;-0.109619140625;3.0899999921985;310;100 mA
78.6537808014183;-0.89935302734375;-0.1104736328125;3.09999999217325;311;100 mA
78.663780801393;-0.899658203125;-0.10980224609375;3.109999992148;312;100 mA
78.6737808013678;-0.89996337890625;-0.11053466796875;3.11999999212276;313;100 mA
78.6837808013426;-0.89935302734375;-0.110198974609375;3.12999999209751;314;100 mA
78.6937808013173;-0.899658203125;-0.110321044921875;3.13999999207226;315;100 mA
78.7037808012921;-0.899658203125;-0.10943603515625;3.14999999204701;316;100 mA
78.7137808012668;-0.8990478515625;-0.11090087890625;3.15999999202177;317;100 mA
78.7237808012416;-0.89935302734375;-0.10870361328125;3.16999999199652;318;100 mA
78.7337808012163;-0.89996337890625;-0.109375;3.17999999197127;319;100 mA
78.7437808011911;-0.89996337890625;-0.108367919921875;3.18999999194602;320;100 mA
78.7537808011658;-0.899658203125;-0.1099853515625;3.19999999192078;321;100 mA
78.7637808011406;-0.899658203125;-0.109710693359375;3.20999999189553;322;100 mA
78.7737808011153;-0.89935302734375;-0.10980224609375;3.21999999187028;323;100 mA
78.7837808010901;-0.8990478515625;-0.10955810546875;3.22999999184503;324;100 mA
78.7937808010648;-0.899658203125;-0.11053466796875;3.23999999181979;325;100 mA
78.8037808010396;-0.89935302734375;-0.109161376953125;3.24999999179454;326;100 mA
78.8137808010143;-0.899658203125;-0.109588623046875;3.25999999176929;327;100 mA
78.8237808009891;-0.899658203125;-0.10821533203125;3.26999999174404;328;100 mA
78.8337808009638;-0.89935302734375;-0.110321044921875;3.2799999917188;329;100 mA
78.8437808009386;-0.89996337890625;-0.1092529296875;3.28999999169355;330;100 mA
78.8537808009133;-0.89996337890625;-0.11077880859375;3.2999999916683;331;100 mA
78.8637808008881;-0.899658203125;-0.11077880859375;3.30999999164305;332;100 mA
78.8737808008628;-0.89935302734375;-0.111724853515625;3.31999999161781;333;100 mA
78.8837808008376;-0.89935302734375;-0.11083984375;3.32999999159256;334;100 mA
78.8937808008124;-0.899658203125;-0.1103515625;3.33999999156731;335;100 mA
78.9037808007871;-0.8990478515625;-0.109375;3.34999999154206;336;100 mA
78.9137808007619;-0.8990478515625;-0.1109619140625;3.35999999151682;337;100 mA
78.9237808007366;-0.89996337890625;-0.109161376953125;3.36999999149157;338;100 mA
78.9337808007114;-0.89935302734375;-0.11041259765625;3.37999999146632;339;100 mA
78.9437808006861;-0.89935302734375;-0.109344482421875;3.38999999144107;340;100 mA
78.9537808006609;-0.899658203125;-0.110992431640625;3.39999999141583;341;100 mA
78.9637808006356;-0.899658203125;-0.110626220703125;3.40999999139058;342;100 mA
78.9737808006104;-0.89935302734375;-0.1109619140625;3.41999999136533;343;100 mA
78.9837808005851;-0.899658203125;-0.11090087890625;3.42999999134008;344;100 mA
78.9937808005599;-0.89935302734375;-0.11151123046875;3.43999999131483;345;100 mA
79.0037808005346;-0.89996337890625;-0.110198974609375;3.44999999128959;346;100 mA
79.0137808005094;-0.89935302734375;-0.110015869140625;3.45999999126434;347;100 mA
79.0237808004841;-0.89935302734375;-0.10821533203125;3.46999999123909;348;100 mA
79.0337808004589;-0.89935302734375;-0.109771728515625;3.47999999121384;349;100 mA
79.0437808004336;-0.89996337890625;-0.108367919921875;3.4899999911886;350;100 mA
79.0537808004084;-0.89935302734375;-0.10955810546875;3.49999999116335;351;100 mA
79.0637808003831;-0.89935302734375;-0.10894775390625;3.5099999911381;352;100 mA
79.0737808003579;-0.899658203125;-0.109527587890625;3.51999999111285;353;100 mA
79.0837808003326;-0.89935302734375;-0.108917236328125;3.52999999108761;354;100 mA
79.0937808003074;-0.899658203125;-0.10858154296875;3.53999999106236;355;100 mA
79.1037808002822;-0.9002685546875;-0.10791015625;3.54999999103711;356;100 mA
79.1137808002569;-0.89996337890625;-0.109039306640625;3.55999999101186;357;100 mA
79.1237808002317;-0.89935302734375;-0.10736083984375;3.56999999098662;358;100 mA
79.1337808002064;-0.89935302734375;-0.107879638671875;3.57999999096137;359;100 mA
79.1437808001812;-0.89935302734375;-0.106781005859375;3.58999999093612;360;100 mA
79.1537808001559;-0.89996337890625;-0.108612060546875;3.59999999091087;361;100 mA
79.1637808001307;-0.89935302734375;-0.107879638671875;3.60999999088563;362;100 mA
79.1737808001054;-0.89935302734375;-0.10858154296875;3.61999999086038;363;100 mA
79.1837808000802;-0.8990478515625;-0.108978271484375;3.62999999083513;364;100 mA
79.1937808000549;-0.899658203125;-0.110137939453125;3.63999999080988;365;100 mA
79.2037808000297;-0.89935302734375;-0.1087646484375;3.64999999078464;366;100 mA
79.2137808000044;-0.89996337890625;-0.108062744140625;3.65999999075939;367;100 mA
79.2237807999792;-0.89935302734375;-0.10638427734375;3.66999999073414;368;100 mA
79.2337807999539;-0.89935302734375;-0.1080322265625;3.67999999070889;369;100 mA
79.2437807999287;-0.89935302734375;-0.10662841796875;3.68999999068365;370;100 mA
79.2537807999034;-0.899658203125;-0.10748291015625;3.6999999906584;371;100 mA
79.2637807998782;-0.899658203125;-0.106842041015625;3.70999999063315;372;100 mA
79.2737807998529;-0.899658203125;-0.108306884765625;3.7199999906079;373;100 mA
79.2837807998277;-0.89935302734375;-0.108154296875;3.72999999058266;374;100 mA
79.2937807998024;-0.89996337890625;-0.108154296875;3.73999999055741;375;100 mA
79.3037807997772;-0.899658203125;-0.108184814453125;3.74999999053216;376;100 mA
79.313780799752;-0.89935302734375;-0.10968017578125;3.75999999050691;377;100 mA
79.3237807997267;-0.899658203125;-0.108184814453125;3.76999999048167;378;100 mA
79.3337807997015;-0.89935302734375;-0.1087646484375;3.77999999045642;379;100 mA
79.3437807996762;-0.899658203125;-0.107574462890625;3.78999999043117;380;100 mA
79.353780799651;-0.8990478515625;-0.1092529296875;3.79999999040592;381;100 mA
79.3637807996257;-0.899658203125;-0.108306884765625;3.80999999038067;382;100 mA
79.3737807996005;-0.89996337890625;-0.109100341796875;3.81999999035543;383;100 mA
79.3837807995752;-0.89935302734375;-0.108856201171875;3.82999999033018;384;100 mA
79.39378079955;-0.89935302734375;-0.109466552734375;3.83999999030493;385;100 mA
79.4037807995247;-0.89935302734375;-0.1083984375;3.84999999027968;386;100 mA
79.4137807994995;-0.899658203125;-0.10809326171875;3.85999999025444;387;100 mA
79.4237807994742;-0.8990478515625;-0.106964111328125;3.86999999022919;388;100 mA
79.433780799449;-0.89935302734375;-0.108489990234375;3.87999999020394;389;100 mA
79.4437807994237;-0.899658203125;-0.10662841796875;3.88999999017869;390;100 mA
79.4537807993985;-0.89935302734375;-0.10784912109375;3.89999999015345;391;100 mA
79.4637807993732;-0.89996337890625;-0.1072998046875;3.9099999901282;392;100 mA
79.473780799348;-0.899658203125;-0.108856201171875;3.91999999010295;393;100 mA
79.4837807993227;-0.89935302734375;-0.108734130859375;3.9299999900777;394;100 mA
79.4937807992975;-0.899658203125;-0.10919189453125;3.93999999005246;395;100 mA
79.5037807992722;-0.89996337890625;-0.109222412109375;3.94999999002721;396;100 mA
79.513780799247;-0.89996337890625;-0.1102294921875;3.95999999000196;397;100 mA
79.5237807992218;-0.899658203125;-0.108673095703125;3.96999998997671;398;100 mA
79.5337807991965;-0.89935302734375;-0.109161376953125;3.97999998995147;399;100 mA
79.5437807991713;-0.89935302734375;-0.108001708984375;3.98999998992622;400;100 mA
79.553780799146;-0.899658203125;-0.109832763671875;3.99999998990097;401;100 mA
79.5637807991208;-0.9002685546875;-0.10858154296875;4.00999998987572;402;100 mA
79.5737807990955;-0.89935302734375;-0.109161376953125;4.01999998985048;403;100 mA
79.5837807990703;-0.89996337890625;-0.108978271484375;4.02999998982523;404;100 mA
79.593780799045;-0.89996337890625;-0.109954833984375;4.03999998979998;405;100 mA
79.6037807990198;-0.89996337890625;-0.1097412109375;4.04999998977473;406;100 mA
79.6137807989945;-0.899658203125;-0.10955810546875;4.05999998974949;407;100 mA
79.6237807989693;-0.89935302734375;-0.108978271484375;4.06999998972424;408;100 mA
79.633780798944;-0.9002685546875;-0.110626220703125;4.07999998969899;409;100 mA
79.6437807989188;-0.8990478515625;-0.108917236328125;4.08999998967374;410;100 mA
79.6537807988935;-0.899658203125;-0.10894775390625;4.0999999896485;411;100 mA
79.6637807988683;-0.899658203125;-0.107177734375;4.10999998962325;412;100 mA
79.673780798843;-0.89996337890625;-0.10833740234375;4.119999989598;413;100 mA
79.6837807988178;-0.89935302734375;-0.107757568359375;4.12999998957275;414;100 mA
79.6937807987925;-0.899658203125;-0.107940673828125;4.1399999895475;415;100 mA
79.7037807987673;-0.899658203125;-0.107574462890625;4.14999998952226;416;100 mA
79.7137807987421;-0.89996337890625;-0.10833740234375;4.15999998949701;417;100 mA
79.7237807987168;-0.899658203125;-0.107208251953125;4.16999998947176;418;100 mA
79.7337807986916;-0.8990478515625;-0.107147216796875;4.17999998944651;419;100 mA
79.7437807986663;-0.89935302734375;-0.1060791015625;4.18999998942127;420;100 mA
79.7537807986411;-0.89996337890625;-0.108245849609375;4.19999998939602;421;100 mA
79.7637807986158;-0.89935302734375;-0.107025146484375;4.20999998937077;422;100 mA
79.7737807985906;-0.8990478515625;-0.10809326171875;4.21999998934552;423;100 mA
79.7837807985653;-0.89935302734375;-0.107513427734375;4.22999998932028;424;100 mA
79.7937807985401;-0.89935302734375;-0.108062744140625;4.23999998929503;425;100 mA
79.8037807985148;-0.89996337890625;-0.107177734375;4.24999998926978;426;100 mA
79.8137807984896;-0.899658203125;-0.106689453125;4.25999998924453;427;100 mA
79.8237807984643;-0.89996337890625;-0.10577392578125;4.26999998921929;428;100 mA
79.8337807984391;-0.899658203125;-0.106964111328125;4.27999998919404;429;100 mA
79.8437807984138;-0.899658203125;-0.10565185546875;4.28999998916879;430;100 mA
79.8537807983886;-0.8990478515625;-0.106414794921875;4.29999998914354;431;100 mA
79.8637807983633;-0.89935302734375;-0.105377197265625;4.3099999891183;432;100 mA
79.8737807983381;-0.89935302734375;-0.107208251953125;4.31999998909305;433;100 mA
79.8837807983128;-0.89935302734375;-0.106658935546875;4.3299999890678;434;100 mA
79.8937807982876;-0.89935302734375;-0.10748291015625;4.33999998904255;435;100 mA
79.9037807982623;-0.89996337890625;-0.107635498046875;4.34999998901731;436;100 mA
79.9137807982371;-0.89935302734375;-0.108734130859375;4.35999998899206;437;100 mA
79.9237807982119;-0.89935302734375;-0.1080322265625;4.36999998896681;438;100 mA
79.9337807981866;-0.8990478515625;-0.107940673828125;4.37999998894156;439;100 mA
79.9437807981614;-0.89935302734375;-0.1070556640625;4.38999998891632;440;100 mA
79.9537807981361;-0.89935302734375;-0.1090087890625;4.39999998889107;441;100 mA
79.9637807981109;-0.899658203125;-0.10784912109375;4.40999998886582;442;100 mA
79.9737807980856;-0.899658203125;-0.108856201171875;4.41999998884057;443;100 mA
79.9837807980604;-0.899658203125;-0.108245849609375;4.42999998881533;444;100 mA
79.9937807980351;-0.89935302734375;-0.109344482421875;4.43999998879008;445;100 mA
80.0037807980099;-0.8990478515625;-0.1087646484375;4.44999998876483;446;100 mA
80.0137807979846;-0.899658203125;-0.108306884765625;4.45999998873958;447;100 mA
80.0237807979594;-0.899658203125;-0.10772705078125;4.46999998871433;448;100 mA
80.0337807979341;-0.899658203125;-0.108612060546875;4.47999998868909;449;100 mA
80.0437807979089;-0.899658203125;-0.106842041015625;4.48999998866384;450;100 mA
80.0537807978836;-0.89935302734375;-0.1075439453125;4.49999998863859;451;100 mA
80.0637807978584;-0.89935302734375;-0.10650634765625;4.50999998861334;452;100 mA
80.0737807978331;-0.89935302734375;-0.108612060546875;4.5199999885881;453;100 mA
80.0837807978079;-0.899658203125;-0.108184814453125;4.52999998856285;454;100 mA
80.0937807977826;-0.89935302734375;-0.10919189453125;4.5399999885376;455;100 mA
80.1037807977574;-0.899658203125;-0.10906982421875;4.54999998851235;456;100 mA
80.1137807977321;-0.89996337890625;-0.109649658203125;4.55999998848711;457;100 mA
80.1237807977069;-0.899658203125;-0.109130859375;4.56999998846186;458;100 mA
80.1337807976817;-0.89935302734375;-0.108917236328125;4.57999998843661;459;100 mA
80.1437807976564;-0.8990478515625;-0.107666015625;4.58999998841136;460;100 mA
80.1537807976312;-0.89935302734375;-0.10906982421875;4.59999998838612;461;100 mA
80.1637807976059;-0.9002685546875;-0.10748291015625;4.60999998836087;462;100 mA
80.1737807975807;-0.89935302734375;-0.10772705078125;4.61999998833562;463;100 mA
80.1837807975554;-0.899658203125;-0.106689453125;4.62999998831037;464;100 mA
80.1937807975302;-0.89935302734375;-0.10797119140625;4.63999998828513;465;100 mA
80.2037807975049;-0.8990478515625;-0.107879638671875;4.64999998825988;466;100 mA
80.2137807974797;-0.899658203125;-0.107818603515625;4.65999998823463;467;100 mA
80.2237807974544;-0.899658203125;-0.107513427734375;4.66999998820938;468;100 mA
80.2337807974292;-0.899658203125;-0.108795166015625;4.67999998818414;469;100 mA
80.2437807974039;-0.89935302734375;-0.107879638671875;4.68999998815889;470;100 mA
80.2537807973787;-0.899658203125;-0.107940673828125;4.69999998813364;471;100 mA
80.2637807973534;-0.89935302734375;-0.106536865234375;4.70999998810839;472;100 mA
80.2737807973282;-0.89935302734375;-0.10821533203125;4.71999998808315;473;100 mA
80.2837807973029;-0.899658203125;-0.10748291015625;4.7299999880579;474;100 mA
80.2937807972777;-0.89935302734375;-0.108154296875;4.73999998803265;475;100 mA
80.3037807972524;-0.899658203125;-0.10797119140625;4.7499999880074;476;100 mA
80.3137807972272;-0.899658203125;-0.108673095703125;4.75999998798216;477;100 mA
80.3237807972019;-0.89935302734375;-0.1083984375;4.76999998795691;478;100 mA
80.3337807971767;-0.8990478515625;-0.10833740234375;4.77999998793166;479;100 mA
80.3437807971515;-0.89996337890625;-0.107208251953125;4.78999998790641;480;100 mA
80.3537807971262;-0.899658203125;-0.10797119140625;4.79999998788116;481;100 mA
80.363780797101;-0.89935302734375;-0.106109619140625;4.80999998785592;482;100 mA
80.3737807970757;-0.899658203125;-0.106292724609375;4.81999998783067;483;100 mA
80.3837807970505;-0.89935302734375;-0.105072021484375;4.82999998780542;484;100 mA
80.3937807970252;-0.89935302734375;-0.106109619140625;4.83999998778017;485;100 mA
80.403780797;-0.899658203125;-0.105621337890625;4.84999998775493;486;100 mA
80.4137807969747;-0.89996337890625;-0.10614013671875;4.85999998772968;487;100 mA
80.4237807969495;-0.8990478515625;-0.106353759765625;4.86999998770443;488;100 mA
80.4337807969242;-0.89935302734375;-0.10699462890625;4.87999998767918;489;100 mA
80.443780796899;-0.89935302734375;-0.10595703125;4.88999998765394;490;100 mA
80.4537807968737;-0.899658203125;-0.105987548828125;4.89999998762869;491;100 mA
80.4637807968485;-0.899658203125;-0.104949951171875;4.90999998760344;492;100 mA
80.4737807968232;-0.899658203125;-0.1065673828125;4.91999998757819;493;100 mA
80.483780796798;-0.89935302734375;-0.105255126953125;4.92999998755295;494;100 mA
80.4937807967727;-0.89935302734375;-0.1055908203125;4.9399999875277;495;100 mA
80.5037807967475;-0.899658203125;-0.10516357421875;4.94999998750245;496;100 mA
80.5137807967222;-0.8990478515625;-0.106048583984375;4.9599999874772;497;100 mA
80.523780796697;-0.89935302734375;-0.10577392578125;4.96999998745196;498;100 mA
80.5337807966717;-0.899658203125;-0.10577392578125;4.97999998742671;499;100 mA
80.5437807966465;-0.899658203125;-0.105560302734375;4.98999998740146;500;100 mA
80.5537807966213;-0.8990478515625;-0.106536865234375;4.99999998737621;501;100 mA
80.563780796596;-0.899658203125;-0.105255126953125;5.00999998735097;502;100 mA
80.5737807965708;-0.899658203125;-0.10601806640625;5.01999998732572;503;100 mA
80.5837807965455;-0.899658203125;-0.10498046875;5.02999998730047;504;100 mA
80.5937807965203;-0.899658203125;-0.106170654296875;5.03999998727522;505;100 mA
80.603780796495;-0.89935302734375;-0.105194091796875;5.04999998724998;506;100 mA
80.6137807964698;-0.899658203125;-0.105377197265625;5.05999998722473;507;100 mA
80.6237807964445;-0.899658203125;-0.1053466796875;5.06999998719948;508;100 mA
80.6337807964193;-0.89935302734375;-0.10614013671875;5.07999998717423;509;100 mA
80.643780796394;-0.8990478515625;-0.10552978515625;5.08999998714899;510;100 mA
80.6537807963688;-0.899658203125;-0.105804443359375;5.09999998712374;511;100 mA
80.6637807963435;-0.89935302734375;-0.105010986328125;5.10999998709849;512;100 mA
80.6737807963183;-0.899658203125;-0.10626220703125;5.11999998707324;513;100 mA
80.683780796293;-0.89935302734375;-0.1048583984375;5.129999987048;514;100 mA
80.6937807962678;-0.8990478515625;-0.105224609375;5.13999998702275;515;100 mA
80.7037807962425;-0.89996337890625;-0.10406494140625;5.1499999869975;516;100 mA
80.7137807962173;-0.89935302734375;-0.10491943359375;5.15999998697225;517;100 mA
80.723780796192;-0.89935302734375;-0.10443115234375;5.169999986947;518;100 mA
80.7337807961668;-0.899658203125;-0.10430908203125;5.17999998692176;519;100 mA
80.7437807961416;-0.89935302734375;-0.10400390625;5.18999998689651;520;100 mA
80.7537807961163;-0.899658203125;-0.1048583984375;5.19999998687126;521;100 mA
80.7637807960911;-0.8990478515625;-0.103851318359375;5.20999998684601;522;100 mA
80.7737807960658;-0.899658203125;-0.10455322265625;5.21999998682077;523;100 mA
80.7837807960406;-0.899658203125;-0.103973388671875;5.22999998679552;524;100 mA
80.7937807960153;-0.899658203125;-0.105560302734375;5.23999998677027;525;100 mA
80.8037807959901;-0.899658203125;-0.104400634765625;5.24999998674502;526;100 mA
80.8137807959648;-0.89935302734375;-0.104644775390625;5.25999998671978;527;100 mA
80.8237807959396;-0.8990478515625;-0.104034423828125;5.26999998669453;528;100 mA
80.8337807959143;-0.899658203125;-0.10455322265625;5.27999998666928;529;100 mA
80.8437807958891;-0.899658203125;-0.104156494140625;5.28999998664403;530;100 mA
80.8537807958638;-0.89996337890625;-0.104339599609375;5.29999998661879;531;100 mA
80.8637807958386;-0.89935302734375;-0.1038818359375;5.30999998659354;532;100 mA
80.8737807958133;-0.89935302734375;-0.105194091796875;5.31999998656829;533;100 mA
80.8837807957881;-0.89935302734375;-0.10357666015625;5.32999998654304;534;100 mA
80.8937807957628;-0.899658203125;-0.104217529296875;5.3399999865178;535;100 mA
80.9037807957376;-0.9002685546875;-0.10357666015625;5.34999998649255;536;100 mA
80.9137807957123;-0.899658203125;-0.104522705078125;5.3599999864673;537;100 mA
80.9237807956871;-0.8990478515625;-0.103912353515625;5.36999998644205;538;100 mA
80.9337807956618;-0.899658203125;-0.103851318359375;5.37999998641681;539;100 mA
80.9437807956366;-0.899658203125;-0.104095458984375;5.38999998639156;540;100 mA
80.9537807956114;-0.89996337890625;-0.104949951171875;5.39999998636631;541;100 mA
80.9637807955861;-0.89935302734375;-0.103851318359375;5.40999998634106;542;100 mA
80.9737807955609;-0.89935302734375;-0.104461669921875;5.41999998631582;543;100 mA
80.9837807955356;-0.899658203125;-0.1036376953125;5.42999998629057;544;100 mA
80.9937807955104;-0.899658203125;-0.1053466796875;5.43999998626532;545;100 mA
81.0037807954851;-0.89996337890625;-0.104339599609375;5.44999998624007;546;100 mA
81.0137807954599;-0.8990478515625;-0.104766845703125;5.45999998621483;547;100 mA
81.0237807954346;-0.899658203125;-0.10400390625;5.46999998618958;548;100 mA
81.0337807954094;-0.89935302734375;-0.104278564453125;5.47999998616433;549;100 mA
81.0437807953841;-0.89935302734375;-0.103546142578125;5.48999998613908;550;100 mA
81.0537807953589;-0.899658203125;-0.1033935546875;5.49999998611383;551;100 mA
81.0637807953336;-0.899658203125;-0.10272216796875;5.50999998608859;552;100 mA
81.0737807953084;-0.8990478515625;-0.10345458984375;5.51999998606334;553;100 mA
81.0837807952831;-0.89935302734375;-0.1019287109375;5.52999998603809;554;100 mA
81.0937807952579;-0.89935302734375;-0.1025390625;5.53999998601284;555;100 mA
81.1037807952326;-0.89935302734375;-0.101898193359375;5.5499999859876;556;100 mA
81.1137807952074;-0.899658203125;-0.103271484375;5.55999998596235;557;100 mA
81.1237807951821;-0.899658203125;-0.102630615234375;5.5699999859371;558;100 mA
81.1337807951569;-0.89935302734375;-0.1024169921875;5.57999998591185;559;100 mA
81.1437807951316;-0.899658203125;-0.102294921875;5.58999998588661;560;100 mA
81.1537807951064;-0.89935302734375;-0.10321044921875;5.59999998586136;561;100 mA
81.1637807950812;-0.9002685546875;-0.10247802734375;5.60999998583611;562;100 mA
81.1737807950559;-0.9002685546875;-0.102783203125;5.61999998581086;563;100 mA
81.1837807950307;-0.899658203125;-0.10174560546875;5.62999998578562;564;100 mA
81.1937807950054;-0.89996337890625;-0.10308837890625;5.63999998576037;565;100 mA
81.2037807949802;-0.89935302734375;-0.10150146484375;5.64999998573512;566;100 mA
81.2137807949549;-0.89996337890625;-0.10211181640625;5.65999998570987;567;100 mA
81.2237807949297;-0.899658203125;-0.101715087890625;5.66999998568463;568;100 mA
81.2337807949044;-0.89935302734375;-0.10284423828125;5.67999998565938;569;100 mA
81.2437807948792;-0.8990478515625;-0.1025390625;5.68999998563413;570;100 mA
81.2537807948539;-0.899658203125;-0.102569580078125;5.69999998560888;571;100 mA
81.2637807948287;-0.899658203125;-0.10260009765625;5.70999998558364;572;100 mA
81.2737807948034;-0.89996337890625;-0.103759765625;5.71999998555839;573;100 mA
81.2837807947782;-0.89996337890625;-0.102264404296875;5.72999998553314;574;100 mA
81.2937807947529;-0.899658203125;-0.10296630859375;5.73999998550789;575;100 mA
81.3037807947277;-0.89996337890625;-0.102203369140625;5.74999998548265;576;100 mA
81.3137807947024;-0.89996337890625;-0.1036376953125;5.7599999854574;577;100 mA
81.3237807946772;-0.899658203125;-0.102783203125;5.76999998543215;578;100 mA
81.3337807946519;-0.899658203125;-0.102935791015625;5.7799999854069;579;100 mA
81.3437807946267;-0.89935302734375;-0.102630615234375;5.78999998538166;580;100 mA
81.3537807946014;-0.89935302734375;-0.10321044921875;5.79999998535641;581;100 mA
81.3637807945762;-0.899658203125;-0.102386474609375;5.80999998533116;582;100 mA
81.373780794551;-0.899658203125;-0.1026611328125;5.81999998530591;583;100 mA
81.3837807945257;-0.89935302734375;-0.10211181640625;5.82999998528066;584;100 mA
81.3937807945005;-0.899658203125;-0.10357666015625;5.83999998525542;585;100 mA
81.4037807944752;-0.89996337890625;-0.10211181640625;5.84999998523017;586;100 mA
81.41378079445;-0.899658203125;-0.102630615234375;5.85999998520492;587;100 mA
81.4237807944247;-0.89935302734375;-0.101898193359375;5.86999998517967;588;100 mA
81.4337807943995;-0.89874267578125;-0.102874755859375;5.87999998515443;589;100 mA
81.4437807943742;-0.899658203125;-0.102691650390625;5.88999998512918;590;100 mA
81.453780794349;-0.89996337890625;-0.102874755859375;5.89999998510393;591;100 mA
81.4637807943237;-0.899658203125;-0.10302734375;5.90999998507868;592;100 mA
81.4737807942985;-0.899658203125;-0.104217529296875;5.91999998505344;593;100 mA
81.4837807942732;-0.8990478515625;-0.10296630859375;5.92999998502819;594;100 mA
81.493780794248;-0.899658203125;-0.103240966796875;5.93999998500294;595;100 mA
81.5037807942227;-0.899658203125;-0.10223388671875;5.94999998497769;596;100 mA
81.5137807941975;-0.899658203125;-0.103485107421875;5.95999998495245;597;100 mA
81.5237807941722;-0.89996337890625;-0.1024169921875;5.9699999849272;598;100 mA
81.533780794147;-0.89996337890625;-0.102813720703125;5.97999998490195;599;100 mA
81.5437807941217;-0.89935302734375;-0.102508544921875;5.9899999848767;600;100 mA
81.5537807940965;-0.89996337890625;-0.103271484375;5.99999998485146;601;100 mA
81.5637807940712;-0.8990478515625;-0.10308837890625;6.00999998482621;602;100 mA
81.573780794046;-0.89996337890625;-0.103179931640625;6.01999998480096;603;100 mA
81.5837807940208;-0.89996337890625;-0.10260009765625;6.02999998477571;604;100 mA
81.5937807939955;-0.89996337890625;-0.103729248046875;6.03999998475047;605;100 mA
81.6037807939703;-0.89935302734375;-0.102203369140625;6.04999998472522;606;100 mA
81.613780793945;-0.899658203125;-0.10308837890625;6.05999998469997;607;100 mA
81.6237807939198;-0.89996337890625;-0.102783203125;6.06999998467472;608;100 mA
81.6337807938945;-0.89996337890625;-0.103851318359375;6.07999998464948;609;100 mA
81.6437807938693;-0.89996337890625;-0.10333251953125;6.08999998462423;610;100 mA
81.653780793844;-0.899658203125;-0.103179931640625;6.09999998459898;611;100 mA
81.6637807938188;-0.89935302734375;-0.102874755859375;6.10999998457373;612;100 mA
81.6737807937935;-0.89935302734375;-0.1033935546875;6.11999998454849;613;100 mA
81.6837807937683;-0.89935302734375;-0.1021728515625;6.12999998452324;614;100 mA
81.693780793743;-0.899658203125;-0.1024169921875;6.13999998449799;615;100 mA
81.7037807937178;-0.89935302734375;-0.101348876953125;6.14999998447274;616;100 mA
81.7137807936925;-0.8990478515625;-0.10296630859375;6.1599999844475;617;100 mA
81.7237807936673;-0.8990478515625;-0.102020263671875;6.16999998442225;618;100 mA
81.733780793642;-0.899658203125;-0.102874755859375;6.179999984397;619;100 mA
81.7437807936168;-0.899658203125;-0.102691650390625;6.18999998437175;620;100 mA
81.7537807935915;-0.89935302734375;-0.103424072265625;6.1999999843465;621;100 mA
81.7637807935663;-0.89935302734375;-0.102996826171875;6.20999998432126;622;100 mA
81.7737807935411;-0.8990478515625;-0.102935791015625;6.21999998429601;623;100 mA
81.7837807935158;-0.89935302734375;-0.102508544921875;6.22999998427076;624;100 mA
81.7937807934906;-0.899658203125;-0.103729248046875;6.23999998424551;625;100 mA
81.8037807934653;-0.899658203125;-0.10211181640625;6.24999998422027;626;100 mA
81.8137807934401;-0.8990478515625;-0.102081298828125;6.25999998419502;627;100 mA
81.8237807934148;-0.89996337890625;-0.10107421875;6.26999998416977;628;100 mA
81.8337807933896;-0.89935302734375;-0.1024169921875;6.27999998414452;629;100 mA
81.8437807933643;-0.89935302734375;-0.102020263671875;6.28999998411928;630;100 mA
81.8537807933391;-0.899658203125;-0.102447509765625;6.29999998409403;631;100 mA
81.8637807933138;-0.89996337890625;-0.10247802734375;6.30999998406878;632;100 mA
81.8737807932886;-0.899658203125;-0.10308837890625;6.31999998404353;633;100 mA
81.8837807932633;-0.8990478515625;-0.102294921875;6.32999998401829;634;100 mA
81.8937807932381;-0.89996337890625;-0.102752685546875;6.33999998399304;635;100 mA
81.9037807932128;-0.899658203125;-0.102142333984375;6.34999998396779;636;100 mA
81.9137807931876;-0.89996337890625;-0.103546142578125;6.35999998394254;637;100 mA
81.9237807931623;-0.89935302734375;-0.102325439453125;6.3699999839173;638;100 mA
81.9337807931371;-0.89996337890625;-0.102996826171875;6.37999998389205;639;100 mA
81.9437807931118;-0.89935302734375;-0.102783203125;6.3899999838668;640;100 mA
81.9537807930866;-0.899658203125;-0.103607177734375;6.39999998384155;641;100 mA
81.9637807930613;-0.8990478515625;-0.103179931640625;6.40999998381631;642;100 mA
81.9737807930361;-0.89935302734375;-0.103057861328125;6.41999998379106;643;100 mA
81.9837807930109;-0.899658203125;-0.1026611328125;6.42999998376581;644;100 mA
81.9937807929856;-0.89935302734375;-0.103790283203125;6.43999998374056;645;100 mA
82.0037807929604;-0.9002685546875;-0.10260009765625;6.44999998371532;646;100 mA
82.0137807929351;-0.8990478515625;-0.10302734375;6.45999998369007;647;100 mA
82.0237807929099;-0.89935302734375;-0.102020263671875;6.46999998366482;648;100 mA
82.0337807928846;-0.89996337890625;-0.10302734375;6.47999998363957;649;100 mA
82.0437807928594;-0.89935302734375;-0.10223388671875;6.48999998361433;650;100 mA
82.0537807928341;-0.89996337890625;-0.1025390625;6.49999998358908;651;100 mA
82.0637807928089;-0.899658203125;-0.102691650390625;6.50999998356383;652;100 mA
82.0737807927836;-0.8990478515625;-0.103363037109375;6.51999998353858;653;100 mA
82.0837807927584;-0.8990478515625;-0.1026611328125;6.52999998351333;654;100 mA
82.0937807927331;-0.8990478515625;-0.102813720703125;6.53999998348809;655;100 mA
82.1037807927079;-0.89996337890625;-0.102020263671875;6.54999998346284;656;100 mA
82.1137807926826;-0.89935302734375;-0.103240966796875;6.55999998343759;657;100 mA
82.1237807926574;-0.899658203125;-0.101776123046875;6.56999998341234;658;100 mA
82.1337807926321;-0.89996337890625;-0.10198974609375;6.5799999833871;659;100 mA
82.1437807926069;-0.89935302734375;-0.10137939453125;6.58999998336185;660;100 mA
82.1537807925816;-0.89935302734375;-0.102325439453125;6.5999999833366;661;100 mA
82.1637807925564;-0.89935302734375;-0.102142333984375;6.60999998331135;662;100 mA
82.1737807925311;-0.89935302734375;-0.10198974609375;6.61999998328611;663;100 mA
82.1837807925059;-0.89935302734375;-0.101837158203125;6.62999998326086;664;100 mA
82.1937807924807;-0.899658203125;-0.102874755859375;6.63999998323561;665;100 mA
82.2037807924554;-0.899658203125;-0.101837158203125;6.64999998321036;666;100 mA
82.2137807924302;-0.89935302734375;-0.10235595703125;6.65999998318512;667;100 mA
82.2237807924049;-0.8990478515625;-0.1015625;6.66999998315987;668;100 mA
82.2337807923797;-0.89935302734375;-0.103240966796875;6.67999998313462;669;100 mA
82.2437807923544;-0.8990478515625;-0.10302734375;6.68999998310937;670;100 mA
82.2537807923292;-0.899658203125;-0.103302001953125;6.69999998308413;671;100 mA
82.2637807923039;-0.899658203125;-0.102996826171875;6.70999998305888;672;100 mA
82.2737807922787;-0.899658203125;-0.103607177734375;6.71999998303363;673;100 mA
82.2837807922534;-0.89996337890625;-0.10308837890625;6.72999998300838;674;100 mA
82.2937807922282;-0.899658203125;-0.102813720703125;6.73999998298314;675;100 mA
82.3037807922029;-0.89935302734375;-0.10205078125;6.74999998295789;676;100 mA
82.3137807921777;-0.899658203125;-0.103424072265625;6.75999998293264;677;100 mA
82.3237807921524;-0.89935302734375;-0.102325439453125;6.76999998290739;678;100 mA
82.3337807921272;-0.89935302734375;-0.1031494140625;6.77999998288215;679;100 mA
82.3437807921019;-0.8990478515625;-0.102996826171875;6.7899999828569;680;100 mA
82.3537807920767;-0.89935302734375;-0.1041259765625;6.79999998283165;681;100 mA
82.3637807920514;-0.89935302734375;-0.104034423828125;6.8099999828064;682;100 mA
82.3737807920262;-0.8990478515625;-0.104095458984375;6.81999998278116;683;100 mA
82.3837807920009;-0.89935302734375;-0.103729248046875;6.82999998275591;684;100 mA
82.3937807919757;-0.899658203125;-0.10455322265625;6.83999998273066;685;100 mA
82.4037807919505;-0.89935302734375;-0.10357666015625;6.84999998270541;686;100 mA
82.4137807919252;-0.899658203125;-0.10406494140625;6.85999998268016;687;100 mA
82.4237807919;-0.899658203125;-0.103179931640625;6.86999998265492;688;100 mA
82.4337807918747;-0.89935302734375;-0.104400634765625;6.87999998262967;689;100 mA
82.4437807918495;-0.89935302734375;-0.103271484375;6.88999998260442;690;100 mA
82.4537807918242;-0.899658203125;-0.103668212890625;6.89999998257917;691;100 mA
82.463780791799;-0.8990478515625;-0.10357666015625;6.90999998255393;692;100 mA
82.4737807917737;-0.89996337890625;-0.1041259765625;6.91999998252868;693;100 mA
82.4837807917485;-0.899658203125;-0.103485107421875;6.92999998250343;694;100 mA
82.4937807917232;-0.8990478515625;-0.103607177734375;6.93999998247818;695;100 mA
82.503780791698;-0.89935302734375;-0.103057861328125;6.94999998245294;696;100 mA
82.5137807916727;-0.89935302734375;-0.103973388671875;6.95999998242769;697;100 mA
82.5237807916475;-0.89935302734375;-0.102569580078125;6.96999998240244;698;100 mA
82.5337807916222;-0.89935302734375;-0.103179931640625;6.97999998237719;699;100 mA
82.543780791597;-0.8990478515625;-0.102508544921875;6.98999998235195;700;100 mA
