Time (s);WE(1).Potential (V);WE(1).Current (A);Corrected time (s);Index;Current range
0.479161998790232;0.400604248046875;0.0122833251953125;0;1;100 mA
0.489161998764985;0.400421142578125;0.0089599609375;0.00999999997475243;2;100 mA
0.499161998739737;0.4005126953125;0.0071868896484375;0.0199999999495049;3;100 mA
0.50916199871449;0.400543212890625;0.0061004638671875;0.0299999999242573;4;100 mA
0.519161998689242;0.40057373046875;0.005279541015625;0.0399999998990097;5;100 mA
0.529161998663994;0.40045166015625;0.0046875;0.0499999998737621;6;100 mA
0.539161998638747;0.400604248046875;0.00420654296875;0.0599999998485146;7;100 mA
0.549161998613499;0.40045166015625;0.003856201171875;0.069999999823267;8;100 mA
0.559161998588252;0.4005126953125;0.0035833740234375;0.0799999997980194;9;100 mA
0.569161998563004;0.40045166015625;0.00330902099609375;0.0899999997727718;10;100 mA
0.579161998537757;0.400482177734375;0.0030987548828125;0.0999999997475243;11;100 mA
0.589161998512509;0.40057373046875;0.00290313720703125;0.109999999722277;12;100 mA
0.599161998487261;0.400604248046875;0.00275238037109375;0.119999999697029;13;100 mA
0.609161998462014;0.400634765625;0.00262664794921875;0.129999999671782;14;100 mA
0.619161998436766;0.40057373046875;0.00248870849609375;0.139999999646534;15;100 mA
0.629161998411519;0.400634765625;0.00235931396484375;0.149999999621286;16;100 mA
0.639161998386271;0.400543212890625;0.00227508544921875;0.159999999596039;17;100 mA
0.649161998361024;0.40057373046875;0.00221038818359375;0.169999999570791;18;100 mA
0.659161998335776;0.400543212890625;0.00210906982421875;0.179999999545544;19;100 mA
0.669161998310528;0.40057373046875;0.0020257568359375;0.189999999520296;20;100 mA
0.679161998285281;0.400543212890625;0.00194427490234375;0.199999999495049;21;100 mA
0.689161998260033;0.400634765625;0.0019012451171875;0.209999999469801;22;100 mA
0.699161998234786;0.400543212890625;0.00188018798828125;0.219999999444553;23;100 mA
0.709161998209538;0.400604248046875;0.0018389892578125;0.229999999419306;24;100 mA
0.71916199818429;0.40057373046875;0.00172515869140625;0.239999999394058;25;100 mA
0.729161998159043;0.400604248046875;0.0016802978515625;0.249999999368811;26;100 mA
0.739161998133795;0.4005126953125;0.0016552734375;0.259999999343563;27;100 mA
0.749161998108548;0.40057373046875;0.0016156005859375;0.269999999318316;28;100 mA
0.7591619980833;0.400482177734375;0.001614990234375;0.279999999293068;29;100 mA
0.769161998058053;0.4005126953125;0.0015252685546875;0.28999999926782;30;100 mA
0.779161998032805;0.4005126953125;0.00149383544921875;0.299999999242573;31;100 mA
0.789161998007557;0.400634765625;0.0014642333984375;0.309999999217325;32;100 mA
0.79916199798231;0.400543212890625;0.00147491455078125;0.319999999192078;33;100 mA
0.809161997957062;0.400543212890625;0.00143951416015625;0.32999999916683;34;100 mA
0.819161997931815;0.4005126953125;0.00138916015625;0.339999999141583;35;100 mA
0.829161997906567;0.400604248046875;0.001356201171875;0.349999999116335;36;100 mA
0.83916199788132;0.400543212890625;0.00135467529296875;0.359999999091087;37;100 mA
0.849161997856072;0.400543212890625;0.00132049560546875;0.36999999906584;38;100 mA
0.859161997830824;0.4005126953125;0.00131011962890625;0.379999999040592;39;100 mA
0.869161997805577;0.400543212890625;0.0012701416015625;0.389999999015345;40;100 mA
0.879161997780329;0.400604248046875;0.00125762939453125;0.399999998990097;41;100 mA
0.889161997755082;0.400543212890625;0.001259765625;0.40999999896485;42;100 mA
0.899161997729834;0.400726318359375;0.00122802734375;0.419999998939602;43;100 mA
0.909161997704587;0.40057373046875;0.0012060546875;0.429999998914354;44;100 mA
0.919161997679339;0.400604248046875;0.00116851806640625;0.439999998889107;45;100 mA
0.929161997654091;0.400543212890625;0.0011761474609375;0.449999998863859;46;100 mA
0.939161997628844;0.400665283203125;0.0011676025390625;0.459999998838612;47;100 mA
0.949161997603596;0.400482177734375;0.00114990234375;0.469999998813364;48;100 mA
0.959161997578349;0.400543212890625;0.00113067626953125;0.479999998788116;49;100 mA
0.969161997553101;0.400482177734375;0.00111083984375;0.489999998762869;50;100 mA
0.979161997527854;0.400604248046875;0.00110626220703125;0.499999998737621;51;100 mA
0.989161997502606;0.40057373046875;0.001094970703125;0.509999998712374;52;100 mA
0.999161997477358;0.400634765625;0.001080322265625;0.519999998687126;53;100 mA
1.00916199745211;0.400543212890625;0.0010565185546875;0.529999998661879;54;100 mA
1.01916199742686;0.400543212890625;0.001038818359375;0.539999998636631;55;100 mA
1.02916199740162;0.400421142578125;0.00105194091796875;0.549999998611383;56;100 mA
1.03916199737637;0.400604248046875;0.00104217529296875;0.559999998586136;57;100 mA
1.04916199735112;0.400421142578125;0.0010064697265625;0.569999998560888;58;100 mA
1.05916199732587;0.400482177734375;0.0010113525390625;0.579999998535641;59;100 mA
1.06916199730063;0.400604248046875;0.000987854003906249;0.589999998510393;60;100 mA
1.07916199727538;0.400604248046875;0.000999755859375;0.599999998485146;61;100 mA
1.08916199725013;0.400634765625;0.000994262695312501;0.609999998459898;62;100 mA
1.09916199722488;0.40057373046875;0.000971069335937499;0.61999999843465;63;100 mA
1.10916199719964;0.400543212890625;0.00095977783203125;0.629999998409403;64;100 mA
1.11916199717439;0.40057373046875;0.0009442138671875;0.639999998384155;65;100 mA
1.12916199714914;0.4005126953125;0.00096710205078125;0.649999998358908;66;100 mA
1.13916199712389;0.4005126953125;0.000943908691406251;0.65999999833366;67;100 mA
1.14916199709864;0.400604248046875;0.000926818847656249;0.669999998308413;68;100 mA
1.1591619970734;0.4005126953125;0.00091064453125;0.679999998283165;69;100 mA
1.16916199704815;0.400634765625;0.000917968750000001;0.689999998257917;70;100 mA
1.1791619970229;0.400604248046875;0.000916137695312499;0.69999999823267;71;100 mA
1.18916199699765;0.400665283203125;0.00090972900390625;0.709999998207422;72;100 mA
1.19916199697241;0.400604248046875;0.00088226318359375;0.719999998182175;73;100 mA
1.20916199694716;0.400604248046875;0.0008807373046875;0.729999998156927;74;100 mA
1.21916199692191;0.400543212890625;0.00087493896484375;0.73999999813168;75;100 mA
1.22916199689666;0.400634765625;0.000881042480468749;0.749999998106432;76;100 mA
1.23916199687142;0.4005126953125;0.000870666503906251;0.759999998081184;77;100 mA
1.24916199684617;0.400543212890625;0.00084564208984375;0.769999998055937;78;100 mA
1.25916199682092;0.4005126953125;0.000849304199218751;0.779999998030689;79;100 mA
1.26916199679567;0.400634765625;0.00085174560546875;0.789999998005442;80;100 mA
1.27916199677043;0.400665283203125;0.00085784912109375;0.799999997980194;81;100 mA
1.28916199674518;0.40057373046875;0.0008404541015625;0.809999997954947;82;100 mA
1.29916199671993;0.400543212890625;0.000827636718749999;0.819999997929699;83;100 mA
1.30916199669468;0.400482177734375;0.00083343505859375;0.829999997904451;84;100 mA
1.31916199666944;0.400482177734375;0.00082733154296875;0.839999997879204;85;100 mA
1.32916199664419;0.400482177734375;0.000833740234374999;0.849999997853956;86;100 mA
1.33916199661894;0.4005126953125;0.00082366943359375;0.859999997828709;87;100 mA
1.34916199659369;0.400543212890625;0.000803527832031251;0.869999997803461;88;100 mA
1.35916199656845;0.400634765625;0.00080108642578125;0.879999997778214;89;100 mA
1.3691619965432;0.4005126953125;0.000816650390625;0.889999997752966;90;100 mA
1.37916199651795;0.40069580078125;0.00080780029296875;0.899999997727718;91;100 mA
1.3891619964927;0.40057373046875;0.00079833984375;0.909999997702471;92;100 mA
1.39916199646746;0.40057373046875;0.00077239990234375;0.919999997677223;93;100 mA
1.40916199644221;0.400543212890625;0.000794067382812499;0.929999997651976;94;100 mA
1.41916199641696;0.400665283203125;0.00078582763671875;0.939999997626728;95;100 mA
1.42916199639171;0.400482177734375;0.0007830810546875;0.949999997601481;96;100 mA
1.43916199636647;0.40057373046875;0.0007696533203125;0.959999997576233;97;100 mA
1.44916199634122;0.400482177734375;0.0007568359375;0.969999997550985;98;100 mA
1.45916199631597;0.400634765625;0.00077667236328125;0.979999997525738;99;100 mA
1.46916199629072;0.400604248046875;0.0007696533203125;0.98999999750049;100;100 mA
1.47916199626547;0.40069580078125;0.000769958496093751;0.999999997475243;101;100 mA
1.48916199624023;0.400634765625;0.000750732421875;1.00999999745;102;100 mA
1.49916199621498;0.40057373046875;0.000742187499999999;1.01999999742475;103;100 mA
1.50916199618973;0.40045166015625;0.00076416015625;1.0299999973995;104;100 mA
1.51916199616448;0.40057373046875;0.00075836181640625;1.03999999737425;105;100 mA
1.52916199613924;0.4005126953125;0.00074462890625;1.049999997349;106;100 mA
1.53916199611399;0.40045166015625;0.0007464599609375;1.05999999732376;107;100 mA
1.54916199608874;0.400543212890625;0.00073516845703125;1.06999999729851;108;100 mA
1.55916199606349;0.400634765625;0.00074615478515625;1.07999999727326;109;100 mA
1.56916199603825;0.400634765625;0.000740966796875001;1.08999999724801;110;100 mA
1.579161996013;0.4005126953125;0.00073974609375;1.09999999722277;111;100 mA
1.58916199598775;0.40057373046875;0.0007305908203125;1.10999999719752;112;100 mA
1.5991619959625;0.4005126953125;0.00072052001953125;1.11999999717227;113;100 mA
1.60916199593726;0.400482177734375;0.000760498046875;1.12999999714702;114;100 mA
1.61916199591201;0.40045166015625;0.00072906494140625;1.13999999712178;115;100 mA
1.62916199588676;0.40057373046875;0.000726318359375;1.14999999709653;116;100 mA
1.63916199586151;0.40057373046875;0.00071075439453125;1.15999999707128;117;100 mA
1.64916199583627;0.40069580078125;0.000718078613281251;1.16999999704603;118;100 mA
1.65916199581102;0.40057373046875;0.0007281494140625;1.17999999702079;119;100 mA
1.66916199578577;0.400634765625;0.00071624755859375;1.18999999699554;120;100 mA
1.67916199576052;0.400543212890625;0.000704040527343749;1.19999999697029;121;100 mA
1.68916199573528;0.40057373046875;0.000699768066406251;1.20999999694504;122;100 mA
1.69916199571003;0.400543212890625;0.0007037353515625;1.2199999969198;123;100 mA
1.70916199568478;0.40057373046875;0.000707397460937501;1.22999999689455;124;100 mA
1.71916199565953;0.40045166015625;0.000698242187500001;1.2399999968693;125;100 mA
1.72916199563429;0.40057373046875;0.00067596435546875;1.24999999684405;126;100 mA
1.73916199560904;0.4005126953125;0.000682373046875;1.25999999681881;127;100 mA
1.74916199558379;0.40057373046875;0.00069091796875;1.26999999679356;128;100 mA
1.75916199555854;0.400634765625;0.000694885253906249;1.27999999676831;129;100 mA
1.7691619955333;0.400634765625;0.00067108154296875;1.28999999674306;130;100 mA
1.77916199550805;0.4005126953125;0.0006732177734375;1.29999999671782;131;100 mA
1.7891619954828;0.40045166015625;0.000672607421875;1.30999999669257;132;100 mA
1.79916199545755;0.4005126953125;0.0006756591796875;1.31999999666732;133;100 mA
1.80916199543231;0.400482177734375;0.000681152343749999;1.32999999664207;134;100 mA
1.81916199540706;0.4005126953125;0.00066864013671875;1.33999999661683;135;100 mA
1.82916199538181;0.400543212890625;0.0006671142578125;1.34999999659158;136;100 mA
1.83916199535656;0.400604248046875;0.00066131591796875;1.35999999656633;137;100 mA
1.84916199533131;0.400482177734375;0.000687255859374999;1.36999999654108;138;100 mA
1.85916199530607;0.400634765625;0.000675354003906251;1.37999999651583;139;100 mA
1.86916199528082;0.4005126953125;0.000659790039062499;1.38999999649059;140;100 mA
1.87916199525557;0.400634765625;0.000650939941406251;1.39999999646534;141;100 mA
1.88916199523032;0.400604248046875;0.000664672851562501;1.40999999644009;142;100 mA
1.89916199520508;0.400604248046875;0.000658569335937501;1.41999999641484;143;100 mA
1.90916199517983;0.40045166015625;0.0006640625;1.4299999963896;144;100 mA
1.91916199515458;0.400665283203125;0.00064239501953125;1.43999999636435;145;100 mA
1.92916199512933;0.400482177734375;0.0006427001953125;1.4499999963391;146;100 mA
1.93916199510409;0.40069580078125;0.0006488037109375;1.45999999631385;147;100 mA
1.94916199507884;0.400543212890625;0.0006500244140625;1.46999999628861;148;100 mA
1.95916199505359;0.400634765625;0.00065155029296875;1.47999999626336;149;100 mA
1.96916199502834;0.40057373046875;0.000623474121093751;1.48999999623811;150;100 mA
1.9791619950031;0.40057373046875;0.00063140869140625;1.49999999621286;151;100 mA
1.98916199497785;0.400543212890625;0.0006427001953125;1.50999999618762;152;100 mA
1.9991619949526;0.40057373046875;0.000643310546875001;1.51999999616237;153;100 mA
2.00916199492735;0.40057373046875;0.000627746582031249;1.52999999613712;154;100 mA
2.01916199490211;0.400482177734375;0.00062286376953125;1.53999999611187;155;100 mA
2.02916199487686;0.400604248046875;0.000623779296875;1.54999999608663;156;100 mA
2.03916199485161;0.400634765625;0.000635986328125;1.55999999606138;157;100 mA
2.04916199482636;0.400604248046875;0.000631103515625001;1.56999999603613;158;100 mA
2.05916199480112;0.400543212890625;0.00062896728515625;1.57999999601088;159;100 mA
2.06916199477587;0.400543212890625;0.000615234375;1.58999999598564;160;100 mA
2.07916199475062;0.400482177734375;0.00061553955078125;1.59999999596039;161;100 mA
2.08916199472537;0.4005126953125;0.00064208984375;1.60999999593514;162;100 mA
2.09916199470013;0.4005126953125;0.000621337890625;1.61999999590989;163;100 mA
2.10916199467488;0.400634765625;0.00061309814453125;1.62999999588465;164;100 mA
2.11916199464963;0.400482177734375;0.0006011962890625;1.6399999958594;165;100 mA
2.12916199462438;0.400665283203125;0.000614013671874999;1.64999999583415;166;100 mA
2.13916199459914;0.40057373046875;0.00061614990234375;1.6599999958089;167;100 mA
2.14916199457389;0.400634765625;0.000614013671874999;1.66999999578366;168;100 mA
2.15916199454864;0.400482177734375;0.00060699462890625;1.67999999575841;169;100 mA
2.16916199452339;0.40057373046875;0.00059417724609375;1.68999999573316;170;100 mA
2.17916199449814;0.4005126953125;0.00061370849609375;1.69999999570791;171;100 mA
2.1891619944729;0.400665283203125;0.000609741210937501;1.70999999568267;172;100 mA
2.19916199444765;0.400543212890625;0.00060699462890625;1.71999999565742;173;100 mA
2.2091619944224;0.400543212890625;0.00058868408203125;1.72999999563217;174;100 mA
2.21916199439715;0.400543212890625;0.00058868408203125;1.73999999560692;175;100 mA
2.22916199437191;0.400634765625;0.00060577392578125;1.74999999558167;176;100 mA
2.23916199434666;0.400634765625;0.000605163574218751;1.75999999555643;177;100 mA
2.24916199432141;0.40057373046875;0.00058258056640625;1.76999999553118;178;100 mA
2.25916199429616;0.400604248046875;0.00059051513671875;1.77999999550593;179;100 mA
2.26916199427092;0.400482177734375;0.0005828857421875;1.78999999548068;180;100 mA
2.27916199424567;0.4005126953125;0.000600585937500001;1.79999999545544;181;100 mA
2.28916199422042;0.400421142578125;0.000598754882812499;1.80999999543019;182;100 mA
2.29916199419517;0.4005126953125;0.000587158203125;1.81999999540494;183;100 mA
2.30916199416993;0.400543212890625;0.0005877685546875;1.82999999537969;184;100 mA
2.31916199414468;0.400634765625;0.000577697753906251;1.83999999535445;185;100 mA
2.32916199411943;0.400482177734375;0.0006103515625;1.8499999953292;186;100 mA
2.33916199409418;0.400665283203125;0.0005902099609375;1.85999999530395;187;100 mA
2.34916199406894;0.400543212890625;0.000583496093749999;1.8699999952787;188;100 mA
2.35916199404369;0.400634765625;0.000579833984375;1.87999999525346;189;100 mA
2.36916199401844;0.400543212890625;0.00058929443359375;1.88999999522821;190;100 mA
2.37916199399319;0.40057373046875;0.00060150146484375;1.89999999520296;191;100 mA
2.38916199396795;0.4005126953125;0.000596008300781251;1.90999999517771;192;100 mA
2.3991619939427;0.400634765625;0.000580444335937499;1.91999999515247;193;100 mA
2.40916199391745;0.400543212890625;0.000581970214843749;1.92999999512722;194;100 mA
2.4191619938922;0.400634765625;0.00059539794921875;1.93999999510197;195;100 mA
2.42916199386696;0.400665283203125;0.000599060058593751;1.94999999507672;196;100 mA
2.43916199384171;0.400543212890625;0.000604858398437499;1.95999999505148;197;100 mA
2.44916199381646;0.400634765625;0.000574951171875;1.96999999502623;198;100 mA
2.45916199379121;0.400543212890625;0.00059173583984375;1.97999999500098;199;100 mA
2.46916199376597;0.400604248046875;0.000597229003906249;1.98999999497573;200;100 mA
2.47916199374072;0.40057373046875;0.00060546875;1.99999999495049;201;100 mA
2.48916199371547;0.40057373046875;0.00059326171875;2.00999999492524;202;100 mA
2.49916199369022;0.400543212890625;0.000592041015625;2.01999999489999;203;100 mA
2.50916199366497;0.400543212890625;0.000599060058593751;2.02999999487474;204;100 mA
2.51916199363973;0.40057373046875;0.000605163574218751;2.0399999948495;205;100 mA
2.52916199361448;0.400634765625;0.000612792968750001;2.04999999482425;206;100 mA
2.53916199358923;0.40045166015625;0.0006085205078125;2.059999994799;207;100 mA
2.54916199356398;0.40057373046875;0.000603332519531249;2.06999999477375;208;100 mA
2.55916199353874;0.400482177734375;0.00059844970703125;2.0799999947485;209;100 mA
2.56916199351349;0.40045166015625;0.000635681152343751;2.08999999472326;210;100 mA
2.57916199348824;0.400482177734375;0.00062255859375;2.09999999469801;211;100 mA
2.58916199346299;0.400543212890625;0.0006182861328125;2.10999999467276;212;100 mA
2.59916199343775;0.400543212890625;0.00060943603515625;2.11999999464751;213;100 mA
2.6091619934125;0.40069580078125;0.00062225341796875;2.12999999462227;214;100 mA
2.61916199338725;0.40057373046875;0.00063018798828125;2.13999999459702;215;100 mA
2.629161993362;0.400604248046875;0.000629577636718751;2.14999999457177;216;100 mA
2.63916199333676;0.400543212890625;0.000615844726562501;2.15999999454652;217;100 mA
2.64916199331151;0.40057373046875;0.0006085205078125;2.16999999452128;218;100 mA
2.65916199328626;0.40057373046875;0.0006304931640625;2.17999999449603;219;100 mA
2.66916199326101;0.400726318359375;0.000621337890625;2.18999999447078;220;100 mA
2.67916199323577;0.40057373046875;0.000629577636718751;2.19999999444553;221;100 mA
2.68916199321052;0.40057373046875;0.00060272216796875;2.20999999442029;222;100 mA
2.69916199318527;0.400634765625;0.000612487792968749;2.21999999439504;223;100 mA
2.70916199316002;0.400634765625;0.0006268310546875;2.22999999436979;224;100 mA
2.71916199313478;0.40057373046875;0.00061920166015625;2.23999999434454;225;100 mA
2.72916199310953;0.400604248046875;0.00061004638671875;2.2499999943193;226;100 mA
2.73916199308428;0.400665283203125;0.0006024169921875;2.25999999429405;227;100 mA
2.74916199305903;0.40045166015625;0.0006085205078125;2.2699999942688;228;100 mA
2.75916199303379;0.4005126953125;0.00062469482421875;2.27999999424355;229;100 mA
2.76916199300854;0.4005126953125;0.00061676025390625;2.28999999421831;230;100 mA
2.77916199298329;0.400634765625;0.000609741210937501;2.29999999419306;231;100 mA
2.78916199295804;0.40057373046875;0.000611267089843751;2.30999999416781;232;100 mA
2.7991619929328;0.40069580078125;0.00059234619140625;2.31999999414256;233;100 mA
2.80916199290755;0.400421142578125;0.00063934326171875;2.32999999411732;234;100 mA
2.8191619928823;0.400604248046875;0.000612487792968749;2.33999999409207;235;100 mA
2.82916199285705;0.400482177734375;0.000614013671874999;2.34999999406682;236;100 mA
2.83916199283181;0.400604248046875;0.00059814453125;2.35999999404157;237;100 mA
2.84916199280656;0.400543212890625;0.000608215332031251;2.36999999401633;238;100 mA
2.85916199278131;0.400543212890625;0.000621337890625;2.37999999399108;239;100 mA
2.86916199275606;0.400543212890625;0.000606384277343749;2.38999999396583;240;100 mA
2.87916199273081;0.40057373046875;0.00059967041015625;2.39999999394058;241;100 mA
2.88916199270557;0.400604248046875;0.000592041015625;2.40999999391533;242;100 mA
2.89916199268032;0.400726318359375;0.000599365234375;2.41999999389009;243;100 mA
2.90916199265507;0.400604248046875;0.000606689453125001;2.42999999386484;244;100 mA
2.91916199262982;0.400543212890625;0.0005999755859375;2.43999999383959;245;100 mA
2.92916199260458;0.400665283203125;0.0005755615234375;2.44999999381434;246;100 mA
2.93916199257933;0.40045166015625;0.0005877685546875;2.4599999937891;247;100 mA
2.94916199255408;0.40057373046875;0.00060150146484375;2.46999999376385;248;100 mA
2.95916199252883;0.400604248046875;0.0005963134765625;2.4799999937386;249;100 mA
2.96916199250359;0.400604248046875;0.000575866699218749;2.48999999371335;250;100 mA
2.97916199247834;0.4005126953125;0.000583496093749999;2.49999999368811;251;100 mA
2.98916199245309;0.40069580078125;0.000582275390625001;2.50999999366286;252;100 mA
2.99916199242784;0.40057373046875;0.00059661865234375;2.51999999363761;253;100 mA
3.0091619924026;0.400604248046875;0.00059814453125;2.52999999361236;254;100 mA
3.01916199237735;0.400482177734375;0.00058013916015625;2.53999999358712;255;100 mA
3.0291619923521;0.400543212890625;0.0005859375;2.54999999356187;256;100 mA
3.03916199232685;0.400482177734375;0.0005718994140625;2.55999999353662;257;100 mA
3.04916199230161;0.40045166015625;0.00060882568359375;2.56999999351137;258;100 mA
3.05916199227636;0.400543212890625;0.0005963134765625;2.57999999348613;259;100 mA
3.06916199225111;0.40057373046875;0.000583496093749999;2.58999999346088;260;100 mA
3.07916199222586;0.400543212890625;0.00058135986328125;2.59999999343563;261;100 mA
3.08916199220062;0.400726318359375;0.00058868408203125;2.60999999341038;262;100 mA
3.09916199217537;0.4005126953125;0.00059844970703125;2.61999999338514;263;100 mA
3.10916199215012;0.40057373046875;0.00059478759765625;2.62999999335989;264;100 mA
3.11916199212487;0.40045166015625;0.000577697753906251;2.63999999333464;265;100 mA
3.12916199209963;0.400543212890625;0.000580444335937499;2.64999999330939;266;100 mA
3.13916199207438;0.40057373046875;0.00058746337890625;2.65999999328415;267;100 mA
3.14916199204913;0.40057373046875;0.0005889892578125;2.6699999932589;268;100 mA
3.15916199202388;0.400634765625;0.00058929443359375;2.67999999323365;269;100 mA
3.16916199199864;0.400634765625;0.00055419921875;2.6899999932084;270;100 mA
3.17916199197339;0.400634765625;0.000575866699218749;2.69999999318316;271;100 mA
3.18916199194814;0.400604248046875;0.0005859375;2.70999999315791;272;100 mA
3.19916199192289;0.400665283203125;0.000582275390625001;2.71999999313266;273;100 mA
3.20916199189764;0.400543212890625;0.00056640625;2.72999999310741;274;100 mA
3.2191619918724;0.40057373046875;0.0005584716796875;2.73999999308217;275;100 mA
3.22916199184715;0.400421142578125;0.0005706787109375;2.74999999305692;276;100 mA
3.2391619918219;0.400543212890625;0.00057952880859375;2.75999999303167;277;100 mA
3.24916199179665;0.40045166015625;0.000577392578125;2.76999999300642;278;100 mA
3.25916199177141;0.400604248046875;0.00056915283203125;2.77999999298117;279;100 mA
3.26916199174616;0.4005126953125;0.0005621337890625;2.78999999295593;280;100 mA
3.27916199172091;0.40057373046875;0.00055694580078125;2.79999999293068;281;100 mA
3.28916199169566;0.40045166015625;0.0005889892578125;2.80999999290543;282;100 mA
3.29916199167042;0.40057373046875;0.00057037353515625;2.81999999288018;283;100 mA
3.30916199164517;0.4005126953125;0.00056732177734375;2.82999999285494;284;100 mA
3.31916199161992;0.4005126953125;0.00055206298828125;2.83999999282969;285;100 mA
3.32916199159467;0.4005126953125;0.00057098388671875;2.84999999280444;286;100 mA
3.33916199156943;0.400543212890625;0.000579833984375;2.85999999277919;287;100 mA
3.34916199154418;0.400604248046875;0.000567626953125;2.86999999275395;288;100 mA
3.35916199151893;0.400604248046875;0.000556335449218751;2.8799999927287;289;100 mA
3.36916199149368;0.40069580078125;0.000549926757812499;2.88999999270345;290;100 mA
3.37916199146844;0.400634765625;0.000563964843750001;2.8999999926782;291;100 mA
3.38916199144319;0.400634765625;0.0005694580078125;2.90999999265296;292;100 mA
3.39916199141794;0.400543212890625;0.000560302734375;2.91999999262771;293;100 mA
3.40916199139269;0.40069580078125;0.000537109375;2.92999999260246;294;100 mA
3.41916199136745;0.400360107421875;0.000548706054687501;2.93999999257721;295;100 mA
3.4291619913422;0.400604248046875;0.0005633544921875;2.94999999255197;296;100 mA
3.43916199131695;0.400604248046875;0.000556335449218751;2.95999999252672;297;100 mA
3.4491619912917;0.400665283203125;0.000538024902343751;2.96999999250147;298;100 mA
3.45916199126646;0.400543212890625;0.000545654296875001;2.97999999247622;299;100 mA
3.46916199124121;0.400726318359375;0.00053680419921875;2.98999999245098;300;100 mA
3.47916199121596;0.4005126953125;0.0005511474609375;2.99999999242573;301;100 mA
3.48916199119071;0.40057373046875;0.000551757812500001;3.00999999240048;302;100 mA
3.49916199116547;0.400482177734375;0.00053924560546875;3.01999999237523;303;100 mA
3.50916199114022;0.400482177734375;0.00054473876953125;3.02999999234999;304;100 mA
3.51916199111497;0.4005126953125;0.00052001953125;3.03999999232474;305;100 mA
3.52916199108972;0.40045166015625;0.00056793212890625;3.04999999229949;306;100 mA
3.53916199106447;0.400634765625;0.000546875;3.05999999227424;307;100 mA
3.54916199103923;0.40057373046875;0.000541076660156251;3.069999992249;308;100 mA
3.55916199101398;0.400543212890625;0.00053558349609375;3.07999999222375;309;100 mA
3.56916199098873;0.400604248046875;0.000548400878906249;3.0899999921985;310;100 mA
3.57916199096348;0.400604248046875;0.00056488037109375;3.09999999217325;311;100 mA
3.58916199093824;0.400604248046875;0.000552978515624999;3.109999992148;312;100 mA
3.59916199091299;0.4005126953125;0.00054351806640625;3.11999999212276;313;100 mA
3.60916199088774;0.400482177734375;0.000545349121093749;3.12999999209751;314;100 mA
3.61916199086249;0.400604248046875;0.00054931640625;3.13999999207226;315;100 mA
3.62916199083725;0.4005126953125;0.000563964843750001;3.14999999204701;316;100 mA
3.639161990812;0.400665283203125;0.00055816650390625;3.15999999202177;317;100 mA
3.64916199078675;0.400634765625;0.000530090332031249;3.16999999199652;318;100 mA
3.6591619907615;0.400665283203125;0.00054962158203125;3.17999999197127;319;100 mA
3.66916199073626;0.400543212890625;0.0005621337890625;3.18999999194602;320;100 mA
3.67916199071101;0.400665283203125;0.000562744140625;3.19999999192078;321;100 mA
3.68916199068576;0.4005126953125;0.0005450439453125;3.20999999189553;322;100 mA
3.69916199066051;0.400482177734375;0.00054473876953125;3.21999999187028;323;100 mA
3.70916199063527;0.4005126953125;0.000551452636718749;3.22999999184503;324;100 mA
3.71916199061002;0.400634765625;0.0005584716796875;3.23999999181979;325;100 mA
3.72916199058477;0.400604248046875;0.0005645751953125;3.24999999179454;326;100 mA
3.73916199055952;0.400665283203125;0.000549926757812499;3.25999999176929;327;100 mA
3.74916199053428;0.400543212890625;0.000548706054687501;3.26999999174404;328;100 mA
3.75916199050903;0.400665283203125;0.000542297363281249;3.2799999917188;329;100 mA
3.76916199048378;0.400482177734375;0.0005767822265625;3.28999999169355;330;100 mA
3.77916199045853;0.40057373046875;0.000560913085937501;3.2999999916683;331;100 mA
3.78916199043329;0.4005126953125;0.00055389404296875;3.30999999164305;332;100 mA
3.79916199040804;0.400482177734375;0.000545654296875001;3.31999999161781;333;100 mA
3.80916199038279;0.400543212890625;0.00055419921875;3.32999999159256;334;100 mA
3.81916199035754;0.400482177734375;0.000560607910156249;3.33999999156731;335;100 mA
3.8291619903323;0.400604248046875;0.0005621337890625;3.34999999154206;336;100 mA
3.83916199030705;0.400604248046875;0.000542297363281249;3.35999999151682;337;100 mA
3.8491619902818;0.400634765625;0.0005419921875;3.36999999149157;338;100 mA
3.85916199025655;0.400604248046875;0.000552978515624999;3.37999999146632;339;100 mA
3.86916199023131;0.400604248046875;0.00055267333984375;3.38999999144107;340;100 mA
3.87916199020606;0.400543212890625;0.00055084228515625;3.39999999141583;341;100 mA
3.88916199018081;0.40069580078125;0.00052032470703125;3.40999999139058;342;100 mA
3.89916199015556;0.400482177734375;0.000533447265625001;3.41999999136533;343;100 mA
3.90916199013031;0.400543212890625;0.00055267333984375;3.42999999134008;344;100 mA
3.91916199010507;0.40057373046875;0.0005413818359375;3.43999999131483;345;100 mA
3.92916199007982;0.400665283203125;0.00053131103515625;3.44999999128959;346;100 mA
3.93916199005457;0.400634765625;0.00052764892578125;3.45999999126434;347;100 mA
3.94916199002932;0.40069580078125;0.00053558349609375;3.46999999123909;348;100 mA
3.95916199000408;0.40057373046875;0.00054443359375;3.47999999121384;349;100 mA
3.96916198997883;0.40057373046875;0.000537109375;3.4899999911886;350;100 mA
3.97916198995358;0.400482177734375;0.000533142089843749;3.49999999116335;351;100 mA
3.98916198992833;0.400543212890625;0.00052490234375;3.5099999911381;352;100 mA
3.99916198990309;0.4005126953125;0.000518188476562501;3.51999999111285;353;100 mA
4.00916198987784;0.40045166015625;0.000560302734375;3.52999999108761;354;100 mA
4.01916198985259;0.400543212890625;0.000537719726562499;3.53999999106236;355;100 mA
4.02916198982734;0.400543212890625;0.000536499023437501;3.54999999103711;356;100 mA
4.0391619898021;0.400604248046875;0.000530395507812501;3.55999999101186;357;100 mA
4.04916198977685;0.40057373046875;0.0005352783203125;3.56999999098662;358;100 mA
4.0591619897516;0.400482177734375;0.0005596923828125;3.57999999096137;359;100 mA
4.06916198972635;0.400543212890625;0.000541076660156251;3.58999999093612;360;100 mA
4.07916198970111;0.40057373046875;0.000534667968749999;3.59999999091087;361;100 mA
4.08916198967586;0.40057373046875;0.0005291748046875;3.60999999088563;362;100 mA
4.09916198965061;0.400604248046875;0.00053680419921875;3.61999999086038;363;100 mA
4.10916198962536;0.400604248046875;0.000546875;3.62999999083513;364;100 mA
4.11916198960012;0.400634765625;0.00053741455078125;3.63999999080988;365;100 mA
4.12916198957487;0.4007568359375;0.0005157470703125;3.64999999078464;366;100 mA
4.13916198954962;0.400634765625;0.00052642822265625;3.65999999075939;367;100 mA
4.14916198952437;0.400482177734375;0.000542602539062501;3.66999999073414;368;100 mA
4.15916198949913;0.400543212890625;0.00054168701171875;3.67999999070889;369;100 mA
4.16916198947388;0.4005126953125;0.0005218505859375;3.68999999068365;370;100 mA
4.17916198944863;0.400543212890625;0.000519714355468751;3.6999999906584;371;100 mA
4.18916198942338;0.400482177734375;0.00053070068359375;3.70999999063315;372;100 mA
4.19916198939814;0.40057373046875;0.00053375244140625;3.7199999906079;373;100 mA
4.20916198937289;0.400604248046875;0.000545654296875001;3.72999999058266;374;100 mA
4.21916198934764;0.400604248046875;0.00052001953125;3.73999999055741;375;100 mA
4.22916198932239;0.400543212890625;0.000531005859375;3.74999999053216;376;100 mA
4.23916198929714;0.40057373046875;0.0005169677734375;3.75999999050691;377;100 mA
4.2491619892719;0.40045166015625;0.000554809570312501;3.76999999048167;378;100 mA
4.25916198924665;0.4005126953125;0.00054595947265625;3.77999999045642;379;100 mA
4.2691619892214;0.4005126953125;0.00052947998046875;3.78999999043117;380;100 mA
4.27916198919615;0.40045166015625;0.000533142089843749;3.79999999040592;381;100 mA
4.28916198917091;0.40057373046875;0.00054046630859375;3.80999999038067;382;100 mA
4.29916198914566;0.4005126953125;0.00055267333984375;3.81999999035543;383;100 mA
4.30916198912041;0.400665283203125;0.000545349121093749;3.82999999033018;384;100 mA
4.31916198909516;0.400665283203125;0.000524291992187501;3.83999999030493;385;100 mA
4.32916198906992;0.40069580078125;0.000527343750000001;3.84999999027968;386;100 mA
4.33916198904467;0.40057373046875;0.000534973144531251;3.85999999025444;387;100 mA
4.34916198901942;0.400604248046875;0.00054351806640625;3.86999999022919;388;100 mA
4.35916198899417;0.400421142578125;0.0005474853515625;3.87999999020394;389;100 mA
4.36916198896893;0.40057373046875;0.00050628662109375;3.88999999017869;390;100 mA
4.37916198894368;0.400482177734375;0.00052764892578125;3.89999999015345;391;100 mA
4.38916198891843;0.40069580078125;0.00053741455078125;3.9099999901282;392;100 mA
4.39916198889318;0.40057373046875;0.00053558349609375;3.91999999010295;393;100 mA
4.40916198886794;0.400634765625;0.0005230712890625;3.9299999900777;394;100 mA
4.41916198884269;0.400604248046875;0.00050628662109375;3.93999999005246;395;100 mA
4.42916198881744;0.4005126953125;0.000523681640625;3.94999999002721;396;100 mA
4.43916198879219;0.4005126953125;0.0005328369140625;3.95999999000196;397;100 mA
4.44916198876695;0.4005126953125;0.000536499023437501;3.96999998997671;398;100 mA
4.4591619887417;0.400543212890625;0.00052825927734375;3.97999998995147;399;100 mA
4.46916198871645;0.4005126953125;0.000520935058593749;3.98999998992622;400;100 mA
4.4791619886912;0.40057373046875;0.00051116943359375;3.99999998990097;401;100 mA
4.48916198866596;0.400482177734375;0.00054779052734375;4.00999998987572;402;100 mA
4.49916198864071;0.40057373046875;0.0005322265625;4.01999998985048;403;100 mA
4.50916198861546;0.400543212890625;0.0005279541015625;4.02999998982523;404;100 mA
4.51916198859021;0.400604248046875;0.00052032470703125;4.03999998979998;405;100 mA
4.52916198856497;0.400482177734375;0.000528869628906251;4.04999998977473;406;100 mA
4.53916198853972;0.400482177734375;0.000548095703125;4.05999998974949;407;100 mA
4.54916198851447;0.400482177734375;0.000530395507812501;4.06999998972424;408;100 mA
4.55916198848922;0.400604248046875;0.00052947998046875;4.07999998969899;409;100 mA
4.56916198846397;0.400543212890625;0.00051422119140625;4.08999998967374;410;100 mA
4.57916198843873;0.400665283203125;0.0005322265625;4.0999999896485;411;100 mA
4.58916198841348;0.40057373046875;0.00053558349609375;4.10999998962325;412;100 mA
4.59916198838823;0.400665283203125;0.000534667968749999;4.119999989598;413;100 mA
4.60916198836298;0.400726318359375;0.000499877929687501;4.12999998957275;414;100 mA
4.61916198833774;0.400604248046875;0.000509033203125001;4.1399999895475;415;100 mA
4.62916198831249;0.400543212890625;0.000528869628906251;4.14999998952226;416;100 mA
4.63916198828724;0.400604248046875;0.000530090332031249;4.15999998949701;417;100 mA
4.64916198826199;0.4005126953125;0.000511474609375;4.16999998947176;418;100 mA
4.65916198823675;0.400543212890625;0.00050994873046875;4.17999998944651;419;100 mA
4.6691619882115;0.4005126953125;0.000512084960937501;4.18999998942127;420;100 mA
4.67916198818625;0.400634765625;0.00052490234375;4.19999998939602;421;100 mA
4.689161988161;0.400604248046875;0.0005267333984375;4.20999998937077;422;100 mA
4.69916198813576;0.40057373046875;0.00051300048828125;4.21999998934552;423;100 mA
4.70916198811051;0.400634765625;0.000518188476562501;4.22999998932028;424;100 mA
4.71916198808526;0.400482177734375;0.00049407958984375;4.23999998929503;425;100 mA
4.72916198806001;0.40045166015625;0.00053863525390625;4.24999998926978;426;100 mA
4.73916198803477;0.400482177734375;0.00052520751953125;4.25999998924453;427;100 mA
4.74916198800952;0.400543212890625;0.000513610839843751;4.26999998921929;428;100 mA
4.75916198798427;0.4005126953125;0.000513610839843751;4.27999998919404;429;100 mA
4.76916198795902;0.40057373046875;0.000510559082031251;4.28999998916879;430;100 mA
4.77916198793378;0.4005126953125;0.00053924560546875;4.29999998914354;431;100 mA
4.78916198790853;0.400634765625;0.000518188476562501;4.3099999891183;432;100 mA
4.79916198788328;0.40045166015625;0.000509033203125001;4.31999998909305;433;100 mA
4.80916198785803;0.400634765625;0.0005084228515625;4.3299999890678;434;100 mA
4.81916198783279;0.400543212890625;0.000513916015625;4.33999998904255;435;100 mA
4.82916198780754;0.400604248046875;0.0005279541015625;4.34999998901731;436;100 mA
4.83916198778229;0.400482177734375;0.0005279541015625;4.35999998899206;437;100 mA
4.84916198775704;0.40069580078125;0.00049407958984375;4.36999998896681;438;100 mA
4.8591619877318;0.40057373046875;0.0005084228515625;4.37999998894156;439;100 mA
4.86916198770655;0.400634765625;0.000516357421875;4.38999998891632;440;100 mA
4.8791619876813;0.40057373046875;0.00052154541015625;4.39999998889107;441;100 mA
4.88916198765605;0.40057373046875;0.00050384521484375;4.40999998886582;442;100 mA
4.89916198763081;0.400604248046875;0.00049468994140625;4.41999998884057;443;100 mA
4.90916198760556;0.400604248046875;0.0005084228515625;4.42999998881533;444;100 mA
4.91916198758031;0.4005126953125;0.00050537109375;4.43999998879008;445;100 mA
4.92916198755506;0.40045166015625;0.0005218505859375;4.44999998876483;446;100 mA
4.93916198752981;0.400543212890625;0.000502624511718749;4.45999998873958;447;100 mA
4.94916198750457;0.40045166015625;0.0004986572265625;4.46999998871433;448;100 mA
4.95916198747932;0.4005126953125;0.0004986572265625;4.47999998868909;449;100 mA
4.96916198745407;0.40045166015625;0.0005206298828125;4.48999998866384;450;100 mA
4.97916198742882;0.40057373046875;0.000516662597656251;4.49999998863859;451;100 mA
4.98916198740358;0.400634765625;0.00050506591796875;4.50999998861334;452;100 mA
4.99916198737833;0.40057373046875;0.0005047607421875;4.5199999885881;453;100 mA
5.00916198735308;0.400604248046875;0.00050933837890625;4.52999998856285;454;100 mA
5.01916198732783;0.400421142578125;0.000525817871093751;4.5399999885376;455;100 mA
5.02916198730259;0.4005126953125;0.000513916015625;4.54999998851235;456;100 mA
5.03916198727734;0.40057373046875;0.0005047607421875;4.55999998848711;457;100 mA
5.04916198725209;0.40045166015625;0.000498352050781251;4.56999998846186;458;100 mA
5.05916198722684;0.400634765625;0.000512084960937501;4.57999998843661;459;100 mA
5.0691619872016;0.40045166015625;0.000513610839843751;4.58999998841136;460;100 mA
5.07916198717635;0.400604248046875;0.0005206298828125;4.59999998838612;461;100 mA
5.0891619871511;0.400634765625;0.00047943115234375;4.60999998836087;462;100 mA
5.09916198712585;0.400665283203125;0.00049407958984375;4.61999998833562;463;100 mA
5.10916198710061;0.400604248046875;0.00050811767578125;4.62999998831037;464;100 mA
5.11916198707536;0.400604248046875;0.00050201416015625;4.63999998828513;465;100 mA
5.12916198705011;0.4005126953125;0.000494384765625;4.64999998825988;466;100 mA
5.13916198702486;0.40057373046875;0.000483093261718751;4.65999998823463;467;100 mA
5.14916198699962;0.40045166015625;0.000496520996093749;4.66999998820938;468;100 mA
5.15916198697437;0.400634765625;0.000505981445312501;4.67999998818414;469;100 mA
5.16916198694912;0.4005126953125;0.0004986572265625;4.68999998815889;470;100 mA
5.17916198692387;0.400604248046875;0.000489196777343751;4.69999998813364;471;100 mA
5.18916198689863;0.4005126953125;0.000489501953125;4.70999998810839;472;100 mA
5.19916198687338;0.400665283203125;0.000472412109375001;4.71999998808315;473;100 mA
5.20916198684813;0.4005126953125;0.0005126953125;4.7299999880579;474;100 mA
5.21916198682288;0.400604248046875;0.000491943359374999;4.73999998803265;475;100 mA
5.22916198679764;0.4005126953125;0.00049285888671875;4.7499999880074;476;100 mA
5.23916198677239;0.4005126953125;0.000488891601562499;4.75999998798216;477;100 mA
5.24916198674714;0.400421142578125;0.0004962158203125;4.76999998795691;478;100 mA
5.25916198672189;0.4005126953125;0.0005157470703125;4.77999998793166;479;100 mA
5.26916198669664;0.4005126953125;0.000489501953125;4.78999998790641;480;100 mA
5.2791619866714;0.400543212890625;0.00049407958984375;4.79999998788116;481;100 mA
5.28916198664615;0.400604248046875;0.00048797607421875;4.80999998785592;482;100 mA
5.2991619866209;0.400665283203125;0.0004931640625;4.81999998783067;483;100 mA
5.30916198659565;0.40057373046875;0.000509033203125001;4.82999998780542;484;100 mA
5.31916198657041;0.400543212890625;0.000499572753906249;4.83999998778017;485;100 mA
5.32916198654516;0.400726318359375;0.000472106933593749;4.84999998775493;486;100 mA
5.33916198651991;0.40045166015625;0.000487060546875;4.85999998772968;487;100 mA
5.34916198649466;0.400604248046875;0.00050048828125;4.86999998770443;488;100 mA
5.35916198646942;0.400543212890625;0.0005096435546875;4.87999998767918;489;100 mA
5.36916198644417;0.400634765625;0.000481262207031249;4.88999998765394;490;100 mA
5.37916198641892;0.40057373046875;0.0004791259765625;4.89999998762869;491;100 mA
5.38916198639367;0.400634765625;0.00048095703125;4.90999998760344;492;100 mA
5.39916198636843;0.400665283203125;0.00049407958984375;4.91999998757819;493;100 mA
5.40916198634318;0.400665283203125;0.000499267578125;4.92999998755295;494;100 mA
5.41916198631793;0.400543212890625;0.00047576904296875;4.9399999875277;495;100 mA
5.42916198629268;0.40057373046875;0.0004803466796875;4.94999998750245;496;100 mA
5.43916198626744;0.400482177734375;0.00046539306640625;4.9599999874772;497;100 mA
5.44916198624219;0.40045166015625;0.00050323486328125;4.96999998745196;498;100 mA
5.45916198621694;0.400482177734375;0.00049591064453125;4.97999998742671;499;100 mA
5.46916198619169;0.40057373046875;0.0004803466796875;4.98999998740146;500;100 mA
5.47916198616645;0.4005126953125;0.00048370361328125;4.99999998737621;501;100 mA
5.4891619861412;0.400543212890625;0.00048858642578125;5.00999998735097;502;100 mA
5.49916198611595;0.400421142578125;0.00050872802734375;5.01999998732572;503;100 mA
5.5091619860907;0.400665283203125;0.0004986572265625;5.02999998730047;504;100 mA
5.51916198606546;0.4005126953125;0.00048858642578125;5.03999998727522;505;100 mA
5.52916198604021;0.400634765625;0.00048980712890625;5.04999998724998;506;100 mA
5.53916198601496;0.4005126953125;0.000498046874999999;5.05999998722473;507;100 mA
5.54916198598971;0.4005126953125;0.000511474609375;5.06999998719948;508;100 mA
5.55916198596447;0.400482177734375;0.0005157470703125;5.07999998717423;509;100 mA
5.56916198593922;0.40057373046875;0.000474853515625;5.08999998714899;510;100 mA
5.57916198591397;0.400543212890625;0.00049346923828125;5.09999998712374;511;100 mA
5.58916198588872;0.400634765625;0.000504455566406251;5.10999998709849;512;100 mA
5.59916198586347;0.400604248046875;0.00051422119140625;5.11999998707324;513;100 mA
5.60916198583823;0.400634765625;0.00049468994140625;5.129999987048;514;100 mA
5.61916198581298;0.400604248046875;0.000478515625000001;5.13999998702275;515;100 mA
5.62916198578773;0.4005126953125;0.000499267578125;5.1499999869975;516;100 mA
5.63916198576248;0.400543212890625;0.000504455566406251;5.15999998697225;517;100 mA
5.64916198573724;0.40045166015625;0.000505676269531249;5.169999986947;518;100 mA
5.65916198571199;0.400543212890625;0.00049468994140625;5.17999998692176;519;100 mA
5.66916198568674;0.40045166015625;0.000487060546875;5.18999998689651;520;100 mA
5.67916198566149;0.400543212890625;0.000486145019531251;5.19999998687126;521;100 mA
5.68916198563625;0.400543212890625;0.000514831542968749;5.20999998684601;522;100 mA
5.699161985611;0.40057373046875;0.000504455566406251;5.21999998682077;523;100 mA
5.70916198558575;0.40057373046875;0.0004986572265625;5.22999998679552;524;100 mA
5.7191619855605;0.40057373046875;0.000489196777343751;5.23999998677027;525;100 mA
5.72916198553526;0.400421142578125;0.0005047607421875;5.24999998674502;526;100 mA
5.73916198551001;0.40045166015625;0.00052459716796875;5.25999998671978;527;100 mA
5.74916198548476;0.400482177734375;0.000510559082031251;5.26999998669453;528;100 mA
5.75916198545951;0.40057373046875;0.0005108642578125;5.27999998666928;529;100 mA
5.76916198543427;0.4005126953125;0.00049896240234375;5.28999998664403;530;100 mA
5.77916198540902;0.40057373046875;0.000514831542968749;5.29999998661879;531;100 mA
5.78916198538377;0.400543212890625;0.0005218505859375;5.30999998659354;532;100 mA
5.79916198535852;0.40057373046875;0.000531005859375;5.31999998656829;533;100 mA
5.80916198533328;0.400665283203125;0.00049163818359375;5.32999998654304;534;100 mA
5.81916198530803;0.400665283203125;0.00049591064453125;5.3399999865178;535;100 mA
5.82916198528278;0.400543212890625;0.00051300048828125;5.34999998649255;536;100 mA
5.83916198525753;0.4005126953125;0.000525817871093751;5.3599999864673;537;100 mA
5.84916198523229;0.40057373046875;0.00049896240234375;5.36999998644205;538;100 mA
5.85916198520704;0.400634765625;0.0004913330078125;5.37999998641681;539;100 mA
5.86916198518179;0.40045166015625;0.00049713134765625;5.38999998639156;540;100 mA
5.87916198515654;0.400604248046875;0.000511779785156249;5.39999998636631;541;100 mA
5.8891619851313;0.400543212890625;0.000513916015625;5.40999998634106;542;100 mA
5.89916198510605;0.400634765625;0.0004925537109375;5.41999998631582;543;100 mA
5.9091619850808;0.40057373046875;0.00050048828125;5.42999998629057;544;100 mA
5.91916198505555;0.400634765625;0.000483093261718751;5.43999998626532;545;100 mA
5.92916198503031;0.4005126953125;0.0005230712890625;5.44999998624007;546;100 mA
5.93916198500506;0.400543212890625;0.000511474609375;5.45999998621483;547;100 mA
5.94916198497981;0.400482177734375;0.00050018310546875;5.46999998618958;548;100 mA
5.95916198495456;0.4005126953125;0.000505981445312501;5.47999998616433;549;100 mA
5.96916198492931;0.400421142578125;0.0005023193359375;5.48999998613908;550;100 mA
5.97916198490407;0.400421142578125;0.0005279541015625;5.49999998611383;551;100 mA
5.98916198487882;0.400604248046875;0.000511474609375;5.50999998608859;552;100 mA
5.99916198485357;0.400634765625;0.000502624511718749;5.51999998606334;553;100 mA
6.00916198482832;0.400604248046875;0.00050689697265625;5.52999998603809;554;100 mA
6.01916198480308;0.400634765625;0.00050079345703125;5.53999998601284;555;100 mA
6.02916198477783;0.40057373046875;0.000517578125;5.5499999859876;556;100 mA
6.03916198475258;0.4005126953125;0.0005169677734375;5.55999998596235;557;100 mA
6.04916198472733;0.400634765625;0.000484619140625001;5.5699999859371;558;100 mA
6.05916198470209;0.40045166015625;0.00049774169921875;5.57999998591185;559;100 mA
6.06916198467684;0.40057373046875;0.00049896240234375;5.58999998588661;560;100 mA
6.07916198465159;0.400543212890625;0.000516357421875;5.59999998586136;561;100 mA
6.08916198462634;0.400634765625;0.000489196777343751;5.60999998583611;562;100 mA
6.0991619846011;0.40057373046875;0.000477294921875;5.61999998581086;563;100 mA
6.10916198457585;0.40069580078125;0.0004864501953125;5.62999998578562;564;100 mA
6.1191619845506;0.4005126953125;0.0004962158203125;5.63999998576037;565;100 mA
6.12916198452535;0.400604248046875;0.000502929687500001;5.64999998573512;566;100 mA
6.13916198450011;0.4005126953125;0.000484619140625001;5.65999998570987;567;100 mA
6.14916198447486;0.400543212890625;0.00047943115234375;5.66999998568463;568;100 mA
6.15916198444961;0.400390625;0.000475463867187501;5.67999998565938;569;100 mA
6.16916198442436;0.400421142578125;0.000501708984375;5.68999998563413;570;100 mA
6.17916198439912;0.400482177734375;0.00049713134765625;5.69999998560888;571;100 mA
6.18916198437387;0.400604248046875;0.00048553466796875;5.70999998558364;572;100 mA
6.19916198434862;0.400543212890625;0.000484619140625001;5.71999998555839;573;100 mA
6.20916198432337;0.400634765625;0.00048980712890625;5.72999998553314;574;100 mA
6.21916198429813;0.400482177734375;0.000499877929687501;5.73999998550789;575;100 mA
6.22916198427288;0.400543212890625;0.000498352050781251;5.74999998548265;576;100 mA
6.23916198424763;0.400543212890625;0.000492248535156251;5.7599999854574;577;100 mA
6.24916198422238;0.40057373046875;0.000474853515625;5.76999998543215;578;100 mA
6.25916198419714;0.4005126953125;0.000493774414062501;5.7799999854069;579;100 mA
6.26916198417189;0.40045166015625;0.00050048828125;5.78999998538166;580;100 mA
6.27916198414664;0.400543212890625;0.0005108642578125;5.79999998535641;581;100 mA
6.28916198412139;0.400634765625;0.00047027587890625;5.80999998533116;582;100 mA
6.29916198409614;0.400543212890625;0.00047943115234375;5.81999998530591;583;100 mA
6.3091619840709;0.400634765625;0.00050201416015625;5.82999998528066;584;100 mA
6.31916198404565;0.40057373046875;0.000498046874999999;5.83999998525542;585;100 mA
6.3291619840204;0.400604248046875;0.000485839843749999;5.84999998523017;586;100 mA
6.33916198399515;0.400665283203125;0.00046844482421875;5.85999998520492;587;100 mA
6.34916198396991;0.400421142578125;0.0004833984375;5.86999998517967;588;100 mA
6.35916198394466;0.400543212890625;0.000498046874999999;5.87999998515443;589;100 mA
6.36916198391941;0.4005126953125;0.00049102783203125;5.88999998512918;590;100 mA
6.37916198389416;0.40057373046875;0.0004852294921875;5.89999998510393;591;100 mA
6.38916198386892;0.400543212890625;0.00048095703125;5.90999998507868;592;100 mA
6.39916198384367;0.40057373046875;0.000472106933593749;5.91999998505344;593;100 mA
6.40916198381842;0.400482177734375;0.00050872802734375;5.92999998502819;594;100 mA
6.41916198379317;0.400665283203125;0.00048553466796875;5.93999998500294;595;100 mA
6.42916198376793;0.4005126953125;0.0004852294921875;5.94999998497769;596;100 mA
6.43916198374268;0.400604248046875;0.000484313964843749;5.95999998495245;597;100 mA
6.44916198371743;0.400421142578125;0.0004803466796875;5.9699999849272;598;100 mA
6.45916198369218;0.400543212890625;0.00050994873046875;5.97999998490195;599;100 mA
6.46916198366694;0.40045166015625;0.000487670898437501;5.9899999848767;600;100 mA
6.47916198364169;0.40057373046875;0.000494384765625;5.99999998485146;601;100 mA
6.48916198361644;0.400604248046875;0.000478210449218749;6.00999998482621;602;100 mA
6.49916198359119;0.400604248046875;0.00048980712890625;6.01999998480096;603;100 mA
6.50916198356595;0.4005126953125;0.000507202148437499;6.02999998477571;604;100 mA
6.5191619835407;0.40057373046875;0.0005096435546875;6.03999998475047;605;100 mA
6.52916198351545;0.400665283203125;0.0004803466796875;6.04999998472522;606;100 mA
6.5391619834902;0.400634765625;0.00048492431640625;6.05999998469997;607;100 mA
6.54916198346496;0.4005126953125;0.000499572753906249;6.06999998467472;608;100 mA
6.55916198343971;0.40057373046875;0.00051116943359375;6.07999998464948;609;100 mA
6.56916198341446;0.40057373046875;0.0004833984375;6.08999998462423;610;100 mA
6.57916198338921;0.400604248046875;0.000478515625000001;6.09999998459898;611;100 mA
6.58916198336397;0.400543212890625;0.00048980712890625;6.10999998457373;612;100 mA
6.59916198333872;0.400634765625;0.000499572753906249;6.11999998454849;613;100 mA
6.60916198331347;0.400604248046875;0.000510253906249999;6.12999998452324;614;100 mA
6.61916198328822;0.400634765625;0.0004833984375;6.13999998449799;615;100 mA
6.62916198326297;0.400604248046875;0.000487060546875;6.14999998447274;616;100 mA
6.63916198323773;0.40057373046875;0.000481262207031249;6.1599999844475;617;100 mA
6.64916198321248;0.4005126953125;0.000504455566406251;6.16999998442225;618;100 mA
6.65916198318723;0.40057373046875;0.000507202148437499;6.179999984397;619;100 mA
6.66916198316198;0.4005126953125;0.000485839843749999;6.18999998437175;620;100 mA
6.67916198313674;0.40045166015625;0.000491943359374999;6.1999999843465;621;100 mA
6.68916198311149;0.40045166015625;0.00050048828125;6.20999998432126;622;100 mA
6.69916198308624;0.40045166015625;0.00052032470703125;6.21999998429601;623;100 mA
6.70916198306099;0.400634765625;0.00052154541015625;6.22999998427076;624;100 mA
6.71916198303575;0.40057373046875;0.000499877929687501;6.23999998424551;625;100 mA
6.7291619830105;0.400665283203125;0.000494384765625;6.24999998422027;626;100 mA
6.73916198298525;0.400482177734375;0.0005078125;6.25999998419502;627;100 mA
6.74916198296;0.4005126953125;0.0005218505859375;6.26999998416977;628;100 mA
6.75916198293476;0.4005126953125;0.000525512695312499;6.27999998414452;629;100 mA
6.76916198290951;0.400634765625;0.000484313964843749;6.28999998411928;630;100 mA
6.77916198288426;0.40045166015625;0.00050201416015625;6.29999998409403;631;100 mA
6.78916198285901;0.40057373046875;0.000512084960937501;6.30999998406878;632;100 mA
6.79916198283377;0.400543212890625;0.000515136718750001;6.31999998404353;633;100 mA
6.80916198280852;0.400665283203125;0.000505676269531249;6.32999998401829;634;100 mA
6.81916198278327;0.400634765625;0.00047454833984375;6.33999998399304;635;100 mA
6.82916198275802;0.400665283203125;0.0004931640625;6.34999998396779;636;100 mA
6.83916198273278;0.4005126953125;0.00050018310546875;6.35999998394254;637;100 mA
6.84916198270753;0.400634765625;0.000501708984375;6.3699999839173;638;100 mA
6.85916198268228;0.4005126953125;0.0004901123046875;6.37999998389205;639;100 mA
6.86916198265703;0.400543212890625;0.0004779052734375;6.3899999838668;640;100 mA
6.87916198263179;0.400482177734375;0.00047576904296875;6.39999998384155;641;100 mA
6.88916198260654;0.4005126953125;0.000501708984375;6.40999998381631;642;100 mA
6.89916198258129;0.400543212890625;0.00049346923828125;6.41999998379106;643;100 mA
6.90916198255604;0.400543212890625;0.000490722656250001;6.42999998376581;644;100 mA
6.9191619825308;0.40057373046875;0.000478210449218749;6.43999998374056;645;100 mA
6.92916198250555;0.400634765625;0.0004840087890625;6.44999998371532;646;100 mA
6.9391619824803;0.400482177734375;0.000510559082031251;6.45999998369007;647;100 mA
6.94916198245505;0.400543212890625;0.00049102783203125;6.46999998366482;648;100 mA
6.9591619824298;0.400482177734375;0.00048858642578125;6.47999998363957;649;100 mA
6.96916198240456;0.400482177734375;0.0004742431640625;6.48999998361433;650;100 mA
6.97916198237931;0.400482177734375;0.000489196777343751;6.49999998358908;651;100 mA
6.98916198235406;0.40045166015625;0.0005078125;6.50999998356383;652;100 mA
6.99916198232881;0.400543212890625;0.00049591064453125;6.51999998353858;653;100 mA
7.00916198230357;0.400604248046875;0.00047271728515625;6.52999998351333;654;100 mA
7.01916198227832;0.400634765625;0.000469360351562501;6.53999998348809;655;100 mA
7.02916198225307;0.400634765625;0.0004864501953125;6.54999998346284;656;100 mA
7.03916198222782;0.40057373046875;0.000499877929687501;6.55999998343759;657;100 mA
7.04916198220258;0.40057373046875;0.0004742431640625;6.56999998341234;658;100 mA
7.05916198217733;0.400604248046875;0.000467529296874999;6.5799999833871;659;100 mA
7.06916198215208;0.4005126953125;0.000464782714843751;6.58999998336185;660;100 mA
7.07916198212683;0.400543212890625;0.000473632812499999;6.5999999833366;661;100 mA
7.08916198210159;0.4005126953125;0.000489196777343751;6.60999998331135;662;100 mA
7.09916198207634;0.400634765625;0.000463256835937501;6.61999998328611;663;100 mA
7.10916198205109;0.400543212890625;0.000467834472656251;6.62999998326086;664;100 mA
7.11916198202584;0.400543212890625;0.000456848144531249;6.63999998323561;665;100 mA
7.1291619820006;0.400482177734375;0.00048370361328125;6.64999998321036;666;100 mA
7.13916198197535;0.400634765625;0.000478515625000001;6.65999998318512;667;100 mA
7.1491619819501;0.4005126953125;0.000458374023437499;6.66999998315987;668;100 mA
7.15916198192485;0.400482177734375;0.0004656982421875;6.67999998313462;669;100 mA
7.16916198189961;0.400421142578125;0.00045928955078125;6.68999998310937;670;100 mA
7.17916198187436;0.400421142578125;0.00048980712890625;6.69999998308413;671;100 mA
7.18916198184911;0.4005126953125;0.000476684570312499;6.70999998305888;672;100 mA
7.19916198182386;0.4005126953125;0.00046539306640625;6.71999998303363;673;100 mA
7.20916198179862;0.400604248046875;0.000465087890625;6.72999998300838;674;100 mA
7.21916198177337;0.400665283203125;0.0004638671875;6.73999998298314;675;100 mA
7.22916198174812;0.40045166015625;0.00048370361328125;6.74999998295789;676;100 mA
7.23916198172287;0.40057373046875;0.00048980712890625;6.75999998293264;677;100 mA
7.24916198169763;0.40057373046875;0.00045166015625;6.76999998290739;678;100 mA
7.25916198167238;0.400543212890625;0.0004681396484375;6.77999998288215;679;100 mA
7.26916198164713;0.40045166015625;0.00046875;6.7899999828569;680;100 mA
7.27916198162188;0.4005126953125;0.00049285888671875;6.79999998283165;681;100 mA
7.28916198159664;0.40057373046875;0.0004730224609375;6.8099999828064;682;100 mA
7.29916198157139;0.400543212890625;0.00045440673828125;6.81999998278116;683;100 mA
7.30916198154614;0.40057373046875;0.00047760009765625;6.82999998275591;684;100 mA
7.31916198152089;0.400634765625;0.000477294921875;6.83999998273066;685;100 mA
7.32916198149564;0.400634765625;0.00048858642578125;6.84999998270541;686;100 mA
7.3391619814704;0.400604248046875;0.0004718017578125;6.85999998268016;687;100 mA
7.34916198144515;0.400604248046875;0.0004681396484375;6.86999998265492;688;100 mA
7.3591619814199;0.40045166015625;0.000472106933593749;6.87999998262967;689;100 mA
7.36916198139465;0.400604248046875;0.00048492431640625;6.88999998260442;690;100 mA
7.37916198136941;0.40045166015625;0.000494995117187499;6.89999998257917;691;100 mA
7.38916198134416;0.400543212890625;0.000484313964843749;6.90999998255393;692;100 mA
7.39916198131891;0.400482177734375;0.000473937988281251;6.91999998252868;693;100 mA
7.40916198129366;0.40057373046875;0.000485839843749999;6.92999998250343;694;100 mA
7.41916198126842;0.4005126953125;0.00050323486328125;6.93999998247818;695;100 mA
7.42916198124317;0.400634765625;0.000494384765625;6.94999998245294;696;100 mA
7.43916198121792;0.4005126953125;0.000492248535156251;6.95999998242769;697;100 mA
7.44916198119267;0.400726318359375;0.000481262207031249;6.96999998240244;698;100 mA
7.45916198116743;0.400421142578125;0.00049407958984375;6.97999998237719;699;100 mA
7.46916198114218;0.4005126953125;0.00049896240234375;6.98999998235195;700;100 mA
