Time (s);WE(1).Potential (V);WE(1).Current (A);Corrected time (s);Index;Current range
7.96829597988199;0.306243896484375;-0.001678466796875;0;1;100 mA
7.97829597985674;0.30035400390625;-0.00048828125;0.00999999997475243;2;100 mA
7.98829597983149;0.300323486328125;-0.000189819335937499;0.0199999999495049;3;100 mA
7.99829597980624;0.300384521484375;-7.41577148437506E-05;0.0299999999242573;4;100 mA
8.008295979781;0.300537109375;-3.78417968750003E-05;0.0399999998990097;5;100 mA
8.01829597975575;0.300506591796875;2.62451171874997E-05;0.0499999998737621;6;100 mA
8.0282959797305;0.300567626953125;8.27026367187497E-05;0.0599999998485146;7;100 mA
8.03829597970525;0.300537109375;0.00012176513671875;0.069999999823267;8;100 mA
8.04829597968001;0.30059814453125;0.000133361816406249;0.0799999997980194;9;100 mA
8.05829597965476;0.300506591796875;0.000133666992187501;0.0899999997727718;10;100 mA
8.06829597962951;0.300506591796875;0.000174560546874999;0.0999999997475243;11;100 mA
8.07829597960426;0.300445556640625;0.000191650390625001;0.109999999722277;12;100 mA
8.08829597957902;0.300445556640625;0.000214538574218751;0.119999999697029;13;100 mA
8.09829597955377;0.300506591796875;0.000206298828125;0.129999999671782;14;100 mA
8.10829597952852;0.30047607421875;0.0002105712890625;0.139999999646534;15;100 mA
8.11829597950327;0.30047607421875;0.000231323242187501;0.149999999621286;16;100 mA
8.12829597947803;0.300537109375;0.000245056152343751;0.159999999596039;17;100 mA
8.13829597945278;0.300567626953125;0.00025634765625;0.169999999570791;18;100 mA
8.14829597942753;0.3004150390625;0.00025482177734375;0.179999999545544;19;100 mA
8.15829597940228;0.300506591796875;0.00025054931640625;0.189999999520296;20;100 mA
8.16829597937704;0.300445556640625;0.00027191162109375;0.199999999495049;21;100 mA
8.17829597935179;0.300445556640625;0.0002947998046875;0.209999999469801;22;100 mA
8.18829597932654;0.3004150390625;0.000287780761718751;0.219999999444553;23;100 mA
8.19829597930129;0.30047607421875;0.000296630859374999;0.229999999419306;24;100 mA
8.20829597927604;0.30047607421875;0.0002825927734375;0.239999999394058;25;100 mA
8.2182959792508;0.300537109375;0.00029937744140625;0.249999999368811;26;100 mA
8.22829597922555;0.3004150390625;0.0003173828125;0.259999999343563;27;100 mA
8.2382959792003;0.30059814453125;0.0003173828125;0.269999999318316;28;100 mA
8.24829597917505;0.30059814453125;0.000299072265625;0.279999999293068;29;100 mA
8.25829597914981;0.300628662109375;0.0002978515625;0.28999999926782;30;100 mA
8.26829597912456;0.30047607421875;0.00032196044921875;0.299999999242573;31;100 mA
8.27829597909931;0.300506591796875;0.00034637451171875;0.309999999217325;32;100 mA
8.28829597907406;0.300445556640625;0.00033447265625;0.319999999192078;33;100 mA
8.29829597904882;0.300537109375;0.000305786132812499;0.32999999916683;34;100 mA
8.30829597902357;0.3004150390625;0.0003143310546875;0.339999999141583;35;100 mA
8.31829597899832;0.300537109375;0.00033111572265625;0.349999999116335;36;100 mA
8.32829597897307;0.300445556640625;0.000338134765625001;0.359999999091087;37;100 mA
8.33829597894783;0.30059814453125;0.000315246582031251;0.36999999906584;38;100 mA
8.34829597892258;0.300537109375;0.00032196044921875;0.379999999040592;39;100 mA
8.35829597889733;0.300537109375;0.000319824218750001;0.389999999015345;40;100 mA
8.36829597887208;0.300537109375;0.00033721923828125;0.399999998990097;41;100 mA
8.37829597884684;0.300567626953125;0.000341796875;0.40999999896485;42;100 mA
8.38829597882159;0.300445556640625;0.000328979492187501;0.419999998939602;43;100 mA
8.39829597879634;0.3004150390625;0.00032501220703125;0.429999998914354;44;100 mA
8.40829597877109;0.300445556640625;0.0003314208984375;0.439999998889107;45;100 mA
8.41829597874585;0.300445556640625;0.000354614257812499;0.449999998863859;46;100 mA
8.4282959787206;0.300567626953125;0.000345458984374999;0.459999998838612;47;100 mA
8.43829597869535;0.30059814453125;0.000342712402343751;0.469999998813364;48;100 mA
8.4482959786701;0.300628662109375;0.000331726074218749;0.479999998788116;49;100 mA
8.45829597864486;0.30059814453125;0.000343933105468749;0.489999998762869;50;100 mA
8.46829597861961;0.300506591796875;0.000362548828125001;0.499999998737621;51;100 mA
8.47829597859436;0.300445556640625;0.00036285400390625;0.509999998712374;52;100 mA
8.48829597856911;0.300567626953125;0.000339355468749999;0.519999998687126;53;100 mA
8.49829597854387;0.300445556640625;0.000342407226562499;0.529999998661879;54;100 mA
8.50829597851862;0.300506591796875;0.000351867675781251;0.539999998636631;55;100 mA
8.51829597849337;0.300506591796875;0.000373229980468751;0.549999998611383;56;100 mA
8.52829597846812;0.30059814453125;0.00035369873046875;0.559999998586136;57;100 mA
8.53829597844287;0.300567626953125;0.000330505371093751;0.569999998560888;58;100 mA
8.54829597841763;0.300567626953125;0.0003497314453125;0.579999998535641;59;100 mA
8.55829597839238;0.300506591796875;0.000351562499999999;0.589999998510393;60;100 mA
8.56829597836713;0.30059814453125;0.0003692626953125;0.599999998485146;61;100 mA
8.57829597834188;0.300506591796875;0.0003466796875;0.609999998459898;62;100 mA
8.58829597831664;0.300537109375;0.000339660644531251;0.61999999843465;63;100 mA
8.59829597829139;0.3004150390625;0.000348815917968751;0.629999998409403;64;100 mA
8.60829597826614;0.300537109375;0.000350341796875001;0.639999998384155;65;100 mA
8.61829597824089;0.300384521484375;0.000365600585937501;0.649999998358908;66;100 mA
8.62829597821565;0.300537109375;0.000345458984374999;0.65999999833366;67;100 mA
8.6382959781904;0.300445556640625;0.00034210205078125;0.669999998308413;68;100 mA
8.64829597816515;0.300567626953125;0.00035400390625;0.679999998283165;69;100 mA
8.6582959781399;0.30047607421875;0.000365295410156249;0.689999998257917;70;100 mA
8.66829597811466;0.300537109375;0.000369873046874999;0.69999999823267;71;100 mA
8.67829597808941;0.300445556640625;0.000361022949218751;0.709999998207422;72;100 mA
8.68829597806416;0.300445556640625;0.0003521728515625;0.719999998182175;73;100 mA
8.69829597803891;0.3004150390625;0.000364990234375;0.729999998156927;74;100 mA
8.70829597801367;0.3004150390625;0.00037353515625;0.73999999813168;75;100 mA
8.71829597798842;0.30047607421875;0.000382385253906251;0.749999998106432;76;100 mA
8.72829597796317;0.300506591796875;0.000359191894531249;0.759999998081184;77;100 mA
8.73829597793792;0.300537109375;0.0003558349609375;0.769999998055937;78;100 mA
8.74829597791268;0.30059814453125;0.000369873046874999;0.779999998030689;79;100 mA
8.75829597788743;0.300506591796875;0.000380859375000001;0.789999998005442;80;100 mA
8.76829597786218;0.300567626953125;0.000377807617187501;0.799999997980194;81;100 mA
8.77829597783693;0.30059814453125;0.00035125732421875;0.809999997954947;82;100 mA
8.78829597781169;0.300445556640625;0.00035858154296875;0.819999997929699;83;100 mA
8.79829597778644;0.300506591796875;0.000379638671875;0.829999997904451;84;100 mA
8.80829597776119;0.300506591796875;0.0003704833984375;0.839999997879204;85;100 mA
8.81829597773594;0.30059814453125;0.00036590576171875;0.849999997853956;86;100 mA
8.8282959777107;0.300506591796875;0.00035125732421875;0.859999997828709;87;100 mA
8.83829597768545;0.300567626953125;0.000360107421875;0.869999997803461;88;100 mA
8.8482959776602;0.300567626953125;0.00036895751953125;0.879999997778214;89;100 mA
8.85829597763495;0.300628662109375;0.0003662109375;0.889999997752966;90;100 mA
8.86829597760971;0.30047607421875;0.00036285400390625;0.899999997727718;91;100 mA
8.87829597758446;0.300537109375;0.000350036621093749;0.909999997702471;92;100 mA
8.88829597755921;0.3004150390625;0.000362548828125001;0.919999997677223;93;100 mA
8.89829597753396;0.30047607421875;0.00038116455078125;0.929999997651976;94;100 mA
8.90829597750871;0.30035400390625;0.00037078857421875;0.939999997626728;95;100 mA
8.91829597748347;0.300567626953125;0.000374450683593749;0.949999997601481;96;100 mA
8.92829597745822;0.300537109375;0.00035858154296875;0.959999997576233;97;100 mA
8.93829597743297;0.300537109375;0.000368347167968749;0.969999997550985;98;100 mA
8.94829597740772;0.300506591796875;0.000390625;0.979999997525738;99;100 mA
8.95829597738248;0.30059814453125;0.000377502441406249;0.98999999750049;100;100 mA
8.96829597735723;0.300506591796875;0.000372924804687499;0.999999997475243;101;100 mA
8.97829597733198;0.30059814453125;0.000361022949218751;1.00999999745;102;100 mA
8.98829597730673;0.300506591796875;0.000377197265625;1.01999999742475;103;100 mA
8.99829597728149;0.300537109375;0.00039093017578125;1.0299999973995;104;100 mA
9.00829597725624;0.30047607421875;0.00037506103515625;1.03999999737425;105;100 mA
9.01829597723099;0.300537109375;0.000362243652343749;1.049999997349;106;100 mA
9.02829597720574;0.300537109375;0.000367126464843751;1.05999999732376;107;100 mA
9.0382959771805;0.30059814453125;0.00037872314453125;1.06999999729851;108;100 mA
9.04829597715525;0.300628662109375;0.000385131835937499;1.07999999727326;109;100 mA
9.05829597713;0.300628662109375;0.000361328125;1.08999999724801;110;100 mA
9.06829597710475;0.300567626953125;0.000367126464843751;1.09999999722277;111;100 mA
9.07829597707951;0.30047607421875;0.000368652343750001;1.10999999719752;112;100 mA
9.08829597705426;0.300506591796875;0.0003692626953125;1.11999999717227;113;100 mA
9.09829597702901;0.300384521484375;0.000385131835937499;1.12999999714702;114;100 mA
9.10829597700376;0.300506591796875;0.00036163330078125;1.13999999712178;115;100 mA
9.11829597697852;0.3004150390625;0.000361328125;1.14999999709653;116;100 mA
9.12829597695327;0.300537109375;0.00037078857421875;1.15999999707128;117;100 mA
9.13829597692802;0.30047607421875;0.000385131835937499;1.16999999704603;118;100 mA
9.14829597690277;0.300628662109375;0.000377807617187501;1.17999999702079;119;100 mA
9.15829597687753;0.300506591796875;0.00036651611328125;1.18999999699554;120;100 mA
9.16829597685228;0.300567626953125;0.00036956787109375;1.19999999697029;121;100 mA
9.17829597682703;0.3004150390625;0.00037353515625;1.20999999694504;122;100 mA
9.18829597680178;0.30047607421875;0.000390014648437501;1.2199999969198;123;100 mA
9.19829597677654;0.3004150390625;0.00038909912109375;1.22999999689455;124;100 mA
9.20829597675129;0.30047607421875;0.000370178222656251;1.2399999968693;125;100 mA
9.21829597672604;0.300506591796875;0.000376281738281251;1.24999999684405;126;100 mA
9.22829597670079;0.30059814453125;0.000383605957031249;1.25999999681881;127;100 mA
9.23829597667554;0.300537109375;0.000398864746093749;1.26999999679356;128;100 mA
9.2482959766503;0.30059814453125;0.00038787841796875;1.27999999676831;129;100 mA
9.25829597662505;0.300567626953125;0.00036346435546875;1.28999999674306;130;100 mA
9.2682959765998;0.300567626953125;0.000380859375000001;1.29999999671782;131;100 mA
9.27829597657455;0.300506591796875;0.000382080078124999;1.30999999669257;132;100 mA
9.28829597654931;0.300537109375;0.0003887939453125;1.31999999666732;133;100 mA
9.29829597652406;0.300537109375;0.0003802490234375;1.32999999664207;134;100 mA
9.30829597649881;0.30047607421875;0.00035888671875;1.33999999661683;135;100 mA
9.31829597647356;0.300445556640625;0.00037841796875;1.34999999659158;136;100 mA
9.32829597644832;0.300628662109375;0.00037261962890625;1.35999999656633;137;100 mA
9.33829597642307;0.300537109375;0.0003863525390625;1.36999999654108;138;100 mA
9.34829597639782;0.300506591796875;0.00037078857421875;1.37999999651583;139;100 mA
9.35829597637257;0.300537109375;0.000351562499999999;1.38999999649059;140;100 mA
9.36829597634733;0.300506591796875;0.00037261962890625;1.39999999646534;141;100 mA
9.37829597632208;0.300506591796875;0.000383605957031249;1.40999999644009;142;100 mA
9.38829597629683;0.30047607421875;0.00037872314453125;1.41999999641484;143;100 mA
9.39829597627158;0.30047607421875;0.000379028320312499;1.4299999963896;144;100 mA
9.40829597624634;0.3004150390625;0.0003643798828125;1.43999999636435;145;100 mA
9.41829597622109;0.300506591796875;0.0003814697265625;1.4499999963391;146;100 mA
9.42829597619584;0.30047607421875;0.000389709472656249;1.45999999631385;147;100 mA
9.43829597617059;0.300537109375;0.00039520263671875;1.46999999628861;148;100 mA
9.44829597614535;0.300537109375;0.000377197265625;1.47999999626336;149;100 mA
9.4582959761201;0.3006591796875;0.0003643798828125;1.48999999623811;150;100 mA
9.46829597609485;0.30047607421875;0.000388488769531251;1.49999999621286;151;100 mA
9.4782959760696;0.300506591796875;0.00040252685546875;1.50999999618762;152;100 mA
9.48829597604436;0.300506591796875;0.0003863525390625;1.51999999616237;153;100 mA
9.49829597601911;0.30059814453125;0.000368652343750001;1.52999999613712;154;100 mA
9.50829597599386;0.300445556640625;0.00037384033203125;1.53999999611187;155;100 mA
9.51829597596861;0.300567626953125;0.00039794921875;1.54999999608663;156;100 mA
9.52829597594337;0.300506591796875;0.0003955078125;1.55999999606138;157;100 mA
9.53829597591812;0.300567626953125;0.00037994384765625;1.56999999603613;158;100 mA
9.54829597589287;0.300567626953125;0.00037353515625;1.57999999601088;159;100 mA
9.55829597586762;0.3006591796875;0.00038177490234375;1.58999999598564;160;100 mA
9.56829597584237;0.30059814453125;0.00038909912109375;1.59999999596039;161;100 mA
9.57829597581713;0.30047607421875;0.00039215087890625;1.60999999593514;162;100 mA
9.58829597579188;0.30047607421875;0.000377197265625;1.61999999590989;163;100 mA
9.59829597576663;0.30047607421875;0.000374755859375001;1.62999999588465;164;100 mA
9.60829597574138;0.30047607421875;0.000379028320312499;1.6399999958594;165;100 mA
9.61829597571614;0.30047607421875;0.000406799316406251;1.64999999583415;166;100 mA
9.62829597569089;0.300506591796875;0.00038909912109375;1.6599999958089;167;100 mA
9.63829597566564;0.300506591796875;0.0003924560546875;1.66999999578366;168;100 mA
9.64829597564039;0.300506591796875;0.00038604736328125;1.67999999575841;169;100 mA
9.65829597561515;0.30047607421875;0.000391235351562499;1.68999999573316;170;100 mA
9.6682959755899;0.300537109375;0.0004107666015625;1.69999999570791;171;100 mA
9.67829597556465;0.30047607421875;0.000402221679687501;1.70999999568267;172;100 mA
9.6882959755394;0.300567626953125;0.0003948974609375;1.71999999565742;173;100 mA
9.69829597551416;0.300506591796875;0.00039031982421875;1.72999999563217;174;100 mA
9.70829597548891;0.300567626953125;0.00039794921875;1.73999999560692;175;100 mA
9.71829597546366;0.300506591796875;0.000417175292968749;1.74999999558167;176;100 mA
9.72829597543841;0.300567626953125;0.0004058837890625;1.75999999555643;177;100 mA
9.73829597541317;0.300537109375;0.000389404296875;1.76999999553118;178;100 mA
9.74829597538792;0.3006591796875;0.00039215087890625;1.77999999550593;179;100 mA
9.75829597536267;0.300506591796875;0.000400390624999999;1.78999999548068;180;100 mA
9.76829597533742;0.30059814453125;0.00041473388671875;1.79999999545544;181;100 mA
9.77829597531218;0.300537109375;0.00039337158203125;1.80999999543019;182;100 mA
9.78829597528693;0.300537109375;0.0003826904296875;1.81999999540494;183;100 mA
9.79829597526168;0.300384521484375;0.000401916503906249;1.82999999537969;184;100 mA
9.80829597523643;0.300567626953125;0.00038787841796875;1.83999999535445;185;100 mA
9.81829597521119;0.300445556640625;0.00041046142578125;1.8499999953292;186;100 mA
9.82829597518594;0.300537109375;0.000390625;1.85999999530395;187;100 mA
9.83829597516069;0.300506591796875;0.0003814697265625;1.8699999952787;188;100 mA
9.84829597513544;0.300567626953125;0.000395812988281249;1.87999999525346;189;100 mA
9.8582959751102;0.300537109375;0.00040008544921875;1.88999999522821;190;100 mA
9.86829597508495;0.300506591796875;0.000409851074218751;1.89999999520296;191;100 mA
9.8782959750597;0.300445556640625;0.0003948974609375;1.90999999517771;192;100 mA
9.88829597503445;0.30047607421875;0.000388183593749999;1.91999999515247;193;100 mA
9.8982959750092;0.300445556640625;0.000398864746093749;1.92999999512722;194;100 mA
9.90829597498396;0.30047607421875;0.000406494140624999;1.93999999510197;195;100 mA
9.91829597495871;0.300537109375;0.00040863037109375;1.94999999507672;196;100 mA
9.92829597493346;0.300384521484375;0.00040130615234375;1.95999999505148;197;100 mA
9.93829597490821;0.30047607421875;0.0003924560546875;1.96999999502623;198;100 mA
9.94829597488297;0.3006591796875;0.000398864746093749;1.97999999500098;199;100 mA
9.95829597485772;0.300537109375;0.00040740966796875;1.98999999497573;200;100 mA
9.96829597483247;0.30047607421875;0.00041015625;1.99999999495049;201;100 mA
9.97829597480722;0.300567626953125;0.000388183593749999;2.00999999492524;202;100 mA
9.98829597478198;0.30047607421875;0.000390625;2.01999999489999;203;100 mA
9.99829597475673;0.30047607421875;0.00040924072265625;2.02999999487474;204;100 mA
10.0082959747315;0.3004150390625;0.000404968261718749;2.0399999948495;205;100 mA
10.0182959747062;0.300567626953125;0.000401611328125;2.04999999482425;206;100 mA
10.028295974681;0.300537109375;0.000383605957031249;2.059999994799;207;100 mA
10.0382959746557;0.300506591796875;0.0004058837890625;2.06999999477375;208;100 mA
10.0482959746305;0.300567626953125;0.000396728515625;2.0799999947485;209;100 mA
10.0582959746052;0.300506591796875;0.000400695800781251;2.08999999472326;210;100 mA
10.06829597458;0.300506591796875;0.00039794921875;2.09999999469801;211;100 mA
10.0782959745547;0.300567626953125;0.000379028320312499;2.10999999467276;212;100 mA
10.0882959745295;0.30035400390625;0.000397338867187499;2.11999999464751;213;100 mA
10.0982959745043;0.300506591796875;0.00040924072265625;2.12999999462227;214;100 mA
10.108295974479;0.300384521484375;0.00039703369140625;2.13999999459702;215;100 mA
10.1182959744538;0.300628662109375;0.000394287109374999;2.14999999457177;216;100 mA
10.1282959744285;0.30047607421875;0.000385437011718751;2.15999999454652;217;100 mA
10.1382959744033;0.300567626953125;0.00040008544921875;2.16999999452128;218;100 mA
10.148295974378;0.300445556640625;0.00041656494140625;2.17999999449603;219;100 mA
10.1582959743528;0.30059814453125;0.000400390624999999;2.18999999447078;220;100 mA
10.1682959743275;0.300537109375;0.00040771484375;2.19999999444553;221;100 mA
10.1782959743023;0.300537109375;0.000389404296875;2.20999999442029;222;100 mA
10.188295974277;0.300445556640625;0.000400695800781251;2.21999999439504;223;100 mA
10.1982959742518;0.300445556640625;0.000421142578125;2.22999999436979;224;100 mA
10.2082959742265;0.300445556640625;0.000404052734375;2.23999999434454;225;100 mA
10.2182959742013;0.300506591796875;0.000390625;2.2499999943193;226;100 mA
10.228295974176;0.30047607421875;0.000394287109374999;2.25999999429405;227;100 mA
10.2382959741508;0.30059814453125;0.000403747558593751;2.2699999942688;228;100 mA
10.2482959741255;0.300628662109375;0.000411071777343749;2.27999999424355;229;100 mA
10.2582959741003;0.300567626953125;0.000390014648437501;2.28999999421831;230;100 mA
10.268295974075;0.300567626953125;0.000385131835937499;2.29999999419306;231;100 mA
10.2782959740498;0.30047607421875;0.000403747558593751;2.30999999416781;232;100 mA
10.2882959740245;0.3006591796875;0.000393066406250001;2.31999999414256;233;100 mA
10.2982959739993;0.30047607421875;0.00040924072265625;2.32999999411732;234;100 mA
10.3082959739741;0.300506591796875;0.00038330078125;2.33999999409207;235;100 mA
10.3182959739488;0.3004150390625;0.000388183593749999;2.34999999406682;236;100 mA
10.3282959739236;0.30047607421875;0.0003955078125;2.35999999404157;237;100 mA
10.3382959738983;0.300445556640625;0.000408020019531249;2.36999999401633;238;100 mA
10.3482959738731;0.30059814453125;0.00040863037109375;2.37999999399108;239;100 mA
10.3582959738478;0.30047607421875;0.000394592285156251;2.38999999396583;240;100 mA
10.3682959738226;0.300689697265625;0.00039642333984375;2.39999999394058;241;100 mA
10.3782959737973;0.300445556640625;0.000403747558593751;2.40999999391533;242;100 mA
10.3882959737721;0.30047607421875;0.00041351318359375;2.41999999389009;243;100 mA
10.3982959737468;0.3004150390625;0.00041473388671875;2.42999999386484;244;100 mA
10.4082959737216;0.300445556640625;0.000403442382812499;2.43999999383959;245;100 mA
10.4182959736963;0.30047607421875;0.0004010009765625;2.44999999381434;246;100 mA
10.4282959736711;0.300567626953125;0.000411376953125001;2.4599999937891;247;100 mA
10.4382959736458;0.300445556640625;0.00042755126953125;2.46999999376385;248;100 mA
10.4482959736206;0.300506591796875;0.000422058105468751;2.4799999937386;249;100 mA
10.4582959735953;0.30059814453125;0.00039031982421875;2.48999999371335;250;100 mA
10.4682959735701;0.30059814453125;0.00040924072265625;2.49999999368811;251;100 mA
10.4782959735448;0.3004150390625;0.00041534423828125;2.50999999366286;252;100 mA
10.4882959735196;0.300445556640625;0.00042236328125;2.51999999363761;253;100 mA
10.4982959734944;0.300506591796875;0.000412902832031251;2.52999999361236;254;100 mA
10.5082959734691;0.300506591796875;0.00039398193359375;2.53999999358712;255;100 mA
10.5182959734439;0.30047607421875;0.0004254150390625;2.54999999356187;256;100 mA
10.5282959734186;0.30059814453125;0.00041168212890625;2.55999999353662;257;100 mA
10.5382959733934;0.300567626953125;0.000424804687499999;2.56999999351137;258;100 mA
10.5482959733681;0.300537109375;0.000412597656249999;2.57999999348613;259;100 mA
10.5582959733429;0.300567626953125;0.00039398193359375;2.58999999346088;260;100 mA
10.5682959733176;0.300384521484375;0.000419921875;2.59999999343563;261;100 mA
10.5782959732924;0.300567626953125;0.00042449951171875;2.60999999341038;262;100 mA
10.5882959732671;0.3004150390625;0.00042388916015625;2.61999999338514;263;100 mA
10.5982959732419;0.300445556640625;0.000420227050781249;2.62999999335989;264;100 mA
10.6082959732166;0.3004150390625;0.000408325195312501;2.63999999333464;265;100 mA
10.6182959731914;0.300506591796875;0.00042449951171875;2.64999999330939;266;100 mA
10.6282959731661;0.300506591796875;0.0004315185546875;2.65999999328415;267;100 mA
10.6382959731409;0.300537109375;0.00042388916015625;2.6699999932589;268;100 mA
10.6482959731156;0.300384521484375;0.00042755126953125;2.67999999323365;269;100 mA
10.6582959730904;0.3006591796875;0.00040924072265625;2.6899999932084;270;100 mA
10.6682959730651;0.300384521484375;0.000426635742187501;2.69999999318316;271;100 mA
10.6782959730399;0.300537109375;0.000438537597656249;2.70999999315791;272;100 mA
10.6882959730146;0.300445556640625;0.000428161621093751;2.71999999313266;273;100 mA
10.6982959729894;0.300506591796875;0.0004071044921875;2.72999999310741;274;100 mA
10.7082959729642;0.30047607421875;0.000405273437500001;2.73999999308217;275;100 mA
10.7182959729389;0.300537109375;0.00042999267578125;2.74999999305692;276;100 mA
10.7282959729137;0.300506591796875;0.000426330566406249;2.75999999303167;277;100 mA
10.7382959728884;0.300628662109375;0.0004107666015625;2.76999999300642;278;100 mA
10.7482959728632;0.300537109375;0.00040283203125;2.77999999298117;279;100 mA
10.7582959728379;0.30059814453125;0.00041473388671875;2.78999999295593;280;100 mA
10.7682959728127;0.30059814453125;0.000412902832031251;2.79999999293068;281;100 mA
10.7782959727874;0.300506591796875;0.0004241943359375;2.80999999290543;282;100 mA
10.7882959727622;0.300445556640625;0.000404968261718749;2.81999999288018;283;100 mA
10.7982959727369;0.3004150390625;0.000395812988281249;2.82999999285494;284;100 mA
10.8082959727117;0.300384521484375;0.000403442382812499;2.83999999282969;285;100 mA
10.8182959726864;0.30047607421875;0.000426635742187501;2.84999999280444;286;100 mA
10.8282959726612;0.300506591796875;0.000416259765625;2.85999999277919;287;100 mA
10.8382959726359;0.300567626953125;0.000409545898437499;2.86999999275395;288;100 mA
10.8482959726107;0.300567626953125;0.00041046142578125;2.8799999927287;289;100 mA
10.8582959725854;0.30047607421875;0.00041473388671875;2.88999999270345;290;100 mA
10.8682959725602;0.300506591796875;0.000430908203124999;2.8999999926782;291;100 mA
10.8782959725349;0.300445556640625;0.000424804687499999;2.90999999265296;292;100 mA
10.8882959725097;0.300506591796875;0.000418701171874999;2.91999999262771;293;100 mA
10.8982959724844;0.300445556640625;0.000415954589843751;2.92999999260246;294;100 mA
10.9082959724592;0.300537109375;0.000415954589843751;2.93999999257721;295;100 mA
10.918295972434;0.300445556640625;0.00044525146484375;2.94999999255197;296;100 mA
10.9282959724087;0.300506591796875;0.000435485839843749;2.95999999252672;297;100 mA
10.9382959723835;0.300506591796875;0.000412902832031251;2.96999999250147;298;100 mA
10.9482959723582;0.300628662109375;0.00041961669921875;2.97999999247622;299;100 mA
10.958295972333;0.30047607421875;0.0004290771484375;2.98999999245098;300;100 mA
10.9682959723077;0.300567626953125;0.000439453125;2.99999999242573;301;100 mA
10.9782959722825;0.30047607421875;0.000421142578125;3.00999999240048;302;100 mA
10.9882959722572;0.300567626953125;0.000408020019531249;3.01999999237523;303;100 mA
10.998295972232;0.30047607421875;0.000435485839843749;3.02999999234999;304;100 mA
11.0082959722067;0.300628662109375;0.000414428710937501;3.03999999232474;305;100 mA
11.0182959721815;0.30047607421875;0.0004290771484375;3.04999999229949;306;100 mA
11.0282959721562;0.300567626953125;0.0004107666015625;3.05999999227424;307;100 mA
11.038295972131;0.300537109375;0.00040435791015625;3.069999992249;308;100 mA
11.0482959721057;0.30059814453125;0.00042083740234375;3.07999999222375;309;100 mA
11.0582959720805;0.300537109375;0.0004168701171875;3.0899999921985;310;100 mA
11.0682959720552;0.300506591796875;0.0004229736328125;3.09999999217325;311;100 mA
11.07829597203;0.300445556640625;0.000408935546875;3.109999992148;312;100 mA
11.0882959720047;0.300445556640625;0.000401916503906249;3.11999999212276;313;100 mA
11.0982959719795;0.3004150390625;0.000415649414062499;3.12999999209751;314;100 mA
11.1082959719542;0.300445556640625;0.000418701171874999;3.13999999207226;315;100 mA
11.118295971929;0.300537109375;0.000417480468750001;3.14999999204701;316;100 mA
11.1282959719038;0.300445556640625;0.00041473388671875;3.15999999202177;317;100 mA
11.1382959718785;0.30059814453125;0.0004058837890625;3.16999999199652;318;100 mA
11.1482959718533;0.300537109375;0.000419921875;3.17999999197127;319;100 mA
11.158295971828;0.30047607421875;0.000426635742187501;3.18999999194602;320;100 mA
11.1682959718028;0.300445556640625;0.000429382324218749;3.19999999192078;321;100 mA
11.1782959717775;0.300628662109375;0.000401916503906249;3.20999999189553;322;100 mA
11.1882959717523;0.300445556640625;0.000400390624999999;3.21999999187028;323;100 mA
11.198295971727;0.300506591796875;0.000423583984375001;3.22999999184503;324;100 mA
11.2082959717018;0.300445556640625;0.000423278808593749;3.23999999181979;325;100 mA
11.2182959716765;0.300537109375;0.000411071777343749;3.24999999179454;326;100 mA
11.2282959716513;0.300537109375;0.00039337158203125;3.25999999176929;327;100 mA
11.238295971626;0.300689697265625;0.000409545898437499;3.26999999174404;328;100 mA
11.2482959716008;0.30059814453125;0.0004046630859375;3.2799999917188;329;100 mA
11.2582959715755;0.300506591796875;0.000406799316406251;3.28999999169355;330;100 mA
11.2682959715503;0.300506591796875;0.00039703369140625;3.2999999916683;331;100 mA
11.278295971525;0.300537109375;0.0003857421875;3.30999999164305;332;100 mA
11.2882959714998;0.3004150390625;0.00039947509765625;3.31999999161781;333;100 mA
11.2982959714745;0.30047607421875;0.000408020019531249;3.32999999159256;334;100 mA
11.3082959714493;0.300445556640625;0.000403747558593751;3.33999999156731;335;100 mA
11.318295971424;0.30059814453125;0.000402221679687501;3.34999999154206;336;100 mA
11.3282959713988;0.300506591796875;0.00039520263671875;3.35999999151682;337;100 mA
11.3382959713736;0.300506591796875;0.000403442382812499;3.36999999149157;338;100 mA
11.3482959713483;0.30047607421875;0.000421752929687499;3.37999999146632;339;100 mA
11.3582959713231;0.300567626953125;0.00040313720703125;3.38999999144107;340;100 mA
11.3682959712978;0.30047607421875;0.00041351318359375;3.39999999141583;341;100 mA
11.3782959712726;0.300445556640625;0.000397644042968751;3.40999999139058;342;100 mA
11.3882959712473;0.300445556640625;0.0004107666015625;3.41999999136533;343;100 mA
11.3982959712221;0.3004150390625;0.000424804687499999;3.42999999134008;344;100 mA
11.4082959711968;0.30047607421875;0.000416259765625;3.43999999131483;345;100 mA
11.4182959711716;0.30047607421875;0.000402221679687501;3.44999999128959;346;100 mA
11.4282959711463;0.300537109375;0.000404968261718749;3.45999999126434;347;100 mA
11.4382959711211;0.300567626953125;0.0004150390625;3.46999999123909;348;100 mA
11.4482959710958;0.300567626953125;0.0004168701171875;3.47999999121384;349;100 mA
11.4582959710706;0.300445556640625;0.00040740966796875;3.4899999911886;350;100 mA
11.4682959710453;0.30059814453125;0.0003955078125;3.49999999116335;351;100 mA
11.4782959710201;0.300384521484375;0.000421752929687499;3.5099999911381;352;100 mA
11.4882959709948;0.30059814453125;0.000402221679687501;3.51999999111285;353;100 mA
11.4982959709696;0.300384521484375;0.000419921875;3.52999999108761;354;100 mA
11.5082959709443;0.30059814453125;0.000395812988281249;3.53999999106236;355;100 mA
11.5182959709191;0.30047607421875;0.000395812988281249;3.54999999103711;356;100 mA
11.5282959708939;0.300506591796875;0.00040863037109375;3.55999999101186;357;100 mA
11.5382959708686;0.300537109375;0.00040924072265625;3.56999999098662;358;100 mA
11.5482959708434;0.300567626953125;0.000417175292968749;3.57999999096137;359;100 mA
11.5582959708181;0.300445556640625;0.00039642333984375;3.58999999093612;360;100 mA
11.5682959707929;0.300537109375;0.000401611328125;3.59999999091087;361;100 mA
11.5782959707676;0.30047607421875;0.00040740966796875;3.60999999088563;362;100 mA
11.5882959707424;0.300445556640625;0.00041656494140625;3.61999999086038;363;100 mA
11.5982959707171;0.300445556640625;0.000412902832031251;3.62999999083513;364;100 mA
11.6082959706919;0.300445556640625;0.0004071044921875;3.63999999080988;365;100 mA
11.6182959706666;0.300506591796875;0.0004058837890625;3.64999999078464;366;100 mA
11.6282959706414;0.300567626953125;0.00041473388671875;3.65999999075939;367;100 mA
11.6382959706161;0.300506591796875;0.000422058105468751;3.66999999073414;368;100 mA
11.6482959705909;0.300506591796875;0.000423278808593749;3.67999999070889;369;100 mA
11.6582959705656;0.300537109375;0.000397338867187499;3.68999999068365;370;100 mA
11.6682959705404;0.300445556640625;0.00040740966796875;3.6999999906584;371;100 mA
11.6782959705151;0.300506591796875;0.00042449951171875;3.70999999063315;372;100 mA
11.6882959704899;0.30047607421875;0.000417480468750001;3.7199999906079;373;100 mA
11.6982959704646;0.300537109375;0.000415954589843751;3.72999999058266;374;100 mA
11.7082959704394;0.300506591796875;0.000391540527343751;3.73999999055741;375;100 mA
11.7182959704141;0.300567626953125;0.000425109863281251;3.74999999053216;376;100 mA
11.7282959703889;0.30059814453125;0.000408935546875;3.75999999050691;377;100 mA
11.7382959703637;0.300537109375;0.000415954589843751;3.76999999048167;378;100 mA
11.7482959703384;0.300537109375;0.00040863037109375;3.77999999045642;379;100 mA
11.7582959703132;0.300567626953125;0.00039031982421875;3.78999999043117;380;100 mA
11.7682959702879;0.300384521484375;0.0004150390625;3.79999999040592;381;100 mA
11.7782959702627;0.300506591796875;0.000417480468750001;3.80999999038067;382;100 mA
11.7882959702374;0.3004150390625;0.00040863037109375;3.81999999035543;383;100 mA
11.7982959702122;0.300537109375;0.000401916503906249;3.82999999033018;384;100 mA
11.8082959701869;0.3004150390625;0.00039398193359375;3.83999999030493;385;100 mA
11.8182959701617;0.300537109375;0.000406494140624999;3.84999999027968;386;100 mA
11.8282959701364;0.300445556640625;0.0004180908203125;3.85999999025444;387;100 mA
11.8382959701112;0.300567626953125;0.000397644042968751;3.86999999022919;388;100 mA
11.8482959700859;0.3004150390625;0.00041229248046875;3.87999999020394;389;100 mA
11.8582959700607;0.300537109375;0.000389709472656249;3.88999999017869;390;100 mA
11.8682959700354;0.3004150390625;0.000412597656249999;3.89999999015345;391;100 mA
11.8782959700102;0.30047607421875;0.000421752929687499;3.9099999901282;392;100 mA
11.8882959699849;0.300445556640625;0.000408020019531249;3.91999999010295;393;100 mA
11.8982959699597;0.30047607421875;0.00040130615234375;3.9299999900777;394;100 mA
11.9082959699344;0.300445556640625;0.00039337158203125;3.93999999005246;395;100 mA
11.9182959699092;0.300537109375;0.000411071777343749;3.94999999002721;396;100 mA
11.9282959698839;0.300628662109375;0.000417175292968749;3.95999999000196;397;100 mA
11.9382959698587;0.300537109375;0.00039947509765625;3.96999998997671;398;100 mA
11.9482959698335;0.300537109375;0.00039337158203125;3.97999998995147;399;100 mA
11.9582959698082;0.300445556640625;0.00040863037109375;3.98999998992622;400;100 mA
11.968295969783;0.300628662109375;0.000404052734375;3.99999998990097;401;100 mA
11.9782959697577;0.300445556640625;0.0004132080078125;4.00999998987572;402;100 mA
11.9882959697325;0.300506591796875;0.000394287109374999;4.01999998985048;403;100 mA
11.9982959697072;0.300445556640625;0.000389709472656249;4.02999998982523;404;100 mA
12.008295969682;0.300537109375;0.000391540527343751;4.03999998979998;405;100 mA
12.0182959696567;0.300506591796875;0.000404052734375;4.04999998977473;406;100 mA
12.0282959696315;0.300537109375;0.000408935546875;4.05999998974949;407;100 mA
12.0382959696062;0.30047607421875;0.000389709472656249;4.06999998972424;408;100 mA
12.048295969581;0.300567626953125;0.00039520263671875;4.07999998969899;409;100 mA
12.0582959695557;0.3004150390625;0.00039703369140625;4.08999998967374;410;100 mA
12.0682959695305;0.300445556640625;0.000414428710937501;4.0999999896485;411;100 mA
12.0782959695052;0.300384521484375;0.000396118164062501;4.10999998962325;412;100 mA
12.08829596948;0.300384521484375;0.00040313720703125;4.119999989598;413;100 mA
12.0982959694547;0.30047607421875;0.0003936767578125;4.12999998957275;414;100 mA
12.1082959694295;0.300537109375;0.000396118164062501;4.1399999895475;415;100 mA
12.1182959694042;0.300445556640625;0.00041168212890625;4.14999998952226;416;100 mA
12.128295969379;0.300537109375;0.000408325195312501;4.15999998949701;417;100 mA
12.1382959693537;0.30047607421875;0.000390014648437501;4.16999998947176;418;100 mA
12.1482959693285;0.300567626953125;0.000399169921875001;4.17999998944651;419;100 mA
12.1582959693033;0.30047607421875;0.000403747558593751;4.18999998942127;420;100 mA
12.168295969278;0.300506591796875;0.000409851074218751;4.19999998939602;421;100 mA
12.1782959692528;0.300506591796875;0.000399169921875001;4.20999998937077;422;100 mA
12.1882959692275;0.300445556640625;0.0003802490234375;4.21999998934552;423;100 mA
12.1982959692023;0.300445556640625;0.00041168212890625;4.22999998932028;424;100 mA
12.208295969177;0.300628662109375;0.000388183593749999;4.23999998929503;425;100 mA
12.2182959691518;0.30059814453125;0.0004010009765625;4.24999998926978;426;100 mA
12.2282959691265;0.30059814453125;0.0003863525390625;4.25999998924453;427;100 mA
12.2382959691013;0.30059814453125;0.0003753662109375;4.26999998921929;428;100 mA
12.248295969076;0.300506591796875;0.00039520263671875;4.27999998919404;429;100 mA
12.2582959690508;0.30059814453125;0.00039215087890625;4.28999998916879;430;100 mA
12.2682959690255;0.300384521484375;0.000399169921875001;4.29999998914354;431;100 mA
12.2782959690003;0.300506591796875;0.0003857421875;4.3099999891183;432;100 mA
12.288295968975;0.30035400390625;0.00038909912109375;4.31999998909305;433;100 mA
12.2982959689498;0.300506591796875;0.000396118164062501;4.3299999890678;434;100 mA
12.3082959689245;0.30047607421875;0.000403747558593751;4.33999998904255;435;100 mA
12.3182959688993;0.300567626953125;0.0003924560546875;4.34999998901731;436;100 mA
12.328295968874;0.300445556640625;0.000403442382812499;4.35999998899206;437;100 mA
12.3382959688488;0.30059814453125;0.000389709472656249;4.36999998896681;438;100 mA
12.3482959688235;0.300537109375;0.000404968261718749;4.37999998894156;439;100 mA
12.3582959687983;0.30047607421875;0.00041046142578125;4.38999998891632;440;100 mA
12.3682959687731;0.300384521484375;0.000408020019531249;4.39999998889107;441;100 mA
12.3782959687478;0.300445556640625;0.000394287109374999;4.40999998886582;442;100 mA
12.3882959687226;0.30047607421875;0.000391235351562499;4.41999998884057;443;100 mA
12.3982959686973;0.30047607421875;0.00041473388671875;4.42999998881533;444;100 mA
12.4082959686721;0.30047607421875;0.000411376953125001;4.43999998879008;445;100 mA
12.4182959686468;0.30059814453125;0.000403442382812499;4.44999998876483;446;100 mA
12.4282959686216;0.300506591796875;0.000386657714843749;4.45999998873958;447;100 mA
12.4382959685963;0.300567626953125;0.000408935546875;4.46999998871433;448;100 mA
12.4482959685711;0.30059814453125;0.00040283203125;4.47999998868909;449;100 mA
12.4582959685458;0.300537109375;0.00040740966796875;4.48999998866384;450;100 mA
12.4682959685206;0.300506591796875;0.00039520263671875;4.49999998863859;451;100 mA
12.4782959684953;0.30047607421875;0.0003857421875;4.50999998861334;452;100 mA
12.4882959684701;0.300537109375;0.00039642333984375;4.5199999885881;453;100 mA
12.4982959684448;0.300537109375;0.0004058837890625;4.52999998856285;454;100 mA
12.5082959684196;0.300537109375;0.00040557861328125;4.5399999885376;455;100 mA
12.5182959683943;0.300567626953125;0.000391845703125;4.54999998851235;456;100 mA
12.5282959683691;0.300506591796875;0.000400390624999999;4.55999998848711;457;100 mA
12.5382959683438;0.300506591796875;0.000400695800781251;4.56999998846186;458;100 mA
12.5482959683186;0.300506591796875;0.000417175292968749;4.57999998843661;459;100 mA
12.5582959682934;0.300445556640625;0.0003985595703125;4.58999998841136;460;100 mA
12.5682959682681;0.300445556640625;0.0004107666015625;4.59999998838612;461;100 mA
12.5782959682429;0.300506591796875;0.000398864746093749;4.60999998836087;462;100 mA
12.5882959682176;0.30047607421875;0.000404968261718749;4.61999998833562;463;100 mA
12.5982959681924;0.300506591796875;0.00042236328125;4.62999998831037;464;100 mA
12.6082959681671;0.300506591796875;0.00041351318359375;4.63999998828513;465;100 mA
12.6182959681419;0.300537109375;0.00040283203125;4.64999998825988;466;100 mA
12.6282959681166;0.300628662109375;0.0004046630859375;4.65999998823463;467;100 mA
12.6382959680914;0.300445556640625;0.000421752929687499;4.66999998820938;468;100 mA
12.6482959680661;0.300567626953125;0.000424804687499999;4.67999998818414;469;100 mA
12.6582959680409;0.300506591796875;0.000409545898437499;4.68999998815889;470;100 mA
12.6682959680156;0.30047607421875;0.00040008544921875;4.69999998813364;471;100 mA
12.6782959679904;0.300506591796875;0.00042083740234375;4.70999998810839;472;100 mA
12.6882959679651;0.300567626953125;0.00040435791015625;4.71999998808315;473;100 mA
12.6982959679399;0.300445556640625;0.00041961669921875;4.7299999880579;474;100 mA
12.7082959679146;0.300567626953125;0.00039947509765625;4.73999998803265;475;100 mA
12.7182959678894;0.300537109375;0.0003924560546875;4.7499999880074;476;100 mA
12.7282959678641;0.300628662109375;0.00040618896484375;4.75999998798216;477;100 mA
12.7382959678389;0.300567626953125;0.000403442382812499;4.76999998795691;478;100 mA
12.7482959678136;0.300567626953125;0.000408325195312501;4.77999998793166;479;100 mA
12.7582959677884;0.300506591796875;0.00038787841796875;4.78999998790641;480;100 mA
12.7682959677632;0.3004150390625;0.00039215087890625;4.79999998788116;481;100 mA
12.7782959677379;0.300445556640625;0.0004010009765625;4.80999998785592;482;100 mA
12.7882959677127;0.30047607421875;0.000408020019531249;4.81999998783067;483;100 mA
12.7982959676874;0.300506591796875;0.00039947509765625;4.82999998780542;484;100 mA
12.8082959676622;0.3004150390625;0.000398864746093749;4.83999998778017;485;100 mA
12.8182959676369;0.300567626953125;0.00039337158203125;4.84999998775493;486;100 mA
12.8282959676117;0.300506591796875;0.0004058837890625;4.85999998772968;487;100 mA
12.8382959675864;0.300537109375;0.00040557861328125;4.86999998770443;488;100 mA
12.8482959675612;0.3004150390625;0.000409851074218751;4.87999998767918;489;100 mA
12.8582959675359;0.300537109375;0.000388183593749999;4.88999998765394;490;100 mA
12.8682959675107;0.300445556640625;0.000396118164062501;4.89999998762869;491;100 mA
12.8782959674854;0.30059814453125;0.00041534423828125;4.90999998760344;492;100 mA
12.8882959674602;0.300445556640625;0.00040557861328125;4.91999998757819;493;100 mA
12.8982959674349;0.300537109375;0.000405273437500001;4.92999998755295;494;100 mA
12.9082959674097;0.300506591796875;0.00038330078125;4.9399999875277;495;100 mA
12.9182959673844;0.30059814453125;0.0004071044921875;4.94999998750245;496;100 mA
12.9282959673592;0.30059814453125;0.000400390624999999;4.9599999874772;497;100 mA
12.9382959673339;0.30059814453125;0.000400390624999999;4.96999998745196;498;100 mA
12.9482959673087;0.300506591796875;0.000396118164062501;4.97999998742671;499;100 mA
12.9582959672834;0.300537109375;0.00037841796875;4.98999998740146;500;100 mA
12.9682959672582;0.30047607421875;0.00039825439453125;4.99999998737621;501;100 mA
12.978295967233;0.300537109375;0.000399169921875001;5.00999998735097;502;100 mA
12.9882959672077;0.300537109375;0.000399169921875001;5.01999998732572;503;100 mA
12.9982959671825;0.30059814453125;0.000386962890625001;5.02999998730047;504;100 mA
13.0082959671572;0.300506591796875;0.0003826904296875;5.03999998727522;505;100 mA
13.018295967132;0.300537109375;0.0003948974609375;5.04999998724998;506;100 mA
13.0282959671067;0.300506591796875;0.000405273437500001;5.05999998722473;507;100 mA
13.0382959670815;0.300537109375;0.00038909912109375;5.06999998719948;508;100 mA
13.0482959670562;0.300506591796875;0.000405273437500001;5.07999998717423;509;100 mA
13.058295967031;0.300445556640625;0.00038909912109375;5.08999998714899;510;100 mA
13.0682959670057;0.30047607421875;0.000398864746093749;5.09999998712374;511;100 mA
13.0782959669805;0.300445556640625;0.000412902832031251;5.10999998709849;512;100 mA
13.0882959669552;0.300537109375;0.000398864746093749;5.11999998707324;513;100 mA
13.09829596693;0.300445556640625;0.0004046630859375;5.129999987048;514;100 mA
13.1082959669047;0.30059814453125;0.000394592285156251;5.13999998702275;515;100 mA
13.1182959668795;0.30108642578125;0.000418701171874999;5.1499999869975;516;100 mA
13.1282959668542;0.30059814453125;0.00041351318359375;5.15999998697225;517;100 mA
13.138295966829;0.30047607421875;0.000405273437500001;5.169999986947;518;100 mA
13.1482959668037;0.300537109375;0.00039215087890625;5.17999998692176;519;100 mA
13.1582959667785;0.300384521484375;0.000412597656249999;5.18999998689651;520;100 mA
13.1682959667532;0.300567626953125;0.000403442382812499;5.19999998687126;521;100 mA
13.178295966728;0.300445556640625;0.000414428710937501;5.20999998684601;522;100 mA
13.1882959667028;0.30059814453125;0.00039794921875;5.21999998682077;523;100 mA
13.1982959666775;0.300537109375;0.000391845703125;5.22999998679552;524;100 mA
13.2082959666523;0.300628662109375;0.000400390624999999;5.23999998677027;525;100 mA
13.218295966627;0.3006591796875;0.000403747558593751;5.24999998674502;526;100 mA
13.2282959666018;0.30059814453125;0.000404968261718749;5.25999998671978;527;100 mA
13.2382959665765;0.30047607421875;0.000388183593749999;5.26999998669453;528;100 mA
13.2482959665513;0.300506591796875;0.000395812988281249;5.27999998666928;529;100 mA
13.258295966526;0.3004150390625;0.000400390624999999;5.28999998664403;530;100 mA
13.2682959665008;0.300537109375;0.00040863037109375;5.29999998661879;531;100 mA
13.2782959664755;0.300537109375;0.000392761230468749;5.30999998659354;532;100 mA
13.2882959664503;0.300384521484375;0.00039947509765625;5.31999998656829;533;100 mA
13.298295966425;0.300537109375;0.000396118164062501;5.32999998654304;534;100 mA
13.3082959663998;0.30059814453125;0.000404968261718749;5.3399999865178;535;100 mA
13.3182959663745;0.300506591796875;0.00040557861328125;5.34999998649255;536;100 mA
13.3282959663493;0.300445556640625;0.0004071044921875;5.3599999864673;537;100 mA
13.338295966324;0.300506591796875;0.000397338867187499;5.36999998644205;538;100 mA
13.3482959662988;0.30047607421875;0.000395812988281249;5.37999998641681;539;100 mA
13.3582959662735;0.3006591796875;0.00042144775390625;5.38999998639156;540;100 mA
13.3682959662483;0.300445556640625;0.0004132080078125;5.39999998636631;541;100 mA
13.378295966223;0.300567626953125;0.000404052734375;5.40999998634106;542;100 mA
13.3882959661978;0.30047607421875;0.000386962890625001;5.41999998631582;543;100 mA
13.3982959661726;0.300506591796875;0.00041839599609375;5.42999998629057;544;100 mA
13.4082959661473;0.300537109375;0.00039825439453125;5.43999998626532;545;100 mA
13.4182959661221;0.300628662109375;0.000408325195312501;5.44999998624007;546;100 mA
13.4282959660968;0.300567626953125;0.000395812988281249;5.45999998621483;547;100 mA
13.4382959660716;0.30059814453125;0.00038299560546875;5.46999998618958;548;100 mA
13.4482959660463;0.30047607421875;0.0004046630859375;5.47999998616433;549;100 mA
13.4582959660211;0.30059814453125;0.000394287109374999;5.48999998613908;550;100 mA
13.4682959659958;0.30047607421875;0.00040557861328125;5.49999998611383;551;100 mA
13.4782959659706;0.300537109375;0.000383911132812501;5.50999998608859;552;100 mA
13.4882959659453;0.30047607421875;0.000391235351562499;5.51999998606334;553;100 mA
13.4982959659201;0.300567626953125;0.00040771484375;5.52999998603809;554;100 mA
13.5082959658948;0.300537109375;0.000401916503906249;5.53999998601284;555;100 mA
13.5182959658696;0.300537109375;0.000390625;5.5499999859876;556;100 mA
13.5282959658443;0.3004150390625;0.00040771484375;5.55999998596235;557;100 mA
13.5382959658191;0.300567626953125;0.0003887939453125;5.5699999859371;558;100 mA
13.5482959657938;0.300445556640625;0.00041168212890625;5.57999998591185;559;100 mA
13.5582959657686;0.30047607421875;0.000409851074218751;5.58999998588661;560;100 mA
13.5682959657433;0.30047607421875;0.000413818359375;5.59999998586136;561;100 mA
13.5782959657181;0.30047607421875;0.00040740966796875;5.60999998583611;562;100 mA
13.5882959656929;0.300567626953125;0.00039947509765625;5.61999998581086;563;100 mA
13.5982959656676;0.300537109375;0.000435485839843749;5.62999998578562;564;100 mA
13.6082959656424;0.300567626953125;0.000418701171874999;5.63999998576037;565;100 mA
13.6182959656171;0.300506591796875;0.00041778564453125;5.64999998573512;566;100 mA
13.6282959655919;0.300567626953125;0.00040924072265625;5.65999998570987;567;100 mA
13.6382959655666;0.300445556640625;0.00042999267578125;5.66999998568463;568;100 mA
13.6482959655414;0.300628662109375;0.0004290771484375;5.67999998565938;569;100 mA
13.6582959655161;0.300445556640625;0.00042694091796875;5.68999998563413;570;100 mA
13.6682959654909;0.300537109375;0.000421752929687499;5.69999998560888;571;100 mA
13.6782959654656;0.300537109375;0.00041473388671875;5.70999998558364;572;100 mA
13.6882959654404;0.300628662109375;0.00042724609375;5.71999998555839;573;100 mA
13.6982959654151;0.300567626953125;0.000426025390625;5.72999998553314;574;100 mA
13.7082959653899;0.300537109375;0.00042388916015625;5.73999998550789;575;100 mA
13.7182959653646;0.30047607421875;0.000414123535156249;5.74999998548265;576;100 mA
13.7282959653394;0.30059814453125;0.0004132080078125;5.7599999854574;577;100 mA
13.7382959653141;0.3004150390625;0.000421752929687499;5.76999998543215;578;100 mA
13.7482959652889;0.30059814453125;0.00043182373046875;5.7799999854069;579;100 mA
13.7582959652636;0.3004150390625;0.00041046142578125;5.78999998538166;580;100 mA
13.7682959652384;0.300445556640625;0.000424804687499999;5.79999998535641;581;100 mA
13.7782959652131;0.30047607421875;0.0004150390625;5.80999998533116;582;100 mA
13.7882959651879;0.300537109375;0.000423278808593749;5.81999998530591;583;100 mA
13.7982959651627;0.300537109375;0.000432739257812501;5.82999998528066;584;100 mA
13.8082959651374;0.3004150390625;0.00042572021484375;5.83999998525542;585;100 mA
13.8182959651122;0.30047607421875;0.00042449951171875;5.84999998523017;586;100 mA
13.8282959650869;0.300506591796875;0.000418701171874999;5.85999998520492;587;100 mA
13.8382959650617;0.300506591796875;0.00044219970703125;5.86999998517967;588;100 mA
13.8482959650364;0.30047607421875;0.00043792724609375;5.87999998515443;589;100 mA
13.8582959650112;0.300506591796875;0.0004302978515625;5.88999998512918;590;100 mA
13.8682959649859;0.300506591796875;0.000423278808593749;5.89999998510393;591;100 mA
13.8782959649607;0.30059814453125;0.00044219970703125;5.90999998507868;592;100 mA
13.8882959649354;0.300537109375;0.000435485839843749;5.91999998505344;593;100 mA
13.8982959649102;0.300567626953125;0.00044403076171875;5.92999998502819;594;100 mA
13.9082959648849;0.3004150390625;0.000428161621093751;5.93999998500294;595;100 mA
13.9182959648597;0.300567626953125;0.00042266845703125;5.94999998497769;596;100 mA
13.9282959648344;0.300506591796875;0.000438842773437501;5.95999998495245;597;100 mA
13.9382959648092;0.30059814453125;0.00043670654296875;5.9699999849272;598;100 mA
13.9482959647839;0.3004150390625;0.000444946289062501;5.97999998490195;599;100 mA
13.9582959647587;0.300537109375;0.0004180908203125;5.9899999848767;600;100 mA
13.9682959647334;0.3004150390625;0.00043487548828125;5.99999998485146;601;100 mA
13.9782959647082;0.300537109375;0.000437316894531251;6.00999998482621;602;100 mA
13.9882959646829;0.300537109375;0.000437316894531251;6.01999998480096;603;100 mA
13.9982959646577;0.30059814453125;0.00043060302734375;6.02999998477571;604;100 mA
14.0082959646325;0.300445556640625;0.000431213378906251;6.03999998475047;605;100 mA
14.0182959646072;0.30059814453125;0.000429687500000001;6.04999998472522;606;100 mA
14.028295964582;0.300445556640625;0.000440673828125;6.05999998469997;607;100 mA
14.0382959645567;0.300506591796875;0.00043487548828125;6.06999998467472;608;100 mA
14.0482959645315;0.3004150390625;0.00044219970703125;6.07999998464948;609;100 mA
14.0582959645062;0.300445556640625;0.00042694091796875;6.08999998462423;610;100 mA
14.068295964481;0.300506591796875;0.000426635742187501;6.09999998459898;611;100 mA
14.0782959644557;0.30047607421875;0.0004559326171875;6.10999998457373;612;100 mA
14.0882959644305;0.30059814453125;0.00043182373046875;6.11999998454849;613;100 mA
14.0982959644052;0.300537109375;0.000433349609375;6.12999998452324;614;100 mA
14.10829596438;0.300537109375;0.000416259765625;6.13999998449799;615;100 mA
14.1182959643547;0.30047607421875;0.000437316894531251;6.14999998447274;616;100 mA
14.1282959643295;0.3006591796875;0.000431213378906251;6.1599999844475;617;100 mA
14.1382959643042;0.300445556640625;0.000425109863281251;6.16999998442225;618;100 mA
14.148295964279;0.300537109375;0.00042266845703125;6.179999984397;619;100 mA
14.1582959642537;0.30047607421875;0.00040130615234375;6.18999998437175;620;100 mA
14.1682959642285;0.300537109375;0.0004229736328125;6.1999999843465;621;100 mA
14.1782959642032;0.300628662109375;0.000412597656249999;6.20999998432126;622;100 mA
14.188295964178;0.300567626953125;0.000418701171874999;6.21999998429601;623;100 mA
14.1982959641527;0.300567626953125;0.000402221679687501;6.22999998427076;624;100 mA
14.2082959641275;0.30059814453125;0.00039825439453125;6.23999998424551;625;100 mA
14.2182959641023;0.300384521484375;0.000419921875;6.24999998422027;626;100 mA
14.228295964077;0.300537109375;0.00041778564453125;6.25999998419502;627;100 mA
14.2382959640518;0.300384521484375;0.000405273437500001;6.26999998416977;628;100 mA
14.2482959640265;0.3004150390625;0.000420227050781249;6.27999998414452;629;100 mA
14.2582959640013;0.300445556640625;0.0004058837890625;6.28999998411928;630;100 mA
14.268295963976;0.30059814453125;0.000417480468750001;6.29999998409403;631;100 mA
14.2782959639508;0.300567626953125;0.00042236328125;6.30999998406878;632;100 mA
14.2882959639255;0.300506591796875;0.00042266845703125;6.31999998404353;633;100 mA
14.2982959639003;0.30047607421875;0.00041778564453125;6.32999998401829;634;100 mA
14.308295963875;0.300567626953125;0.0004058837890625;6.33999998399304;635;100 mA
14.3182959638498;0.300445556640625;0.000450439453125;6.34999998396779;636;100 mA
14.3282959638245;0.30047607421875;0.0004290771484375;6.35999998394254;637;100 mA
14.3382959637993;0.300445556640625;0.000421752929687499;6.3699999839173;638;100 mA
14.348295963774;0.300445556640625;0.000412597656249999;6.37999998389205;639;100 mA
14.3582959637488;0.300506591796875;0.00042236328125;6.3899999838668;640;100 mA
14.3682959637235;0.300506591796875;0.000429687500000001;6.39999998384155;641;100 mA
14.3782959636983;0.300506591796875;0.000427856445312499;6.40999998381631;642;100 mA
14.388295963673;0.300506591796875;0.00041656494140625;6.41999998379106;643;100 mA
14.3982959636478;0.300628662109375;0.0004107666015625;6.42999998376581;644;100 mA
14.4082959636225;0.300506591796875;0.000421752929687499;6.43999998374056;645;100 mA
14.4182959635973;0.30059814453125;0.000425109863281251;6.44999998371532;646;100 mA
14.4282959635721;0.300445556640625;0.0004315185546875;6.45999998369007;647;100 mA
14.4382959635468;0.300506591796875;0.000404052734375;6.46999998366482;648;100 mA
14.4482959635216;0.30035400390625;0.00041778564453125;6.47999998363957;649;100 mA
14.4582959634963;0.300567626953125;0.00041656494140625;6.48999998361433;650;100 mA
14.4682959634711;0.300506591796875;0.000426025390625;6.49999998358908;651;100 mA
14.4782959634458;0.3006591796875;0.00041015625;6.50999998356383;652;100 mA
14.4882959634206;0.30047607421875;0.000411376953125001;6.51999998353858;653;100 mA
14.4982959633953;0.30059814453125;0.00041168212890625;6.52999998351333;654;100 mA
14.5082959633701;0.300384521484375;0.000414428710937501;6.53999998348809;655;100 mA
14.5182959633448;0.30059814453125;0.00042083740234375;6.54999998346284;656;100 mA
14.5282959633196;0.3004150390625;0.0004180908203125;6.55999998343759;657;100 mA
14.5382959632943;0.30047607421875;0.00040740966796875;6.56999998341234;658;100 mA
14.5482959632691;0.30047607421875;0.00041046142578125;6.5799999833871;659;100 mA
14.5582959632438;0.300445556640625;0.000432434082031249;6.58999998336185;660;100 mA
14.5682959632186;0.30047607421875;0.000423278808593749;6.5999999833366;661;100 mA
14.5782959631933;0.300567626953125;0.0004180908203125;6.60999998331135;662;100 mA
14.5882959631681;0.300506591796875;0.0004046630859375;6.61999998328611;663;100 mA
14.5982959631428;0.300567626953125;0.000426025390625;6.62999998326086;664;100 mA
14.6082959631176;0.300506591796875;0.00041534423828125;6.63999998323561;665;100 mA
14.6182959630924;0.300537109375;0.00042266845703125;6.64999998321036;666;100 mA
14.6282959630671;0.30047607421875;0.00041351318359375;6.65999998318512;667;100 mA
14.6382959630419;0.30047607421875;0.000400695800781251;6.66999998315987;668;100 mA
14.6482959630166;0.300506591796875;0.00042388916015625;6.67999998313462;669;100 mA
14.6582959629914;0.300537109375;0.00041046142578125;6.68999998310937;670;100 mA
14.6682959629661;0.300567626953125;0.000419006347656251;6.69999998308413;671;100 mA
14.6782959629409;0.300567626953125;0.00039520263671875;6.70999998305888;672;100 mA
14.6882959629156;0.300537109375;0.000403442382812499;6.71999998303363;673;100 mA
14.6982959628904;0.300506591796875;0.0004193115234375;6.72999998300838;674;100 mA
14.7082959628651;0.300628662109375;0.000405273437500001;6.73999998298314;675;100 mA
14.7182959628399;0.30047607421875;0.000398864746093749;6.74999998295789;676;100 mA
14.7282959628146;0.3004150390625;0.00040740966796875;6.75999998293264;677;100 mA
14.7382959627894;0.300384521484375;0.000401611328125;6.76999998290739;678;100 mA
14.7482959627641;0.300567626953125;0.0004150390625;6.77999998288215;679;100 mA
14.7582959627389;0.300537109375;0.000405273437500001;6.7899999828569;680;100 mA
14.7682959627136;0.300537109375;0.00041015625;6.79999998283165;681;100 mA
14.7782959626884;0.300445556640625;0.000406799316406251;6.8099999828064;682;100 mA
14.7882959626631;0.30059814453125;0.0003997802734375;6.81999998278116;683;100 mA
14.7982959626379;0.300384521484375;0.000435485839843749;6.82999998275591;684;100 mA
14.8082959626126;0.300506591796875;0.000408020019531249;6.83999998273066;685;100 mA
14.8182959625874;0.300445556640625;0.00041015625;6.84999998270541;686;100 mA
14.8282959625622;0.300537109375;0.00040008544921875;6.85999998268016;687;100 mA
14.8382959625369;0.300445556640625;0.000415954589843751;6.86999998265492;688;100 mA
14.8482959625117;0.300445556640625;0.000422058105468751;6.87999998262967;689;100 mA
14.8582959624864;0.30047607421875;0.00041473388671875;6.88999998260442;690;100 mA
14.8682959624612;0.300537109375;0.000409851074218751;6.89999998257917;691;100 mA
14.8782959624359;0.300537109375;0.00039825439453125;6.90999998255393;692;100 mA
14.8882959624107;0.300537109375;0.000408325195312501;6.91999998252868;693;100 mA
14.8982959623854;0.300628662109375;0.00040863037109375;6.92999998250343;694;100 mA
14.9082959623602;0.300506591796875;0.000403747558593751;6.93999998247818;695;100 mA
14.9182959623349;0.300384521484375;0.00038726806640625;6.94999998245294;696;100 mA
14.9282959623097;0.3004150390625;0.00039337158203125;6.95999998242769;697;100 mA
14.9382959622844;0.300537109375;0.000406494140624999;6.96999998240244;698;100 mA
14.9482959622592;0.300537109375;0.0004071044921875;6.97999998237719;699;100 mA
14.9582959622339;0.300537109375;0.000385437011718751;6.98999998235195;700;100 mA
