Time (s);WE(1).Potential (V);WE(1).Current (A);Corrected time (s);Index;Current range
15.3955159611301;0.19818115234375;-0.0011932373046875;0;1;100 mA
15.4055159611048;0.199981689453125;-0.000360717773437499;0.00999999997475243;2;100 mA
15.4155159610796;0.20050048828125;-0.000263061523437499;0.0199999999495049;3;100 mA
15.4255159610543;0.2005615234375;-0.0001495361328125;0.0299999999242573;4;100 mA
15.4355159610291;0.2005615234375;-9.18579101562497E-05;0.0399999998990097;5;100 mA
15.4455159610038;0.200592041015625;-4.02832031249994E-05;0.0499999998737621;6;100 mA
15.4555159609786;0.200408935546875;2.80761718749994E-05;0.0599999998485146;7;100 mA
15.4655159609533;0.20050048828125;5.55419921874994E-05;0.069999999823267;8;100 mA
15.4755159609281;0.200439453125;8.33129882812506E-05;0.0799999997980194;9;100 mA
15.4855159609028;0.20062255859375;7.65991210937497E-05;0.0899999997727718;10;100 mA
15.4955159608776;0.200469970703125;0.000111999511718749;0.0999999997475243;11;100 mA
15.5055159608523;0.200469970703125;0.000151672363281249;0.109999999722277;12;100 mA
15.5155159608271;0.20050048828125;0.00016021728515625;0.119999999697029;13;100 mA
15.5255159608018;0.20062255859375;0.000153503417968751;0.129999999671782;14;100 mA
15.5355159607766;0.200469970703125;0.000174865722656251;0.139999999646534;15;100 mA
15.5455159607513;0.200592041015625;0.000184020996093751;0.149999999621286;16;100 mA
15.5555159607261;0.200439453125;0.000209960937500001;0.159999999596039;17;100 mA
15.5655159607008;0.20050048828125;0.000215759277343749;0.169999999570791;18;100 mA
15.5755159606756;0.200439453125;0.00021484375;0.179999999545544;19;100 mA
15.5855159606504;0.200469970703125;0.000224914550781249;0.189999999520296;20;100 mA
15.5955159606251;0.200439453125;0.0002239990234375;0.199999999495049;21;100 mA
15.6055159605999;0.20037841796875;0.00026702880859375;0.209999999469801;22;100 mA
15.6155159605746;0.200592041015625;0.000243530273437501;0.219999999444553;23;100 mA
15.6255159605494;0.200469970703125;0.000248107910156251;0.229999999419306;24;100 mA
15.6355159605241;0.200592041015625;0.0002349853515625;0.239999999394058;25;100 mA
15.6455159604989;0.200531005859375;0.0002471923828125;0.249999999368811;26;100 mA
15.6555159604736;0.200531005859375;0.0002777099609375;0.259999999343563;27;100 mA
15.6655159604484;0.20050048828125;0.000258483886718749;0.269999999318316;28;100 mA
15.6755159604231;0.20050048828125;0.0002606201171875;0.279999999293068;29;100 mA
15.6855159603979;0.200469970703125;0.00024566650390625;0.28999999926782;30;100 mA
15.6955159603726;0.2005615234375;0.000267944335937501;0.299999999242573;31;100 mA
15.7055159603474;0.200531005859375;0.000278320312499999;0.309999999217325;32;100 mA
15.7155159603221;0.200592041015625;0.00026824951171875;0.319999999192078;33;100 mA
15.7255159602969;0.200592041015625;0.000242004394531251;0.32999999916683;34;100 mA
15.7355159602716;0.20062255859375;0.000267333984375;0.339999999141583;35;100 mA
15.7455159602464;0.200469970703125;0.000272521972656251;0.349999999116335;36;100 mA
15.7555159602211;0.200592041015625;0.0002886962890625;0.359999999091087;37;100 mA
15.7655159601959;0.200469970703125;0.000258789062500001;0.36999999906584;38;100 mA
15.7755159601707;0.20050048828125;0.000266418457031251;0.379999999040592;39;100 mA
15.7855159601454;0.200469970703125;0.00027587890625;0.389999999015345;40;100 mA
15.7955159601202;0.2005615234375;0.000280151367187501;0.399999998990097;41;100 mA
15.8055159600949;0.200469970703125;0.000296936035156251;0.40999999896485;42;100 mA
15.8155159600697;0.200531005859375;0.000281982421875;0.419999998939602;43;100 mA
15.8255159600444;0.200531005859375;0.00028564453125;0.429999998914354;44;100 mA
15.8355159600192;0.200592041015625;0.00027740478515625;0.439999998889107;45;100 mA
15.8455159599939;0.200439453125;0.0003131103515625;0.449999998863859;46;100 mA
15.8555159599687;0.200531005859375;0.00031005859375;0.459999998838612;47;100 mA
15.8655159599434;0.200469970703125;0.00028839111328125;0.469999998813364;48;100 mA
15.8755159599182;0.200531005859375;0.00028350830078125;0.479999998788116;49;100 mA
15.8855159598929;0.20074462890625;0.000294189453125;0.489999998762869;50;100 mA
15.8955159598677;0.200531005859375;0.000304565429687501;0.499999998737621;51;100 mA
15.9055159598424;0.200592041015625;0.00030517578125;0.509999998712374;52;100 mA
15.9155159598172;0.200592041015625;0.000284729003906251;0.519999998687126;53;100 mA
15.9255159597919;0.20068359375;0.000289306640625001;0.529999998661879;54;100 mA
15.9355159597667;0.20062255859375;0.00030029296875;0.539999998636631;55;100 mA
15.9455159597414;0.200592041015625;0.000306091308593751;0.549999998611383;56;100 mA
15.9555159597162;0.200439453125;0.00031402587890625;0.559999998586136;57;100 mA
15.9655159596909;0.200592041015625;0.00027435302734375;0.569999998560888;58;100 mA
15.9755159596657;0.200408935546875;0.000303955078125;0.579999998535641;59;100 mA
15.9855159596405;0.2005615234375;0.00031707763671875;0.589999998510393;60;100 mA
15.9955159596152;0.2005615234375;0.000318603515625;0.599999998485146;61;100 mA
16.00551595959;0.20068359375;0.0003033447265625;0.609999998459898;62;100 mA
16.0155159595647;0.200408935546875;0.00030364990234375;0.61999999843465;63;100 mA
16.0255159595395;0.20062255859375;0.00031768798828125;0.629999998409403;64;100 mA
16.0355159595142;0.200469970703125;0.00032806396484375;0.639999998384155;65;100 mA
16.045515959489;0.20050048828125;0.00032989501953125;0.649999998358908;66;100 mA
16.0555159594637;0.20037841796875;0.000322570800781249;0.65999999833366;67;100 mA
16.0655159594385;0.200439453125;0.000318298339843751;0.669999998308413;68;100 mA
16.0755159594132;0.200469970703125;0.0003192138671875;0.679999998283165;69;100 mA
16.085515959388;0.200408935546875;0.000347290039062501;0.689999998257917;70;100 mA
16.0955159593627;0.20050048828125;0.00033447265625;0.69999999823267;71;100 mA
16.1055159593375;0.200531005859375;0.000342407226562499;0.709999998207422;72;100 mA
16.1155159593122;0.200531005859375;0.0003131103515625;0.719999998182175;73;100 mA
16.125515959287;0.200714111328125;0.000330810546875;0.729999998156927;74;100 mA
16.1355159592617;0.200531005859375;0.0003466796875;0.73999999813168;75;100 mA
16.1455159592365;0.200531005859375;0.000336303710937499;0.749999998106432;76;100 mA
16.1555159592112;0.20050048828125;0.00033233642578125;0.759999998081184;77;100 mA
16.165515959186;0.20050048828125;0.00031097412109375;0.769999998055937;78;100 mA
16.1755159591607;0.2005615234375;0.000337829589843749;0.779999998030689;79;100 mA
16.1855159591355;0.20050048828125;0.000340881347656249;0.789999998005442;80;100 mA
16.1955159591103;0.200592041015625;0.00033721923828125;0.799999997980194;81;100 mA
16.205515959085;0.20062255859375;0.0003033447265625;0.809999997954947;82;100 mA
16.2155159590598;0.2005615234375;0.000324096679687499;0.819999997929699;83;100 mA
16.2255159590345;0.200531005859375;0.000339355468749999;0.829999997904451;84;100 mA
16.2355159590093;0.200531005859375;0.000345764160156251;0.839999997879204;85;100 mA
16.245515958984;0.200531005859375;0.000316772460937501;0.849999997853956;86;100 mA
16.2555159589588;0.200531005859375;0.000328674316406249;0.859999997828709;87;100 mA
16.2655159589335;0.20037841796875;0.000322875976562501;0.869999997803461;88;100 mA
16.2755159589083;0.200531005859375;0.000337829589843749;0.879999997778214;89;100 mA
16.285515958883;0.20050048828125;0.000345458984374999;0.889999997752966;90;100 mA
16.2955159588578;0.200592041015625;0.000324401855468751;0.899999997727718;91;100 mA
16.3055159588325;0.200469970703125;0.000339355468749999;0.909999997702471;92;100 mA
16.3155159588073;0.200592041015625;0.00032623291015625;0.919999997677223;93;100 mA
16.325515958782;0.200408935546875;0.000355224609375;0.929999997651976;94;100 mA
16.3355159587568;0.20050048828125;0.000346984863281249;0.939999997626728;95;100 mA
16.3455159587315;0.200408935546875;0.00033233642578125;0.949999997601481;96;100 mA
16.3555159587063;0.20050048828125;0.0003387451171875;0.959999997576233;97;100 mA
16.365515958681;0.2005615234375;0.000333251953124999;0.969999997550985;98;100 mA
16.3755159586558;0.200469970703125;0.000362548828125001;0.979999997525738;99;100 mA
16.3855159586305;0.2005615234375;0.00034942626953125;0.98999999750049;100;100 mA
16.3955159586053;0.2005615234375;0.000335693359375;0.999999997475243;101;100 mA
16.4055159585801;0.200592041015625;0.000335083007812501;1.00999999745;102;100 mA
16.4155159585548;0.200592041015625;0.0003448486328125;1.01999999742475;103;100 mA
16.4255159585296;0.2005615234375;0.0003509521484375;1.0299999973995;104;100 mA
16.4355159585043;0.200469970703125;0.000353088378906249;1.03999999737425;105;100 mA
16.4455159584791;0.200653076171875;0.000315246582031251;1.049999997349;106;100 mA
16.4555159584538;0.200408935546875;0.000344238281250001;1.05999999732376;107;100 mA
16.4655159584286;0.200592041015625;0.00034820556640625;1.06999999729851;108;100 mA
16.4755159584033;0.2005615234375;0.000357666015624999;1.07999999727326;109;100 mA
16.4855159583781;0.2005615234375;0.000342407226562499;1.08999999724801;110;100 mA
16.4955159583528;0.2005615234375;0.0003338623046875;1.09999999722277;111;100 mA
16.5055159583276;0.2005615234375;0.000353088378906249;1.10999999719752;112;100 mA
16.5155159583023;0.200469970703125;0.00035675048828125;1.11999999717227;113;100 mA
16.5255159582771;0.200469970703125;0.000369873046874999;1.12999999714702;114;100 mA
16.5355159582518;0.200469970703125;0.00034912109375;1.13999999712178;115;100 mA
16.5455159582266;0.200469970703125;0.000355224609375;1.14999999709653;116;100 mA
16.5555159582013;0.200408935546875;0.000361022949218751;1.15999999707128;117;100 mA
16.5655159581761;0.20037841796875;0.00037506103515625;1.16999999704603;118;100 mA
16.5755159581508;0.200531005859375;0.000372924804687499;1.17999999702079;119;100 mA
16.5855159581256;0.200531005859375;0.00035980224609375;1.18999999699554;120;100 mA
16.5955159581003;0.200531005859375;0.000353088378906249;1.19999999697029;121;100 mA
16.6055159580751;0.2005615234375;0.000362548828125001;1.20999999694504;122;100 mA
16.6155159580499;0.200469970703125;0.000372314453125;1.2199999969198;123;100 mA
16.6255159580246;0.200469970703125;0.000368347167968749;1.22999999689455;124;100 mA
16.6355159579994;0.200469970703125;0.00035675048828125;1.2399999968693;125;100 mA
16.6455159579741;0.20050048828125;0.00034332275390625;1.24999999684405;126;100 mA
16.6555159579489;0.2005615234375;0.000363769531249999;1.25999999681881;127;100 mA
16.6655159579236;0.2005615234375;0.000355224609375;1.26999999679356;128;100 mA
16.6755159578984;0.200592041015625;0.0003582763671875;1.27999999676831;129;100 mA
16.6855159578731;0.200653076171875;0.0003192138671875;1.28999999674306;130;100 mA
16.6955159578479;0.200653076171875;0.000343017578125;1.29999999671782;131;100 mA
16.7055159578226;0.200531005859375;0.000361328125;1.30999999669257;132;100 mA
16.7155159577974;0.200592041015625;0.000347290039062501;1.31999999666732;133;100 mA
16.7255159577721;0.200469970703125;0.000339660644531251;1.32999999664207;134;100 mA
16.7355159577469;0.20050048828125;0.000336303710937499;1.33999999661683;135;100 mA
16.7455159577216;0.200439453125;0.000337829589843749;1.34999999659158;136;100 mA
16.7555159576964;0.2005615234375;0.000357666015624999;1.35999999656633;137;100 mA
16.7655159576711;0.200439453125;0.000348815917968751;1.36999999654108;138;100 mA
16.7755159576459;0.200531005859375;0.000341796875;1.37999999651583;139;100 mA
16.7855159576206;0.20050048828125;0.00034210205078125;1.38999999649059;140;100 mA
16.7955159575954;0.200653076171875;0.000339355468749999;1.39999999646534;141;100 mA
16.8055159575702;0.200439453125;0.0003662109375;1.40999999644009;142;100 mA
16.8155159575449;0.200439453125;0.000348510742187499;1.41999999641484;143;100 mA
16.8255159575197;0.200439453125;0.000344238281250001;1.4299999963896;144;100 mA
16.8355159574944;0.200408935546875;0.000339355468749999;1.43999999636435;145;100 mA
16.8455159574692;0.200439453125;0.0003369140625;1.4499999963391;146;100 mA
16.8555159574439;0.200469970703125;0.000365600585937501;1.45999999631385;147;100 mA
16.8655159574187;0.200592041015625;0.000340576171875;1.46999999628861;148;100 mA
16.8755159573934;0.200531005859375;0.0003466796875;1.47999999626336;149;100 mA
16.8855159573682;0.200653076171875;0.000330200195312499;1.48999999623811;150;100 mA
16.8955159573429;0.2005615234375;0.0003460693359375;1.49999999621286;151;100 mA
16.9055159573177;0.200592041015625;0.00035980224609375;1.50999999618762;152;100 mA
16.9155159572924;0.20050048828125;0.000351867675781251;1.51999999616237;153;100 mA
16.9255159572672;0.200714111328125;0.000322875976562501;1.52999999613712;154;100 mA
16.9355159572419;0.200439453125;0.000340881347656249;1.53999999611187;155;100 mA
16.9455159572167;0.200531005859375;0.00035430908203125;1.54999999608663;156;100 mA
16.9555159571914;0.200531005859375;0.000362548828125001;1.55999999606138;157;100 mA
16.9655159571662;0.200592041015625;0.000339355468749999;1.56999999603613;158;100 mA
16.9755159571409;0.2005615234375;0.000336608886718751;1.57999999601088;159;100 mA
16.9855159571157;0.2005615234375;0.00034820556640625;1.58999999598564;160;100 mA
16.9955159570904;0.200439453125;0.000357971191406251;1.59999999596039;161;100 mA
17.0055159570652;0.2005615234375;0.00036895751953125;1.60999999593514;162;100 mA
17.01551595704;0.200469970703125;0.00034515380859375;1.61999999590989;163;100 mA
17.0255159570147;0.20050048828125;0.00035400390625;1.62999999588465;164;100 mA
17.0355159569895;0.2005615234375;0.000353088378906249;1.6399999958594;165;100 mA
17.0455159569642;0.20037841796875;0.00036895751953125;1.64999999583415;166;100 mA
17.055515956939;0.20050048828125;0.000368652343750001;1.6599999958089;167;100 mA
17.0655159569137;0.20050048828125;0.000346984863281249;1.66999999578366;168;100 mA
17.0755159568885;0.20050048828125;0.00035675048828125;1.67999999575841;169;100 mA
17.0855159568632;0.20050048828125;0.00035430908203125;1.68999999573316;170;100 mA
17.095515956838;0.20050048828125;0.000377502441406249;1.69999999570791;171;100 mA
17.1055159568127;0.200531005859375;0.00036468505859375;1.70999999568267;172;100 mA
17.1155159567875;0.200439453125;0.00034820556640625;1.71999999565742;173;100 mA
17.1255159567622;0.20050048828125;0.0003460693359375;1.72999999563217;174;100 mA
17.135515956737;0.2005615234375;0.00036163330078125;1.73999999560692;175;100 mA
17.1455159567117;0.200531005859375;0.0003631591796875;1.74999999558167;176;100 mA
17.1555159566865;0.2005615234375;0.000367431640625;1.75999999555643;177;100 mA
17.1655159566612;0.20062255859375;0.000323486328125;1.76999999553118;178;100 mA
17.175515956636;0.2005615234375;0.00035400390625;1.77999999550593;179;100 mA
17.1855159566107;0.200531005859375;0.000370178222656251;1.78999999548068;180;100 mA
17.1955159565855;0.200531005859375;0.000364990234375;1.79999999545544;181;100 mA
17.2055159565602;0.20050048828125;0.00035675048828125;1.80999999543019;182;100 mA
17.215515956535;0.2005615234375;0.00033599853515625;1.81999999540494;183;100 mA
17.2255159565098;0.200347900390625;0.000359497070312501;1.82999999537969;184;100 mA
17.2355159564845;0.2005615234375;0.00037078857421875;1.83999999535445;185;100 mA
17.2455159564593;0.200469970703125;0.00036956787109375;1.8499999953292;186;100 mA
17.255515956434;0.200592041015625;0.00035430908203125;1.85999999530395;187;100 mA
17.2655159564088;0.200531005859375;0.000351867675781251;1.8699999952787;188;100 mA
17.2755159563835;0.20062255859375;0.0003643798828125;1.87999999525346;189;100 mA
17.2855159563583;0.200469970703125;0.000379333496093751;1.88999999522821;190;100 mA
17.295515956333;0.20050048828125;0.00037109375;1.89999999520296;191;100 mA
17.3055159563078;0.200439453125;0.00036651611328125;1.90999999517771;192;100 mA
17.3155159562825;0.200469970703125;0.000353088378906249;1.91999999515247;193;100 mA
17.3255159562573;0.200439453125;0.000364074707031251;1.92999999512722;194;100 mA
17.335515956232;0.20037841796875;0.000384521484375;1.93999999510197;195;100 mA
17.3455159562068;0.200592041015625;0.00037078857421875;1.94999999507672;196;100 mA
17.3555159561815;0.200531005859375;0.00036468505859375;1.95999999505148;197;100 mA
17.3655159561563;0.200653076171875;0.00034759521484375;1.96999999502623;198;100 mA
17.375515956131;0.2005615234375;0.0003753662109375;1.97999999500098;199;100 mA
17.3855159561058;0.200592041015625;0.000377807617187501;1.98999999497573;200;100 mA
17.3955159560805;0.20050048828125;0.0003692626953125;1.99999999495049;201;100 mA
17.4055159560553;0.20068359375;0.000341186523437501;2.00999999492524;202;100 mA
17.41551595603;0.200439453125;0.00034942626953125;2.01999999489999;203;100 mA
17.4255159560048;0.200531005859375;0.00037078857421875;2.02999999487474;204;100 mA
17.4355159559796;0.2005615234375;0.0003741455078125;2.0399999948495;205;100 mA
17.4455159559543;0.20062255859375;0.00035552978515625;2.04999999482425;206;100 mA
17.4555159559291;0.200531005859375;0.0003509521484375;2.059999994799;207;100 mA
17.4655159559038;0.200592041015625;0.000348510742187499;2.06999999477375;208;100 mA
17.4755159558786;0.200408935546875;0.0003704833984375;2.0799999947485;209;100 mA
17.4855159558533;0.2005615234375;0.00036590576171875;2.08999999472326;210;100 mA
17.4955159558281;0.200439453125;0.000347900390625;2.09999999469801;211;100 mA
17.5055159558028;0.200439453125;0.00035552978515625;2.10999999467276;212;100 mA
17.5155159557776;0.20037841796875;0.0003497314453125;2.11999999464751;213;100 mA
17.5255159557523;0.200469970703125;0.0003704833984375;2.12999999462227;214;100 mA
17.5355159557271;0.200469970703125;0.00036590576171875;2.13999999459702;215;100 mA
17.5455159557018;0.200469970703125;0.00035064697265625;2.14999999457177;216;100 mA
17.5555159556766;0.200439453125;0.00035858154296875;2.15999999454652;217;100 mA
17.5655159556513;0.2005615234375;0.00034027099609375;2.16999999452128;218;100 mA
17.5755159556261;0.200408935546875;0.000379638671875;2.17999999449603;219;100 mA
17.5855159556008;0.200531005859375;0.000364074707031251;2.18999999447078;220;100 mA
17.5955159555756;0.200469970703125;0.000353088378906249;2.19999999444553;221;100 mA
17.6055159555503;0.200469970703125;0.00034515380859375;2.20999999442029;222;100 mA
17.6155159555251;0.200469970703125;0.00035400390625;2.21999999439504;223;100 mA
17.6255159554998;0.200469970703125;0.000367126464843751;2.22999999436979;224;100 mA
17.6355159554746;0.2005615234375;0.00035675048828125;2.23999999434454;225;100 mA
17.6455159554494;0.200592041015625;0.0003326416015625;2.2499999943193;226;100 mA
17.6555159554241;0.200714111328125;0.000343933105468749;2.25999999429405;227;100 mA
17.6655159553989;0.200531005859375;0.000353393554687501;2.2699999942688;228;100 mA
17.6755159553736;0.200531005859375;0.00035675048828125;2.27999999424355;229;100 mA
17.6855159553484;0.200531005859375;0.000344238281250001;2.28999999421831;230;100 mA
17.6955159553231;0.200531005859375;0.000333251953124999;2.29999999419306;231;100 mA
17.7055159552979;0.20037841796875;0.000346984863281249;2.30999999416781;232;100 mA
17.7155159552726;0.200531005859375;0.00035064697265625;2.31999999414256;233;100 mA
17.7255159552474;0.200439453125;0.000359191894531249;2.32999999411732;234;100 mA
17.7355159552221;0.2005615234375;0.000339660644531251;2.33999999409207;235;100 mA
17.7455159551969;0.200469970703125;0.000341186523437501;2.34999999406682;236;100 mA
17.7555159551716;0.20062255859375;0.0003466796875;2.35999999404157;237;100 mA
17.7655159551464;0.20050048828125;0.0003521728515625;2.36999999401633;238;100 mA
17.7755159551211;0.200531005859375;0.000356445312500001;2.37999999399108;239;100 mA
17.7855159550959;0.20037841796875;0.0003466796875;2.38999999396583;240;100 mA
17.7955159550706;0.200439453125;0.000343933105468749;2.39999999394058;241;100 mA
17.8055159550454;0.200469970703125;0.000350341796875001;2.40999999391533;242;100 mA
17.8155159550201;0.200439453125;0.0003570556640625;2.41999999389009;243;100 mA
17.8255159549949;0.2005615234375;0.000356445312500001;2.42999999386484;244;100 mA
17.8355159549697;0.20050048828125;0.0003466796875;2.43999999383959;245;100 mA
17.8455159549444;0.200653076171875;0.00033233642578125;2.44999999381434;246;100 mA
17.8555159549192;0.200592041015625;0.000351562499999999;2.4599999937891;247;100 mA
17.8655159548939;0.200592041015625;0.000351867675781251;2.46999999376385;248;100 mA
17.8755159548687;0.20050048828125;0.00035247802734375;2.4799999937386;249;100 mA
17.8855159548434;0.20068359375;0.000323486328125;2.48999999371335;250;100 mA
17.8955159548182;0.200469970703125;0.00033843994140625;2.49999999368811;251;100 mA
17.9055159547929;0.2005615234375;0.00035430908203125;2.50999999366286;252;100 mA
17.9155159547677;0.20050048828125;0.0003497314453125;2.51999999363761;253;100 mA
17.9255159547424;0.200653076171875;0.0003448486328125;2.52999999361236;254;100 mA
17.9355159547172;0.200531005859375;0.0003277587890625;2.53999999358712;255;100 mA
17.9455159546919;0.200653076171875;0.000340576171875;2.54999999356187;256;100 mA
17.9555159546667;0.200439453125;0.00036163330078125;2.55999999353662;257;100 mA
17.9655159546414;0.200531005859375;0.00035125732421875;2.56999999351137;258;100 mA
17.9755159546162;0.200408935546875;0.000343933105468749;2.57999999348613;259;100 mA
17.9855159545909;0.200439453125;0.00034454345703125;2.58999999346088;260;100 mA
17.9955159545657;0.200439453125;0.00034515380859375;2.59999999343563;261;100 mA
18.0055159545404;0.20037841796875;0.000368347167968749;2.60999999341038;262;100 mA
18.0155159545152;0.200531005859375;0.000353393554687501;2.61999999338514;263;100 mA
18.0255159544899;0.20050048828125;0.00035247802734375;2.62999999335989;264;100 mA
18.0355159544647;0.200531005859375;0.000347290039062501;2.63999999333464;265;100 mA
18.0455159544395;0.20050048828125;0.00034912109375;2.64999999330939;266;100 mA
18.0555159544142;0.200439453125;0.000382385253906251;2.65999999328415;267;100 mA
18.065515954389;0.20050048828125;0.00035888671875;2.6699999932589;268;100 mA
18.0755159543637;0.200469970703125;0.000353088378906249;2.67999999323365;269;100 mA
18.0855159543385;0.200439453125;0.000345458984374999;2.6899999932084;270;100 mA
18.0955159543132;0.200469970703125;0.000356140136718749;2.69999999318316;271;100 mA
18.105515954288;0.200439453125;0.00037567138671875;2.70999999315791;272;100 mA
18.1155159542627;0.2005615234375;0.0003570556640625;2.71999999313266;273;100 mA
18.1255159542375;0.200653076171875;0.000340881347656249;2.72999999310741;274;100 mA
18.1355159542122;0.200592041015625;0.000352783203125;2.73999999308217;275;100 mA
18.145515954187;0.200408935546875;0.000368347167968749;2.74999999305692;276;100 mA
18.1555159541617;0.2005615234375;0.00037689208984375;2.75999999303167;277;100 mA
18.1655159541365;0.20050048828125;0.000351562499999999;2.76999999300642;278;100 mA
18.1755159541112;0.20050048828125;0.00034912109375;2.77999999298117;279;100 mA
18.185515954086;0.200408935546875;0.000360717773437499;2.78999999295593;280;100 mA
18.1955159540607;0.200531005859375;0.000370178222656251;2.79999999293068;281;100 mA
18.2055159540355;0.200439453125;0.00038421630859375;2.80999999290543;282;100 mA
18.2155159540102;0.200531005859375;0.0003509521484375;2.81999999288018;283;100 mA
18.225515953985;0.20050048828125;0.000356140136718749;2.82999999285494;284;100 mA
18.2355159539597;0.200592041015625;0.0003643798828125;2.83999999282969;285;100 mA
18.2455159539345;0.20050048828125;0.000372314453125;2.84999999280444;286;100 mA
18.2555159539093;0.200531005859375;0.00037841796875;2.85999999277919;287;100 mA
18.265515953884;0.20050048828125;0.000354919433593751;2.86999999275395;288;100 mA
18.2755159538588;0.200469970703125;0.000364074707031251;2.8799999927287;289;100 mA
18.2855159538335;0.200347900390625;0.000364074707031251;2.88999999270345;290;100 mA
18.2955159538083;0.200469970703125;0.0003826904296875;2.8999999926782;291;100 mA
18.305515953783;0.20050048828125;0.000383605957031249;2.90999999265296;292;100 mA
18.3155159537578;0.200531005859375;0.00036041259765625;2.91999999262771;293;100 mA
18.3255159537325;0.2005615234375;0.000356140136718749;2.92999999260246;294;100 mA
18.3355159537073;0.2005615234375;0.0003741455078125;2.93999999257721;295;100 mA
18.345515953682;0.20050048828125;0.000379638671875;2.94999999255197;296;100 mA
18.3555159536568;0.200469970703125;0.000380554199218749;2.95999999252672;297;100 mA
18.3655159536315;0.200653076171875;0.00034820556640625;2.96999999250147;298;100 mA
18.3755159536063;0.20037841796875;0.000363769531249999;2.97999999247622;299;100 mA
18.385515953581;0.200592041015625;0.00037353515625;2.98999999245098;300;100 mA
18.3955159535558;0.2005615234375;0.000369873046874999;2.99999999242573;301;100 mA
18.4055159535305;0.20062255859375;0.000370178222656251;3.00999999240048;302;100 mA
18.4155159535053;0.2005615234375;0.000332031250000001;3.01999999237523;303;100 mA
18.42551595348;0.200592041015625;0.000354919433593751;3.02999999234999;304;100 mA
18.4355159534548;0.200408935546875;0.00037261962890625;3.03999999232474;305;100 mA
18.4455159534295;0.20050048828125;0.000372314453125;3.04999999229949;306;100 mA
18.4555159534043;0.200439453125;0.000357971191406251;3.05999999227424;307;100 mA
18.4655159533791;0.200469970703125;0.000340576171875;3.069999992249;308;100 mA
18.4755159533538;0.200469970703125;0.00035400390625;3.07999999222375;309;100 mA
18.4855159533286;0.200469970703125;0.00036956787109375;3.0899999921985;310;100 mA
18.4955159533033;0.20050048828125;0.000362548828125001;3.09999999217325;311;100 mA
18.5055159532781;0.200531005859375;0.000354614257812499;3.109999992148;312;100 mA
18.5155159532528;0.200469970703125;0.0003460693359375;3.11999999212276;313;100 mA
18.5255159532276;0.200439453125;0.00035247802734375;3.12999999209751;314;100 mA
18.5355159532023;0.200408935546875;0.0003753662109375;3.13999999207226;315;100 mA
18.5455159531771;0.200439453125;0.0003631591796875;3.14999999204701;316;100 mA
18.5555159531518;0.20050048828125;0.000362548828125001;3.15999999202177;317;100 mA
18.5655159531266;0.20050048828125;0.00034149169921875;3.16999999199652;318;100 mA
18.5755159531013;0.20050048828125;0.000362548828125001;3.17999999197127;319;100 mA
18.5855159530761;0.200469970703125;0.000377197265625;3.18999999194602;320;100 mA
18.5955159530508;0.200592041015625;0.000361328125;3.19999999192078;321;100 mA
18.6055159530256;0.20062255859375;0.000347290039062501;3.20999999189553;322;100 mA
18.6155159530003;0.200653076171875;0.000348510742187499;3.21999999187028;323;100 mA
18.6255159529751;0.20050048828125;0.00036651611328125;3.22999999184503;324;100 mA
18.6355159529498;0.2005615234375;0.000369873046874999;3.23999999181979;325;100 mA
18.6455159529246;0.200531005859375;0.000357971191406251;3.24999999179454;326;100 mA
18.6555159528993;0.2005615234375;0.00034637451171875;3.25999999176929;327;100 mA
18.6655159528741;0.200408935546875;0.000353393554687501;3.26999999174404;328;100 mA
18.6755159528489;0.20050048828125;0.000365295410156249;3.2799999917188;329;100 mA
18.6855159528236;0.200469970703125;0.00037384033203125;3.28999999169355;330;100 mA
18.6955159527984;0.200592041015625;0.000344238281250001;3.2999999916683;331;100 mA
18.7055159527731;0.200469970703125;0.0003582763671875;3.30999999164305;332;100 mA
18.7155159527479;0.2005615234375;0.000350036621093749;3.31999999161781;333;100 mA
18.7255159527226;0.200531005859375;0.000362548828125001;3.32999999159256;334;100 mA
18.7355159526974;0.20050048828125;0.0003680419921875;3.33999999156731;335;100 mA
18.7455159526721;0.200469970703125;0.000353393554687501;3.34999999154206;336;100 mA
18.7555159526469;0.20050048828125;0.0003631591796875;3.35999999151682;337;100 mA
18.7655159526216;0.200439453125;0.000350036621093749;3.36999999149157;338;100 mA
18.7755159525964;0.200469970703125;0.000379333496093751;3.37999999146632;339;100 mA
18.7855159525711;0.20050048828125;0.00037384033203125;3.38999999144107;340;100 mA
18.7955159525459;0.200469970703125;0.0003570556640625;3.39999999141583;341;100 mA
18.8055159525206;0.2005615234375;0.000361022949218751;3.40999999139058;342;100 mA
18.8155159524954;0.20050048828125;0.0003619384765625;3.41999999136533;343;100 mA
18.8255159524701;0.20050048828125;0.0003765869140625;3.42999999134008;344;100 mA
18.8355159524449;0.200469970703125;0.00037078857421875;3.43999999131483;345;100 mA
18.8455159524196;0.200592041015625;0.00034637451171875;3.44999999128959;346;100 mA
18.8555159523944;0.20037841796875;0.000362243652343749;3.45999999126434;347;100 mA
18.8655159523692;0.20050048828125;0.000366821289062499;3.46999999123909;348;100 mA
18.8755159523439;0.2005615234375;0.000373229980468751;3.47999999121384;349;100 mA
18.8855159523187;0.20068359375;0.000370178222656251;3.4899999911886;350;100 mA
18.8955159522934;0.200592041015625;0.000343017578125;3.49999999116335;351;100 mA
18.9055159522682;0.200592041015625;0.000368652343750001;3.5099999911381;352;100 mA
18.9155159522429;0.200439453125;0.00036956787109375;3.51999999111285;353;100 mA
18.9255159522177;0.2005615234375;0.00038116455078125;3.52999999108761;354;100 mA
18.9355159521924;0.200469970703125;0.000362548828125001;3.53999999106236;355;100 mA
18.9455159521672;0.200469970703125;0.000356140136718749;3.54999999103711;356;100 mA
18.9555159521419;0.200408935546875;0.000373229980468751;3.55999999101186;357;100 mA
18.9655159521167;0.200439453125;0.00037353515625;3.56999999098662;358;100 mA
18.9755159520914;0.200469970703125;0.0003814697265625;3.57999999096137;359;100 mA
18.9855159520662;0.200469970703125;0.00037567138671875;3.58999999093612;360;100 mA
18.9955159520409;0.20050048828125;0.000368652343750001;3.59999999091087;361;100 mA
19.0055159520157;0.20050048828125;0.000380859375000001;3.60999999088563;362;100 mA
19.0155159519904;0.20050048828125;0.000392761230468749;3.61999999086038;363;100 mA
19.0255159519652;0.200469970703125;0.000388488769531251;3.62999999083513;364;100 mA
19.0355159519399;0.200408935546875;0.00038116455078125;3.63999999080988;365;100 mA
19.0455159519147;0.200469970703125;0.00037078857421875;3.64999999078464;366;100 mA
19.0555159518894;0.200531005859375;0.000390014648437501;3.65999999075939;367;100 mA
19.0655159518642;0.200408935546875;0.000396728515625;3.66999999073414;368;100 mA
19.075515951839;0.2005615234375;0.000386657714843749;3.67999999070889;369;100 mA
19.0855159518137;0.20062255859375;0.00037567138671875;3.68999999068365;370;100 mA
19.0955159517885;0.200653076171875;0.000372314453125;3.6999999906584;371;100 mA
19.1055159517632;0.200408935546875;0.000395812988281249;3.70999999063315;372;100 mA
19.115515951738;0.200592041015625;0.0003887939453125;3.7199999906079;373;100 mA
19.1255159517127;0.200469970703125;0.000391845703125;3.72999999058266;374;100 mA
19.1355159516875;0.200653076171875;0.00036346435546875;3.73999999055741;375;100 mA
19.1455159516622;0.200439453125;0.00037567138671875;3.74999999053216;376;100 mA
19.155515951637;0.2005615234375;0.000396118164062501;3.75999999050691;377;100 mA
19.1655159516117;0.2005615234375;0.00039215087890625;3.76999999048167;378;100 mA
19.1755159515865;0.2005615234375;0.000375976562499999;3.77999999045642;379;100 mA
19.1855159515612;0.200531005859375;0.0003741455078125;3.78999999043117;380;100 mA
19.195515951536;0.2005615234375;0.000377502441406249;3.79999999040592;381;100 mA
19.2055159515107;0.200469970703125;0.00039093017578125;3.80999999038067;382;100 mA
19.2155159514855;0.200439453125;0.000384521484375;3.81999999035543;383;100 mA
19.2255159514602;0.200469970703125;0.000377807617187501;3.82999999033018;384;100 mA
19.235515951435;0.200439453125;0.00038177490234375;3.83999999030493;385;100 mA
19.2455159514097;0.200408935546875;0.0003802490234375;3.84999999027968;386;100 mA
19.2555159513845;0.200439453125;0.00041046142578125;3.85999999025444;387;100 mA
19.2655159513592;0.200592041015625;0.000399169921875001;3.86999999022919;388;100 mA
19.275515951334;0.2005615234375;0.000386657714843749;3.87999999020394;389;100 mA
19.2855159513088;0.20074462890625;0.00038177490234375;3.88999999017869;390;100 mA
19.2955159512835;0.200439453125;0.000382385253906251;3.89999999015345;391;100 mA
19.3055159512583;0.200439453125;0.000414123535156249;3.9099999901282;392;100 mA
19.315515951233;0.200439453125;0.00039093017578125;3.91999999010295;393;100 mA
19.3255159512078;0.2005615234375;0.000380554199218749;3.9299999900777;394;100 mA
19.3355159511825;0.200408935546875;0.0003802490234375;3.93999999005246;395;100 mA
19.3455159511573;0.200531005859375;0.00039642333984375;3.94999999002721;396;100 mA
19.355515951132;0.2005615234375;0.00040313720703125;3.95999999000196;397;100 mA
19.3655159511068;0.200653076171875;0.000391845703125;3.96999998997671;398;100 mA
19.3755159510815;0.20062255859375;0.000369873046874999;3.97999998995147;399;100 mA
19.3855159510563;0.200592041015625;0.0003863525390625;3.98999998992622;400;100 mA
19.395515951031;0.200439453125;0.000394287109374999;3.99999998990097;401;100 mA
19.4055159510058;0.200531005859375;0.000411071777343749;4.00999998987572;402;100 mA
19.4155159509805;0.20050048828125;0.000379028320312499;4.01999998985048;403;100 mA
19.4255159509553;0.200469970703125;0.0003753662109375;4.02999998982523;404;100 mA
19.43551595093;0.200469970703125;0.00038604736328125;4.03999998979998;405;100 mA
19.4455159509048;0.2005615234375;0.0003802490234375;4.04999998977473;406;100 mA
19.4555159508795;0.200531005859375;0.000399169921875001;4.05999998974949;407;100 mA
19.4655159508543;0.2005615234375;0.000376281738281251;4.06999998972424;408;100 mA
19.475515950829;0.2005615234375;0.00037689208984375;4.07999998969899;409;100 mA
19.4855159508038;0.200408935546875;0.0003753662109375;4.08999998967374;410;100 mA
19.4955159507786;0.200408935546875;0.000397338867187499;4.0999999896485;411;100 mA
19.5055159507533;0.200469970703125;0.000391540527343751;4.10999998962325;412;100 mA
19.5155159507281;0.20050048828125;0.000377502441406249;4.119999989598;413;100 mA
19.5255159507028;0.200531005859375;0.000375976562499999;4.12999998957275;414;100 mA
19.5355159506776;0.200592041015625;0.0003857421875;4.1399999895475;415;100 mA
19.5455159506523;0.200469970703125;0.00039398193359375;4.14999998952226;416;100 mA
19.5555159506271;0.20062255859375;0.0003924560546875;4.15999998949701;417;100 mA
19.5655159506018;0.20050048828125;0.000371704101562501;4.16999998947176;418;100 mA
19.5755159505766;0.20062255859375;0.00037261962890625;4.17999998944651;419;100 mA
19.5855159505513;0.200531005859375;0.00038330078125;4.18999998942127;420;100 mA
19.5955159505261;0.200531005859375;0.000380554199218749;4.19999998939602;421;100 mA
19.6055159505008;0.20050048828125;0.000385437011718751;4.20999998937077;422;100 mA
19.6155159504756;0.200531005859375;0.000353088378906249;4.21999998934552;423;100 mA
19.6255159504503;0.20050048828125;0.000365600585937501;4.22999998932028;424;100 mA
19.6355159504251;0.200653076171875;0.00037872314453125;4.23999998929503;425;100 mA
19.6455159503998;0.2005615234375;0.00037841796875;4.24999998926978;426;100 mA
19.6555159503746;0.200592041015625;0.0003680419921875;4.25999998924453;427;100 mA
19.6655159503493;0.2005615234375;0.000352783203125;4.26999998921929;428;100 mA
19.6755159503241;0.20050048828125;0.000365295410156249;4.27999998919404;429;100 mA
19.6855159502988;0.200592041015625;0.000364990234375;4.28999998916879;430;100 mA
19.6955159502736;0.200439453125;0.0003753662109375;4.29999998914354;431;100 mA
19.7055159502484;0.200469970703125;0.000365600585937501;4.3099999891183;432;100 mA
19.7155159502231;0.20037841796875;0.0003631591796875;4.31999998909305;433;100 mA
19.7255159501979;0.200439453125;0.000360717773437499;4.3299999890678;434;100 mA
19.7355159501726;0.200469970703125;0.000388183593749999;4.33999998904255;435;100 mA
19.7455159501474;0.20062255859375;0.000374755859375001;4.34999998901731;436;100 mA
19.7555159501221;0.2005615234375;0.000371398925781249;4.35999998899206;437;100 mA
19.7655159500969;0.20062255859375;0.0003570556640625;4.36999998896681;438;100 mA
19.7755159500716;0.200439453125;0.0003692626953125;4.37999998894156;439;100 mA
19.7855159500464;0.200439453125;0.000392761230468749;4.38999998891632;440;100 mA
19.7955159500211;0.200469970703125;0.000373229980468751;4.39999998889107;441;100 mA
19.8055159499959;0.200439453125;0.000375976562499999;4.40999998886582;442;100 mA
19.8155159499706;0.20050048828125;0.000363769531249999;4.41999998884057;443;100 mA
19.8255159499454;0.200592041015625;0.000379638671875;4.42999998881533;444;100 mA
19.8355159499201;0.200531005859375;0.000386657714843749;4.43999998879008;445;100 mA
19.8455159498949;0.20062255859375;0.00037872314453125;4.44999998876483;446;100 mA
19.8555159498696;0.2005615234375;0.00036590576171875;4.45999998873958;447;100 mA
19.8655159498444;0.2005615234375;0.000371704101562501;4.46999998871433;448;100 mA
19.8755159498191;0.200531005859375;0.000383911132812501;4.47999998868909;449;100 mA
19.8855159497939;0.200469970703125;0.00039215087890625;4.48999998866384;450;100 mA
19.8955159497687;0.2005615234375;0.000369873046874999;4.49999998863859;451;100 mA
19.9055159497434;0.2005615234375;0.00036895751953125;4.50999998861334;452;100 mA
19.9155159497182;0.200469970703125;0.00037384033203125;4.5199999885881;453;100 mA
19.9255159496929;0.2005615234375;0.000374755859375001;4.52999998856285;454;100 mA
19.9355159496677;0.200592041015625;0.000390625;4.5399999885376;455;100 mA
19.9455159496424;0.20050048828125;0.000368652343750001;4.54999998851235;456;100 mA
19.9555159496172;0.2005615234375;0.00037689208984375;4.55999998848711;457;100 mA
19.9655159495919;0.20037841796875;0.00037078857421875;4.56999998846186;458;100 mA
19.9755159495667;0.200439453125;0.00039825439453125;4.57999998843661;459;100 mA
19.9855159495414;0.200469970703125;0.0003887939453125;4.58999998841136;460;100 mA
19.9955159495162;0.2005615234375;0.00037078857421875;4.59999998838612;461;100 mA
20.0055159494909;0.20050048828125;0.000377197265625;4.60999998836087;462;100 mA
20.0155159494657;0.2005615234375;0.000379028320312499;4.61999998833562;463;100 mA
20.0255159494404;0.200469970703125;0.000397338867187499;4.62999998831037;464;100 mA
20.0355159494152;0.2005615234375;0.00038726806640625;4.63999998828513;465;100 mA
20.0455159493899;0.200592041015625;0.0003704833984375;4.64999998825988;466;100 mA
20.0555159493647;0.20062255859375;0.0003802490234375;4.65999998823463;467;100 mA
20.0655159493394;0.200408935546875;0.00038482666015625;4.66999998820938;468;100 mA
20.0755159493142;0.2005615234375;0.00039093017578125;4.67999998818414;469;100 mA
20.0855159492889;0.2005615234375;0.000388488769531251;4.68999998815889;470;100 mA
20.0955159492637;0.200531005859375;0.0003582763671875;4.69999998813364;471;100 mA
20.1055159492385;0.200469970703125;0.00037567138671875;4.70999998810839;472;100 mA
20.1155159492132;0.200592041015625;0.00038177490234375;4.71999998808315;473;100 mA
20.125515949188;0.20062255859375;0.0003887939453125;4.7299999880579;474;100 mA
20.1355159491627;0.20062255859375;0.000368347167968749;4.73999998803265;475;100 mA
20.1455159491375;0.20062255859375;0.000357666015624999;4.7499999880074;476;100 mA
20.1555159491122;0.200439453125;0.00037261962890625;4.75999998798216;477;100 mA
20.165515949087;0.200592041015625;0.00036773681640625;4.76999998795691;478;100 mA
20.1755159490617;0.200469970703125;0.000380554199218749;4.77999998793166;479;100 mA
20.1855159490365;0.2005615234375;0.00036285400390625;4.78999998790641;480;100 mA
20.1955159490112;0.200408935546875;0.000356140136718749;4.79999998788116;481;100 mA
20.205515948986;0.200439453125;0.00037109375;4.80999998785592;482;100 mA
20.2155159489607;0.200439453125;0.00037872314453125;4.81999998783067;483;100 mA
20.2255159489355;0.200592041015625;0.0003704833984375;4.82999998780542;484;100 mA
20.2355159489102;0.20050048828125;0.000364074707031251;4.83999998778017;485;100 mA
20.245515948885;0.200653076171875;0.00035400390625;4.84999998775493;486;100 mA
20.2555159488597;0.200439453125;0.00036895751953125;4.85999998772968;487;100 mA
20.2655159488345;0.200469970703125;0.000379333496093751;4.86999998770443;488;100 mA
20.2755159488092;0.200408935546875;0.0003692626953125;4.87999998767918;489;100 mA
20.285515948784;0.200469970703125;0.0003692626953125;4.88999998765394;490;100 mA
20.2955159487587;0.2005615234375;0.00035369873046875;4.89999998762869;491;100 mA
20.3055159487335;0.200592041015625;0.0003753662109375;4.90999998760344;492;100 mA
20.3155159487083;0.2005615234375;0.000372314453125;4.91999998757819;493;100 mA
20.325515948683;0.200592041015625;0.000373229980468751;4.92999998755295;494;100 mA
20.3355159486578;0.200592041015625;0.00034942626953125;4.9399999875277;495;100 mA
20.3455159486325;0.20050048828125;0.00035552978515625;4.94999998750245;496;100 mA
20.3555159486073;0.200469970703125;0.0003765869140625;4.9599999874772;497;100 mA
20.365515948582;0.200469970703125;0.000377502441406249;4.96999998745196;498;100 mA
20.3755159485568;0.2005615234375;0.00036468505859375;4.97999998742671;499;100 mA
20.3855159485315;0.200469970703125;0.00035552978515625;4.98999998740146;500;100 mA
20.3955159485063;0.20050048828125;0.00036346435546875;4.99999998737621;501;100 mA
20.405515948481;0.2005615234375;0.000373229980468751;5.00999998735097;502;100 mA
20.4155159484558;0.20062255859375;0.00037811279296875;5.01999998732572;503;100 mA
20.4255159484305;0.200531005859375;0.0003662109375;5.02999998730047;504;100 mA
20.4355159484053;0.200592041015625;0.00036651611328125;5.03999998727522;505;100 mA
20.44551594838;0.200408935546875;0.000364990234375;5.04999998724998;506;100 mA
20.4555159483548;0.20050048828125;0.000394287109374999;5.05999998722473;507;100 mA
20.4655159483295;0.200408935546875;0.00038116455078125;5.06999998719948;508;100 mA
20.4755159483043;0.200531005859375;0.00037384033203125;5.07999998717423;509;100 mA
20.485515948279;0.200439453125;0.000372924804687499;5.08999998714899;510;100 mA
20.4955159482538;0.200531005859375;0.00037567138671875;5.09999998712374;511;100 mA
20.5055159482285;0.200469970703125;0.0004071044921875;5.10999998709849;512;100 mA
20.5155159482033;0.200653076171875;0.000379638671875;5.11999998707324;513;100 mA
20.5255159481781;0.200531005859375;0.00038116455078125;5.129999987048;514;100 mA
20.5355159481528;0.2005615234375;0.00037200927734375;5.13999998702275;515;100 mA
20.5455159481276;0.20050048828125;0.00038421630859375;5.1499999869975;516;100 mA
20.5555159481023;0.200531005859375;0.00039825439453125;5.15999998697225;517;100 mA
20.5655159480771;0.2005615234375;0.00039093017578125;5.169999986947;518;100 mA
20.5755159480518;0.2005615234375;0.00036346435546875;5.17999998692176;519;100 mA
20.5855159480266;0.200531005859375;0.00037261962890625;5.18999998689651;520;100 mA
20.5955159480013;0.200592041015625;0.00038421630859375;5.19999998687126;521;100 mA
20.6055159479761;0.200592041015625;0.000398864746093749;5.20999998684601;522;100 mA
20.6155159479508;0.20050048828125;0.00037506103515625;5.21999998682077;523;100 mA
20.6255159479256;0.200592041015625;0.000366821289062499;5.22999998679552;524;100 mA
20.6355159479003;0.200408935546875;0.0003814697265625;5.23999998677027;525;100 mA
20.6455159478751;0.200653076171875;0.000374450683593749;5.24999998674502;526;100 mA
20.6555159478498;0.200439453125;0.000397338867187499;5.25999998671978;527;100 mA
20.6655159478246;0.2005615234375;0.00037200927734375;5.26999998669453;528;100 mA
20.6755159477993;0.200469970703125;0.000379028320312499;5.27999998666928;529;100 mA
20.6855159477741;0.200469970703125;0.00037841796875;5.28999998664403;530;100 mA
20.6955159477488;0.200469970703125;0.000393066406250001;5.29999998661879;531;100 mA
20.7055159477236;0.2005615234375;0.000391540527343751;5.30999998659354;532;100 mA
20.7155159476983;0.200469970703125;0.000372314453125;5.31999998656829;533;100 mA
20.7255159476731;0.200592041015625;0.0003753662109375;5.32999998654304;534;100 mA
20.7355159476479;0.200408935546875;0.0003857421875;5.3399999865178;535;100 mA
20.7455159476226;0.200469970703125;0.000394287109374999;5.34999998649255;536;100 mA
20.7555159475974;0.20050048828125;0.0003875732421875;5.3599999864673;537;100 mA
20.7655159475721;0.200531005859375;0.000382080078124999;5.36999998644205;538;100 mA
20.7755159475469;0.20062255859375;0.0003704833984375;5.37999998641681;539;100 mA
20.7855159475216;0.20062255859375;0.00038604736328125;5.38999998639156;540;100 mA
20.7955159474964;0.200531005859375;0.000385131835937499;5.39999998636631;541;100 mA
20.8055159474711;0.200531005859375;0.00039520263671875;5.40999998634106;542;100 mA
20.8155159474459;0.200592041015625;0.000362548828125001;5.41999998631582;543;100 mA
20.8255159474206;0.200439453125;0.0003680419921875;5.42999998629057;544;100 mA
20.8355159473954;0.20050048828125;0.00038421630859375;5.43999998626532;545;100 mA
20.8455159473701;0.20050048828125;0.000382080078124999;5.44999998624007;546;100 mA
20.8555159473449;0.200592041015625;0.00037261962890625;5.45999998621483;547;100 mA
20.8655159473196;0.200531005859375;0.000356140136718749;5.46999998618958;548;100 mA
20.8755159472944;0.200531005859375;0.000368347167968749;5.47999998616433;549;100 mA
20.8855159472691;0.20062255859375;0.00036285400390625;5.48999998613908;550;100 mA
20.8955159472439;0.200531005859375;0.0003765869140625;5.49999998611383;551;100 mA
20.9055159472186;0.20050048828125;0.0003692626953125;5.50999998608859;552;100 mA
20.9155159471934;0.2005615234375;0.00035736083984375;5.51999998606334;553;100 mA
20.9255159471682;0.200408935546875;0.0003619384765625;5.52999998603809;554;100 mA
20.9355159471429;0.200469970703125;0.000377197265625;5.53999998601284;555;100 mA
20.9455159471177;0.200469970703125;0.00037078857421875;5.5499999859876;556;100 mA
20.9555159470924;0.200469970703125;0.000365295410156249;5.55999998596235;557;100 mA
20.9655159470672;0.200531005859375;0.000352783203125;5.5699999859371;558;100 mA
20.9755159470419;0.2005615234375;0.000364990234375;5.57999998591185;559;100 mA
20.9855159470167;0.200531005859375;0.0003826904296875;5.58999998588661;560;100 mA
20.9955159469914;0.20050048828125;0.000369873046874999;5.59999998586136;561;100 mA
21.0055159469662;0.20050048828125;0.0003753662109375;5.60999998583611;562;100 mA
21.0155159469409;0.20050048828125;0.000352783203125;5.61999998581086;563;100 mA
21.0255159469157;0.20050048828125;0.00037384033203125;5.62999998578562;564;100 mA
21.0355159468904;0.200469970703125;0.000379638671875;5.63999998576037;565;100 mA
21.0455159468652;0.200592041015625;0.000377807617187501;5.64999998573512;566;100 mA
21.0555159468399;0.2005615234375;0.000359191894531249;5.65999998570987;567;100 mA
21.0655159468147;0.2005615234375;0.00035736083984375;5.66999998568463;568;100 mA
21.0755159467894;0.2005615234375;0.0003765869140625;5.67999998565938;569;100 mA
21.0855159467642;0.20062255859375;0.00038116455078125;5.68999998563413;570;100 mA
21.0955159467389;0.20050048828125;0.0003619384765625;5.69999998560888;571;100 mA
21.1055159467137;0.2005615234375;0.000361328125;5.70999998558364;572;100 mA
21.1155159466884;0.200439453125;0.000364074707031251;5.71999998555839;573;100 mA
21.1255159466632;0.200714111328125;0.000360107421875;5.72999998553314;574;100 mA
21.135515946638;0.200439453125;0.000382080078124999;5.73999998550789;575;100 mA
21.1455159466127;0.200592041015625;0.000360107421875;5.74999998548265;576;100 mA
21.1555159465875;0.20050048828125;0.00036956787109375;5.7599999854574;577;100 mA
21.1655159465622;0.200531005859375;0.000361022949218751;5.76999998543215;578;100 mA
21.175515946537;0.200531005859375;0.000379333496093751;5.7799999854069;579;100 mA
21.1855159465117;0.200469970703125;0.00038116455078125;5.78999998538166;580;100 mA
21.1955159464865;0.200469970703125;0.00036285400390625;5.79999998535641;581;100 mA
21.2055159464612;0.200439453125;0.000368347167968749;5.80999998533116;582;100 mA
21.215515946436;0.200439453125;0.00037109375;5.81999998530591;583;100 mA
21.2255159464107;0.20037841796875;0.000388488769531251;5.82999998528066;584;100 mA
21.2355159463855;0.20050048828125;0.000379638671875;5.83999998525542;585;100 mA
21.2455159463602;0.20050048828125;0.000377807617187501;5.84999998523017;586;100 mA
21.255515946335;0.200592041015625;0.00037200927734375;5.85999998520492;587;100 mA
21.2655159463097;0.2005615234375;0.000380859375000001;5.86999998517967;588;100 mA
21.2755159462845;0.2005615234375;0.0003887939453125;5.87999998515443;589;100 mA
21.2855159462592;0.200531005859375;0.000393066406250001;5.88999998512918;590;100 mA
21.295515946234;0.20062255859375;0.00036285400390625;5.89999998510393;591;100 mA
21.3055159462087;0.200439453125;0.00037567138671875;5.90999998507868;592;100 mA
21.3155159461835;0.200531005859375;0.0003863525390625;5.91999998505344;593;100 mA
21.3255159461582;0.200439453125;0.000396728515625;5.92999998502819;594;100 mA
21.335515946133;0.200531005859375;0.000377807617187501;5.93999998500294;595;100 mA
21.3455159461078;0.2005615234375;0.00036346435546875;5.94999998497769;596;100 mA
21.3555159460825;0.20068359375;0.0003802490234375;5.95999998495245;597;100 mA
21.3655159460573;0.200592041015625;0.00036895751953125;5.9699999849272;598;100 mA
21.375515946032;0.20050048828125;0.00039642333984375;5.97999998490195;599;100 mA
21.3855159460068;0.200531005859375;0.00037872314453125;5.9899999848767;600;100 mA
21.3955159459815;0.200439453125;0.000366821289062499;5.99999998485146;601;100 mA
21.4055159459563;0.200439453125;0.00037872314453125;6.00999998482621;602;100 mA
21.415515945931;0.200531005859375;0.0003814697265625;6.01999998480096;603;100 mA
21.4255159459058;0.200531005859375;0.000383911132812501;6.02999998477571;604;100 mA
21.4355159458805;0.2005615234375;0.00037109375;6.03999998475047;605;100 mA
21.4455159458553;0.200531005859375;0.000365600585937501;6.04999998472522;606;100 mA
21.45551594583;0.2005615234375;0.00038177490234375;6.05999998469997;607;100 mA
21.4655159458048;0.200469970703125;0.00039031982421875;6.06999998467472;608;100 mA
21.4755159457795;0.20050048828125;0.00038421630859375;6.07999998464948;609;100 mA
21.4855159457543;0.200439453125;0.000385437011718751;6.08999998462423;610;100 mA
21.495515945729;0.200469970703125;0.000367431640625;6.09999998459898;611;100 mA
21.5055159457038;0.200531005859375;0.00038482666015625;6.10999998457373;612;100 mA
21.5155159456785;0.20050048828125;0.00038787841796875;6.11999998454849;613;100 mA
21.5255159456533;0.2005615234375;0.00039703369140625;6.12999998452324;614;100 mA
21.535515945628;0.200531005859375;0.000368347167968749;6.13999998449799;615;100 mA
21.5455159456028;0.200653076171875;0.0003643798828125;6.14999998447274;616;100 mA
21.5555159455776;0.20050048828125;0.000388183593749999;6.1599999844475;617;100 mA
21.5655159455523;0.20050048828125;0.00038604736328125;6.16999998442225;618;100 mA
21.5755159455271;0.200469970703125;0.000376281738281251;6.179999984397;619;100 mA
21.5855159455018;0.200531005859375;0.0003631591796875;6.18999998437175;620;100 mA
21.5955159454766;0.200408935546875;0.0003643798828125;6.1999999843465;621;100 mA
21.6055159454513;0.200653076171875;0.0003741455078125;6.20999998432126;622;100 mA
21.6155159454261;0.200531005859375;0.0003802490234375;6.21999998429601;623;100 mA
21.6255159454008;0.2005615234375;0.000367431640625;6.22999998427076;624;100 mA
21.6355159453756;0.200592041015625;0.000362243652343749;6.23999998424551;625;100 mA
21.6455159453503;0.20050048828125;0.00036895751953125;6.24999998422027;626;100 mA
21.6555159453251;0.200531005859375;0.00038177490234375;6.25999998419502;627;100 mA
21.6655159452998;0.200531005859375;0.00037872314453125;6.26999998416977;628;100 mA
21.6755159452746;0.200531005859375;0.0003631591796875;6.27999998414452;629;100 mA
21.6855159452493;0.200347900390625;0.0003643798828125;6.28999998411928;630;100 mA
21.6955159452241;0.20050048828125;0.000367126464843751;6.29999998409403;631;100 mA
21.7055159451988;0.200408935546875;0.000391540527343751;6.30999998406878;632;100 mA
21.7155159451736;0.2005615234375;0.0003704833984375;6.31999998404353;633;100 mA
21.7255159451483;0.20037841796875;0.00037994384765625;6.32999998401829;634;100 mA
21.7355159451231;0.200653076171875;0.00036651611328125;6.33999998399304;635;100 mA
21.7455159450978;0.200408935546875;0.000371398925781249;6.34999998396779;636;100 mA
21.7555159450726;0.200439453125;0.0003955078125;6.35999998394254;637;100 mA
21.7655159450474;0.200469970703125;0.000382385253906251;6.3699999839173;638;100 mA
21.7755159450221;0.200592041015625;0.000361328125;6.37999998389205;639;100 mA
21.7855159449969;0.200469970703125;0.000366821289062499;6.3899999838668;640;100 mA
21.7955159449716;0.200531005859375;0.000375976562499999;6.39999998384155;641;100 mA
21.8055159449464;0.20050048828125;0.000386657714843749;6.40999998381631;642;100 mA
21.8155159449211;0.20062255859375;0.000367126464843751;6.41999998379106;643;100 mA
21.8255159448959;0.2005615234375;0.000361022949218751;6.42999998376581;644;100 mA
21.8355159448706;0.200653076171875;0.00036956787109375;6.43999998374056;645;100 mA
21.8455159448454;0.200531005859375;0.0003619384765625;6.44999998371532;646;100 mA
21.8555159448201;0.200531005859375;0.000389404296875;6.45999998369007;647;100 mA
21.8655159447949;0.20050048828125;0.0003631591796875;6.46999998366482;648;100 mA
21.8755159447696;0.200531005859375;0.00036163330078125;6.47999998363957;649;100 mA
21.8855159447444;0.20037841796875;0.000371704101562501;6.48999998361433;650;100 mA
21.8955159447191;0.200469970703125;0.00037689208984375;6.49999998358908;651;100 mA
21.9055159446939;0.200408935546875;0.000386657714843749;6.50999998356383;652;100 mA
21.9155159446686;0.2005615234375;0.000361328125;6.51999998353858;653;100 mA
21.9255159446434;0.200408935546875;0.00036468505859375;6.52999998351333;654;100 mA
21.9355159446181;0.200531005859375;0.00036956787109375;6.53999998348809;655;100 mA
21.9455159445929;0.20050048828125;0.000383605957031249;6.54999998346284;656;100 mA
21.9555159445677;0.200592041015625;0.0003857421875;6.55999998343759;657;100 mA
21.9655159445424;0.200408935546875;0.000379028320312499;6.56999998341234;658;100 mA
21.9755159445172;0.200592041015625;0.00036590576171875;6.5799999833871;659;100 mA
21.9855159444919;0.200469970703125;0.000377807617187501;6.58999998336185;660;100 mA
21.9955159444667;0.200469970703125;0.000386962890625001;6.5999999833366;661;100 mA
22.0055159444414;0.200439453125;0.000392761230468749;6.60999998331135;662;100 mA
22.0155159444162;0.2005615234375;0.00035888671875;6.61999998328611;663;100 mA
22.0255159443909;0.200439453125;0.000367126464843751;6.62999998326086;664;100 mA
22.0355159443657;0.200531005859375;0.000375976562499999;6.63999998323561;665;100 mA
22.0455159443404;0.20050048828125;0.000379333496093751;6.64999998321036;666;100 mA
22.0555159443152;0.200592041015625;0.000379333496093751;6.65999998318512;667;100 mA
22.0655159442899;0.200653076171875;0.00035369873046875;6.66999998315987;668;100 mA
22.0755159442647;0.20068359375;0.000362548828125001;6.67999998313462;669;100 mA
22.0855159442394;0.20062255859375;0.0003631591796875;6.68999998310937;670;100 mA
22.0955159442142;0.20050048828125;0.000377502441406249;6.69999998308413;671;100 mA
22.1055159441889;0.200469970703125;0.000367431640625;6.70999998305888;672;100 mA
22.1155159441637;0.200469970703125;0.00035888671875;6.71999998303363;673;100 mA
22.1255159441384;0.200439453125;0.00036651611328125;6.72999998300838;674;100 mA
22.1355159441132;0.200531005859375;0.000371704101562501;6.73999998298314;675;100 mA
22.1455159440879;0.200469970703125;0.000367431640625;6.74999998295789;676;100 mA
22.1555159440627;0.200531005859375;0.000364990234375;6.75999998293264;677;100 mA
22.1655159440375;0.20050048828125;0.000355224609375;6.76999998290739;678;100 mA
22.1755159440122;0.200592041015625;0.000362548828125001;6.77999998288215;679;100 mA
22.185515943987;0.200531005859375;0.000377807617187501;6.7899999828569;680;100 mA
22.1955159439617;0.2005615234375;0.000365295410156249;6.79999998283165;681;100 mA
22.2055159439365;0.200469970703125;0.00037567138671875;6.8099999828064;682;100 mA
22.2155159439112;0.200531005859375;0.000352783203125;6.81999998278116;683;100 mA
22.225515943886;0.200469970703125;0.0003631591796875;6.82999998275591;684;100 mA
22.2355159438607;0.200469970703125;0.00037506103515625;6.83999998273066;685;100 mA
22.2455159438355;0.200531005859375;0.00036895751953125;6.84999998270541;686;100 mA
22.2555159438102;0.200469970703125;0.000359497070312501;6.85999998268016;687;100 mA
22.265515943785;0.200592041015625;0.000345764160156251;6.86999998265492;688;100 mA
22.2755159437597;0.2005615234375;0.000364074707031251;6.87999998262967;689;100 mA
22.2855159437345;0.200653076171875;0.00037384033203125;6.88999998260442;690;100 mA
22.2955159437092;0.2005615234375;0.00035430908203125;6.89999998257917;691;100 mA
22.305515943684;0.2005615234375;0.000347900390625;6.90999998255393;692;100 mA
22.3155159436587;0.20050048828125;0.00034912109375;6.91999998252868;693;100 mA
22.3255159436335;0.200653076171875;0.000350341796875001;6.92999998250343;694;100 mA
22.3355159436082;0.200469970703125;0.00036956787109375;6.93999998247818;695;100 mA
22.345515943583;0.20050048828125;0.00034820556640625;6.94999998245294;696;100 mA
22.3555159435577;0.200469970703125;0.00034942626953125;6.95999998242769;697;100 mA
22.3655159435325;0.200439453125;0.000347290039062501;6.96999998240244;698;100 mA
22.3755159435073;0.20050048828125;0.00035736083984375;6.97999998237719;699;100 mA
22.385515943482;0.200531005859375;0.0003631591796875;6.98999998235195;700;100 mA
