Time (s);WE(1).Potential (V);WE(1).Current (A);Corrected time (s);Index;Current range
22.8857279422191;-0.799560546875;-0.326324462890625;0;1;100 mA
22.8957279421938;-0.79986572265625;-0.2393798828125;0.00999999997475243;2;100 mA
22.9057279421686;-0.7989501953125;-0.197662353515625;0.0199999999495049;3;100 mA
22.9157279421433;-0.79925537109375;-0.172393798828125;0.0299999999242573;4;100 mA
22.9257279421181;-0.79925537109375;-0.154327392578125;0.0399999998990097;5;100 mA
22.9357279420929;-0.7989501953125;-0.141204833984375;0.0499999998737621;6;100 mA
22.9457279420676;-0.799560546875;-0.130950927734375;0.0599999998485146;7;100 mA
22.9557279420424;-0.79925537109375;-0.12261962890625;0.069999999823267;8;100 mA
22.9657279420171;-0.799560546875;-0.115875244140625;0.0799999997980194;9;100 mA
22.9757279419919;-0.799560546875;-0.109954833984375;0.0899999997727718;10;100 mA
22.9857279419666;-0.799560546875;-0.105010986328125;0.0999999997475243;11;100 mA
22.9957279419414;-0.7989501953125;-0.10064697265625;0.109999999722277;12;100 mA
23.0057279419161;-0.7989501953125;-0.09686279296875;0.119999999697029;13;100 mA
23.0157279418909;-0.799560546875;-0.09356689453125;0.129999999671782;14;100 mA
23.0257279418656;-0.7989501953125;-0.0904541015625;0.139999999646534;15;100 mA
23.0357279418404;-0.79833984375;-0.0877685546875;0.149999999621286;16;100 mA
23.0457279418151;-0.79986572265625;-0.0853271484375;0.159999999596039;17;100 mA
23.0557279417899;-0.7989501953125;-0.083038330078125;0.169999999570791;18;100 mA
23.0657279417646;-0.7989501953125;-0.0811767578125;0.179999999545544;19;100 mA
23.0757279417394;-0.79925537109375;-0.079193115234375;0.189999999520296;20;100 mA
23.0857279417141;-0.7989501953125;-0.077606201171875;0.199999999495049;21;100 mA
23.0957279416889;-0.79925537109375;-0.076141357421875;0.209999999469801;22;100 mA
23.1057279416636;-0.79925537109375;-0.074615478515625;0.219999999444553;23;100 mA
23.1157279416384;-0.799560546875;-0.0732421875;0.229999999419306;24;100 mA
23.1257279416131;-0.7989501953125;-0.071929931640625;0.239999999394058;25;100 mA
23.1357279415879;-0.799560546875;-0.070648193359375;0.249999999368811;26;100 mA
23.1457279415627;-0.79925537109375;-0.0694580078125;0.259999999343563;27;100 mA
23.1557279415374;-0.79925537109375;-0.0684814453125;0.269999999318316;28;100 mA
23.1657279415122;-0.79925537109375;-0.067352294921875;0.279999999293068;29;100 mA
23.1757279414869;-0.79925537109375;-0.0662841796875;0.28999999926782;30;100 mA
23.1857279414617;-0.7989501953125;-0.06549072265625;0.299999999242573;31;100 mA
23.1957279414364;-0.79925537109375;-0.0645751953125;0.309999999217325;32;100 mA
23.2057279414112;-0.799560546875;-0.063812255859375;0.319999999192078;33;100 mA
23.2157279413859;-0.799560546875;-0.063079833984375;0.32999999916683;34;100 mA
23.2257279413607;-0.799560546875;-0.06243896484375;0.339999999141583;35;100 mA
23.2357279413354;-0.7989501953125;-0.061798095703125;0.349999999116335;36;100 mA
23.2457279413102;-0.79925537109375;-0.0611572265625;0.359999999091087;37;100 mA
23.2557279412849;-0.79925537109375;-0.0606689453125;0.36999999906584;38;100 mA
23.2657279412597;-0.7989501953125;-0.06005859375;0.379999999040592;39;100 mA
23.2757279412344;-0.79864501953125;-0.059600830078125;0.389999999015345;40;100 mA
23.2857279412092;-0.7989501953125;-0.059173583984375;0.399999998990097;41;100 mA
23.2957279411839;-0.79925537109375;-0.05865478515625;0.40999999896485;42;100 mA
23.3057279411587;-0.79925537109375;-0.058319091796875;0.419999998939602;43;100 mA
23.3157279411334;-0.799560546875;-0.057769775390625;0.429999998914354;44;100 mA
23.3257279411082;-0.7989501953125;-0.0574951171875;0.439999998889107;45;100 mA
23.335727941083;-0.79925537109375;-0.057220458984375;0.449999998863859;46;100 mA
23.3457279410577;-0.79925537109375;-0.05682373046875;0.459999998838612;47;100 mA
23.3557279410325;-0.799560546875;-0.056549072265625;0.469999998813364;48;100 mA
23.3657279410072;-0.79864501953125;-0.0562744140625;0.479999998788116;49;100 mA
23.375727940982;-0.799560546875;-0.055938720703125;0.489999998762869;50;100 mA
23.3857279409567;-0.79864501953125;-0.05572509765625;0.499999998737621;51;100 mA
23.3957279409315;-0.7989501953125;-0.0555419921875;0.509999998712374;52;100 mA
23.4057279409062;-0.79864501953125;-0.05523681640625;0.519999998687126;53;100 mA
23.415727940881;-0.79986572265625;-0.054901123046875;0.529999998661879;54;100 mA
23.4257279408557;-0.79925537109375;-0.054779052734375;0.539999998636631;55;100 mA
23.4357279408305;-0.799560546875;-0.05438232421875;0.549999998611383;56;100 mA
23.4457279408052;-0.7989501953125;-0.054229736328125;0.559999998586136;57;100 mA
23.45572794078;-0.799560546875;-0.053985595703125;0.569999998560888;58;100 mA
23.4657279407547;-0.7989501953125;-0.0538330078125;0.579999998535641;59;100 mA
23.4757279407295;-0.79925537109375;-0.053741455078125;0.589999998510393;60;100 mA
23.4857279407042;-0.79986572265625;-0.0535888671875;0.599999998485146;61;100 mA
23.495727940679;-0.79925537109375;-0.053466796875;0.609999998459898;62;100 mA
23.5057279406537;-0.7989501953125;-0.05316162109375;0.61999999843465;63;100 mA
23.5157279406285;-0.7989501953125;-0.053009033203125;0.629999998409403;64;100 mA
23.5257279406032;-0.79925537109375;-0.05279541015625;0.639999998384155;65;100 mA
23.535727940578;-0.79925537109375;-0.052520751953125;0.649999998358908;66;100 mA
23.5457279405528;-0.79925537109375;-0.052398681640625;0.65999999833366;67;100 mA
23.5557279405275;-0.799560546875;-0.052032470703125;0.669999998308413;68;100 mA
23.5657279405023;-0.79925537109375;-0.051849365234375;0.679999998283165;69;100 mA
23.575727940477;-0.799560546875;-0.0517578125;0.689999998257917;70;100 mA
23.5857279404518;-0.79925537109375;-0.051483154296875;0.69999999823267;71;100 mA
23.5957279404265;-0.79925537109375;-0.05133056640625;0.709999998207422;72;100 mA
23.6057279404013;-0.79925537109375;-0.0511474609375;0.719999998182175;73;100 mA
23.615727940376;-0.7989501953125;-0.050994873046875;0.729999998156927;74;100 mA
23.6257279403508;-0.79925537109375;-0.05078125;0.73999999813168;75;100 mA
23.6357279403255;-0.7989501953125;-0.050811767578125;0.749999998106432;76;100 mA
23.6457279403003;-0.79925537109375;-0.050537109375;0.759999998081184;77;100 mA
23.655727940275;-0.799560546875;-0.0504150390625;0.769999998055937;78;100 mA
23.6657279402498;-0.79925537109375;-0.05047607421875;0.779999998030689;79;100 mA
23.6757279402245;-0.79925537109375;-0.050323486328125;0.789999998005442;80;100 mA
23.6857279401993;-0.79925537109375;-0.0504150390625;0.799999997980194;81;100 mA
23.695727940174;-0.7989501953125;-0.05035400390625;0.809999997954947;82;100 mA
23.7057279401488;-0.79925537109375;-0.05029296875;0.819999997929699;83;100 mA
23.7157279401235;-0.799560546875;-0.05035400390625;0.829999997904451;84;100 mA
23.7257279400983;-0.79864501953125;-0.05029296875;0.839999997879204;85;100 mA
23.735727940073;-0.799560546875;-0.050323486328125;0.849999997853956;86;100 mA
23.7457279400478;-0.799560546875;-0.05023193359375;0.859999997828709;87;100 mA
23.7557279400226;-0.79925537109375;-0.05023193359375;0.869999997803461;88;100 mA
23.7657279399973;-0.799560546875;-0.050262451171875;0.879999997778214;89;100 mA
23.7757279399721;-0.7989501953125;-0.05023193359375;0.889999997752966;90;100 mA
23.7857279399468;-0.799560546875;-0.050384521484375;0.899999997727718;91;100 mA
23.7957279399216;-0.7989501953125;-0.050201416015625;0.909999997702471;92;100 mA
23.8057279398963;-0.79925537109375;-0.05029296875;0.919999997677223;93;100 mA
23.8157279398711;-0.799560546875;-0.050323486328125;0.929999997651976;94;100 mA
23.8257279398458;-0.7989501953125;-0.05023193359375;0.939999997626728;95;100 mA
23.8357279398206;-0.799560546875;-0.05023193359375;0.949999997601481;96;100 mA
23.8457279397953;-0.79925537109375;-0.05010986328125;0.959999997576233;97;100 mA
23.8557279397701;-0.799560546875;-0.050018310546875;0.969999997550985;98;100 mA
23.8657279397448;-0.799560546875;-0.049957275390625;0.979999997525738;99;100 mA
23.8757279397196;-0.79925537109375;-0.0499267578125;0.98999999750049;100;100 mA
23.8857279396943;-0.79864501953125;-0.049713134765625;0.999999997475243;101;100 mA
23.8957279396691;-0.799560546875;-0.049530029296875;1.00999999745;102;100 mA
23.9057279396438;-0.79986572265625;-0.0495513916015625;1.01999999742475;103;100 mA
23.9157279396186;-0.7989501953125;-0.04931640625;1.0299999973995;104;100 mA
23.9257279395933;-0.799560546875;-0.0493804931640625;1.03999999737425;105;100 mA
23.9357279395681;-0.79925537109375;-0.0492034912109375;1.049999997349;106;100 mA
23.9457279395428;-0.79925537109375;-0.049072265625;1.05999999732376;107;100 mA
23.9557279395176;-0.799560546875;-0.0491241455078125;1.06999999729851;108;100 mA
23.9657279394924;-0.79925537109375;-0.048992919921875;1.07999999727326;109;100 mA
23.9757279394671;-0.79925537109375;-0.0490478515625;1.08999999724801;110;100 mA
23.9857279394419;-0.799560546875;-0.0489471435546875;1.09999999722277;111;100 mA
23.9957279394166;-0.79925537109375;-0.048919677734375;1.10999999719752;112;100 mA
24.0057279393914;-0.79925537109375;-0.0488525390625;1.11999999717227;113;100 mA
24.0157279393661;-0.79864501953125;-0.048785400390625;1.12999999714702;114;100 mA
24.0257279393409;-0.799560546875;-0.0488311767578125;1.13999999712178;115;100 mA
24.0357279393156;-0.79925537109375;-0.04857177734375;1.14999999709653;116;100 mA
24.0457279392904;-0.79864501953125;-0.0486053466796875;1.15999999707128;117;100 mA
24.0557279392651;-0.7989501953125;-0.0486572265625;1.16999999704603;118;100 mA
24.0657279392399;-0.79925537109375;-0.0484466552734375;1.17999999702079;119;100 mA
24.0757279392146;-0.799560546875;-0.0484710693359375;1.18999999699554;120;100 mA
24.0857279391894;-0.79864501953125;-0.04827880859375;1.19999999697029;121;100 mA
24.0957279391641;-0.7989501953125;-0.0481597900390625;1.20999999694504;122;100 mA
24.1057279391389;-0.79925537109375;-0.04813232421875;1.2199999969198;123;100 mA
24.1157279391136;-0.79925537109375;-0.0481292724609375;1.22999999689455;124;100 mA
24.1257279390884;-0.7989501953125;-0.0479644775390625;1.2399999968693;125;100 mA
24.1357279390631;-0.79925537109375;-0.0478607177734375;1.24999999684405;126;100 mA
24.1457279390379;-0.79864501953125;-0.0478363037109375;1.25999999681881;127;100 mA
24.1557279390126;-0.7989501953125;-0.04766845703125;1.26999999679356;128;100 mA
24.1657279389874;-0.7989501953125;-0.0477569580078125;1.27999999676831;129;100 mA
24.1757279389622;-0.7989501953125;-0.0475860595703125;1.28999999674306;130;100 mA
24.1857279389369;-0.799560546875;-0.0474884033203125;1.29999999671782;131;100 mA
24.1957279389117;-0.79925537109375;-0.047540283203125;1.30999999669257;132;100 mA
24.2057279388864;-0.79925537109375;-0.047454833984375;1.31999999666732;133;100 mA
24.2157279388612;-0.799560546875;-0.0475311279296875;1.32999999664207;134;100 mA
24.2257279388359;-0.7989501953125;-0.047412109375;1.33999999661683;135;100 mA
24.2357279388107;-0.7989501953125;-0.047393798828125;1.34999999659158;136;100 mA
24.2457279387854;-0.79925537109375;-0.047314453125;1.35999999656633;137;100 mA
24.2557279387602;-0.799560546875;-0.047265625;1.36999999654108;138;100 mA
24.2657279387349;-0.7989501953125;-0.047235107421875;1.37999999651583;139;100 mA
24.2757279387097;-0.799560546875;-0.04693603515625;1.38999999649059;140;100 mA
24.2857279386844;-0.79833984375;-0.0470001220703125;1.39999999646534;141;100 mA
24.2957279386592;-0.799560546875;-0.0469512939453125;1.40999999644009;142;100 mA
24.3057279386339;-0.7989501953125;-0.0468170166015625;1.41999999641484;143;100 mA
24.3157279386087;-0.7989501953125;-0.04686279296875;1.4299999963896;144;100 mA
24.3257279385834;-0.7989501953125;-0.046636962890625;1.43999999636435;145;100 mA
24.3357279385582;-0.79925537109375;-0.0465545654296875;1.4499999963391;146;100 mA
24.3457279385329;-0.79925537109375;-0.046478271484375;1.45999999631385;147;100 mA
24.3557279385077;-0.79925537109375;-0.04639892578125;1.46999999628861;148;100 mA
24.3657279384825;-0.7989501953125;-0.04622802734375;1.47999999626336;149;100 mA
24.3757279384572;-0.79986572265625;-0.046044921875;1.48999999623811;150;100 mA
24.385727938432;-0.79925537109375;-0.045989990234375;1.49999999621286;151;100 mA
24.3957279384067;-0.79925537109375;-0.0458526611328125;1.50999999618762;152;100 mA
24.4057279383815;-0.79864501953125;-0.045947265625;1.51999999616237;153;100 mA
24.4157279383562;-0.79986572265625;-0.0458221435546875;1.52999999613712;154;100 mA
24.425727938331;-0.79925537109375;-0.0457489013671875;1.53999999611187;155;100 mA
24.4357279383057;-0.79925537109375;-0.0458526611328125;1.54999999608663;156;100 mA
24.4457279382805;-0.79925537109375;-0.0457672119140625;1.55999999606138;157;100 mA
24.4557279382552;-0.79925537109375;-0.0459075927734375;1.56999999603613;158;100 mA
24.46572793823;-0.799560546875;-0.045867919921875;1.57999999601088;159;100 mA
24.4757279382047;-0.7989501953125;-0.04588623046875;1.58999999598564;160;100 mA
24.4857279381795;-0.7989501953125;-0.0459564208984375;1.59999999596039;161;100 mA
24.4957279381542;-0.7989501953125;-0.0460052490234375;1.60999999593514;162;100 mA
24.505727938129;-0.79925537109375;-0.0460845947265625;1.61999999590989;163;100 mA
24.5157279381037;-0.799560546875;-0.0458587646484375;1.62999999588465;164;100 mA
24.5257279380785;-0.79864501953125;-0.04593505859375;1.6399999958594;165;100 mA
24.5357279380532;-0.79925537109375;-0.0458038330078125;1.64999999583415;166;100 mA
24.545727938028;-0.7989501953125;-0.04564208984375;1.6599999958089;167;100 mA
24.5557279380027;-0.7989501953125;-0.045623779296875;1.66999999578366;168;100 mA
24.5657279379775;-0.79925537109375;-0.0453521728515625;1.67999999575841;169;100 mA
24.5757279379523;-0.7989501953125;-0.04522705078125;1.68999999573316;170;100 mA
24.585727937927;-0.7989501953125;-0.0451995849609375;1.69999999570791;171;100 mA
24.5957279379018;-0.79925537109375;-0.0451263427734375;1.70999999568267;172;100 mA
24.6057279378765;-0.79864501953125;-0.0450103759765625;1.71999999565742;173;100 mA
24.6157279378513;-0.7989501953125;-0.0449066162109375;1.72999999563217;174;100 mA
24.625727937826;-0.799560546875;-0.04481201171875;1.73999999560692;175;100 mA
24.6357279378008;-0.79925537109375;-0.0446533203125;1.74999999558167;176;100 mA
24.6457279377755;-0.79925537109375;-0.0446807861328125;1.75999999555643;177;100 mA
24.6557279377503;-0.799560546875;-0.044476318359375;1.76999999553118;178;100 mA
24.665727937725;-0.7989501953125;-0.0443206787109375;1.77999999550593;179;100 mA
24.6757279376998;-0.79925537109375;-0.0443878173828125;1.78999999548068;180;100 mA
24.6857279376745;-0.7989501953125;-0.044195556640625;1.79999999545544;181;100 mA
24.6957279376493;-0.79925537109375;-0.0442596435546875;1.80999999543019;182;100 mA
24.705727937624;-0.79925537109375;-0.0441558837890625;1.81999999540494;183;100 mA
24.7157279375988;-0.79925537109375;-0.044073486328125;1.82999999537969;184;100 mA
24.7257279375735;-0.79986572265625;-0.044091796875;1.83999999535445;185;100 mA
24.7357279375483;-0.79925537109375;-0.0441162109375;1.8499999953292;186;100 mA
24.745727937523;-0.799560546875;-0.044122314453125;1.85999999530395;187;100 mA
24.7557279374978;-0.79925537109375;-0.043975830078125;1.8699999952787;188;100 mA
24.7657279374725;-0.7989501953125;-0.04410400390625;1.87999999525346;189;100 mA
24.7757279374473;-0.79925537109375;-0.0440673828125;1.88999999522821;190;100 mA
24.7857279374221;-0.79925537109375;-0.0441314697265625;1.89999999520296;191;100 mA
24.7957279373968;-0.79925537109375;-0.044287109375;1.90999999517771;192;100 mA
24.8057279373716;-0.79864501953125;-0.0442596435546875;1.91999999515247;193;100 mA
24.8157279373463;-0.799560546875;-0.0443511962890625;1.92999999512722;194;100 mA
24.8257279373211;-0.7989501953125;-0.0444305419921875;1.93999999510197;195;100 mA
24.8357279372958;-0.79925537109375;-0.04453125;1.94999999507672;196;100 mA
24.8457279372706;-0.79925537109375;-0.04449462890625;1.95999999505148;197;100 mA
24.8557279372453;-0.799560546875;-0.0445343017578125;1.96999999502623;198;100 mA
24.8657279372201;-0.79925537109375;-0.0445159912109375;1.97999999500098;199;100 mA
24.8757279371948;-0.7989501953125;-0.0444488525390625;1.98999999497573;200;100 mA
24.8857279371696;-0.79925537109375;-0.044573974609375;1.99999999495049;201;100 mA
24.8957279371443;-0.79864501953125;-0.044329833984375;2.00999999492524;202;100 mA
24.9057279371191;-0.7989501953125;-0.044195556640625;2.01999999489999;203;100 mA
24.9157279370938;-0.79925537109375;-0.0442138671875;2.02999999487474;204;100 mA
24.9257279370686;-0.7989501953125;-0.0438995361328125;2.0399999948495;205;100 mA
24.9357279370433;-0.79864501953125;-0.044000244140625;2.04999999482425;206;100 mA
24.9457279370181;-0.7989501953125;-0.04381103515625;2.059999994799;207;100 mA
24.9557279369928;-0.79925537109375;-0.043743896484375;2.06999999477375;208;100 mA
24.9657279369676;-0.79925537109375;-0.0437835693359375;2.0799999947485;209;100 mA
24.9757279369423;-0.7989501953125;-0.0437744140625;2.08999999472326;210;100 mA
24.9857279369171;-0.79925537109375;-0.0438201904296875;2.09999999469801;211;100 mA
24.9957279368919;-0.79925537109375;-0.0436431884765625;2.10999999467276;212;100 mA
25.0057279368666;-0.7989501953125;-0.043768310546875;2.11999999464751;213;100 mA
25.0157279368414;-0.79925537109375;-0.0436309814453125;2.12999999462227;214;100 mA
25.0257279368161;-0.79925537109375;-0.043621826171875;2.13999999459702;215;100 mA
25.0357279367909;-0.7989501953125;-0.0436431884765625;2.14999999457177;216;100 mA
25.0457279367656;-0.79925537109375;-0.04344482421875;2.15999999454652;217;100 mA
25.0557279367404;-0.7989501953125;-0.043450927734375;2.16999999452128;218;100 mA
25.0657279367151;-0.79925537109375;-0.043463134765625;2.17999999449603;219;100 mA
25.0757279366899;-0.79925537109375;-0.0433929443359375;2.18999999447078;220;100 mA
25.0857279366646;-0.799560546875;-0.04329833984375;2.19999999444553;221;100 mA
25.0957279366394;-0.79986572265625;-0.0431793212890625;2.20999999442029;222;100 mA
25.1057279366141;-0.7989501953125;-0.043048095703125;2.21999999439504;223;100 mA
25.1157279365889;-0.79925537109375;-0.0429595947265625;2.22999999436979;224;100 mA
25.1257279365636;-0.7989501953125;-0.043060302734375;2.23999999434454;225;100 mA
25.1357279365384;-0.79925537109375;-0.0428680419921875;2.2499999943193;226;100 mA
25.1457279365131;-0.79925537109375;-0.0428131103515625;2.25999999429405;227;100 mA
25.1557279364879;-0.79864501953125;-0.0429168701171875;2.2699999942688;228;100 mA
25.1657279364626;-0.799560546875;-0.0427398681640625;2.27999999424355;229;100 mA
25.1757279364374;-0.79925537109375;-0.042919921875;2.28999999421831;230;100 mA
25.1857279364121;-0.79925537109375;-0.0428253173828125;2.29999999419306;231;100 mA
25.1957279363869;-0.79925537109375;-0.0427825927734375;2.30999999416781;232;100 mA
25.2057279363617;-0.79925537109375;-0.042864990234375;2.31999999414256;233;100 mA
25.2157279363364;-0.79925537109375;-0.042816162109375;2.32999999411732;234;100 mA
25.2257279363112;-0.79925537109375;-0.0428619384765625;2.33999999409207;235;100 mA
25.2357279362859;-0.7989501953125;-0.0427032470703125;2.34999999406682;236;100 mA
25.2457279362607;-0.79986572265625;-0.042791748046875;2.35999999404157;237;100 mA
25.2557279362354;-0.7989501953125;-0.04268798828125;2.36999999401633;238;100 mA
25.2657279362102;-0.79925537109375;-0.0427093505859375;2.37999999399108;239;100 mA
25.2757279361849;-0.79925537109375;-0.0427490234375;2.38999999396583;240;100 mA
25.2857279361597;-0.79925537109375;-0.0425628662109375;2.39999999394058;241;100 mA
25.2957279361344;-0.7989501953125;-0.042547607421875;2.40999999391533;242;100 mA
25.3057279361092;-0.79925537109375;-0.042510986328125;2.41999999389009;243;100 mA
25.3157279360839;-0.7989501953125;-0.0424713134765625;2.42999999386484;244;100 mA
25.3257279360587;-0.7989501953125;-0.0424713134765625;2.43999999383959;245;100 mA
25.3357279360334;-0.79864501953125;-0.04244384765625;2.44999999381434;246;100 mA
25.3457279360082;-0.79986572265625;-0.042352294921875;2.4599999937891;247;100 mA
25.3557279359829;-0.79986572265625;-0.042401123046875;2.46999999376385;248;100 mA
25.3657279359577;-0.799560546875;-0.0425506591796875;2.4799999937386;249;100 mA
25.3757279359324;-0.79864501953125;-0.0424468994140625;2.48999999371335;250;100 mA
25.3857279359072;-0.7989501953125;-0.042486572265625;2.49999999368811;251;100 mA
25.395727935882;-0.79864501953125;-0.042535400390625;2.50999999366286;252;100 mA
25.4057279358567;-0.79925537109375;-0.0423431396484375;2.51999999363761;253;100 mA
25.4157279358315;-0.79864501953125;-0.04256591796875;2.52999999361236;254;100 mA
25.4257279358062;-0.7989501953125;-0.042401123046875;2.53999999358712;255;100 mA
25.435727935781;-0.799560546875;-0.0424072265625;2.54999999356187;256;100 mA
25.4457279357557;-0.79925537109375;-0.0424896240234375;2.55999999353662;257;100 mA
25.4557279357305;-0.79864501953125;-0.042486572265625;2.56999999351137;258;100 mA
25.4657279357052;-0.79925537109375;-0.0425933837890625;2.57999999348613;259;100 mA
25.47572793568;-0.7989501953125;-0.0424835205078125;2.58999999346088;260;100 mA
25.4857279356547;-0.7989501953125;-0.042645263671875;2.59999999343563;261;100 mA
25.4957279356295;-0.7989501953125;-0.042608642578125;2.60999999341038;262;100 mA
25.5057279356042;-0.7989501953125;-0.0427337646484375;2.61999999338514;263;100 mA
25.515727935579;-0.79925537109375;-0.04288330078125;2.62999999335989;264;100 mA
25.5257279355537;-0.79925537109375;-0.0428253173828125;2.63999999333464;265;100 mA
25.5357279355285;-0.799560546875;-0.0430633544921875;2.64999999330939;266;100 mA
25.5457279355032;-0.7989501953125;-0.04324951171875;2.65999999328415;267;100 mA
25.555727935478;-0.79986572265625;-0.0434967041015625;2.6699999932589;268;100 mA
25.5657279354527;-0.799560546875;-0.0437957763671875;2.67999999323365;269;100 mA
25.5757279354275;-0.7989501953125;-0.0440460205078125;2.6899999932084;270;100 mA
25.5857279354022;-0.7989501953125;-0.0442413330078125;2.69999999318316;271;100 mA
25.595727935377;-0.79925537109375;-0.044488525390625;2.70999999315791;272;100 mA
25.6057279353518;-0.79925537109375;-0.0448516845703125;2.71999999313266;273;100 mA
25.6157279353265;-0.799560546875;-0.0449615478515625;2.72999999310741;274;100 mA
25.6257279353013;-0.79925537109375;-0.0452423095703125;2.73999999308217;275;100 mA
25.635727935276;-0.79986572265625;-0.045556640625;2.74999999305692;276;100 mA
25.6457279352508;-0.7989501953125;-0.045556640625;2.75999999303167;277;100 mA
25.6557279352255;-0.799560546875;-0.045977783203125;2.76999999300642;278;100 mA
25.6657279352003;-0.79833984375;-0.045953369140625;2.77999999298117;279;100 mA
25.675727935175;-0.799560546875;-0.0460540771484375;2.78999999295593;280;100 mA
25.6857279351498;-0.7989501953125;-0.0462677001953125;2.79999999293068;281;100 mA
25.6957279351245;-0.799560546875;-0.04625244140625;2.80999999290543;282;100 mA
25.7057279350993;-0.79925537109375;-0.0464263916015625;2.81999999288018;283;100 mA
25.715727935074;-0.79925537109375;-0.046331787109375;2.82999999285494;284;100 mA
25.7257279350488;-0.7989501953125;-0.046429443359375;2.83999999282969;285;100 mA
25.7357279350235;-0.79925537109375;-0.046368408203125;2.84999999280444;286;100 mA
25.7457279349983;-0.799560546875;-0.0463348388671875;2.85999999277919;287;100 mA
25.755727934973;-0.7989501953125;-0.0463348388671875;2.86999999275395;288;100 mA
25.7657279349478;-0.79864501953125;-0.0460906982421875;2.8799999927287;289;100 mA
25.7757279349225;-0.7989501953125;-0.0461822509765625;2.88999999270345;290;100 mA
25.7857279348973;-0.79925537109375;-0.046142578125;2.8999999926782;291;100 mA
25.795727934872;-0.799560546875;-0.046142578125;2.90999999265296;292;100 mA
25.8057279348468;-0.7989501953125;-0.04622802734375;2.91999999262771;293;100 mA
25.8157279348216;-0.7989501953125;-0.0462127685546875;2.92999999260246;294;100 mA
25.8257279347963;-0.79925537109375;-0.046246337890625;2.93999999257721;295;100 mA
25.8357279347711;-0.79925537109375;-0.0463134765625;2.94999999255197;296;100 mA
25.8457279347458;-0.79925537109375;-0.046380615234375;2.95999999252672;297;100 mA
25.8557279347206;-0.79925537109375;-0.0462371826171875;2.96999999250147;298;100 mA
25.8657279346953;-0.799560546875;-0.046185302734375;2.97999999247622;299;100 mA
25.8757279346701;-0.79925537109375;-0.04619140625;2.98999999245098;300;100 mA
25.8857279346448;-0.79925537109375;-0.0459808349609375;2.99999999242573;301;100 mA
25.8957279346196;-0.79864501953125;-0.0461578369140625;3.00999999240048;302;100 mA
25.9057279345943;-0.7989501953125;-0.0459136962890625;3.01999999237523;303;100 mA
25.9157279345691;-0.79925537109375;-0.0458099365234375;3.02999999234999;304;100 mA
25.9257279345438;-0.79925537109375;-0.0458984375;3.03999999232474;305;100 mA
25.9357279345186;-0.7989501953125;-0.0457794189453125;3.04999999229949;306;100 mA
25.9457279344933;-0.799560546875;-0.0458465576171875;3.05999999227424;307;100 mA
25.9557279344681;-0.799560546875;-0.0457183837890625;3.069999992249;308;100 mA
25.9657279344428;-0.7989501953125;-0.0457916259765625;3.07999999222375;309;100 mA
25.9757279344176;-0.7989501953125;-0.0457611083984375;3.0899999921985;310;100 mA
25.9857279343923;-0.79925537109375;-0.0458709716796875;3.09999999217325;311;100 mA
25.9957279343671;-0.79925537109375;-0.045965576171875;3.109999992148;312;100 mA
26.0057279343418;-0.7989501953125;-0.0458740234375;3.11999999212276;313;100 mA
26.0157279343166;-0.79925537109375;-0.0461090087890625;3.12999999209751;314;100 mA
26.0257279342914;-0.7989501953125;-0.046136474609375;3.13999999207226;315;100 mA
26.0357279342661;-0.799560546875;-0.046234130859375;3.14999999204701;316;100 mA
26.0457279342409;-0.799560546875;-0.0463226318359375;3.15999999202177;317;100 mA
26.0557279342156;-0.7989501953125;-0.046295166015625;3.16999999199652;318;100 mA
26.0657279341904;-0.79925537109375;-0.046337890625;3.17999999197127;319;100 mA
26.0757279341651;-0.7989501953125;-0.0464019775390625;3.18999999194602;320;100 mA
26.0857279341399;-0.79925537109375;-0.046539306640625;3.19999999192078;321;100 mA
26.0957279341146;-0.7989501953125;-0.0464813232421875;3.20999999189553;322;100 mA
26.1057279340894;-0.79925537109375;-0.0464996337890625;3.21999999187028;323;100 mA
26.1157279340641;-0.79833984375;-0.0465118408203125;3.22999999184503;324;100 mA
26.1257279340389;-0.79864501953125;-0.04635009765625;3.23999999181979;325;100 mA
26.1357279340136;-0.79925537109375;-0.046612548828125;3.24999999179454;326;100 mA
26.1457279339884;-0.79925537109375;-0.046392822265625;3.25999999176929;327;100 mA
26.1557279339631;-0.79864501953125;-0.0463653564453125;3.26999999174404;328;100 mA
26.1657279339379;-0.79925537109375;-0.0465301513671875;3.2799999917188;329;100 mA
26.1757279339126;-0.7989501953125;-0.04637451171875;3.28999999169355;330;100 mA
26.1857279338874;-0.79925537109375;-0.046490478515625;3.2999999916683;331;100 mA
26.1957279338621;-0.799560546875;-0.04632568359375;3.30999999164305;332;100 mA
26.2057279338369;-0.799560546875;-0.04630126953125;3.31999999161781;333;100 mA
26.2157279338116;-0.79925537109375;-0.0462188720703125;3.32999999159256;334;100 mA
26.2257279337864;-0.799560546875;-0.0462188720703125;3.33999999156731;335;100 mA
26.2357279337612;-0.7989501953125;-0.0461639404296875;3.34999999154206;336;100 mA
26.2457279337359;-0.799560546875;-0.045947265625;3.35999999151682;337;100 mA
26.2557279337107;-0.799560546875;-0.046087646484375;3.36999999149157;338;100 mA
26.2657279336854;-0.7989501953125;-0.0459808349609375;3.37999999146632;339;100 mA
26.2757279336602;-0.79925537109375;-0.0460693359375;3.38999999144107;340;100 mA
26.2857279336349;-0.79925537109375;-0.0461639404296875;3.39999999141583;341;100 mA
26.2957279336097;-0.79925537109375;-0.0460784912109375;3.40999999139058;342;100 mA
26.3057279335844;-0.7989501953125;-0.0460906982421875;3.41999999136533;343;100 mA
26.3157279335592;-0.7989501953125;-0.046099853515625;3.42999999134008;344;100 mA
26.3257279335339;-0.7989501953125;-0.0461761474609375;3.43999999131483;345;100 mA
26.3357279335087;-0.7989501953125;-0.0461029052734375;3.44999999128959;346;100 mA
26.3457279334834;-0.79925537109375;-0.0461578369140625;3.45999999126434;347;100 mA
26.3557279334582;-0.79925537109375;-0.04619140625;3.46999999123909;348;100 mA
26.3657279334329;-0.79925537109375;-0.0461578369140625;3.47999999121384;349;100 mA
26.3757279334077;-0.79925537109375;-0.046502685546875;3.4899999911886;350;100 mA
26.3857279333824;-0.79925537109375;-0.04639892578125;3.49999999116335;351;100 mA
26.3957279333572;-0.8001708984375;-0.0464691162109375;3.5099999911381;352;100 mA
26.4057279333319;-0.799560546875;-0.046710205078125;3.51999999111285;353;100 mA
26.4157279333067;-0.79925537109375;-0.046551513671875;3.52999999108761;354;100 mA
26.4257279332815;-0.799560546875;-0.0467376708984375;3.53999999106236;355;100 mA
26.4357279332562;-0.7989501953125;-0.046588134765625;3.54999999103711;356;100 mA
26.445727933231;-0.7989501953125;-0.04654541015625;3.55999999101186;357;100 mA
26.4557279332057;-0.7989501953125;-0.046533203125;3.56999999098662;358;100 mA
26.4657279331805;-0.7989501953125;-0.0465423583984375;3.57999999096137;359;100 mA
26.4757279331552;-0.7989501953125;-0.046533203125;3.58999999093612;360;100 mA
26.48572793313;-0.79925537109375;-0.04638671875;3.59999999091087;361;100 mA
26.4957279331047;-0.79925537109375;-0.046502685546875;3.60999999088563;362;100 mA
26.5057279330795;-0.79925537109375;-0.0463348388671875;3.61999999086038;363;100 mA
26.5157279330542;-0.8001708984375;-0.0463958740234375;3.62999999083513;364;100 mA
26.525727933029;-0.79925537109375;-0.0463775634765625;3.63999999080988;365;100 mA
26.5357279330037;-0.799560546875;-0.0462615966796875;3.64999999078464;366;100 mA
26.5457279329785;-0.79925537109375;-0.0462554931640625;3.65999999075939;367;100 mA
26.5557279329532;-0.7989501953125;-0.0462921142578125;3.66999999073414;368;100 mA
26.565727932928;-0.799560546875;-0.0463226318359375;3.67999999070889;369;100 mA
26.5757279329027;-0.79864501953125;-0.0462371826171875;3.68999999068365;370;100 mA
26.5857279328775;-0.79925537109375;-0.046282958984375;3.6999999906584;371;100 mA
26.5957279328522;-0.79925537109375;-0.0462310791015625;3.70999999063315;372;100 mA
26.605727932827;-0.799560546875;-0.0461273193359375;3.7199999906079;373;100 mA
26.6157279328017;-0.799560546875;-0.0462860107421875;3.72999999058266;374;100 mA
26.6257279327765;-0.79925537109375;-0.046014404296875;3.73999999055741;375;100 mA
26.6357279327513;-0.7989501953125;-0.0459014892578125;3.74999999053216;376;100 mA
26.645727932726;-0.79925537109375;-0.0459869384765625;3.75999999050691;377;100 mA
26.6557279327008;-0.7989501953125;-0.045745849609375;3.76999999048167;378;100 mA
26.6657279326755;-0.79925537109375;-0.0458709716796875;3.77999999045642;379;100 mA
26.6757279326503;-0.7989501953125;-0.0457183837890625;3.78999999043117;380;100 mA
26.685727932625;-0.7989501953125;-0.045709228515625;3.79999999040592;381;100 mA
26.6957279325998;-0.79925537109375;-0.045745849609375;3.80999999038067;382;100 mA
26.7057279325745;-0.79925537109375;-0.04580078125;3.81999999035543;383;100 mA
26.7157279325493;-0.79925537109375;-0.0458251953125;3.82999999033018;384;100 mA
26.725727932524;-0.79925537109375;-0.0457061767578125;3.83999999030493;385;100 mA
26.7357279324988;-0.79833984375;-0.045916748046875;3.84999999027968;386;100 mA
26.7457279324735;-0.7989501953125;-0.0458587646484375;3.85999999025444;387;100 mA
26.7557279324483;-0.799560546875;-0.0461090087890625;3.86999999022919;388;100 mA
26.765727932423;-0.799560546875;-0.04625244140625;3.87999999020394;389;100 mA
26.7757279323978;-0.7989501953125;-0.046246337890625;3.88999999017869;390;100 mA
26.7857279323725;-0.79925537109375;-0.0464508056640625;3.89999999015345;391;100 mA
26.7957279323473;-0.7989501953125;-0.046551513671875;3.9099999901282;392;100 mA
26.805727932322;-0.799560546875;-0.0467010498046875;3.91999999010295;393;100 mA
26.8157279322968;-0.799560546875;-0.046728515625;3.9299999900777;394;100 mA
26.8257279322715;-0.7989501953125;-0.0468170166015625;3.93999999005246;395;100 mA
26.8357279322463;-0.79925537109375;-0.0468414306640625;3.94999999002721;396;100 mA
26.8457279322211;-0.7989501953125;-0.0467803955078125;3.95999999000196;397;100 mA
26.8557279321958;-0.7989501953125;-0.0470550537109375;3.96999998997671;398;100 mA
26.8657279321706;-0.79925537109375;-0.046893310546875;3.97999998995147;399;100 mA
26.8757279321453;-0.799560546875;-0.0469482421875;3.98999998992622;400;100 mA
26.8857279321201;-0.79833984375;-0.04715576171875;3.99999998990097;401;100 mA
26.8957279320948;-0.799560546875;-0.0469970703125;4.00999998987572;402;100 mA
26.9057279320696;-0.799560546875;-0.0472625732421875;4.01999998985048;403;100 mA
26.9157279320443;-0.79925537109375;-0.0471221923828125;4.02999998982523;404;100 mA
26.9257279320191;-0.79925537109375;-0.0470977783203125;4.03999998979998;405;100 mA
26.9357279319938;-0.799560546875;-0.0471466064453125;4.04999998977473;406;100 mA
26.9457279319686;-0.7989501953125;-0.0471160888671875;4.05999998974949;407;100 mA
26.9557279319433;-0.7989501953125;-0.0470733642578125;4.06999998972424;408;100 mA
26.9657279319181;-0.79864501953125;-0.046917724609375;4.07999998969899;409;100 mA
26.9757279318928;-0.79925537109375;-0.04705810546875;4.08999998967374;410;100 mA
26.9857279318676;-0.79864501953125;-0.04693603515625;4.0999999896485;411;100 mA
26.9957279318423;-0.79925537109375;-0.04703369140625;4.10999998962325;412;100 mA
27.0057279318171;-0.79864501953125;-0.0470123291015625;4.119999989598;413;100 mA
27.0157279317918;-0.79925537109375;-0.0468963623046875;4.12999998957275;414;100 mA
27.0257279317666;-0.7989501953125;-0.04697265625;4.1399999895475;415;100 mA
27.0357279317413;-0.79925537109375;-0.04693603515625;4.14999998952226;416;100 mA
27.0457279317161;-0.79925537109375;-0.046923828125;4.15999998949701;417;100 mA
27.0557279316909;-0.799560546875;-0.0468841552734375;4.16999998947176;418;100 mA
27.0657279316656;-0.79925537109375;-0.046875;4.17999998944651;419;100 mA
27.0757279316404;-0.7989501953125;-0.046832275390625;4.18999998942127;420;100 mA
27.0857279316151;-0.799560546875;-0.04683837890625;4.19999998939602;421;100 mA
27.0957279315899;-0.79925537109375;-0.0470306396484375;4.20999998937077;422;100 mA
27.1057279315646;-0.79925537109375;-0.0468994140625;4.21999998934552;423;100 mA
27.1157279315394;-0.79925537109375;-0.04700927734375;4.22999998932028;424;100 mA
27.1257279315141;-0.7989501953125;-0.0471954345703125;4.23999998929503;425;100 mA
27.1357279314889;-0.79864501953125;-0.0470947265625;4.24999998926978;426;100 mA
27.1457279314636;-0.7989501953125;-0.0474151611328125;4.25999998924453;427;100 mA
27.1557279314384;-0.799560546875;-0.0473480224609375;4.26999998921929;428;100 mA
27.1657279314131;-0.79864501953125;-0.047442626953125;4.27999998919404;429;100 mA
27.1757279313879;-0.7989501953125;-0.0476470947265625;4.28999998916879;430;100 mA
27.1857279313626;-0.7989501953125;-0.0477142333984375;4.29999998914354;431;100 mA
27.1957279313374;-0.79925537109375;-0.0478057861328125;4.3099999891183;432;100 mA
27.2057279313121;-0.79925537109375;-0.0477264404296875;4.31999998909305;433;100 mA
27.2157279312869;-0.7989501953125;-0.04783935546875;4.3299999890678;434;100 mA
27.2257279312616;-0.79925537109375;-0.0477386474609375;4.33999998904255;435;100 mA
27.2357279312364;-0.799560546875;-0.04786376953125;4.34999998901731;436;100 mA
27.2457279312111;-0.799560546875;-0.04779052734375;4.35999998899206;437;100 mA
27.2557279311859;-0.79925537109375;-0.0476531982421875;4.36999998896681;438;100 mA
27.2657279311607;-0.79864501953125;-0.0477874755859375;4.37999998894156;439;100 mA
27.2757279311354;-0.799560546875;-0.0477783203125;4.38999998891632;440;100 mA
27.2857279311102;-0.799560546875;-0.0478485107421875;4.39999998889107;441;100 mA
27.2957279310849;-0.79925537109375;-0.047857666015625;4.40999998886582;442;100 mA
27.3057279310597;-0.7989501953125;-0.0478485107421875;4.41999998884057;443;100 mA
27.3157279310344;-0.79925537109375;-0.0477630615234375;4.42999998881533;444;100 mA
27.3257279310092;-0.79925537109375;-0.04769287109375;4.43999998879008;445;100 mA
27.3357279309839;-0.79925537109375;-0.0478057861328125;4.44999998876483;446;100 mA
27.3457279309587;-0.79925537109375;-0.04755859375;4.45999998873958;447;100 mA
27.3557279309334;-0.7989501953125;-0.04757080078125;4.46999998871433;448;100 mA
27.3657279309082;-0.79864501953125;-0.04755859375;4.47999998868909;449;100 mA
27.3757279308829;-0.7989501953125;-0.047332763671875;4.48999998866384;450;100 mA
27.3857279308577;-0.7989501953125;-0.0475006103515625;4.49999998863859;451;100 mA
27.3957279308324;-0.79925537109375;-0.04718017578125;4.50999998861334;452;100 mA
27.4057279308072;-0.7989501953125;-0.047119140625;4.5199999885881;453;100 mA
27.4157279307819;-0.79864501953125;-0.0471343994140625;4.52999998856285;454;100 mA
27.4257279307567;-0.799560546875;-0.0469879150390625;4.5399999885376;455;100 mA
27.4357279307314;-0.79925537109375;-0.047003173828125;4.54999998851235;456;100 mA
27.4457279307062;-0.79925537109375;-0.046856689453125;4.55999998848711;457;100 mA
27.455727930681;-0.79986572265625;-0.0468475341796875;4.56999998846186;458;100 mA
27.4657279306557;-0.7989501953125;-0.046771240234375;4.57999998843661;459;100 mA
27.4757279306305;-0.7989501953125;-0.046875;4.58999998841136;460;100 mA
27.4857279306052;-0.7989501953125;-0.046771240234375;4.59999998838612;461;100 mA
27.49572793058;-0.7989501953125;-0.046600341796875;4.60999998836087;462;100 mA
27.5057279305547;-0.7989501953125;-0.046734619140625;4.61999998833562;463;100 mA
27.5157279305295;-0.799560546875;-0.0466217041015625;4.62999998831037;464;100 mA
27.5257279305042;-0.799560546875;-0.046697998046875;4.63999998828513;465;100 mA
27.535727930479;-0.79925537109375;-0.0467376708984375;4.64999998825988;466;100 mA
27.5457279304537;-0.799560546875;-0.0467559814453125;4.65999998823463;467;100 mA
27.5557279304285;-0.79925537109375;-0.0468109130859375;4.66999998820938;468;100 mA
27.5657279304032;-0.79925537109375;-0.0468170166015625;4.67999998818414;469;100 mA
27.575727930378;-0.7989501953125;-0.0469268798828125;4.68999998815889;470;100 mA
27.5857279303527;-0.79925537109375;-0.046734619140625;4.69999998813364;471;100 mA
27.5957279303275;-0.79864501953125;-0.0467437744140625;4.70999998810839;472;100 mA
27.6057279303022;-0.79925537109375;-0.046697998046875;4.71999998808315;473;100 mA
27.615727930277;-0.799560546875;-0.0464874267578125;4.7299999880579;474;100 mA
27.6257279302517;-0.79925537109375;-0.0466644287109375;4.73999998803265;475;100 mA
27.6357279302265;-0.79864501953125;-0.0464019775390625;4.7499999880074;476;100 mA
27.6457279302012;-0.79925537109375;-0.0463958740234375;4.75999998798216;477;100 mA
27.655727930176;-0.79864501953125;-0.0464935302734375;4.76999998795691;478;100 mA
27.6657279301508;-0.79925537109375;-0.0463714599609375;4.77999998793166;479;100 mA
27.6757279301255;-0.79986572265625;-0.046417236328125;4.78999998790641;480;100 mA
27.6857279301003;-0.79925537109375;-0.046270751953125;4.79999998788116;481;100 mA
27.695727930075;-0.7989501953125;-0.0461944580078125;4.80999998785592;482;100 mA
27.7057279300498;-0.799560546875;-0.0461151123046875;4.81999998783067;483;100 mA
27.7157279300245;-0.7989501953125;-0.046234130859375;4.82999998780542;484;100 mA
27.7257279299993;-0.79925537109375;-0.046112060546875;4.83999998778017;485;100 mA
27.735727929974;-0.7989501953125;-0.0460174560546875;4.84999998775493;486;100 mA
27.7457279299488;-0.79925537109375;-0.0462158203125;4.85999998772968;487;100 mA
27.7557279299235;-0.79925537109375;-0.0461517333984375;4.86999998770443;488;100 mA
27.7657279298983;-0.79925537109375;-0.046337890625;4.87999998767918;489;100 mA
27.775727929873;-0.799560546875;-0.046356201171875;4.88999998765394;490;100 mA
27.7857279298478;-0.79925537109375;-0.04635009765625;4.89999998762869;491;100 mA
27.7957279298225;-0.799560546875;-0.046380615234375;4.90999998760344;492;100 mA
27.8057279297973;-0.7989501953125;-0.0463958740234375;4.91999998757819;493;100 mA
27.815727929772;-0.79925537109375;-0.0465606689453125;4.92999998755295;494;100 mA
27.8257279297468;-0.7989501953125;-0.0464691162109375;4.9399999875277;495;100 mA
27.8357279297215;-0.7989501953125;-0.0465911865234375;4.94999998750245;496;100 mA
27.8457279296963;-0.79864501953125;-0.0466064453125;4.9599999874772;497;100 mA
27.855727929671;-0.79925537109375;-0.046551513671875;4.96999998745196;498;100 mA
27.8657279296458;-0.799560546875;-0.046795654296875;4.97999998742671;499;100 mA
27.8757279296206;-0.799560546875;-0.046539306640625;4.98999998740146;500;100 mA
27.8857279295953;-0.79925537109375;-0.0466400146484375;4.99999998737621;501;100 mA
27.8957279295701;-0.79925537109375;-0.0467864990234375;5.00999998735097;502;100 mA
27.9057279295448;-0.7989501953125;-0.046710205078125;5.01999998732572;503;100 mA
27.9157279295196;-0.799560546875;-0.046875;5.02999998730047;504;100 mA
27.9257279294943;-0.7989501953125;-0.0468231201171875;5.03999998727522;505;100 mA
27.9357279294691;-0.7989501953125;-0.0468505859375;5.04999998724998;506;100 mA
27.9457279294438;-0.79864501953125;-0.04683837890625;5.05999998722473;507;100 mA
27.9557279294186;-0.7989501953125;-0.04703369140625;5.06999998719948;508;100 mA
27.9657279293933;-0.7989501953125;-0.046917724609375;5.07999998717423;509;100 mA
27.9757279293681;-0.799560546875;-0.04678955078125;5.08999998714899;510;100 mA
27.9857279293428;-0.79864501953125;-0.046942138671875;5.09999998712374;511;100 mA
27.9957279293176;-0.799560546875;-0.0467681884765625;5.10999998709849;512;100 mA
28.0057279292923;-0.79925537109375;-0.046881103515625;5.11999998707324;513;100 mA
28.0157279292671;-0.79925537109375;-0.0468170166015625;5.129999987048;514;100 mA
28.0257279292418;-0.7989501953125;-0.0467254638671875;5.13999998702275;515;100 mA
28.0357279292166;-0.79925537109375;-0.046734619140625;5.1499999869975;516;100 mA
28.0457279291913;-0.79925537109375;-0.046624755859375;5.15999998697225;517;100 mA
28.0557279291661;-0.7989501953125;-0.0467010498046875;5.169999986947;518;100 mA
28.0657279291408;-0.79864501953125;-0.046539306640625;5.17999998692176;519;100 mA
28.0757279291156;-0.79925537109375;-0.046588134765625;5.18999998689651;520;100 mA
28.0857279290904;-0.79925537109375;-0.04659423828125;5.19999998687126;521;100 mA
28.0957279290651;-0.7989501953125;-0.0465484619140625;5.20999998684601;522;100 mA
28.1057279290399;-0.79925537109375;-0.046771240234375;5.21999998682077;523;100 mA
28.1157279290146;-0.79925537109375;-0.046533203125;5.22999998679552;524;100 mA
28.1257279289894;-0.79925537109375;-0.0465850830078125;5.23999998677027;525;100 mA
28.1357279289641;-0.7989501953125;-0.0466827392578125;5.24999998674502;526;100 mA
28.1457279289389;-0.79925537109375;-0.0465240478515625;5.25999998671978;527;100 mA
28.1557279289136;-0.7989501953125;-0.046624755859375;5.26999998669453;528;100 mA
28.1657279288884;-0.799560546875;-0.04647216796875;5.27999998666928;529;100 mA
28.1757279288631;-0.79925537109375;-0.04639892578125;5.28999998664403;530;100 mA
28.1857279288379;-0.79864501953125;-0.04638671875;5.29999998661879;531;100 mA
28.1957279288126;-0.79986572265625;-0.046527099609375;5.30999998659354;532;100 mA
28.2057279287874;-0.7989501953125;-0.046417236328125;5.31999998656829;533;100 mA
28.2157279287621;-0.799560546875;-0.046295166015625;5.32999998654304;534;100 mA
28.2257279287369;-0.79925537109375;-0.04638671875;5.3399999865178;535;100 mA
28.2357279287116;-0.79925537109375;-0.046173095703125;5.34999998649255;536;100 mA
28.2457279286864;-0.79864501953125;-0.046258544921875;5.3599999864673;537;100 mA
28.2557279286611;-0.79925537109375;-0.046142578125;5.36999998644205;538;100 mA
28.2657279286359;-0.7989501953125;-0.0460479736328125;5.37999998641681;539;100 mA
28.2757279286106;-0.7989501953125;-0.0461212158203125;5.38999998639156;540;100 mA
28.2857279285854;-0.79925537109375;-0.04608154296875;5.39999998636631;541;100 mA
28.2957279285602;-0.79925537109375;-0.04617919921875;5.40999998634106;542;100 mA
28.3057279285349;-0.79925537109375;-0.0460662841796875;5.41999998631582;543;100 mA
28.3157279285097;-0.79925537109375;-0.04605712890625;5.42999998629057;544;100 mA
28.3257279284844;-0.799560546875;-0.04599609375;5.43999998626532;545;100 mA
28.3357279284592;-0.79925537109375;-0.0459197998046875;5.44999998624007;546;100 mA
28.3457279284339;-0.79925537109375;-0.046051025390625;5.45999998621483;547;100 mA
28.3557279284087;-0.7989501953125;-0.04576416015625;5.46999998618958;548;100 mA
28.3657279283834;-0.79925537109375;-0.0457855224609375;5.47999998616433;549;100 mA
28.3757279283582;-0.79864501953125;-0.0458770751953125;5.48999998613908;550;100 mA
28.3857279283329;-0.799560546875;-0.0457489013671875;5.49999998611383;551;100 mA
28.3957279283077;-0.7989501953125;-0.0458770751953125;5.50999998608859;552;100 mA
28.4057279282824;-0.79833984375;-0.045782470703125;5.51999998606334;553;100 mA
28.4157279282572;-0.7989501953125;-0.045703125;5.52999998603809;554;100 mA
28.4257279282319;-0.79925537109375;-0.04569091796875;5.53999998601284;555;100 mA
28.4357279282067;-0.79925537109375;-0.0457977294921875;5.5499999859876;556;100 mA
28.4457279281814;-0.79864501953125;-0.0456573486328125;5.55999998596235;557;100 mA
28.4557279281562;-0.7989501953125;-0.0456207275390625;5.5699999859371;558;100 mA
28.4657279281309;-0.79986572265625;-0.0457427978515625;5.57999998591185;559;100 mA
28.4757279281057;-0.79925537109375;-0.0456512451171875;5.58999998588661;560;100 mA
28.4857279280805;-0.7989501953125;-0.0458984375;5.59999998586136;561;100 mA
28.4957279280552;-0.799560546875;-0.0458282470703125;5.60999998583611;562;100 mA
28.50572792803;-0.799560546875;-0.04581298828125;5.61999998581086;563;100 mA
28.5157279280047;-0.79925537109375;-0.0459259033203125;5.62999998578562;564;100 mA
28.5257279279795;-0.799560546875;-0.0458251953125;5.63999998576037;565;100 mA
28.5357279279542;-0.7989501953125;-0.0459503173828125;5.64999998573512;566;100 mA
28.545727927929;-0.79925537109375;-0.04581298828125;5.65999998570987;567;100 mA
28.5557279279037;-0.799560546875;-0.0458099365234375;5.66999998568463;568;100 mA
28.5657279278785;-0.79925537109375;-0.0457672119140625;5.67999998565938;569;100 mA
28.5757279278532;-0.79864501953125;-0.04571533203125;5.68999998563413;570;100 mA
28.585727927828;-0.7989501953125;-0.0458648681640625;5.69999998560888;571;100 mA
28.5957279278027;-0.7989501953125;-0.0455657958984375;5.70999998558364;572;100 mA
28.6057279277775;-0.79864501953125;-0.0456451416015625;5.71999998555839;573;100 mA
28.6157279277522;-0.7989501953125;-0.045611572265625;5.72999998553314;574;100 mA
28.625727927727;-0.79925537109375;-0.0454010009765625;5.73999998550789;575;100 mA
28.6357279277017;-0.7989501953125;-0.0455535888671875;5.74999998548265;576;100 mA
28.6457279276765;-0.7989501953125;-0.045379638671875;5.7599999854574;577;100 mA
28.6557279276512;-0.7989501953125;-0.04534912109375;5.76999998543215;578;100 mA
28.665727927626;-0.7989501953125;-0.04541015625;5.7799999854069;579;100 mA
28.6757279276007;-0.799560546875;-0.0455108642578125;5.78999998538166;580;100 mA
28.6857279275755;-0.79925537109375;-0.04547119140625;5.79999998535641;581;100 mA
28.6957279275503;-0.7989501953125;-0.0454376220703125;5.80999998533116;582;100 mA
28.705727927525;-0.79925537109375;-0.045501708984375;5.81999998530591;583;100 mA
28.7157279274998;-0.7989501953125;-0.0453704833984375;5.82999998528066;584;100 mA
28.7257279274745;-0.79925537109375;-0.045526123046875;5.83999998525542;585;100 mA
28.7357279274493;-0.79925537109375;-0.0454437255859375;5.84999998523017;586;100 mA
28.745727927424;-0.79925537109375;-0.0454071044921875;5.85999998520492;587;100 mA
28.7557279273988;-0.79925537109375;-0.0455535888671875;5.86999998517967;588;100 mA
28.7657279273735;-0.799560546875;-0.04554443359375;5.87999998515443;589;100 mA
28.7757279273483;-0.799560546875;-0.045703125;5.88999998512918;590;100 mA
28.785727927323;-0.7989501953125;-0.0456878662109375;5.89999998510393;591;100 mA
28.7957279272978;-0.79925537109375;-0.0457183837890625;5.90999998507868;592;100 mA
28.8057279272725;-0.7989501953125;-0.0457000732421875;5.91999998505344;593;100 mA
28.8157279272473;-0.799560546875;-0.045660400390625;5.92999998502819;594;100 mA
28.825727927222;-0.79925537109375;-0.0457550048828125;5.93999998500294;595;100 mA
28.8357279271968;-0.799560546875;-0.0455291748046875;5.94999998497769;596;100 mA
28.8457279271715;-0.799560546875;-0.045648193359375;5.95999998495245;597;100 mA
28.8557279271463;-0.799560546875;-0.0456146240234375;5.9699999849272;598;100 mA
28.865727927121;-0.799560546875;-0.045501708984375;5.97999998490195;599;100 mA
28.8757279270958;-0.79925537109375;-0.045611572265625;5.9899999848767;600;100 mA
28.8857279270705;-0.79925537109375;-0.0453857421875;5.99999998485146;601;100 mA
28.8957279270453;-0.79925537109375;-0.0453338623046875;6.00999998482621;602;100 mA
28.9057279270201;-0.7989501953125;-0.0453338623046875;6.01999998480096;603;100 mA
28.9157279269948;-0.79925537109375;-0.045330810546875;6.02999998477571;604;100 mA
28.9257279269696;-0.7989501953125;-0.045233154296875;6.03999998475047;605;100 mA
28.9357279269443;-0.79925537109375;-0.0451690673828125;6.04999998472522;606;100 mA
28.9457279269191;-0.79925537109375;-0.045147705078125;6.05999998469997;607;100 mA
28.9557279268938;-0.7989501953125;-0.0450714111328125;6.06999998467472;608;100 mA
28.9657279268686;-0.799560546875;-0.045245361328125;6.07999998464948;609;100 mA
28.9757279268433;-0.79925537109375;-0.045159912109375;6.08999998462423;610;100 mA
28.9857279268181;-0.7989501953125;-0.045098876953125;6.09999998459898;611;100 mA
28.9957279267928;-0.799560546875;-0.0452301025390625;6.10999998457373;612;100 mA
29.0057279267676;-0.79864501953125;-0.0451202392578125;6.11999998454849;613;100 mA
29.0157279267423;-0.79925537109375;-0.045263671875;6.12999998452324;614;100 mA
29.0257279267171;-0.79925537109375;-0.0452423095703125;6.13999998449799;615;100 mA
29.0357279266918;-0.79925537109375;-0.0452728271484375;6.14999998447274;616;100 mA
29.0457279266666;-0.7989501953125;-0.0452972412109375;6.1599999844475;617;100 mA
29.0557279266413;-0.7989501953125;-0.0453399658203125;6.16999998442225;618;100 mA
29.0657279266161;-0.79925537109375;-0.04547119140625;6.179999984397;619;100 mA
29.0757279265908;-0.799560546875;-0.04530029296875;6.18999998437175;620;100 mA
29.0857279265656;-0.79864501953125;-0.045538330078125;6.1999999843465;621;100 mA
29.0957279265403;-0.799560546875;-0.0455322265625;6.20999998432126;622;100 mA
29.1057279265151;-0.79925537109375;-0.045574951171875;6.21999998429601;623;100 mA
29.1157279264899;-0.79925537109375;-0.0458343505859375;6.22999998427076;624;100 mA
29.1257279264646;-0.79986572265625;-0.045758056640625;6.23999998424551;625;100 mA
29.1357279264394;-0.79925537109375;-0.045953369140625;6.24999998422027;626;100 mA
29.1457279264141;-0.79925537109375;-0.0461212158203125;6.25999998419502;627;100 mA
29.1557279263889;-0.79925537109375;-0.0462738037109375;6.26999998416977;628;100 mA
29.1657279263636;-0.79925537109375;-0.046331787109375;6.27999998414452;629;100 mA
29.1757279263384;-0.799560546875;-0.046356201171875;6.28999998411928;630;100 mA
29.1857279263131;-0.79925537109375;-0.046392822265625;6.29999998409403;631;100 mA
29.1957279262879;-0.799560546875;-0.0463165283203125;6.30999998406878;632;100 mA
29.2057279262626;-0.79925537109375;-0.0465179443359375;6.31999998404353;633;100 mA
29.2157279262374;-0.799560546875;-0.046392822265625;6.32999998401829;634;100 mA
29.2257279262121;-0.7989501953125;-0.04635009765625;6.33999998399304;635;100 mA
29.2357279261869;-0.79925537109375;-0.0465667724609375;6.34999998396779;636;100 mA
29.2457279261616;-0.79864501953125;-0.046405029296875;6.35999998394254;637;100 mA
29.2557279261364;-0.79864501953125;-0.0466217041015625;6.3699999839173;638;100 mA
29.2657279261111;-0.799560546875;-0.0465911865234375;6.37999998389205;639;100 mA
29.2757279260859;-0.7989501953125;-0.0465911865234375;6.3899999838668;640;100 mA
29.2857279260606;-0.7989501953125;-0.046673583984375;6.39999998384155;641;100 mA
29.2957279260354;-0.7989501953125;-0.0466949462890625;6.40999998381631;642;100 mA
29.3057279260101;-0.79925537109375;-0.0468292236328125;6.41999998379106;643;100 mA
29.3157279259849;-0.799560546875;-0.0466827392578125;6.42999998376581;644;100 mA
29.3257279259597;-0.7989501953125;-0.046905517578125;6.43999998374056;645;100 mA
29.3357279259344;-0.7989501953125;-0.0469085693359375;6.44999998371532;646;100 mA
29.3457279259092;-0.7989501953125;-0.0469757080078125;6.45999998369007;647;100 mA
29.3557279258839;-0.79864501953125;-0.0471771240234375;6.46999998366482;648;100 mA
29.3657279258587;-0.7989501953125;-0.047021484375;6.47999998363957;649;100 mA
29.3757279258334;-0.79864501953125;-0.0471099853515625;6.48999998361433;650;100 mA
29.3857279258082;-0.79925537109375;-0.04720458984375;6.49999998358908;651;100 mA
29.3957279257829;-0.79925537109375;-0.047265625;6.50999998356383;652;100 mA
29.4057279257577;-0.79925537109375;-0.0473388671875;6.51999998353858;653;100 mA
29.4157279257324;-0.7989501953125;-0.04737548828125;6.52999998351333;654;100 mA
29.4257279257072;-0.79925537109375;-0.0473724365234375;6.53999998348809;655;100 mA
29.4357279256819;-0.7989501953125;-0.047308349609375;6.54999998346284;656;100 mA
29.4457279256567;-0.799560546875;-0.0474578857421875;6.55999998343759;657;100 mA
29.4557279256314;-0.79925537109375;-0.047271728515625;6.56999998341234;658;100 mA
29.4657279256062;-0.799560546875;-0.047174072265625;6.5799999833871;659;100 mA
29.4757279255809;-0.7989501953125;-0.047393798828125;6.58999998336185;660;100 mA
29.4857279255557;-0.7989501953125;-0.0471405029296875;6.5999999833366;661;100 mA
29.4957279255304;-0.799560546875;-0.047247314453125;6.60999998331135;662;100 mA
29.5057279255052;-0.7989501953125;-0.0471588134765625;6.61999998328611;663;100 mA
29.51572792548;-0.79925537109375;-0.0471405029296875;6.62999998326086;664;100 mA
29.5257279254547;-0.79925537109375;-0.0472015380859375;6.63999998323561;665;100 mA
29.5357279254295;-0.79925537109375;-0.047119140625;6.64999998321036;666;100 mA
29.5457279254042;-0.7989501953125;-0.047119140625;6.65999998318512;667;100 mA
29.555727925379;-0.7989501953125;-0.046826171875;6.66999998315987;668;100 mA
29.5657279253537;-0.79925537109375;-0.046826171875;6.67999998313462;669;100 mA
29.5757279253285;-0.7989501953125;-0.0466278076171875;6.68999998310937;670;100 mA
29.5857279253032;-0.79925537109375;-0.0465179443359375;6.69999998308413;671;100 mA
29.595727925278;-0.7989501953125;-0.0465484619140625;6.70999998305888;672;100 mA
29.6057279252527;-0.7989501953125;-0.0462677001953125;6.71999998303363;673;100 mA
29.6157279252275;-0.799560546875;-0.0462738037109375;6.72999998300838;674;100 mA
29.6257279252022;-0.7989501953125;-0.0462493896484375;6.73999998298314;675;100 mA
29.635727925177;-0.79925537109375;-0.04613037109375;6.74999998295789;676;100 mA
29.6457279251517;-0.79925537109375;-0.0460845947265625;6.75999998293264;677;100 mA
29.6557279251265;-0.79864501953125;-0.046002197265625;6.76999998290739;678;100 mA
29.6657279251012;-0.79925537109375;-0.04593505859375;6.77999998288215;679;100 mA
29.675727925076;-0.79925537109375;-0.045965576171875;6.7899999828569;680;100 mA
29.6857279250507;-0.7989501953125;-0.0461639404296875;6.79999998283165;681;100 mA
29.6957279250255;-0.799560546875;-0.0460296630859375;6.8099999828064;682;100 mA
29.7057279250002;-0.799560546875;-0.04610595703125;6.81999998278116;683;100 mA
29.715727924975;-0.799560546875;-0.04630126953125;6.82999998275591;684;100 mA
29.7257279249498;-0.79925537109375;-0.0460662841796875;6.83999998273066;685;100 mA
29.7357279249245;-0.799560546875;-0.04630126953125;6.84999998270541;686;100 mA
29.7457279248993;-0.79925537109375;-0.04605712890625;6.85999998268016;687;100 mA
29.755727924874;-0.799560546875;-0.045947265625;6.86999998265492;688;100 mA
29.7657279248488;-0.79864501953125;-0.0459503173828125;6.87999998262967;689;100 mA
29.7757279248235;-0.7989501953125;-0.0457611083984375;6.88999998260442;690;100 mA
29.7857279247983;-0.79986572265625;-0.0458465576171875;6.89999998257917;691;100 mA
29.795727924773;-0.7989501953125;-0.0456146240234375;6.90999998255393;692;100 mA
29.8057279247478;-0.7989501953125;-0.04569091796875;6.91999998252868;693;100 mA
29.8157279247225;-0.7989501953125;-0.0457244873046875;6.92999998250343;694;100 mA
29.8257279246973;-0.799560546875;-0.0455413818359375;6.93999998247818;695;100 mA
29.835727924672;-0.7989501953125;-0.0456298828125;6.94999998245294;696;100 mA
29.8457279246468;-0.79864501953125;-0.0453857421875;6.95999998242769;697;100 mA
29.8557279246215;-0.79986572265625;-0.0455047607421875;6.96999998240244;698;100 mA
29.8657279245963;-0.79864501953125;-0.0455596923828125;6.97999998237719;699;100 mA
29.875727924571;-0.79925537109375;-0.0455596923828125;6.98999998235195;700;100 mA
