Time (s);WE(1).Potential (V);WE(1).Current (A);Corrected time (s);Index;Current range
45.548922885;-0.9002685546875;-0.327545166015625;0;1;100 mA
45.5589228849748;-0.89935302734375;-0.24005126953125;0.00999999997475243;2;100 mA
45.5689228849495;-0.899658203125;-0.19830322265625;0.0199999999495049;3;100 mA
45.5789228849243;-0.899658203125;-0.172607421875;0.0299999999242573;4;100 mA
45.588922884899;-0.8990478515625;-0.154815673828125;0.0399999998990097;5;100 mA
45.5989228848738;-0.899658203125;-0.141845703125;0.0499999998737621;6;100 mA
45.6089228848485;-0.89935302734375;-0.13134765625;0.0599999998485146;7;100 mA
45.6189228848233;-0.899658203125;-0.12310791015625;0.069999999823267;8;100 mA
45.628922884798;-0.89935302734375;-0.1163330078125;0.0799999997980194;9;100 mA
45.6389228847728;-0.899658203125;-0.110382080078125;0.0899999997727718;10;100 mA
45.6489228847475;-0.89935302734375;-0.105560302734375;0.0999999997475243;11;100 mA
45.6589228847223;-0.899658203125;-0.10113525390625;0.109999999722277;12;100 mA
45.6689228846971;-0.899658203125;-0.09735107421875;0.119999999697029;13;100 mA
45.6789228846718;-0.8990478515625;-0.094024658203125;0.129999999671782;14;100 mA
45.6889228846466;-0.899658203125;-0.091064453125;0.139999999646534;15;100 mA
45.6989228846213;-0.89935302734375;-0.08843994140625;0.149999999621286;16;100 mA
45.7089228845961;-0.8990478515625;-0.085845947265625;0.159999999596039;17;100 mA
45.7189228845708;-0.899658203125;-0.08367919921875;0.169999999570791;18;100 mA
45.7289228845456;-0.8990478515625;-0.081695556640625;0.179999999545544;19;100 mA
45.7389228845203;-0.899658203125;-0.079681396484375;0.189999999520296;20;100 mA
45.7489228844951;-0.89874267578125;-0.078155517578125;0.199999999495049;21;100 mA
45.7589228844698;-0.89935302734375;-0.076446533203125;0.209999999469801;22;100 mA
45.7689228844446;-0.899658203125;-0.074951171875;0.219999999444553;23;100 mA
45.7789228844193;-0.89935302734375;-0.073699951171875;0.229999999419306;24;100 mA
45.7889228843941;-0.89935302734375;-0.07232666015625;0.239999999394058;25;100 mA
45.7989228843688;-0.89935302734375;-0.071136474609375;0.249999999368811;26;100 mA
45.8089228843436;-0.899658203125;-0.069915771484375;0.259999999343563;27;100 mA
45.8189228843183;-0.89935302734375;-0.06890869140625;0.269999999318316;28;100 mA
45.8289228842931;-0.89935302734375;-0.06787109375;0.279999999293068;29;100 mA
45.8389228842678;-0.89996337890625;-0.06707763671875;0.28999999926782;30;100 mA
45.8489228842426;-0.899658203125;-0.06597900390625;0.299999999242573;31;100 mA
45.8589228842173;-0.8990478515625;-0.0650634765625;0.309999999217325;32;100 mA
45.8689228841921;-0.89935302734375;-0.064361572265625;0.319999999192078;33;100 mA
45.8789228841669;-0.89935302734375;-0.063568115234375;0.32999999916683;34;100 mA
45.8889228841416;-0.89935302734375;-0.0628662109375;0.339999999141583;35;100 mA
45.8989228841164;-0.8990478515625;-0.06219482421875;0.349999999116335;36;100 mA
45.9089228840911;-0.89935302734375;-0.0615234375;0.359999999091087;37;100 mA
45.9189228840659;-0.89935302734375;-0.060943603515625;0.36999999906584;38;100 mA
45.9289228840406;-0.89935302734375;-0.0604248046875;0.379999999040592;39;100 mA
45.9389228840154;-0.89996337890625;-0.059967041015625;0.389999999015345;40;100 mA
45.9489228839901;-0.899658203125;-0.059417724609375;0.399999998990097;41;100 mA
45.9589228839649;-0.89935302734375;-0.05902099609375;0.40999999896485;42;100 mA
45.9689228839396;-0.89935302734375;-0.058624267578125;0.419999998939602;43;100 mA
45.9789228839144;-0.89935302734375;-0.0582275390625;0.429999998914354;44;100 mA
45.9889228838891;-0.8990478515625;-0.0579833984375;0.439999998889107;45;100 mA
45.9989228838639;-0.899658203125;-0.057647705078125;0.449999998863859;46;100 mA
46.0089228838386;-0.899658203125;-0.057403564453125;0.459999998838612;47;100 mA
46.0189228838134;-0.89935302734375;-0.057281494140625;0.469999998813364;48;100 mA
46.0289228837881;-0.89935302734375;-0.056884765625;0.479999998788116;49;100 mA
46.0389228837629;-0.89935302734375;-0.0567626953125;0.489999998762869;50;100 mA
46.0489228837376;-0.89935302734375;-0.056488037109375;0.499999998737621;51;100 mA
46.0589228837124;-0.8990478515625;-0.056304931640625;0.509999998712374;52;100 mA
46.0689228836872;-0.89935302734375;-0.056121826171875;0.519999998687126;53;100 mA
46.0789228836619;-0.89935302734375;-0.055877685546875;0.529999998661879;54;100 mA
46.0889228836367;-0.8990478515625;-0.055572509765625;0.539999998636631;55;100 mA
46.0989228836114;-0.89935302734375;-0.05523681640625;0.549999998611383;56;100 mA
46.1089228835862;-0.89935302734375;-0.05511474609375;0.559999998586136;57;100 mA
46.1189228835609;-0.89935302734375;-0.0548095703125;0.569999998560888;58;100 mA
46.1289228835357;-0.8990478515625;-0.0546875;0.579999998535641;59;100 mA
46.1389228835104;-0.899658203125;-0.054412841796875;0.589999998510393;60;100 mA
46.1489228834852;-0.89935302734375;-0.05413818359375;0.599999998485146;61;100 mA
46.1589228834599;-0.89935302734375;-0.053924560546875;0.609999998459898;62;100 mA
46.1689228834347;-0.8990478515625;-0.05377197265625;0.61999999843465;63;100 mA
46.1789228834094;-0.89935302734375;-0.053558349609375;0.629999998409403;64;100 mA
46.1889228833842;-0.89935302734375;-0.053131103515625;0.639999998384155;65;100 mA
46.1989228833589;-0.8990478515625;-0.052947998046875;0.649999998358908;66;100 mA
46.2089228833337;-0.89935302734375;-0.05267333984375;0.65999999833366;67;100 mA
46.2189228833084;-0.899658203125;-0.05242919921875;0.669999998308413;68;100 mA
46.2289228832832;-0.89935302734375;-0.052398681640625;0.679999998283165;69;100 mA
46.2389228832579;-0.8990478515625;-0.0521240234375;0.689999998257917;70;100 mA
46.2489228832327;-0.899658203125;-0.052032470703125;0.69999999823267;71;100 mA
46.2589228832074;-0.89935302734375;-0.05206298828125;0.709999998207422;72;100 mA
46.2689228831822;-0.89935302734375;-0.051788330078125;0.719999998182175;73;100 mA
46.278922883157;-0.8990478515625;-0.051788330078125;0.729999998156927;74;100 mA
46.2889228831317;-0.89935302734375;-0.051605224609375;0.73999999813168;75;100 mA
46.2989228831065;-0.8990478515625;-0.05145263671875;0.749999998106432;76;100 mA
46.3089228830812;-0.8990478515625;-0.051422119140625;0.759999998081184;77;100 mA
46.318922883056;-0.899658203125;-0.051422119140625;0.769999998055937;78;100 mA
46.3289228830307;-0.8990478515625;-0.05126953125;0.779999998030689;79;100 mA
46.3389228830055;-0.89874267578125;-0.051116943359375;0.789999998005442;80;100 mA
46.3489228829802;-0.89935302734375;-0.051116943359375;0.799999997980194;81;100 mA
46.358922882955;-0.89935302734375;-0.050933837890625;0.809999997954947;82;100 mA
46.3689228829297;-0.8990478515625;-0.050933837890625;0.819999997929699;83;100 mA
46.3789228829045;-0.89935302734375;-0.05078125;0.829999997904451;84;100 mA
46.3889228828792;-0.89996337890625;-0.050628662109375;0.839999997879204;85;100 mA
46.398922882854;-0.89996337890625;-0.050537109375;0.849999997853956;86;100 mA
46.4089228828287;-0.89935302734375;-0.0504150390625;0.859999997828709;87;100 mA
46.4189228828035;-0.8990478515625;-0.050384521484375;0.869999997803461;88;100 mA
46.4289228827782;-0.899658203125;-0.05023193359375;0.879999997778214;89;100 mA
46.438922882753;-0.89874267578125;-0.0501708984375;0.889999997752966;90;100 mA
46.4489228827277;-0.8990478515625;-0.050048828125;0.899999997727718;91;100 mA
46.4589228827025;-0.89874267578125;-0.049896240234375;0.909999997702471;92;100 mA
46.4689228826772;-0.89935302734375;-0.049835205078125;0.919999997677223;93;100 mA
46.478922882652;-0.8990478515625;-0.049560546875;0.929999997651976;94;100 mA
46.4889228826268;-0.899658203125;-0.0494384765625;0.939999997626728;95;100 mA
46.4989228826015;-0.89935302734375;-0.0493896484375;0.949999997601481;96;100 mA
46.5089228825763;-0.89935302734375;-0.04915771484375;0.959999997576233;97;100 mA
46.518922882551;-0.89996337890625;-0.049188232421875;0.969999997550985;98;100 mA
46.5289228825258;-0.89996337890625;-0.04898681640625;0.979999997525738;99;100 mA
46.5389228825005;-0.899658203125;-0.0488189697265625;0.98999999750049;100;100 mA
46.5489228824753;-0.89935302734375;-0.0488372802734375;0.999999997475243;101;100 mA
46.55892288245;-0.89935302734375;-0.0488250732421875;1.00999999745;102;100 mA
46.5689228824248;-0.89874267578125;-0.0486480712890625;1.01999999742475;103;100 mA
46.5789228823995;-0.8990478515625;-0.0484710693359375;1.0299999973995;104;100 mA
46.5889228823743;-0.8990478515625;-0.0484344482421875;1.03999999737425;105;100 mA
46.598922882349;-0.89935302734375;-0.04825439453125;1.049999997349;106;100 mA
46.6089228823238;-0.8990478515625;-0.048358154296875;1.05999999732376;107;100 mA
46.6189228822985;-0.89935302734375;-0.0482391357421875;1.06999999729851;108;100 mA
46.6289228822733;-0.89935302734375;-0.0481719970703125;1.07999999727326;109;100 mA
46.638922882248;-0.89935302734375;-0.04822998046875;1.08999999724801;110;100 mA
46.6489228822228;-0.8990478515625;-0.0482177734375;1.09999999722277;111;100 mA
46.6589228821975;-0.899658203125;-0.04822998046875;1.10999999719752;112;100 mA
46.6689228821723;-0.89874267578125;-0.0481201171875;1.11999999717227;113;100 mA
46.678922882147;-0.89935302734375;-0.048052978515625;1.12999999714702;114;100 mA
46.6889228821218;-0.8990478515625;-0.0479461669921875;1.13999999712178;115;100 mA
46.6989228820966;-0.89935302734375;-0.0478607177734375;1.14999999709653;116;100 mA
46.7089228820713;-0.8990478515625;-0.047833251953125;1.15999999707128;117;100 mA
46.7189228820461;-0.899658203125;-0.047540283203125;1.16999999704603;118;100 mA
46.7289228820208;-0.89935302734375;-0.0475067138671875;1.17999999702079;119;100 mA
46.7389228819956;-0.89935302734375;-0.047503662109375;1.18999999699554;120;100 mA
46.7489228819703;-0.8990478515625;-0.0473358154296875;1.19999999697029;121;100 mA
46.7589228819451;-0.89935302734375;-0.0473907470703125;1.20999999694504;122;100 mA
46.7689228819198;-0.899658203125;-0.04718017578125;1.2199999969198;123;100 mA
46.7789228818946;-0.89874267578125;-0.0470306396484375;1.22999999689455;124;100 mA
46.7889228818693;-0.8990478515625;-0.0470184326171875;1.2399999968693;125;100 mA
46.7989228818441;-0.899658203125;-0.0469818115234375;1.24999999684405;126;100 mA
46.8089228818188;-0.899658203125;-0.04688720703125;1.25999999681881;127;100 mA
46.8189228817936;-0.89935302734375;-0.0467559814453125;1.26999999679356;128;100 mA
46.8289228817683;-0.899658203125;-0.0467926025390625;1.27999999676831;129;100 mA
46.8389228817431;-0.89935302734375;-0.04666748046875;1.28999999674306;130;100 mA
46.8489228817178;-0.89935302734375;-0.0468292236328125;1.29999999671782;131;100 mA
46.8589228816926;-0.89935302734375;-0.0467437744140625;1.30999999669257;132;100 mA
46.8689228816673;-0.8990478515625;-0.0466522216796875;1.31999999666732;133;100 mA
46.8789228816421;-0.8990478515625;-0.046728515625;1.32999999664207;134;100 mA
46.8889228816168;-0.89935302734375;-0.046661376953125;1.33999999661683;135;100 mA
46.8989228815916;-0.89935302734375;-0.046697998046875;1.34999999659158;136;100 mA
46.9089228815664;-0.89935302734375;-0.046624755859375;1.35999999656633;137;100 mA
46.9189228815411;-0.89935302734375;-0.0465850830078125;1.36999999654108;138;100 mA
46.9289228815159;-0.899658203125;-0.0465850830078125;1.37999999651583;139;100 mA
46.9389228814906;-0.89935302734375;-0.0466339111328125;1.38999999649059;140;100 mA
46.9489228814654;-0.89935302734375;-0.046771240234375;1.39999999646534;141;100 mA
46.9589228814401;-0.899658203125;-0.04664306640625;1.40999999644009;142;100 mA
46.9689228814149;-0.899658203125;-0.0467041015625;1.41999999641484;143;100 mA
46.9789228813896;-0.8990478515625;-0.046710205078125;1.4299999963896;144;100 mA
46.9889228813644;-0.899658203125;-0.046649169921875;1.43999999636435;145;100 mA
46.9989228813391;-0.8990478515625;-0.0468719482421875;1.4499999963391;146;100 mA
47.0089228813139;-0.89935302734375;-0.0468231201171875;1.45999999631385;147;100 mA
47.0189228812886;-0.899658203125;-0.046929931640625;1.46999999628861;148;100 mA
47.0289228812634;-0.89935302734375;-0.0471649169921875;1.47999999626336;149;100 mA
47.0389228812381;-0.89874267578125;-0.047283935546875;1.48999999623811;150;100 mA
47.0489228812129;-0.8990478515625;-0.0474334716796875;1.49999999621286;151;100 mA
47.0589228811876;-0.89874267578125;-0.0474853515625;1.50999999618762;152;100 mA
47.0689228811624;-0.89935302734375;-0.047613525390625;1.51999999616237;153;100 mA
47.0789228811371;-0.8990478515625;-0.0476043701171875;1.52999999613712;154;100 mA
47.0889228811119;-0.899658203125;-0.0477447509765625;1.53999999611187;155;100 mA
47.0989228810867;-0.899658203125;-0.04771728515625;1.54999999608663;156;100 mA
47.1089228810614;-0.899658203125;-0.0476654052734375;1.55999999606138;157;100 mA
47.1189228810362;-0.8990478515625;-0.0478179931640625;1.56999999603613;158;100 mA
47.1289228810109;-0.8990478515625;-0.0478271484375;1.57999999601088;159;100 mA
47.1389228809857;-0.89996337890625;-0.047955322265625;1.58999999598564;160;100 mA
47.1489228809604;-0.89996337890625;-0.0479522705078125;1.59999999596039;161;100 mA
47.1589228809352;-0.89935302734375;-0.04791259765625;1.60999999593514;162;100 mA
47.1689228809099;-0.89935302734375;-0.047857666015625;1.61999999590989;163;100 mA
47.1789228808847;-0.899658203125;-0.047845458984375;1.62999999588465;164;100 mA
47.1889228808594;-0.8990478515625;-0.0478851318359375;1.6399999958594;165;100 mA
47.1989228808342;-0.89935302734375;-0.0477569580078125;1.64999999583415;166;100 mA
47.2089228808089;-0.899658203125;-0.0478363037109375;1.6599999958089;167;100 mA
47.2189228807837;-0.89935302734375;-0.0478302001953125;1.66999999578366;168;100 mA
47.2289228807584;-0.89935302734375;-0.047821044921875;1.67999999575841;169;100 mA
47.2389228807332;-0.89935302734375;-0.0480438232421875;1.68999999573316;170;100 mA
47.2489228807079;-0.899658203125;-0.047955322265625;1.69999999570791;171;100 mA
47.2589228806827;-0.899658203125;-0.0480194091796875;1.70999999568267;172;100 mA
47.2689228806574;-0.89874267578125;-0.048175048828125;1.71999999565742;173;100 mA
47.2789228806322;-0.89935302734375;-0.048095703125;1.72999999563217;174;100 mA
47.2889228806069;-0.89935302734375;-0.048095703125;1.73999999560692;175;100 mA
47.2989228805817;-0.89935302734375;-0.0479827880859375;1.74999999558167;176;100 mA
47.3089228805565;-0.89996337890625;-0.047918701171875;1.75999999555643;177;100 mA
47.3189228805312;-0.8990478515625;-0.04786376953125;1.76999999553118;178;100 mA
47.328922880506;-0.89935302734375;-0.0479736328125;1.77999999550593;179;100 mA
47.3389228804807;-0.899658203125;-0.0478546142578125;1.78999999548068;180;100 mA
47.3489228804555;-0.89874267578125;-0.0477691650390625;1.79999999545544;181;100 mA
47.3589228804302;-0.899658203125;-0.0478302001953125;1.80999999543019;182;100 mA
47.368922880405;-0.89935302734375;-0.0476959228515625;1.81999999540494;183;100 mA
47.3789228803797;-0.89935302734375;-0.0477508544921875;1.82999999537969;184;100 mA
47.3889228803545;-0.899658203125;-0.0476318359375;1.83999999535445;185;100 mA
47.3989228803292;-0.89874267578125;-0.04757080078125;1.8499999953292;186;100 mA
47.408922880304;-0.899658203125;-0.04744873046875;1.85999999530395;187;100 mA
47.4189228802787;-0.89935302734375;-0.0473876953125;1.8699999952787;188;100 mA
47.4289228802535;-0.89935302734375;-0.0473602294921875;1.87999999525346;189;100 mA
47.4389228802282;-0.899658203125;-0.0471832275390625;1.88999999522821;190;100 mA
47.448922880203;-0.9002685546875;-0.047247314453125;1.89999999520296;191;100 mA
47.4589228801777;-0.899658203125;-0.0471954345703125;1.90999999517771;192;100 mA
47.4689228801525;-0.89935302734375;-0.0471343994140625;1.91999999515247;193;100 mA
47.4789228801272;-0.89935302734375;-0.0472564697265625;1.92999999512722;194;100 mA
47.488922880102;-0.89996337890625;-0.0470123291015625;1.93999999510197;195;100 mA
47.4989228800767;-0.89935302734375;-0.047021484375;1.94999999507672;196;100 mA
47.5089228800515;-0.899658203125;-0.047100830078125;1.95999999505148;197;100 mA
47.5189228800263;-0.89874267578125;-0.0469879150390625;1.96999999502623;198;100 mA
47.528922880001;-0.8990478515625;-0.0470062255859375;1.97999999500098;199;100 mA
47.5389228799758;-0.8990478515625;-0.0469207763671875;1.98999999497573;200;100 mA
47.5489228799505;-0.8990478515625;-0.0468963623046875;1.99999999495049;201;100 mA
47.5589228799253;-0.89935302734375;-0.0468963623046875;2.00999999492524;202;100 mA
47.5689228799;-0.8990478515625;-0.047027587890625;2.01999999489999;203;100 mA
47.5789228798748;-0.89935302734375;-0.0469635009765625;2.02999999487474;204;100 mA
47.5889228798495;-0.8990478515625;-0.046868896484375;2.0399999948495;205;100 mA
47.5989228798243;-0.8990478515625;-0.0470062255859375;2.04999999482425;206;100 mA
47.608922879799;-0.89874267578125;-0.0468658447265625;2.059999994799;207;100 mA
47.6189228797738;-0.89935302734375;-0.0469818115234375;2.06999999477375;208;100 mA
47.6289228797485;-0.8990478515625;-0.0468780517578125;2.0799999947485;209;100 mA
47.6389228797233;-0.89935302734375;-0.0468505859375;2.08999999472326;210;100 mA
47.648922879698;-0.899658203125;-0.04688720703125;2.09999999469801;211;100 mA
47.6589228796728;-0.8990478515625;-0.0468597412109375;2.10999999467276;212;100 mA
47.6689228796475;-0.89935302734375;-0.046905517578125;2.11999999464751;213;100 mA
47.6789228796223;-0.89935302734375;-0.046795654296875;2.12999999462227;214;100 mA
47.688922879597;-0.9002685546875;-0.0468292236328125;2.13999999459702;215;100 mA
47.6989228795718;-0.8990478515625;-0.04678955078125;2.14999999457177;216;100 mA
47.7089228795465;-0.899658203125;-0.046728515625;2.15999999454652;217;100 mA
47.7189228795213;-0.8984375;-0.0468353271484375;2.16999999452128;218;100 mA
47.7289228794961;-0.89935302734375;-0.046588134765625;2.17999999449603;219;100 mA
47.7389228794708;-0.89996337890625;-0.0465301513671875;2.18999999447078;220;100 mA
47.7489228794456;-0.899658203125;-0.0466522216796875;2.19999999444553;221;100 mA
47.7589228794203;-0.89935302734375;-0.0465240478515625;2.20999999442029;222;100 mA
47.7689228793951;-0.899658203125;-0.04658203125;2.21999999439504;223;100 mA
47.7789228793698;-0.8990478515625;-0.04652099609375;2.22999999436979;224;100 mA
47.7889228793446;-0.89996337890625;-0.0464111328125;2.23999999434454;225;100 mA
47.7989228793193;-0.89935302734375;-0.0463836669921875;2.2499999943193;226;100 mA
47.8089228792941;-0.8990478515625;-0.046484375;2.25999999429405;227;100 mA
47.8189228792688;-0.899658203125;-0.0463226318359375;2.2699999942688;228;100 mA
47.8289228792436;-0.899658203125;-0.04625244140625;2.27999999424355;229;100 mA
47.8389228792183;-0.899658203125;-0.046319580078125;2.28999999421831;230;100 mA
47.8489228791931;-0.89935302734375;-0.046136474609375;2.29999999419306;231;100 mA
47.8589228791678;-0.89935302734375;-0.0462860107421875;2.30999999416781;232;100 mA
47.8689228791426;-0.8990478515625;-0.0461334228515625;2.31999999414256;233;100 mA
47.8789228791173;-0.89996337890625;-0.04605712890625;2.32999999411732;234;100 mA
47.8889228790921;-0.899658203125;-0.0460540771484375;2.33999999409207;235;100 mA
47.8989228790668;-0.8990478515625;-0.0459808349609375;2.34999999406682;236;100 mA
47.9089228790416;-0.8990478515625;-0.046038818359375;2.35999999404157;237;100 mA
47.9189228790163;-0.8990478515625;-0.0459075927734375;2.36999999401633;238;100 mA
47.9289228789911;-0.899658203125;-0.04595947265625;2.37999999399108;239;100 mA
47.9389228789659;-0.8990478515625;-0.0459564208984375;2.38999999396583;240;100 mA
47.9489228789406;-0.89996337890625;-0.046002197265625;2.39999999394058;241;100 mA
47.9589228789154;-0.89935302734375;-0.0462188720703125;2.40999999391533;242;100 mA
47.9689228788901;-0.899658203125;-0.046124267578125;2.41999999389009;243;100 mA
47.9789228788649;-0.89935302734375;-0.0462005615234375;2.42999999386484;244;100 mA
47.9889228788396;-0.89874267578125;-0.0463653564453125;2.43999999383959;245;100 mA
47.9989228788144;-0.89935302734375;-0.04637451171875;2.44999999381434;246;100 mA
48.0089228787891;-0.899658203125;-0.04656982421875;2.4599999937891;247;100 mA
48.0189228787639;-0.89935302734375;-0.046612548828125;2.46999999376385;248;100 mA
48.0289228787386;-0.89935302734375;-0.046673583984375;2.4799999937386;249;100 mA
48.0389228787134;-0.89935302734375;-0.0467926025390625;2.48999999371335;250;100 mA
48.0489228786881;-0.8990478515625;-0.0470367431640625;2.49999999368811;251;100 mA
48.0589228786629;-0.89935302734375;-0.0469940185546875;2.50999999366286;252;100 mA
48.0689228786376;-0.89935302734375;-0.047027587890625;2.51999999363761;253;100 mA
48.0789228786124;-0.8990478515625;-0.047119140625;2.52999999361236;254;100 mA
48.0889228785871;-0.8990478515625;-0.0469146728515625;2.53999999358712;255;100 mA
48.0989228785619;-0.8990478515625;-0.0471160888671875;2.54999999356187;256;100 mA
48.1089228785366;-0.8990478515625;-0.0469207763671875;2.55999999353662;257;100 mA
48.1189228785114;-0.899658203125;-0.0468597412109375;2.56999999351137;258;100 mA
48.1289228784862;-0.899658203125;-0.0469146728515625;2.57999999348613;259;100 mA
48.1389228784609;-0.89935302734375;-0.04686279296875;2.58999999346088;260;100 mA
48.1489228784357;-0.89935302734375;-0.0470306396484375;2.59999999343563;261;100 mA
48.1589228784104;-0.899658203125;-0.04696044921875;2.60999999341038;262;100 mA
48.1689228783852;-0.89996337890625;-0.047021484375;2.61999999338514;263;100 mA
48.1789228783599;-0.89935302734375;-0.0469696044921875;2.62999999335989;264;100 mA
48.1889228783347;-0.8990478515625;-0.0469146728515625;2.63999999333464;265;100 mA
48.1989228783094;-0.8990478515625;-0.047015380859375;2.64999999330939;266;100 mA
48.2089228782842;-0.8990478515625;-0.0468048095703125;2.65999999328415;267;100 mA
48.2189228782589;-0.89935302734375;-0.04683837890625;2.6699999932589;268;100 mA
48.2289228782337;-0.89874267578125;-0.0468963623046875;2.67999999323365;269;100 mA
48.2389228782084;-0.89935302734375;-0.0468017578125;2.6899999932084;270;100 mA
48.2489228781832;-0.89935302734375;-0.046923828125;2.69999999318316;271;100 mA
48.2589228781579;-0.89935302734375;-0.0467987060546875;2.70999999315791;272;100 mA
48.2689228781327;-0.899658203125;-0.0467010498046875;2.71999999313266;273;100 mA
48.2789228781074;-0.89935302734375;-0.0466949462890625;2.72999999310741;274;100 mA
48.2889228780822;-0.89935302734375;-0.0466766357421875;2.73999999308217;275;100 mA
48.2989228780569;-0.899658203125;-0.046533203125;2.74999999305692;276;100 mA
48.3089228780317;-0.8984375;-0.0464599609375;2.75999999303167;277;100 mA
48.3189228780064;-0.8990478515625;-0.04647216796875;2.76999999300642;278;100 mA
48.3289228779812;-0.89996337890625;-0.0464019775390625;2.77999999298117;279;100 mA
48.338922877956;-0.89935302734375;-0.04661865234375;2.78999999295593;280;100 mA
48.3489228779307;-0.899658203125;-0.0465576171875;2.79999999293068;281;100 mA
48.3589228779055;-0.89935302734375;-0.0465576171875;2.80999999290543;282;100 mA
48.3689228778802;-0.899658203125;-0.0466766357421875;2.81999999288018;283;100 mA
48.378922877855;-0.89874267578125;-0.0466766357421875;2.82999999285494;284;100 mA
48.3889228778297;-0.8990478515625;-0.046783447265625;2.83999999282969;285;100 mA
48.3989228778045;-0.8990478515625;-0.0467742919921875;2.84999999280444;286;100 mA
48.4089228777792;-0.899658203125;-0.04686279296875;2.85999999277919;287;100 mA
48.418922877754;-0.89935302734375;-0.04688720703125;2.86999999275395;288;100 mA
48.4289228777287;-0.89935302734375;-0.046978759765625;2.8799999927287;289;100 mA
48.4389228777035;-0.89935302734375;-0.0470977783203125;2.88999999270345;290;100 mA
48.4489228776782;-0.89874267578125;-0.0469970703125;2.8999999926782;291;100 mA
48.458922877653;-0.899658203125;-0.04718017578125;2.90999999265296;292;100 mA
48.4689228776277;-0.8990478515625;-0.0472076416015625;2.91999999262771;293;100 mA
48.4789228776025;-0.899658203125;-0.0471923828125;2.92999999260246;294;100 mA
48.4889228775772;-0.8990478515625;-0.0473297119140625;2.93999999257721;295;100 mA
48.498922877552;-0.89935302734375;-0.047186279296875;2.94999999255197;296;100 mA
48.5089228775267;-0.89935302734375;-0.0471923828125;2.95999999252672;297;100 mA
48.5189228775015;-0.899658203125;-0.0472015380859375;2.96999999250147;298;100 mA
48.5289228774762;-0.8990478515625;-0.047235107421875;2.97999999247622;299;100 mA
48.538922877451;-0.8990478515625;-0.0471771240234375;2.98999999245098;300;100 mA
48.5489228774258;-0.899658203125;-0.04716796875;2.99999999242573;301;100 mA
48.5589228774005;-0.8990478515625;-0.047216796875;3.00999999240048;302;100 mA
48.5689228773753;-0.8990478515625;-0.0471649169921875;3.01999999237523;303;100 mA
48.57892287735;-0.89935302734375;-0.0474151611328125;3.02999999234999;304;100 mA
48.5889228773248;-0.899658203125;-0.047320556640625;3.03999999232474;305;100 mA
48.5989228772995;-0.89935302734375;-0.0473663330078125;3.04999999229949;306;100 mA
48.6089228772743;-0.899658203125;-0.04759521484375;3.05999999227424;307;100 mA
48.618922877249;-0.89935302734375;-0.047552490234375;3.069999992249;308;100 mA
48.6289228772238;-0.8990478515625;-0.047723388671875;3.07999999222375;309;100 mA
48.6389228771985;-0.89996337890625;-0.0477203369140625;3.0899999921985;310;100 mA
48.6489228771733;-0.89935302734375;-0.047802734375;3.09999999217325;311;100 mA
48.658922877148;-0.899658203125;-0.047857666015625;3.109999992148;312;100 mA
48.6689228771228;-0.899658203125;-0.04798583984375;3.11999999212276;313;100 mA
48.6789228770975;-0.89935302734375;-0.048065185546875;3.12999999209751;314;100 mA
48.6889228770723;-0.89935302734375;-0.047869873046875;3.13999999207226;315;100 mA
48.698922877047;-0.899658203125;-0.048046875;3.14999999204701;316;100 mA
48.7089228770218;-0.899658203125;-0.0481658935546875;3.15999999202177;317;100 mA
48.7189228769965;-0.89935302734375;-0.0479949951171875;3.16999999199652;318;100 mA
48.7289228769713;-0.89996337890625;-0.0480987548828125;3.17999999197127;319;100 mA
48.738922876946;-0.8990478515625;-0.047943115234375;3.18999999194602;320;100 mA
48.7489228769208;-0.8990478515625;-0.04801025390625;3.19999999192078;321;100 mA
48.7589228768956;-0.8990478515625;-0.048101806640625;3.20999999189553;322;100 mA
48.7689228768703;-0.8990478515625;-0.04813232421875;3.21999999187028;323;100 mA
48.7789228768451;-0.89935302734375;-0.0481536865234375;3.22999999184503;324;100 mA
48.7889228768198;-0.899658203125;-0.048114013671875;3.23999999181979;325;100 mA
48.7989228767946;-0.8990478515625;-0.0481170654296875;3.24999999179454;326;100 mA
48.8089228767693;-0.89935302734375;-0.048046875;3.25999999176929;327;100 mA
48.8189228767441;-0.8990478515625;-0.048211669921875;3.26999999174404;328;100 mA
48.8289228767188;-0.89935302734375;-0.048004150390625;3.2799999917188;329;100 mA
48.8389228766936;-0.89935302734375;-0.0478851318359375;3.28999999169355;330;100 mA
48.8489228766683;-0.89935302734375;-0.0479827880859375;3.2999999916683;331;100 mA
48.8589228766431;-0.8990478515625;-0.0477386474609375;3.30999999164305;332;100 mA
48.8689228766178;-0.89935302734375;-0.0477081298828125;3.31999999161781;333;100 mA
48.8789228765926;-0.899658203125;-0.0475128173828125;3.32999999159256;334;100 mA
48.8889228765673;-0.89874267578125;-0.04730224609375;3.33999999156731;335;100 mA
48.8989228765421;-0.89935302734375;-0.0471771240234375;3.34999999154206;336;100 mA
48.9089228765168;-0.899658203125;-0.0470733642578125;3.35999999151682;337;100 mA
48.9189228764916;-0.89935302734375;-0.04698486328125;3.36999999149157;338;100 mA
48.9289228764663;-0.899658203125;-0.0467376708984375;3.37999999146632;339;100 mA
48.9389228764411;-0.89935302734375;-0.0467193603515625;3.38999999144107;340;100 mA
48.9489228764158;-0.89935302734375;-0.0466094970703125;3.39999999141583;341;100 mA
48.9589228763906;-0.89874267578125;-0.046636962890625;3.40999999139058;342;100 mA
48.9689228763654;-0.89935302734375;-0.0467376708984375;3.41999999136533;343;100 mA
48.9789228763401;-0.8990478515625;-0.046630859375;3.42999999134008;344;100 mA
48.9889228763149;-0.89935302734375;-0.0466796875;3.43999999131483;345;100 mA
48.9989228762896;-0.89935302734375;-0.0467926025390625;3.44999999128959;346;100 mA
49.0089228762644;-0.8990478515625;-0.0469024658203125;3.45999999126434;347;100 mA
49.0189228762391;-0.899658203125;-0.0469451904296875;3.46999999123909;348;100 mA
49.0289228762139;-0.899658203125;-0.0470306396484375;3.47999999121384;349;100 mA
49.0389228761886;-0.89874267578125;-0.0470672607421875;3.4899999911886;350;100 mA
49.0489228761634;-0.899658203125;-0.0470977783203125;3.49999999116335;351;100 mA
49.0589228761381;-0.89935302734375;-0.04736328125;3.5099999911381;352;100 mA
49.0689228761129;-0.899658203125;-0.0471923828125;3.51999999111285;353;100 mA
49.0789228760876;-0.899658203125;-0.04716796875;3.52999999108761;354;100 mA
49.0889228760624;-0.89874267578125;-0.047259521484375;3.53999999106236;355;100 mA
49.0989228760371;-0.899658203125;-0.0470794677734375;3.54999999103711;356;100 mA
49.1089228760119;-0.89935302734375;-0.0472900390625;3.55999999101186;357;100 mA
49.1189228759866;-0.899658203125;-0.0471954345703125;3.56999999098662;358;100 mA
49.1289228759614;-0.8990478515625;-0.0472076416015625;3.57999999096137;359;100 mA
49.1389228759361;-0.89935302734375;-0.047271728515625;3.58999999093612;360;100 mA
49.1489228759109;-0.89935302734375;-0.04727783203125;3.59999999091087;361;100 mA
49.1589228758857;-0.89935302734375;-0.0473175048828125;3.60999999088563;362;100 mA
49.1689228758604;-0.89935302734375;-0.0471405029296875;3.61999999086038;363;100 mA
49.1789228758352;-0.899658203125;-0.047149658203125;3.62999999083513;364;100 mA
49.1889228758099;-0.899658203125;-0.046929931640625;3.63999999080988;365;100 mA
49.1989228757847;-0.89874267578125;-0.046893310546875;3.64999999078464;366;100 mA
49.2089228757594;-0.8990478515625;-0.0468353271484375;3.65999999075939;367;100 mA
49.2189228757342;-0.89935302734375;-0.0465606689453125;3.66999999073414;368;100 mA
49.2289228757089;-0.899658203125;-0.046527099609375;3.67999999070889;369;100 mA
49.2389228756837;-0.899658203125;-0.0464630126953125;3.68999999068365;370;100 mA
49.2489228756584;-0.89935302734375;-0.046392822265625;3.6999999906584;371;100 mA
49.2589228756332;-0.89935302734375;-0.046319580078125;3.70999999063315;372;100 mA
49.2689228756079;-0.8990478515625;-0.0461883544921875;3.7199999906079;373;100 mA
49.2789228755827;-0.89935302734375;-0.04600830078125;3.72999999058266;374;100 mA
49.2889228755574;-0.89935302734375;-0.04586181640625;3.73999999055741;375;100 mA
49.2989228755322;-0.89935302734375;-0.0459716796875;3.74999999053216;376;100 mA
49.3089228755069;-0.899658203125;-0.0457183837890625;3.75999999050691;377;100 mA
49.3189228754817;-0.8990478515625;-0.0456787109375;3.76999999048167;378;100 mA
49.3289228754564;-0.899658203125;-0.0457489013671875;3.77999999045642;379;100 mA
49.3389228754312;-0.899658203125;-0.0455780029296875;3.78999999043117;380;100 mA
49.3489228754059;-0.899658203125;-0.0458099365234375;3.79999999040592;381;100 mA
49.3589228753807;-0.8990478515625;-0.0457000732421875;3.80999999038067;382;100 mA
49.3689228753555;-0.8990478515625;-0.045703125;3.81999999035543;383;100 mA
49.3789228753302;-0.89935302734375;-0.04580078125;3.82999999033018;384;100 mA
49.388922875305;-0.89935302734375;-0.04581298828125;3.83999999030493;385;100 mA
49.3989228752797;-0.89935302734375;-0.0459503173828125;3.84999999027968;386;100 mA
49.4089228752545;-0.899658203125;-0.0458984375;3.85999999025444;387;100 mA
49.4189228752292;-0.899658203125;-0.0460540771484375;3.86999999022919;388;100 mA
49.428922875204;-0.899658203125;-0.046099853515625;3.87999999020394;389;100 mA
49.4389228751787;-0.89935302734375;-0.046234130859375;3.88999999017869;390;100 mA
49.4489228751535;-0.89935302734375;-0.04639892578125;3.89999999015345;391;100 mA
49.4589228751282;-0.899658203125;-0.0462738037109375;3.9099999901282;392;100 mA
49.468922875103;-0.8990478515625;-0.0464019775390625;3.91999999010295;393;100 mA
49.4789228750777;-0.89935302734375;-0.0464324951171875;3.9299999900777;394;100 mA
49.4889228750525;-0.89935302734375;-0.046441650390625;3.93999999005246;395;100 mA
49.4989228750272;-0.899658203125;-0.0465484619140625;3.94999999002721;396;100 mA
49.508922875002;-0.899658203125;-0.04654541015625;3.95999999000196;397;100 mA
49.5189228749767;-0.899658203125;-0.046484375;3.96999998997671;398;100 mA
49.5289228749515;-0.8990478515625;-0.0465118408203125;3.97999998995147;399;100 mA
49.5389228749262;-0.89935302734375;-0.0466766357421875;3.98999998992622;400;100 mA
49.548922874901;-0.8990478515625;-0.0465179443359375;3.99999998990097;401;100 mA
49.5589228748757;-0.899658203125;-0.04659423828125;4.00999998987572;402;100 mA
49.5689228748505;-0.8990478515625;-0.0465484619140625;4.01999998985048;403;100 mA
49.5789228748253;-0.89935302734375;-0.046368408203125;4.02999998982523;404;100 mA
49.5889228748;-0.89935302734375;-0.04658203125;4.03999998979998;405;100 mA
49.5989228747748;-0.89935302734375;-0.046435546875;4.04999998977473;406;100 mA
49.6089228747495;-0.9002685546875;-0.0465087890625;4.05999998974949;407;100 mA
49.6189228747243;-0.8990478515625;-0.046649169921875;4.06999998972424;408;100 mA
49.628922874699;-0.89935302734375;-0.0466400146484375;4.07999998969899;409;100 mA
49.6389228746738;-0.8990478515625;-0.0468170166015625;4.08999998967374;410;100 mA
49.6489228746485;-0.8990478515625;-0.0467315673828125;4.0999999896485;411;100 mA
49.6589228746233;-0.89935302734375;-0.0467681884765625;4.10999998962325;412;100 mA
49.668922874598;-0.89935302734375;-0.0466766357421875;4.119999989598;413;100 mA
49.6789228745728;-0.89935302734375;-0.0467071533203125;4.12999998957275;414;100 mA
49.6889228745475;-0.899658203125;-0.0467010498046875;4.1399999895475;415;100 mA
49.6989228745223;-0.899658203125;-0.0464569091796875;4.14999998952226;416;100 mA
49.708922874497;-0.89935302734375;-0.04652099609375;4.15999998949701;417;100 mA
49.7189228744718;-0.8990478515625;-0.0464752197265625;4.16999998947176;418;100 mA
49.7289228744465;-0.8990478515625;-0.0464019775390625;4.17999998944651;419;100 mA
49.7389228744213;-0.89935302734375;-0.046466064453125;4.18999998942127;420;100 mA
49.748922874396;-0.899658203125;-0.046453857421875;4.19999998939602;421;100 mA
49.7589228743708;-0.89935302734375;-0.0464385986328125;4.20999998937077;422;100 mA
49.7689228743455;-0.899658203125;-0.0465057373046875;4.21999998934552;423;100 mA
49.7789228743203;-0.8990478515625;-0.0466827392578125;4.22999998932028;424;100 mA
49.7889228742951;-0.89935302734375;-0.04658203125;4.23999998929503;425;100 mA
49.7989228742698;-0.8990478515625;-0.0467041015625;4.24999998926978;426;100 mA
49.8089228742446;-0.89935302734375;-0.04681396484375;4.25999998924453;427;100 mA
49.8189228742193;-0.89935302734375;-0.0467864990234375;4.26999998921929;428;100 mA
49.8289228741941;-0.89935302734375;-0.0471282958984375;4.27999998919404;429;100 mA
49.8389228741688;-0.89935302734375;-0.0470306396484375;4.28999998916879;430;100 mA
49.8489228741436;-0.9002685546875;-0.0471466064453125;4.29999998914354;431;100 mA
49.8589228741183;-0.8990478515625;-0.047332763671875;4.3099999891183;432;100 mA
49.8689228740931;-0.89935302734375;-0.047283935546875;4.31999998909305;433;100 mA
49.8789228740678;-0.899658203125;-0.0474822998046875;4.3299999890678;434;100 mA
49.8889228740426;-0.89935302734375;-0.0474578857421875;4.33999998904255;435;100 mA
49.8989228740173;-0.899658203125;-0.0475372314453125;4.34999998901731;436;100 mA
49.9089228739921;-0.89935302734375;-0.0475616455078125;4.35999998899206;437;100 mA
49.9189228739668;-0.8990478515625;-0.0476715087890625;4.36999998896681;438;100 mA
49.9289228739416;-0.89935302734375;-0.0477386474609375;4.37999998894156;439;100 mA
49.9389228739163;-0.899658203125;-0.04757080078125;4.38999998891632;440;100 mA
49.9489228738911;-0.899658203125;-0.0477996826171875;4.39999998889107;441;100 mA
49.9589228738658;-0.89935302734375;-0.047760009765625;4.40999998886582;442;100 mA
49.9689228738406;-0.899658203125;-0.0478363037109375;4.41999998884057;443;100 mA
49.9789228738153;-0.899658203125;-0.0480560302734375;4.42999998881533;444;100 mA
49.9889228737901;-0.89935302734375;-0.0478607177734375;4.43999998879008;445;100 mA
49.9989228737649;-0.89935302734375;-0.0478363037109375;4.44999998876483;446;100 mA
50.0089228737396;-0.89874267578125;-0.0477996826171875;4.45999998873958;447;100 mA
50.0189228737144;-0.89935302734375;-0.047894287109375;4.46999998871433;448;100 mA
50.0289228736891;-0.89935302734375;-0.0476409912109375;4.47999998868909;449;100 mA
50.0389228736639;-0.899658203125;-0.0475555419921875;4.48999998866384;450;100 mA
50.0489228736386;-0.899658203125;-0.0474884033203125;4.49999998863859;451;100 mA
50.0589228736134;-0.89874267578125;-0.0473175048828125;4.50999998861334;452;100 mA
50.0689228735881;-0.89935302734375;-0.0474945068359375;4.5199999885881;453;100 mA
50.0789228735629;-0.8990478515625;-0.0472503662109375;4.52999998856285;454;100 mA
50.0889228735376;-0.89935302734375;-0.047198486328125;4.5399999885376;455;100 mA
50.0989228735124;-0.899658203125;-0.0474395751953125;4.54999998851235;456;100 mA
50.1089228734871;-0.8990478515625;-0.0471771240234375;4.55999998848711;457;100 mA
50.1189228734619;-0.899658203125;-0.0472412109375;4.56999998846186;458;100 mA
50.1289228734366;-0.89874267578125;-0.0471832275390625;4.57999998843661;459;100 mA
50.1389228734114;-0.89935302734375;-0.0471832275390625;4.58999998841136;460;100 mA
50.1489228733861;-0.89935302734375;-0.0475128173828125;4.59999998838612;461;100 mA
50.1589228733609;-0.899658203125;-0.0475982666015625;4.60999998836087;462;100 mA
50.1689228733356;-0.89996337890625;-0.047576904296875;4.61999998833562;463;100 mA
50.1789228733104;-0.89935302734375;-0.0474822998046875;4.62999998831037;464;100 mA
50.1889228732852;-0.8990478515625;-0.0477508544921875;4.63999998828513;465;100 mA
50.1989228732599;-0.89935302734375;-0.04776611328125;4.64999998825988;466;100 mA
50.2089228732347;-0.89935302734375;-0.0480194091796875;4.65999998823463;467;100 mA
50.2189228732094;-0.89935302734375;-0.0481658935546875;4.66999998820938;468;100 mA
50.2289228731842;-0.89874267578125;-0.04820556640625;4.67999998818414;469;100 mA
50.2389228731589;-0.89935302734375;-0.0483489990234375;4.68999998815889;470;100 mA
50.2489228731337;-0.8990478515625;-0.0484771728515625;4.69999998813364;471;100 mA
50.2589228731084;-0.8990478515625;-0.048724365234375;4.70999998810839;472;100 mA
50.2689228730832;-0.8990478515625;-0.0487030029296875;4.71999998808315;473;100 mA
50.2789228730579;-0.89935302734375;-0.048828125;4.7299999880579;474;100 mA
50.2889228730327;-0.899658203125;-0.048858642578125;4.73999998803265;475;100 mA
50.2989228730074;-0.89935302734375;-0.04884033203125;4.7499999880074;476;100 mA
50.3089228729822;-0.89935302734375;-0.049151611328125;4.75999998798216;477;100 mA
50.3189228729569;-0.89874267578125;-0.0489288330078125;4.76999998795691;478;100 mA
50.3289228729317;-0.8990478515625;-0.0489715576171875;4.77999998793166;479;100 mA
50.3389228729064;-0.89935302734375;-0.0490509033203125;4.78999998790641;480;100 mA
50.3489228728812;-0.89935302734375;-0.04886474609375;4.79999998788116;481;100 mA
50.3589228728559;-0.89935302734375;-0.049005126953125;4.80999998785592;482;100 mA
50.3689228728307;-0.89935302734375;-0.0489044189453125;4.81999998783067;483;100 mA
50.3789228728054;-0.899658203125;-0.0488128662109375;4.82999998780542;484;100 mA
50.3889228727802;-0.89935302734375;-0.04881591796875;4.83999998778017;485;100 mA
50.398922872755;-0.89935302734375;-0.048883056640625;4.84999998775493;486;100 mA
50.4089228727297;-0.89935302734375;-0.0488433837890625;4.85999998772968;487;100 mA
50.4189228727045;-0.89935302734375;-0.0486846923828125;4.86999998770443;488;100 mA
50.4289228726792;-0.899658203125;-0.048822021484375;4.87999998767918;489;100 mA
50.438922872654;-0.8990478515625;-0.048699951171875;4.88999998765394;490;100 mA
50.4489228726287;-0.8990478515625;-0.048828125;4.89999998762869;491;100 mA
50.4589228726035;-0.899658203125;-0.0488372802734375;4.90999998760344;492;100 mA
50.4689228725782;-0.899658203125;-0.0487213134765625;4.91999998757819;493;100 mA
50.478922872553;-0.899658203125;-0.048699951171875;4.92999998755295;494;100 mA
50.4889228725277;-0.8990478515625;-0.048583984375;4.9399999875277;495;100 mA
50.4989228725025;-0.89935302734375;-0.0486572265625;4.94999998750245;496;100 mA
50.5089228724772;-0.8990478515625;-0.0485321044921875;4.9599999874772;497;100 mA
50.518922872452;-0.89935302734375;-0.0485870361328125;4.96999998745196;498;100 mA
50.5289228724267;-0.8990478515625;-0.0485931396484375;4.97999998742671;499;100 mA
50.5389228724015;-0.89874267578125;-0.0485931396484375;4.98999998740146;500;100 mA
50.5489228723762;-0.89935302734375;-0.048876953125;4.99999998737621;501;100 mA
50.558922872351;-0.89935302734375;-0.0487213134765625;5.00999998735097;502;100 mA
50.5689228723257;-0.8990478515625;-0.0488250732421875;5.01999998732572;503;100 mA
50.5789228723005;-0.89874267578125;-0.0490997314453125;5.02999998730047;504;100 mA
50.5889228722752;-0.89935302734375;-0.0488037109375;5.03999998727522;505;100 mA
50.59892287225;-0.89935302734375;-0.0489776611328125;5.04999998724998;506;100 mA
50.6089228722248;-0.899658203125;-0.048870849609375;5.05999998722473;507;100 mA
50.6189228721995;-0.89935302734375;-0.048846435546875;5.06999998719948;508;100 mA
50.6289228721743;-0.89935302734375;-0.0489715576171875;5.07999998717423;509;100 mA
50.638922872149;-0.89935302734375;-0.048992919921875;5.08999998714899;510;100 mA
50.6489228721238;-0.899658203125;-0.049017333984375;5.09999998712374;511;100 mA
50.6589228720985;-0.899658203125;-0.0488739013671875;5.10999998709849;512;100 mA
50.6689228720733;-0.89935302734375;-0.048907470703125;5.11999998707324;513;100 mA
50.678922872048;-0.8990478515625;-0.0487152099609375;5.129999987048;514;100 mA
50.6889228720228;-0.8990478515625;-0.048724365234375;5.13999998702275;515;100 mA
50.6989228719975;-0.89935302734375;-0.0486083984375;5.1499999869975;516;100 mA
50.7089228719723;-0.89935302734375;-0.0483978271484375;5.15999998697225;517;100 mA
50.718922871947;-0.899658203125;-0.04833984375;5.169999986947;518;100 mA
50.7289228719218;-0.89935302734375;-0.0482269287109375;5.17999998692176;519;100 mA
50.7389228718965;-0.89935302734375;-0.04822998046875;5.18999998689651;520;100 mA
50.7489228718713;-0.8990478515625;-0.04810791015625;5.19999998687126;521;100 mA
50.758922871846;-0.89935302734375;-0.0480804443359375;5.20999998684601;522;100 mA
50.7689228718208;-0.89935302734375;-0.0479705810546875;5.21999998682077;523;100 mA
50.7789228717955;-0.89996337890625;-0.0479278564453125;5.22999998679552;524;100 mA
50.7889228717703;-0.8990478515625;-0.04805908203125;5.23999998677027;525;100 mA
50.798922871745;-0.89935302734375;-0.047802734375;5.24999998674502;526;100 mA
50.8089228717198;-0.89935302734375;-0.04788818359375;5.25999998671978;527;100 mA
50.8189228716946;-0.8990478515625;-0.047918701171875;5.26999998669453;528;100 mA
50.8289228716693;-0.89935302734375;-0.0476898193359375;5.27999998666928;529;100 mA
50.8389228716441;-0.89935302734375;-0.047857666015625;5.28999998664403;530;100 mA
50.8489228716188;-0.89935302734375;-0.047650146484375;5.29999998661879;531;100 mA
50.8589228715936;-0.89935302734375;-0.047564697265625;5.30999998659354;532;100 mA
50.8689228715683;-0.8990478515625;-0.0475799560546875;5.31999998656829;533;100 mA
50.8789228715431;-0.89935302734375;-0.04755859375;5.32999998654304;534;100 mA
50.8889228715178;-0.89935302734375;-0.04757080078125;5.3399999865178;535;100 mA
50.8989228714926;-0.89935302734375;-0.0475128173828125;5.34999998649255;536;100 mA
50.9089228714673;-0.8990478515625;-0.0476715087890625;5.3599999864673;537;100 mA
50.9189228714421;-0.899658203125;-0.0476409912109375;5.36999998644205;538;100 mA
50.9289228714168;-0.89935302734375;-0.047833251953125;5.37999998641681;539;100 mA
50.9389228713916;-0.8990478515625;-0.0478302001953125;5.38999998639156;540;100 mA
50.9489228713663;-0.8990478515625;-0.0477386474609375;5.39999998636631;541;100 mA
50.9589228713411;-0.89935302734375;-0.047833251953125;5.40999998634106;542;100 mA
50.9689228713158;-0.89935302734375;-0.0477020263671875;5.41999998631582;543;100 mA
50.9789228712906;-0.8990478515625;-0.0478118896484375;5.42999998629057;544;100 mA
50.9889228712653;-0.899658203125;-0.0477783203125;5.43999998626532;545;100 mA
50.9989228712401;-0.89935302734375;-0.047735595703125;5.44999998624007;546;100 mA
51.0089228712148;-0.899658203125;-0.047637939453125;5.45999998621483;547;100 mA
51.0189228711896;-0.899658203125;-0.0475799560546875;5.46999998618958;548;100 mA
51.0289228711644;-0.89874267578125;-0.0476531982421875;5.47999998616433;549;100 mA
51.0389228711391;-0.899658203125;-0.0473297119140625;5.48999998613908;550;100 mA
51.0489228711139;-0.899658203125;-0.0473663330078125;5.49999998611383;551;100 mA
51.0589228710886;-0.89935302734375;-0.04727783203125;5.50999998608859;552;100 mA
51.0689228710634;-0.8990478515625;-0.0471099853515625;5.51999998606334;553;100 mA
51.0789228710381;-0.8990478515625;-0.047283935546875;5.52999998603809;554;100 mA
51.0889228710129;-0.89935302734375;-0.0470977783203125;5.53999998601284;555;100 mA
51.0989228709876;-0.8990478515625;-0.047088623046875;5.5499999859876;556;100 mA
51.1089228709624;-0.89935302734375;-0.047161865234375;5.55999998596235;557;100 mA
51.1189228709371;-0.89935302734375;-0.047137451171875;5.5699999859371;558;100 mA
51.1289228709119;-0.89996337890625;-0.0471405029296875;5.57999998591185;559;100 mA
51.1389228708866;-0.89935302734375;-0.04703369140625;5.58999998588661;560;100 mA
51.1489228708614;-0.8990478515625;-0.04708251953125;5.59999998586136;561;100 mA
51.1589228708361;-0.89935302734375;-0.04700927734375;5.60999998583611;562;100 mA
51.1689228708109;-0.89935302734375;-0.0471771240234375;5.61999998581086;563;100 mA
51.1789228707856;-0.8990478515625;-0.0471435546875;5.62999998578562;564;100 mA
51.1889228707604;-0.8990478515625;-0.047027587890625;5.63999998576037;565;100 mA
51.1989228707351;-0.89935302734375;-0.0471710205078125;5.64999998573512;566;100 mA
51.2089228707099;-0.899658203125;-0.0470184326171875;5.65999998570987;567;100 mA
51.2189228706847;-0.899658203125;-0.047076416015625;5.66999998568463;568;100 mA
51.2289228706594;-0.89935302734375;-0.04696044921875;5.67999998565938;569;100 mA
51.2389228706342;-0.899658203125;-0.0468231201171875;5.68999998563413;570;100 mA
51.2489228706089;-0.899658203125;-0.0466949462890625;5.69999998560888;571;100 mA
51.2589228705837;-0.899658203125;-0.0465850830078125;5.70999998558364;572;100 mA
51.2689228705584;-0.8990478515625;-0.04658203125;5.71999998555839;573;100 mA
51.2789228705332;-0.89874267578125;-0.0463104248046875;5.72999998553314;574;100 mA
51.2889228705079;-0.89874267578125;-0.0463287353515625;5.73999998550789;575;100 mA
51.2989228704827;-0.8990478515625;-0.0461822509765625;5.74999998548265;576;100 mA
51.3089228704574;-0.899658203125;-0.045965576171875;5.7599999854574;577;100 mA
51.3189228704322;-0.89996337890625;-0.0460601806640625;5.76999998543215;578;100 mA
51.3289228704069;-0.8990478515625;-0.0457855224609375;5.7799999854069;579;100 mA
51.3389228703817;-0.89935302734375;-0.0456787109375;5.78999998538166;580;100 mA
51.3489228703564;-0.89935302734375;-0.045684814453125;5.79999998535641;581;100 mA
51.3589228703312;-0.89935302734375;-0.045574951171875;5.80999998533116;582;100 mA
51.3689228703059;-0.89935302734375;-0.0455291748046875;5.81999998530591;583;100 mA
51.3789228702807;-0.89935302734375;-0.045379638671875;5.82999998528066;584;100 mA
51.3889228702554;-0.89935302734375;-0.045269775390625;5.83999998525542;585;100 mA
51.3989228702302;-0.89935302734375;-0.045098876953125;5.84999998523017;586;100 mA
51.4089228702049;-0.89935302734375;-0.0451263427734375;5.85999998520492;587;100 mA
51.4189228701797;-0.8990478515625;-0.0449066162109375;5.86999998517967;588;100 mA
51.4289228701545;-0.8990478515625;-0.0446685791015625;5.87999998515443;589;100 mA
51.4389228701292;-0.89996337890625;-0.0446868896484375;5.88999998512918;590;100 mA
51.448922870104;-0.89874267578125;-0.04442138671875;5.89999998510393;591;100 mA
51.4589228700787;-0.89874267578125;-0.044525146484375;5.90999998507868;592;100 mA
51.4689228700535;-0.89935302734375;-0.044415283203125;5.91999998505344;593;100 mA
51.4789228700282;-0.89935302734375;-0.044342041015625;5.92999998502819;594;100 mA
51.488922870003;-0.89935302734375;-0.04429931640625;5.93999998500294;595;100 mA
51.4989228699777;-0.899658203125;-0.04427490234375;5.94999998497769;596;100 mA
51.5089228699525;-0.899658203125;-0.044317626953125;5.95999998495245;597;100 mA
51.5189228699272;-0.89935302734375;-0.04410400390625;5.9699999849272;598;100 mA
51.528922869902;-0.899658203125;-0.044195556640625;5.97999998490195;599;100 mA
51.5389228698767;-0.89935302734375;-0.0440765380859375;5.9899999848767;600;100 mA
51.5489228698515;-0.899658203125;-0.043975830078125;5.99999998485146;601;100 mA
51.5589228698262;-0.8990478515625;-0.044134521484375;6.00999998482621;602;100 mA
51.568922869801;-0.89935302734375;-0.0439117431640625;6.01999998480096;603;100 mA
51.5789228697757;-0.89935302734375;-0.04393310546875;6.02999998477571;604;100 mA
51.5889228697505;-0.89935302734375;-0.043988037109375;6.03999998475047;605;100 mA
51.5989228697252;-0.899658203125;-0.04390869140625;6.04999998472522;606;100 mA
51.6089228697;-0.89935302734375;-0.0439605712890625;6.05999998469997;607;100 mA
51.6189228696747;-0.89874267578125;-0.0439178466796875;6.06999998467472;608;100 mA
51.6289228696495;-0.89935302734375;-0.043878173828125;6.07999998464948;609;100 mA
51.6389228696243;-0.8990478515625;-0.0438568115234375;6.08999998462423;610;100 mA
51.648922869599;-0.8990478515625;-0.0440399169921875;6.09999998459898;611;100 mA
51.6589228695738;-0.899658203125;-0.04398193359375;6.10999998457373;612;100 mA
51.6689228695485;-0.89935302734375;-0.0439117431640625;6.11999998454849;613;100 mA
51.6789228695233;-0.89935302734375;-0.04404296875;6.12999998452324;614;100 mA
51.688922869498;-0.89996337890625;-0.0437957763671875;6.13999998449799;615;100 mA
51.6989228694728;-0.899658203125;-0.04405517578125;6.14999998447274;616;100 mA
51.7089228694475;-0.899658203125;-0.04398193359375;6.1599999844475;617;100 mA
51.7189228694223;-0.899658203125;-0.0440032958984375;6.16999998442225;618;100 mA
51.728922869397;-0.89935302734375;-0.0440704345703125;6.179999984397;619;100 mA
51.7389228693718;-0.8990478515625;-0.044122314453125;6.18999998437175;620;100 mA
51.7489228693465;-0.89996337890625;-0.0443511962890625;6.1999999843465;621;100 mA
51.7589228693213;-0.89935302734375;-0.0442657470703125;6.20999998432126;622;100 mA
51.768922869296;-0.89935302734375;-0.044512939453125;6.21999998429601;623;100 mA
51.7789228692708;-0.89935302734375;-0.0444366455078125;6.22999998427076;624;100 mA
51.7889228692455;-0.89935302734375;-0.0444061279296875;6.23999998424551;625;100 mA
51.7989228692203;-0.899658203125;-0.0446014404296875;6.24999998422027;626;100 mA
51.808922869195;-0.8990478515625;-0.0444000244140625;6.25999998419502;627;100 mA
51.8189228691698;-0.89996337890625;-0.0445098876953125;6.26999998416977;628;100 mA
51.8289228691445;-0.8990478515625;-0.0446136474609375;6.27999998414452;629;100 mA
51.8389228691193;-0.8990478515625;-0.044482421875;6.28999998411928;630;100 mA
51.8489228690941;-0.899658203125;-0.0446624755859375;6.29999998409403;631;100 mA
51.8589228690688;-0.89996337890625;-0.0446319580078125;6.30999998406878;632;100 mA
51.8689228690436;-0.8990478515625;-0.0445831298828125;6.31999998404353;633;100 mA
51.8789228690183;-0.89935302734375;-0.04461669921875;6.32999998401829;634;100 mA
51.8889228689931;-0.8990478515625;-0.044769287109375;6.33999998399304;635;100 mA
51.8989228689678;-0.89935302734375;-0.0447235107421875;6.34999998396779;636;100 mA
51.9089228689426;-0.89935302734375;-0.0447265625;6.35999998394254;637;100 mA
51.9189228689173;-0.899658203125;-0.04493408203125;6.3699999839173;638;100 mA
51.9289228688921;-0.89996337890625;-0.0448394775390625;6.37999998389205;639;100 mA
51.9389228688668;-0.89935302734375;-0.0451416015625;6.3899999838668;640;100 mA
51.9489228688416;-0.89935302734375;-0.04512939453125;6.39999998384155;641;100 mA
51.9589228688163;-0.89935302734375;-0.045166015625;6.40999998381631;642;100 mA
51.9689228687911;-0.8990478515625;-0.0453277587890625;6.41999998379106;643;100 mA
51.9789228687658;-0.89935302734375;-0.045343017578125;6.42999998376581;644;100 mA
51.9889228687406;-0.899658203125;-0.045477294921875;6.43999998374056;645;100 mA
51.9989228687153;-0.89935302734375;-0.0454010009765625;6.44999998371532;646;100 mA
52.0089228686901;-0.89874267578125;-0.0455780029296875;6.45999998369007;647;100 mA
52.0189228686648;-0.8990478515625;-0.04554443359375;6.46999998366482;648;100 mA
52.0289228686396;-0.89935302734375;-0.0455902099609375;6.47999998363957;649;100 mA
52.0389228686143;-0.899658203125;-0.045806884765625;6.48999998361433;650;100 mA
52.0489228685891;-0.89935302734375;-0.0456512451171875;6.49999998358908;651;100 mA
52.0589228685639;-0.89996337890625;-0.0457733154296875;6.50999998356383;652;100 mA
52.0689228685386;-0.89935302734375;-0.045880126953125;6.51999998353858;653;100 mA
52.0789228685134;-0.89874267578125;-0.0458709716796875;6.52999998351333;654;100 mA
52.0889228684881;-0.8990478515625;-0.0460968017578125;6.53999998348809;655;100 mA
52.0989228684629;-0.8990478515625;-0.0461334228515625;6.54999998346284;656;100 mA
52.1089228684376;-0.89935302734375;-0.0461639404296875;6.55999998343759;657;100 mA
52.1189228684124;-0.8990478515625;-0.046282958984375;6.56999998341234;658;100 mA
52.1289228683871;-0.89935302734375;-0.046551513671875;6.5799999833871;659;100 mA
52.1389228683619;-0.8990478515625;-0.0465057373046875;6.58999998336185;660;100 mA
52.1489228683366;-0.89935302734375;-0.0465362548828125;6.5999999833366;661;100 mA
52.1589228683114;-0.899658203125;-0.0467193603515625;6.60999998331135;662;100 mA
52.1689228682861;-0.899658203125;-0.046588134765625;6.61999998328611;663;100 mA
52.1789228682609;-0.8990478515625;-0.046905517578125;6.62999998326086;664;100 mA
52.1889228682356;-0.89935302734375;-0.0468780517578125;6.63999998323561;665;100 mA
52.1989228682104;-0.8990478515625;-0.046905517578125;6.64999998321036;666;100 mA
52.2089228681851;-0.8990478515625;-0.047039794921875;6.65999998318512;667;100 mA
52.2189228681599;-0.89874267578125;-0.04700927734375;6.66999998315987;668;100 mA
52.2289228681346;-0.89935302734375;-0.0471405029296875;6.67999998313462;669;100 mA
52.2389228681094;-0.89935302734375;-0.04698486328125;6.68999998310937;670;100 mA
52.2489228680842;-0.8990478515625;-0.047064208984375;6.69999998308413;671;100 mA
52.2589228680589;-0.899658203125;-0.0470062255859375;6.70999998305888;672;100 mA
52.2689228680337;-0.899658203125;-0.0470001220703125;6.71999998303363;673;100 mA
52.2789228680084;-0.899658203125;-0.047149658203125;6.72999998300838;674;100 mA
52.2889228679832;-0.899658203125;-0.046923828125;6.73999998298314;675;100 mA
52.2989228679579;-0.89935302734375;-0.04703369140625;6.74999998295789;676;100 mA
52.3089228679327;-0.8990478515625;-0.047027587890625;6.75999998293264;677;100 mA
52.3189228679074;-0.89935302734375;-0.0468841552734375;6.76999998290739;678;100 mA
52.3289228678822;-0.899658203125;-0.0470306396484375;6.77999998288215;679;100 mA
52.3389228678569;-0.899658203125;-0.046905517578125;6.7899999828569;680;100 mA
52.3489228678317;-0.899658203125;-0.046868896484375;6.79999998283165;681;100 mA
52.3589228678064;-0.8990478515625;-0.0469024658203125;6.8099999828064;682;100 mA
52.3689228677812;-0.89935302734375;-0.0470428466796875;6.81999998278116;683;100 mA
52.3789228677559;-0.89935302734375;-0.047003173828125;6.82999998275591;684;100 mA
52.3889228677307;-0.89935302734375;-0.0469757080078125;6.83999998273066;685;100 mA
52.3989228677054;-0.89935302734375;-0.0470916748046875;6.84999998270541;686;100 mA
52.4089228676802;-0.89935302734375;-0.04683837890625;6.85999998268016;687;100 mA
52.4189228676549;-0.899658203125;-0.0470428466796875;6.86999998265492;688;100 mA
52.4289228676297;-0.89935302734375;-0.04678955078125;6.87999998262967;689;100 mA
52.4389228676044;-0.8990478515625;-0.0466064453125;6.88999998260442;690;100 mA
52.4489228675792;-0.89935302734375;-0.0465911865234375;6.89999998257917;691;100 mA
52.458922867554;-0.89935302734375;-0.0463592529296875;6.90999998255393;692;100 mA
52.4689228675287;-0.8990478515625;-0.0463653564453125;6.91999998252868;693;100 mA
52.4789228675035;-0.89874267578125;-0.0461639404296875;6.92999998250343;694;100 mA
52.4889228674782;-0.89935302734375;-0.046142578125;6.93999998247818;695;100 mA
52.498922867453;-0.89935302734375;-0.0460205078125;6.94999998245294;696;100 mA
52.5089228674277;-0.89935302734375;-0.0458953857421875;6.95999998242769;697;100 mA
52.5189228674025;-0.899658203125;-0.0459564208984375;6.96999998240244;698;100 mA
52.5289228673772;-0.89935302734375;-0.0457611083984375;6.97999998237719;699;100 mA
52.538922867352;-0.89935302734375;-0.0459259033203125;6.98999998235195;700;100 mA
