Time (s);WE(1).Potential (V);WE(1).Current (A);Corrected time (s);Index;Current range
68.4593888271567;-1.0003662109375;-0.32940673828125;0;1;100 mA
68.4693888271314;-0.99945068359375;-0.2410888671875;0.00999999997475243;2;100 mA
68.4793888271062;-0.999755859375;-0.19952392578125;0.0199999999495049;3;100 mA
68.4893888270809;-0.9991455078125;-0.173492431640625;0.0299999999242573;4;100 mA
68.4993888270557;-0.9991455078125;-0.15570068359375;0.0399999998990097;5;100 mA
68.5093888270304;-0.9991455078125;-0.14239501953125;0.0499999998737621;6;100 mA
68.5193888270052;-0.99945068359375;-0.131988525390625;0.0599999998485146;7;100 mA
68.5293888269799;-0.99884033203125;-0.123748779296875;0.069999999823267;8;100 mA
68.5393888269547;-0.999755859375;-0.11663818359375;0.0799999997980194;9;100 mA
68.5493888269294;-0.999755859375;-0.110809326171875;0.0899999997727718;10;100 mA
68.5593888269042;-0.999755859375;-0.105865478515625;0.0999999997475243;11;100 mA
68.5693888268789;-0.99945068359375;-0.101318359375;0.109999999722277;12;100 mA
68.5793888268537;-0.9991455078125;-0.097564697265625;0.119999999697029;13;100 mA
68.5893888268284;-0.9991455078125;-0.094024658203125;0.129999999671782;14;100 mA
68.5993888268032;-0.99945068359375;-0.090972900390625;0.139999999646534;15;100 mA
68.6093888267779;-0.99945068359375;-0.088287353515625;0.149999999621286;16;100 mA
68.6193888267527;-0.99945068359375;-0.085784912109375;0.159999999596039;17;100 mA
68.6293888267274;-0.99945068359375;-0.08349609375;0.169999999570791;18;100 mA
68.6393888267022;-0.99945068359375;-0.0814208984375;0.179999999545544;19;100 mA
68.649388826677;-0.99945068359375;-0.07958984375;0.189999999520296;20;100 mA
68.6593888266517;-0.99945068359375;-0.07781982421875;0.199999999495049;21;100 mA
68.6693888266265;-0.99945068359375;-0.076385498046875;0.209999999469801;22;100 mA
68.6793888266012;-0.9991455078125;-0.074737548828125;0.219999999444553;23;100 mA
68.689388826576;-0.9991455078125;-0.0733642578125;0.229999999419306;24;100 mA
68.6993888265507;-0.99945068359375;-0.072174072265625;0.239999999394058;25;100 mA
68.7093888265255;-0.99945068359375;-0.070953369140625;0.249999999368811;26;100 mA
68.7193888265002;-0.9991455078125;-0.06982421875;0.259999999343563;27;100 mA
68.729388826475;-0.999755859375;-0.068756103515625;0.269999999318316;28;100 mA
68.7393888264497;-0.99945068359375;-0.067718505859375;0.279999999293068;29;100 mA
68.7493888264245;-0.999755859375;-0.06683349609375;0.28999999926782;30;100 mA
68.7593888263992;-0.9991455078125;-0.06597900390625;0.299999999242573;31;100 mA
68.769388826374;-0.99945068359375;-0.065155029296875;0.309999999217325;32;100 mA
68.7793888263487;-0.99945068359375;-0.064300537109375;0.319999999192078;33;100 mA
68.7893888263235;-1.00006103515625;-0.0635986328125;0.32999999916683;34;100 mA
68.7993888262982;-0.99945068359375;-0.062896728515625;0.339999999141583;35;100 mA
68.809388826273;-0.99945068359375;-0.062164306640625;0.349999999116335;36;100 mA
68.8193888262477;-0.99945068359375;-0.06158447265625;0.359999999091087;37;100 mA
68.8293888262225;-0.9991455078125;-0.0609130859375;0.36999999906584;38;100 mA
68.8393888261973;-0.99945068359375;-0.06036376953125;0.379999999040592;39;100 mA
68.849388826172;-0.999755859375;-0.06005859375;0.389999999015345;40;100 mA
68.8593888261468;-0.999755859375;-0.059539794921875;0.399999998990097;41;100 mA
68.8693888261215;-0.99945068359375;-0.058990478515625;0.40999999896485;42;100 mA
68.8793888260963;-0.9991455078125;-0.058502197265625;0.419999998939602;43;100 mA
68.889388826071;-0.999755859375;-0.058074951171875;0.429999998914354;44;100 mA
68.8993888260458;-0.99945068359375;-0.0576171875;0.439999998889107;45;100 mA
68.9093888260205;-0.999755859375;-0.05731201171875;0.449999998863859;46;100 mA
68.9193888259953;-0.99945068359375;-0.056793212890625;0.459999998838612;47;100 mA
68.92938882597;-0.99945068359375;-0.056427001953125;0.469999998813364;48;100 mA
68.9393888259448;-0.99945068359375;-0.056243896484375;0.479999998788116;49;100 mA
68.9493888259195;-0.9991455078125;-0.05596923828125;0.489999998762869;50;100 mA
68.9593888258943;-0.999755859375;-0.055755615234375;0.499999998737621;51;100 mA
68.969388825869;-0.99945068359375;-0.055511474609375;0.509999998712374;52;100 mA
68.9793888258438;-0.999755859375;-0.055328369140625;0.519999998687126;53;100 mA
68.9893888258185;-0.999755859375;-0.055145263671875;0.529999998661879;54;100 mA
68.9993888257933;-1.00006103515625;-0.054931640625;0.539999998636631;55;100 mA
69.009388825768;-0.99945068359375;-0.054718017578125;0.549999998611383;56;100 mA
69.0193888257428;-0.999755859375;-0.054412841796875;0.559999998586136;57;100 mA
69.0293888257175;-0.999755859375;-0.05426025390625;0.569999998560888;58;100 mA
69.0393888256923;-0.99945068359375;-0.054046630859375;0.579999998535641;59;100 mA
69.0493888256671;-0.99884033203125;-0.053802490234375;0.589999998510393;60;100 mA
69.0593888256418;-0.99945068359375;-0.05364990234375;0.599999998485146;61;100 mA
69.0693888256166;-0.99945068359375;-0.05322265625;0.609999998459898;62;100 mA
69.0793888255913;-0.99945068359375;-0.05303955078125;0.61999999843465;63;100 mA
69.0893888255661;-0.99945068359375;-0.052886962890625;0.629999998409403;64;100 mA
69.0993888255408;-0.99945068359375;-0.05255126953125;0.639999998384155;65;100 mA
69.1093888255156;-0.99884033203125;-0.052276611328125;0.649999998358908;66;100 mA
69.1193888254903;-0.999755859375;-0.05206298828125;0.65999999833366;67;100 mA
69.1293888254651;-0.9991455078125;-0.05181884765625;0.669999998308413;68;100 mA
69.1393888254398;-0.999755859375;-0.051605224609375;0.679999998283165;69;100 mA
69.1493888254146;-0.9991455078125;-0.051513671875;0.689999998257917;70;100 mA
69.1593888253893;-0.99884033203125;-0.051239013671875;0.69999999823267;71;100 mA
69.1693888253641;-0.999755859375;-0.051055908203125;0.709999998207422;72;100 mA
69.1793888253388;-0.99945068359375;-0.051055908203125;0.719999998182175;73;100 mA
69.1893888253136;-0.99945068359375;-0.05084228515625;0.729999998156927;74;100 mA
69.1993888252883;-0.99945068359375;-0.050811767578125;0.73999999813168;75;100 mA
69.2093888252631;-0.9991455078125;-0.0506591796875;0.749999998106432;76;100 mA
69.2193888252378;-0.99945068359375;-0.05059814453125;0.759999998081184;77;100 mA
69.2293888252126;-1.00006103515625;-0.0506591796875;0.769999998055937;78;100 mA
69.2393888251873;-0.99945068359375;-0.050537109375;0.779999998030689;79;100 mA
69.2493888251621;-0.999755859375;-0.050567626953125;0.789999998005442;80;100 mA
69.2593888251369;-0.9991455078125;-0.0504150390625;0.799999997980194;81;100 mA
69.2693888251116;-0.99945068359375;-0.050384521484375;0.809999997954947;82;100 mA
69.2793888250864;-0.99945068359375;-0.0504150390625;0.819999997929699;83;100 mA
69.2893888250611;-0.9991455078125;-0.05029296875;0.829999997904451;84;100 mA
69.2993888250359;-0.9991455078125;-0.050323486328125;0.839999997879204;85;100 mA
69.3093888250106;-0.99945068359375;-0.050079345703125;0.849999997853956;86;100 mA
69.3193888249854;-0.9991455078125;-0.04998779296875;0.859999997828709;87;100 mA
69.3293888249601;-0.999755859375;-0.050048828125;0.869999997803461;88;100 mA
69.3393888249349;-0.9991455078125;-0.04986572265625;0.879999997778214;89;100 mA
69.3493888249096;-0.99945068359375;-0.0498046875;0.889999997752966;90;100 mA
69.3593888248844;-0.99945068359375;-0.049713134765625;0.899999997727718;91;100 mA
69.3693888248591;-0.99945068359375;-0.0495819091796875;0.909999997702471;92;100 mA
69.3793888248339;-1.00006103515625;-0.049591064453125;0.919999997677223;93;100 mA
69.3893888248086;-0.99945068359375;-0.04962158203125;0.929999997651976;94;100 mA
69.3993888247834;-0.99945068359375;-0.049432373046875;0.939999997626728;95;100 mA
69.4093888247581;-1.00006103515625;-0.049346923828125;0.949999997601481;96;100 mA
69.4193888247329;-0.99945068359375;-0.0493804931640625;0.959999997576233;97;100 mA
69.4293888247076;-0.99945068359375;-0.0491851806640625;0.969999997550985;98;100 mA
69.4393888246824;-0.99945068359375;-0.0492584228515625;0.979999997525738;99;100 mA
69.4493888246571;-0.99884033203125;-0.049017333984375;0.98999999750049;100;100 mA
69.4593888246319;-0.9991455078125;-0.04888916015625;0.999999997475243;101;100 mA
69.4693888246067;-0.99945068359375;-0.04879150390625;1.00999999745;102;100 mA
69.4793888245814;-0.999755859375;-0.048583984375;1.01999999742475;103;100 mA
69.4893888245562;-0.99945068359375;-0.0484619140625;1.0299999973995;104;100 mA
69.4993888245309;-0.999755859375;-0.0481781005859375;1.03999999737425;105;100 mA
69.5093888245057;-0.99945068359375;-0.047991943359375;1.049999997349;106;100 mA
69.5193888244804;-0.999755859375;-0.047808837890625;1.05999999732376;107;100 mA
69.5293888244552;-0.9991455078125;-0.047552490234375;1.06999999729851;108;100 mA
69.5393888244299;-0.999755859375;-0.0474761962890625;1.07999999727326;109;100 mA
69.5493888244047;-0.9991455078125;-0.0471405029296875;1.08999999724801;110;100 mA
69.5593888243794;-0.9991455078125;-0.047076416015625;1.09999999722277;111;100 mA
69.5693888243542;-0.9991455078125;-0.0470672607421875;1.10999999719752;112;100 mA
69.5793888243289;-0.9991455078125;-0.046966552734375;1.11999999717227;113;100 mA
69.5893888243037;-0.99945068359375;-0.0469940185546875;1.12999999714702;114;100 mA
69.5993888242784;-0.99945068359375;-0.0468963623046875;1.13999999712178;115;100 mA
69.6093888242532;-0.99945068359375;-0.0468475341796875;1.14999999709653;116;100 mA
69.6193888242279;-0.99945068359375;-0.0468292236328125;1.15999999707128;117;100 mA
69.6293888242027;-0.9991455078125;-0.046868896484375;1.16999999704603;118;100 mA
69.6393888241774;-0.99945068359375;-0.046636962890625;1.17999999702079;119;100 mA
69.6493888241522;-1.00006103515625;-0.0465057373046875;1.18999999699554;120;100 mA
69.6593888241269;-0.99884033203125;-0.0464752197265625;1.19999999697029;121;100 mA
69.6693888241017;-0.99945068359375;-0.0463287353515625;1.20999999694504;122;100 mA
69.6793888240765;-0.99945068359375;-0.0464080810546875;1.2199999969198;123;100 mA
69.6893888240512;-0.99945068359375;-0.0462188720703125;1.22999999689455;124;100 mA
69.699388824026;-0.9991455078125;-0.046112060546875;1.2399999968693;125;100 mA
69.7093888240007;-0.9991455078125;-0.0461578369140625;1.24999999684405;126;100 mA
69.7193888239755;-0.9991455078125;-0.0460296630859375;1.25999999681881;127;100 mA
69.7293888239502;-0.999755859375;-0.0460906982421875;1.26999999679356;128;100 mA
69.739388823925;-0.999755859375;-0.0459381103515625;1.27999999676831;129;100 mA
69.7493888238997;-0.99945068359375;-0.045953369140625;1.28999999674306;130;100 mA
69.7593888238745;-0.999755859375;-0.045892333984375;1.29999999671782;131;100 mA
69.7693888238492;-0.99945068359375;-0.0459442138671875;1.30999999669257;132;100 mA
69.779388823824;-0.999755859375;-0.0460540771484375;1.31999999666732;133;100 mA
69.7893888237987;-0.99945068359375;-0.0459136962890625;1.32999999664207;134;100 mA
69.7993888237735;-0.9991455078125;-0.046087646484375;1.33999999661683;135;100 mA
69.8093888237482;-0.99945068359375;-0.0462005615234375;1.34999999659158;136;100 mA
69.819388823723;-0.99884033203125;-0.046209716796875;1.35999999656633;137;100 mA
69.8293888236977;-0.9991455078125;-0.046368408203125;1.36999999654108;138;100 mA
69.8393888236725;-0.99884033203125;-0.0462921142578125;1.37999999651583;139;100 mA
69.8493888236472;-0.9991455078125;-0.0463287353515625;1.38999999649059;140;100 mA
69.859388823622;-0.999755859375;-0.046417236328125;1.39999999646534;141;100 mA
69.8693888235968;-0.99945068359375;-0.0464874267578125;1.40999999644009;142;100 mA
69.8793888235715;-0.9991455078125;-0.0463958740234375;1.41999999641484;143;100 mA
69.8893888235463;-0.99945068359375;-0.0463409423828125;1.4299999963896;144;100 mA
69.899388823521;-0.999755859375;-0.0463836669921875;1.43999999636435;145;100 mA
69.9093888234958;-0.9991455078125;-0.04635009765625;1.4499999963391;146;100 mA
69.9193888234705;-0.99945068359375;-0.046502685546875;1.45999999631385;147;100 mA
69.9293888234453;-0.99884033203125;-0.04649658203125;1.46999999628861;148;100 mA
69.93938882342;-0.99945068359375;-0.0465606689453125;1.47999999626336;149;100 mA
69.9493888233948;-0.999755859375;-0.0467498779296875;1.48999999623811;150;100 mA
69.9593888233695;-0.9991455078125;-0.0468231201171875;1.49999999621286;151;100 mA
69.9693888233443;-0.9991455078125;-0.04693603515625;1.50999999618762;152;100 mA
69.979388823319;-1.00006103515625;-0.0469512939453125;1.51999999616237;153;100 mA
69.9893888232938;-0.99945068359375;-0.04700927734375;1.52999999613712;154;100 mA
69.9993888232685;-0.99945068359375;-0.0470611572265625;1.53999999611187;155;100 mA
70.0093888232433;-0.9991455078125;-0.0471282958984375;1.54999999608663;156;100 mA
70.019388823218;-0.9991455078125;-0.04718017578125;1.55999999606138;157;100 mA
70.0293888231928;-0.9991455078125;-0.047021484375;1.56999999603613;158;100 mA
70.0393888231675;-0.999755859375;-0.047137451171875;1.57999999601088;159;100 mA
70.0493888231423;-0.9991455078125;-0.047186279296875;1.58999999598564;160;100 mA
70.059388823117;-0.99945068359375;-0.0471435546875;1.59999999596039;161;100 mA
70.0693888230918;-0.999755859375;-0.0472503662109375;1.60999999593514;162;100 mA
70.0793888230666;-0.99945068359375;-0.047149658203125;1.61999999590989;163;100 mA
70.0893888230413;-0.99945068359375;-0.0471649169921875;1.62999999588465;164;100 mA
70.0993888230161;-0.99945068359375;-0.0472320556640625;1.6399999958594;165;100 mA
70.1093888229908;-0.99945068359375;-0.047296142578125;1.64999999583415;166;100 mA
70.1193888229656;-0.99884033203125;-0.04718017578125;1.6599999958089;167;100 mA
70.1293888229403;-1.00006103515625;-0.0471038818359375;1.66999999578366;168;100 mA
70.1393888229151;-0.9991455078125;-0.0469818115234375;1.67999999575841;169;100 mA
70.1493888228898;-0.9991455078125;-0.046844482421875;1.68999999573316;170;100 mA
70.1593888228646;-1.00006103515625;-0.046881103515625;1.69999999570791;171;100 mA
70.1693888228393;-0.99945068359375;-0.0466278076171875;1.70999999568267;172;100 mA
70.1793888228141;-0.9991455078125;-0.0465057373046875;1.71999999565742;173;100 mA
70.1893888227888;-0.99884033203125;-0.046588134765625;1.72999999563217;174;100 mA
70.1993888227636;-0.999755859375;-0.046435546875;1.73999999560692;175;100 mA
70.2093888227383;-0.99945068359375;-0.0465362548828125;1.74999999558167;176;100 mA
70.2193888227131;-0.99945068359375;-0.0464263916015625;1.75999999555643;177;100 mA
70.2293888226878;-0.99945068359375;-0.046392822265625;1.76999999553118;178;100 mA
70.2393888226626;-0.999755859375;-0.046343994140625;1.77999999550593;179;100 mA
70.2493888226373;-0.999755859375;-0.0463165283203125;1.78999999548068;180;100 mA
70.2593888226121;-0.99945068359375;-0.0462615966796875;1.79999999545544;181;100 mA
70.2693888225868;-0.99945068359375;-0.0460205078125;1.80999999543019;182;100 mA
70.2793888225616;-1.00006103515625;-0.046051025390625;1.81999999540494;183;100 mA
70.2893888225364;-0.99945068359375;-0.045953369140625;1.82999999537969;184;100 mA
70.2993888225111;-0.9991455078125;-0.04593505859375;1.83999999535445;185;100 mA
70.3093888224859;-0.9991455078125;-0.0459716796875;1.8499999953292;186;100 mA
70.3193888224606;-0.99945068359375;-0.045831298828125;1.85999999530395;187;100 mA
70.3293888224354;-0.9991455078125;-0.0458587646484375;1.8699999952787;188;100 mA
70.3393888224101;-0.9991455078125;-0.0458770751953125;1.87999999525346;189;100 mA
70.3493888223849;-0.9991455078125;-0.0459197998046875;1.88999999522821;190;100 mA
70.3593888223596;-0.999755859375;-0.0458343505859375;1.89999999520296;191;100 mA
70.3693888223344;-0.9991455078125;-0.045794677734375;1.90999999517771;192;100 mA
70.3793888223091;-0.9991455078125;-0.04580078125;1.91999999515247;193;100 mA
70.3893888222839;-0.99945068359375;-0.0457275390625;1.92999999512722;194;100 mA
70.3993888222586;-0.999755859375;-0.0459564208984375;1.93999999510197;195;100 mA
70.4093888222334;-0.99945068359375;-0.045782470703125;1.94999999507672;196;100 mA
70.4193888222081;-0.9991455078125;-0.0457489013671875;1.95999999505148;197;100 mA
70.4293888221829;-0.999755859375;-0.045916748046875;1.96999999502623;198;100 mA
70.4393888221576;-0.99945068359375;-0.0457122802734375;1.97999999500098;199;100 mA
70.4493888221324;-0.999755859375;-0.045892333984375;1.98999999497573;200;100 mA
70.4593888221071;-0.99945068359375;-0.0458465576171875;1.99999999495049;201;100 mA
70.4693888220819;-0.99945068359375;-0.0458343505859375;2.00999999492524;202;100 mA
70.4793888220566;-0.9991455078125;-0.0459014892578125;2.01999999489999;203;100 mA
70.4893888220314;-0.99945068359375;-0.0459075927734375;2.02999999487474;204;100 mA
70.4993888220062;-0.9991455078125;-0.0459808349609375;2.0399999948495;205;100 mA
70.5093888219809;-0.99945068359375;-0.0458221435546875;2.04999999482425;206;100 mA
70.5193888219557;-0.999755859375;-0.0458953857421875;2.059999994799;207;100 mA
70.5293888219304;-0.9991455078125;-0.0458099365234375;2.06999999477375;208;100 mA
70.5393888219052;-0.99945068359375;-0.04581298828125;2.0799999947485;209;100 mA
70.5493888218799;-0.99945068359375;-0.0458770751953125;2.08999999472326;210;100 mA
70.5593888218547;-0.99884033203125;-0.0457550048828125;2.09999999469801;211;100 mA
70.5693888218294;-0.99945068359375;-0.0458282470703125;2.10999999467276;212;100 mA
70.5793888218042;-0.99945068359375;-0.045928955078125;2.11999999464751;213;100 mA
70.5893888217789;-0.99945068359375;-0.046002197265625;2.12999999462227;214;100 mA
70.5993888217537;-0.9991455078125;-0.046014404296875;2.13999999459702;215;100 mA
70.6093888217284;-0.9991455078125;-0.046002197265625;2.14999999457177;216;100 mA
70.6193888217032;-0.99945068359375;-0.0459228515625;2.15999999454652;217;100 mA
70.6293888216779;-0.99945068359375;-0.045843505859375;2.16999999452128;218;100 mA
70.6393888216527;-0.9991455078125;-0.04593505859375;2.17999999449603;219;100 mA
70.6493888216274;-0.999755859375;-0.0456939697265625;2.18999999447078;220;100 mA
70.6593888216022;-0.99853515625;-0.04559326171875;2.19999999444553;221;100 mA
70.6693888215769;-0.9991455078125;-0.045611572265625;2.20999999442029;222;100 mA
70.6793888215517;-0.999755859375;-0.04541015625;2.21999999439504;223;100 mA
70.6893888215264;-0.99945068359375;-0.0455596923828125;2.22999999436979;224;100 mA
70.6993888215012;-0.999755859375;-0.0454833984375;2.23999999434454;225;100 mA
70.709388821476;-0.99945068359375;-0.0455230712890625;2.2499999943193;226;100 mA
70.7193888214507;-1.00006103515625;-0.0456390380859375;2.25999999429405;227;100 mA
70.7293888214255;-0.99945068359375;-0.0457122802734375;2.2699999942688;228;100 mA
70.7393888214002;-0.99945068359375;-0.0457916259765625;2.27999999424355;229;100 mA
70.749388821375;-0.999755859375;-0.0456878662109375;2.28999999421831;230;100 mA
70.7593888213497;-0.9991455078125;-0.045782470703125;2.29999999419306;231;100 mA
70.7693888213245;-0.99945068359375;-0.0457366943359375;2.30999999416781;232;100 mA
70.7793888212992;-0.999755859375;-0.04578857421875;2.31999999414256;233;100 mA
70.789388821274;-0.99945068359375;-0.04580078125;2.32999999411732;234;100 mA
70.7993888212487;-1.00006103515625;-0.045635986328125;2.33999999409207;235;100 mA
70.8093888212235;-0.9991455078125;-0.0456787109375;2.34999999406682;236;100 mA
70.8193888211982;-0.999755859375;-0.0456573486328125;2.35999999404157;237;100 mA
70.829388821173;-0.9991455078125;-0.045611572265625;2.36999999401633;238;100 mA
70.8393888211477;-0.9991455078125;-0.045550537109375;2.37999999399108;239;100 mA
70.8493888211225;-0.9991455078125;-0.0454681396484375;2.38999999396583;240;100 mA
70.8593888210972;-0.9991455078125;-0.045361328125;2.39999999394058;241;100 mA
70.869388821072;-0.9991455078125;-0.0452972412109375;2.40999999391533;242;100 mA
70.8793888210467;-0.99945068359375;-0.045404052734375;2.41999999389009;243;100 mA
70.8893888210215;-0.999755859375;-0.0452117919921875;2.42999999386484;244;100 mA
70.8993888209963;-0.999755859375;-0.0452301025390625;2.43999999383959;245;100 mA
70.909388820971;-0.999755859375;-0.045343017578125;2.44999999381434;246;100 mA
70.9193888209458;-0.99884033203125;-0.045245361328125;2.4599999937891;247;100 mA
70.9293888209205;-0.999755859375;-0.0455108642578125;2.46999999376385;248;100 mA
70.9393888208953;-0.99884033203125;-0.0454315185546875;2.4799999937386;249;100 mA
70.94938882087;-0.99945068359375;-0.045489501953125;2.48999999371335;250;100 mA
70.9593888208448;-0.9991455078125;-0.0456298828125;2.49999999368811;251;100 mA
70.9693888208195;-0.99945068359375;-0.0456207275390625;2.50999999366286;252;100 mA
70.9793888207943;-0.99945068359375;-0.045697021484375;2.51999999363761;253;100 mA
70.989388820769;-0.9991455078125;-0.045538330078125;2.52999999361236;254;100 mA
70.9993888207438;-0.9991455078125;-0.045611572265625;2.53999999358712;255;100 mA
71.0093888207185;-0.9991455078125;-0.045550537109375;2.54999999356187;256;100 mA
71.0193888206933;-0.99945068359375;-0.0455963134765625;2.55999999353662;257;100 mA
71.029388820668;-0.999755859375;-0.045672607421875;2.56999999351137;258;100 mA
71.0393888206428;-0.99945068359375;-0.0454986572265625;2.57999999348613;259;100 mA
71.0493888206175;-0.9991455078125;-0.0456390380859375;2.58999999346088;260;100 mA
71.0593888205923;-0.9991455078125;-0.0456878662109375;2.59999999343563;261;100 mA
71.069388820567;-0.9991455078125;-0.0457061767578125;2.60999999341038;262;100 mA
71.0793888205418;-0.99945068359375;-0.045758056640625;2.61999999338514;263;100 mA
71.0893888205165;-0.99884033203125;-0.045745849609375;2.62999999335989;264;100 mA
71.0993888204913;-0.99945068359375;-0.04573974609375;2.63999999333464;265;100 mA
71.1093888204661;-0.99884033203125;-0.0458221435546875;2.64999999330939;266;100 mA
71.1193888204408;-0.999755859375;-0.04603271484375;2.65999999328415;267;100 mA
71.1293888204156;-0.99945068359375;-0.0459625244140625;2.6699999932589;268;100 mA
71.1393888203903;-0.99945068359375;-0.0460723876953125;2.67999999323365;269;100 mA
71.1493888203651;-0.99945068359375;-0.04622802734375;2.6899999932084;270;100 mA
71.1593888203398;-0.999755859375;-0.0461273193359375;2.69999999318316;271;100 mA
71.1693888203146;-0.99945068359375;-0.0463592529296875;2.70999999315791;272;100 mA
71.1793888202893;-0.99884033203125;-0.046173095703125;2.71999999313266;273;100 mA
71.1893888202641;-0.99884033203125;-0.0461212158203125;2.72999999310741;274;100 mA
71.1993888202388;-0.999755859375;-0.0462158203125;2.73999999308217;275;100 mA
71.2093888202136;-0.9991455078125;-0.0460662841796875;2.74999999305692;276;100 mA
71.2193888201883;-0.99884033203125;-0.046075439453125;2.75999999303167;277;100 mA
71.2293888201631;-0.99945068359375;-0.0458984375;2.76999999300642;278;100 mA
71.2393888201378;-1.00006103515625;-0.045831298828125;2.77999999298117;279;100 mA
71.2493888201126;-0.99945068359375;-0.04571533203125;2.78999999295593;280;100 mA
71.2593888200873;-0.99945068359375;-0.045703125;2.79999999293068;281;100 mA
71.2693888200621;-0.99945068359375;-0.0456756591796875;2.80999999290543;282;100 mA
71.2793888200368;-0.99945068359375;-0.045538330078125;2.81999999288018;283;100 mA
71.2893888200116;-0.99945068359375;-0.0456878662109375;2.82999999285494;284;100 mA
71.2993888199863;-0.9991455078125;-0.04573974609375;2.83999999282969;285;100 mA
71.3093888199611;-0.99945068359375;-0.0458953857421875;2.84999999280444;286;100 mA
71.3193888199359;-0.99822998046875;-0.046044921875;2.85999999277919;287;100 mA
71.3293888199106;-0.99945068359375;-0.0461456298828125;2.86999999275395;288;100 mA
71.3393888198854;-0.999755859375;-0.04620361328125;2.8799999927287;289;100 mA
71.3493888198601;-0.99945068359375;-0.04630126953125;2.88999999270345;290;100 mA
71.3593888198349;-0.9991455078125;-0.0464752197265625;2.8999999926782;291;100 mA
71.3693888198096;-0.99945068359375;-0.0463409423828125;2.90999999265296;292;100 mA
71.3793888197844;-0.99884033203125;-0.0463836669921875;2.91999999262771;293;100 mA
71.3893888197591;-1.00006103515625;-0.0464080810546875;2.92999999260246;294;100 mA
71.3993888197339;-0.99884033203125;-0.04625244140625;2.93999999257721;295;100 mA
71.4093888197086;-0.99945068359375;-0.0464385986328125;2.94999999255197;296;100 mA
71.4193888196834;-0.99945068359375;-0.046209716796875;2.95999999252672;297;100 mA
71.4293888196581;-0.99945068359375;-0.046160888671875;2.96999999250147;298;100 mA
71.4393888196329;-0.999755859375;-0.04625244140625;2.97999999247622;299;100 mA
71.4493888196076;-0.999755859375;-0.0461181640625;2.98999999245098;300;100 mA
71.4593888195824;-1.00006103515625;-0.0462066650390625;2.99999999242573;301;100 mA
71.4693888195571;-0.9991455078125;-0.0461090087890625;3.00999999240048;302;100 mA
71.4793888195319;-0.99945068359375;-0.04609375;3.01999999237523;303;100 mA
71.4893888195066;-0.99884033203125;-0.046002197265625;3.02999999234999;304;100 mA
71.4993888194814;-0.99945068359375;-0.046051025390625;3.03999999232474;305;100 mA
71.5093888194561;-0.9991455078125;-0.0460113525390625;3.04999999229949;306;100 mA
71.5193888194309;-0.99884033203125;-0.0458038330078125;3.05999999227424;307;100 mA
71.5293888194057;-0.9991455078125;-0.04595947265625;3.069999992249;308;100 mA
71.5393888193804;-0.99945068359375;-0.0458831787109375;3.07999999222375;309;100 mA
71.5493888193552;-0.99945068359375;-0.0459930419921875;3.0899999921985;310;100 mA
71.5593888193299;-0.999755859375;-0.046026611328125;3.09999999217325;311;100 mA
71.5693888193047;-0.9991455078125;-0.0459716796875;3.109999992148;312;100 mA
71.5793888192794;-0.999755859375;-0.0459930419921875;3.11999999212276;313;100 mA
71.5893888192542;-0.9991455078125;-0.0459869384765625;3.12999999209751;314;100 mA
71.5993888192289;-0.99945068359375;-0.0460968017578125;3.13999999207226;315;100 mA
71.6093888192037;-0.99945068359375;-0.0459197998046875;3.14999999204701;316;100 mA
71.6193888191784;-0.999755859375;-0.045941162109375;3.15999999202177;317;100 mA
71.6293888191532;-0.99945068359375;-0.0459564208984375;3.16999999199652;318;100 mA
71.6393888191279;-0.99945068359375;-0.045806884765625;3.17999999197127;319;100 mA
71.6493888191027;-0.99884033203125;-0.0460540771484375;3.18999999194602;320;100 mA
71.6593888190774;-0.99945068359375;-0.0458892822265625;3.19999999192078;321;100 mA
71.6693888190522;-0.9991455078125;-0.0459564208984375;3.20999999189553;322;100 mA
71.6793888190269;-1.00006103515625;-0.046160888671875;3.21999999187028;323;100 mA
71.6893888190017;-0.99945068359375;-0.0460174560546875;3.22999999184503;324;100 mA
71.6993888189764;-0.9991455078125;-0.04615478515625;3.23999999181979;325;100 mA
71.7093888189512;-0.99945068359375;-0.04605712890625;3.24999999179454;326;100 mA
71.7193888189259;-0.999755859375;-0.0460418701171875;3.25999999176929;327;100 mA
71.7293888189007;-0.99884033203125;-0.0461090087890625;3.26999999174404;328;100 mA
71.7393888188755;-0.99945068359375;-0.046221923828125;3.2799999917188;329;100 mA
71.7493888188502;-0.99945068359375;-0.0462188720703125;3.28999999169355;330;100 mA
71.759388818825;-0.99945068359375;-0.0460662841796875;3.2999999916683;331;100 mA
71.7693888187997;-0.99945068359375;-0.0462127685546875;3.30999999164305;332;100 mA
71.7793888187745;-0.999755859375;-0.0460601806640625;3.31999999161781;333;100 mA
71.7893888187492;-0.999755859375;-0.0461090087890625;3.32999999159256;334;100 mA
71.799388818724;-0.9991455078125;-0.0460662841796875;3.33999999156731;335;100 mA
71.8093888186987;-0.999755859375;-0.0459228515625;3.34999999154206;336;100 mA
71.8193888186735;-0.99945068359375;-0.045880126953125;3.35999999151682;337;100 mA
71.8293888186482;-0.9991455078125;-0.04586181640625;3.36999999149157;338;100 mA
71.839388818623;-0.9991455078125;-0.0458831787109375;3.37999999146632;339;100 mA
71.8493888185977;-0.999755859375;-0.04573974609375;3.38999999144107;340;100 mA
71.8593888185725;-0.99945068359375;-0.0457550048828125;3.39999999141583;341;100 mA
71.8693888185472;-0.999755859375;-0.045672607421875;3.40999999139058;342;100 mA
71.879388818522;-0.99884033203125;-0.045599365234375;3.41999999136533;343;100 mA
71.8893888184967;-0.99945068359375;-0.045751953125;3.42999999134008;344;100 mA
71.8993888184715;-0.99945068359375;-0.0455078125;3.43999999131483;345;100 mA
71.9093888184462;-0.99945068359375;-0.0454803466796875;3.44999999128959;346;100 mA
71.919388818421;-0.999755859375;-0.0455902099609375;3.45999999126434;347;100 mA
71.9293888183958;-0.999755859375;-0.04539794921875;3.46999999123909;348;100 mA
71.9393888183705;-0.99884033203125;-0.0455352783203125;3.47999999121384;349;100 mA
71.9493888183453;-0.99884033203125;-0.0454132080078125;3.4899999911886;350;100 mA
71.95938881832;-0.9991455078125;-0.0453277587890625;3.49999999116335;351;100 mA
71.9693888182948;-0.999755859375;-0.045294189453125;3.5099999911381;352;100 mA
71.9793888182695;-0.9991455078125;-0.045294189453125;3.51999999111285;353;100 mA
71.9893888182443;-0.99945068359375;-0.0451873779296875;3.52999999108761;354;100 mA
71.999388818219;-0.9991455078125;-0.0449676513671875;3.53999999106236;355;100 mA
72.0093888181938;-0.9991455078125;-0.04503173828125;3.54999999103711;356;100 mA
72.0193888181685;-0.999755859375;-0.0448394775390625;3.55999999101186;357;100 mA
72.0293888181433;-0.9991455078125;-0.0449005126953125;3.56999999098662;358;100 mA
72.039388818118;-0.99884033203125;-0.0448516845703125;3.57999999096137;359;100 mA
72.0493888180928;-0.99884033203125;-0.044720458984375;3.58999999093612;360;100 mA
72.0593888180675;-0.999755859375;-0.044732666015625;3.59999999091087;361;100 mA
72.0693888180423;-0.9991455078125;-0.04473876953125;3.60999999088563;362;100 mA
72.079388818017;-0.9991455078125;-0.044854736328125;3.61999999086038;363;100 mA
72.0893888179918;-0.99945068359375;-0.0447845458984375;3.62999999083513;364;100 mA
72.0993888179665;-0.9991455078125;-0.0448822021484375;3.63999999080988;365;100 mA
72.1093888179413;-0.9991455078125;-0.044927978515625;3.64999999078464;366;100 mA
72.119388817916;-0.9991455078125;-0.0449920654296875;3.65999999075939;367;100 mA
72.1293888178908;-0.9991455078125;-0.045263671875;3.66999999073414;368;100 mA
72.1393888178656;-0.9991455078125;-0.04512939453125;3.67999999070889;369;100 mA
72.1493888178403;-0.9991455078125;-0.0452606201171875;3.68999999068365;370;100 mA
72.1593888178151;-0.9991455078125;-0.045465087890625;3.6999999906584;371;100 mA
72.1693888177898;-0.99945068359375;-0.0453582763671875;3.70999999063315;372;100 mA
72.1793888177646;-0.9991455078125;-0.0457122802734375;3.7199999906079;373;100 mA
72.1893888177393;-0.999755859375;-0.0457305908203125;3.72999999058266;374;100 mA
72.1993888177141;-0.99945068359375;-0.0458648681640625;3.73999999055741;375;100 mA
72.2093888176888;-0.99945068359375;-0.0460784912109375;3.74999999053216;376;100 mA
72.2193888176636;-0.9991455078125;-0.046240234375;3.75999999050691;377;100 mA
72.2293888176383;-0.999755859375;-0.04635009765625;3.76999999048167;378;100 mA
72.2393888176131;-0.9991455078125;-0.04627685546875;3.77999999045642;379;100 mA
72.2493888175878;-0.9991455078125;-0.0464385986328125;3.78999999043117;380;100 mA
72.2593888175626;-0.999755859375;-0.046319580078125;3.79999999040592;381;100 mA
72.2693888175373;-0.99884033203125;-0.046478271484375;3.80999999038067;382;100 mA
72.2793888175121;-0.999755859375;-0.0464447021484375;3.81999999035543;383;100 mA
72.2893888174868;-0.99945068359375;-0.046331787109375;3.82999999033018;384;100 mA
72.2993888174616;-0.999755859375;-0.046405029296875;3.83999999030493;385;100 mA
72.3093888174363;-0.9991455078125;-0.0463836669921875;3.84999999027968;386;100 mA
72.3193888174111;-0.9991455078125;-0.04642333984375;3.85999999025444;387;100 mA
72.3293888173858;-0.999755859375;-0.0463348388671875;3.86999999022919;388;100 mA
72.3393888173606;-0.999755859375;-0.0462921142578125;3.87999999020394;389;100 mA
72.3493888173354;-0.9991455078125;-0.0462158203125;3.88999999017869;390;100 mA
72.3593888173101;-0.999755859375;-0.0461517333984375;3.89999999015345;391;100 mA
72.3693888172849;-0.999755859375;-0.0462860107421875;3.9099999901282;392;100 mA
72.3793888172596;-0.9991455078125;-0.0460693359375;3.91999999010295;393;100 mA
72.3893888172344;-0.99945068359375;-0.046136474609375;3.9299999900777;394;100 mA
72.3993888172091;-0.9991455078125;-0.0461883544921875;3.93999999005246;395;100 mA
72.4093888171839;-0.99884033203125;-0.046038818359375;3.94999999002721;396;100 mA
72.4193888171586;-0.9991455078125;-0.0462554931640625;3.95999999000196;397;100 mA
72.4293888171334;-0.99945068359375;-0.0461181640625;3.96999998997671;398;100 mA
72.4393888171081;-0.999755859375;-0.0460693359375;3.97999998995147;399;100 mA
72.4493888170829;-0.999755859375;-0.0461822509765625;3.98999998992622;400;100 mA
72.4593888170576;-0.99945068359375;-0.0462554931640625;3.99999998990097;401;100 mA
72.4693888170324;-0.99884033203125;-0.0462921142578125;4.00999998987572;402;100 mA
72.4793888170071;-0.999755859375;-0.04627685546875;4.01999998985048;403;100 mA
72.4893888169819;-0.9991455078125;-0.0464202880859375;4.02999998982523;404;100 mA
72.4993888169566;-0.9991455078125;-0.0463623046875;4.03999998979998;405;100 mA
72.5093888169314;-0.999755859375;-0.0465545654296875;4.04999998977473;406;100 mA
72.5193888169061;-0.999755859375;-0.0464874267578125;4.05999998974949;407;100 mA
72.5293888168809;-0.9991455078125;-0.04639892578125;4.06999998972424;408;100 mA
72.5393888168556;-0.9991455078125;-0.046484375;4.07999998969899;409;100 mA
72.5493888168304;-0.9991455078125;-0.04642333984375;4.08999998967374;410;100 mA
72.5593888168052;-0.9991455078125;-0.0464691162109375;4.0999999896485;411;100 mA
72.5693888167799;-0.9991455078125;-0.0463897705078125;4.10999998962325;412;100 mA
72.5793888167547;-0.99945068359375;-0.04632568359375;4.119999989598;413;100 mA
72.5893888167294;-0.9991455078125;-0.04617919921875;4.12999998957275;414;100 mA
72.5993888167042;-0.99945068359375;-0.0460784912109375;4.1399999895475;415;100 mA
72.6093888166789;-0.9991455078125;-0.0460693359375;4.14999998952226;416;100 mA
72.6193888166537;-0.99884033203125;-0.0457611083984375;4.15999998949701;417;100 mA
72.6293888166284;-0.99884033203125;-0.0457733154296875;4.16999998947176;418;100 mA
72.6393888166032;-0.9991455078125;-0.045654296875;4.17999998944651;419;100 mA
72.6493888165779;-0.9991455078125;-0.0454742431640625;4.18999998942127;420;100 mA
72.6593888165527;-0.9991455078125;-0.045623779296875;4.19999998939602;421;100 mA
72.6693888165274;-0.99945068359375;-0.0454315185546875;4.20999998937077;422;100 mA
72.6793888165022;-0.999755859375;-0.04542236328125;4.21999998934552;423;100 mA
72.6893888164769;-1.0003662109375;-0.04552001953125;4.22999998932028;424;100 mA
72.6993888164517;-0.99945068359375;-0.0454833984375;4.23999998929503;425;100 mA
72.7093888164264;-0.999755859375;-0.0455047607421875;4.24999998926978;426;100 mA
72.7193888164012;-0.9991455078125;-0.04541015625;4.25999998924453;427;100 mA
72.7293888163759;-0.999755859375;-0.0454498291015625;4.26999998921929;428;100 mA
72.7393888163507;-0.999755859375;-0.0453460693359375;4.27999998919404;429;100 mA
72.7493888163254;-0.99945068359375;-0.0454833984375;4.28999998916879;430;100 mA
72.7593888163002;-0.9991455078125;-0.04544677734375;4.29999998914354;431;100 mA
72.769388816275;-0.999755859375;-0.0453369140625;4.3099999891183;432;100 mA
72.7793888162497;-0.999755859375;-0.0455078125;4.31999998909305;433;100 mA
72.7893888162245;-0.9991455078125;-0.0454437255859375;4.3299999890678;434;100 mA
72.7993888161992;-0.9991455078125;-0.0456390380859375;4.33999998904255;435;100 mA
72.809388816174;-0.999755859375;-0.045684814453125;4.34999998901731;436;100 mA
72.8193888161487;-0.999755859375;-0.0457550048828125;4.35999998899206;437;100 mA
72.8293888161235;-0.999755859375;-0.0458953857421875;4.36999998896681;438;100 mA
72.8393888160982;-0.99945068359375;-0.046044921875;4.37999998894156;439;100 mA
72.849388816073;-0.999755859375;-0.0463134765625;4.38999998891632;440;100 mA
72.8593888160477;-0.9991455078125;-0.0463287353515625;4.39999998889107;441;100 mA
72.8693888160225;-0.99884033203125;-0.04664306640625;4.40999998886582;442;100 mA
72.8793888159972;-0.999755859375;-0.0468658447265625;4.41999998884057;443;100 mA
72.889388815972;-0.99945068359375;-0.0469573974609375;4.42999998881533;444;100 mA
72.8993888159467;-0.999755859375;-0.0474029541015625;4.43999998879008;445;100 mA
72.9093888159215;-0.9991455078125;-0.047406005859375;4.44999998876483;446;100 mA
72.9193888158962;-0.99945068359375;-0.0475616455078125;4.45999998873958;447;100 mA
72.929388815871;-0.99945068359375;-0.0478485107421875;4.46999998871433;448;100 mA
72.9393888158457;-0.9991455078125;-0.047845458984375;4.47999998868909;449;100 mA
72.9493888158205;-0.9991455078125;-0.0479766845703125;4.48999998866384;450;100 mA
72.9593888157953;-0.999755859375;-0.0479400634765625;4.49999998863859;451;100 mA
72.96938881577;-0.99945068359375;-0.0479400634765625;4.50999998861334;452;100 mA
72.9793888157448;-0.9991455078125;-0.047930908203125;4.5199999885881;453;100 mA
72.9893888157195;-0.9991455078125;-0.048114013671875;4.52999998856285;454;100 mA
72.9993888156943;-0.999755859375;-0.0480255126953125;4.5399999885376;455;100 mA
73.009388815669;-0.99945068359375;-0.04793701171875;4.54999998851235;456;100 mA
73.0193888156438;-0.9991455078125;-0.0480865478515625;4.55999998848711;457;100 mA
73.0293888156185;-0.99884033203125;-0.0479522705078125;4.56999998846186;458;100 mA
73.0393888155933;-0.99945068359375;-0.04813232421875;4.57999998843661;459;100 mA
73.049388815568;-0.99884033203125;-0.0480987548828125;4.58999998841136;460;100 mA
73.0593888155428;-0.99945068359375;-0.0481231689453125;4.59999998838612;461;100 mA
73.0693888155175;-0.99945068359375;-0.048162841796875;4.60999998836087;462;100 mA
73.0793888154923;-0.999755859375;-0.048175048828125;4.61999998833562;463;100 mA
73.089388815467;-0.99945068359375;-0.0482696533203125;4.62999998831037;464;100 mA
73.0993888154418;-0.9991455078125;-0.048089599609375;4.63999998828513;465;100 mA
73.1093888154165;-0.99945068359375;-0.048150634765625;4.64999998825988;466;100 mA
73.1193888153913;-0.99945068359375;-0.0480377197265625;4.65999998823463;467;100 mA
73.129388815366;-0.99884033203125;-0.0478607177734375;4.66999998820938;468;100 mA
73.1393888153408;-0.9991455078125;-0.0479339599609375;4.67999998818414;469;100 mA
73.1493888153155;-0.99853515625;-0.0475799560546875;4.68999998815889;470;100 mA
73.1593888152903;-0.9991455078125;-0.0474365234375;4.69999998813364;471;100 mA
73.1693888152651;-0.9991455078125;-0.0473968505859375;4.70999998810839;472;100 mA
73.1793888152398;-0.999755859375;-0.0471893310546875;4.71999998808315;473;100 mA
73.1893888152146;-0.999755859375;-0.0471466064453125;4.7299999880579;474;100 mA
73.1993888151893;-0.9991455078125;-0.0469573974609375;4.73999998803265;475;100 mA
73.2093888151641;-0.999755859375;-0.046759033203125;4.7499999880074;476;100 mA
73.2193888151388;-0.9991455078125;-0.0466033935546875;4.75999998798216;477;100 mA
73.2293888151136;-0.999755859375;-0.0466552734375;4.76999998795691;478;100 mA
73.2393888150883;-0.99884033203125;-0.0464111328125;4.77999998793166;479;100 mA
73.2493888150631;-0.99945068359375;-0.04619140625;4.78999998790641;480;100 mA
73.2593888150378;-0.9991455078125;-0.0462188720703125;4.79999998788116;481;100 mA
73.2693888150126;-0.999755859375;-0.045947265625;4.80999998785592;482;100 mA
73.2793888149873;-0.99945068359375;-0.046051025390625;4.81999998783067;483;100 mA
73.2893888149621;-1.00006103515625;-0.0458709716796875;4.82999998780542;484;100 mA
73.2993888149368;-0.99945068359375;-0.04573974609375;4.83999998778017;485;100 mA
73.3093888149116;-0.99945068359375;-0.04569091796875;4.84999998775493;486;100 mA
73.3193888148863;-0.9991455078125;-0.04559326171875;4.85999998772968;487;100 mA
73.3293888148611;-0.9991455078125;-0.0455780029296875;4.86999998770443;488;100 mA
73.3393888148358;-0.99945068359375;-0.04534912109375;4.87999998767918;489;100 mA
73.3493888148106;-0.99945068359375;-0.0453704833984375;4.88999998765394;490;100 mA
73.3593888147853;-0.9991455078125;-0.045233154296875;4.89999998762869;491;100 mA
73.3693888147601;-0.99945068359375;-0.04515380859375;4.90999998760344;492;100 mA
73.3793888147349;-0.9991455078125;-0.0452850341796875;4.91999998757819;493;100 mA
73.3893888147096;-0.999755859375;-0.0449981689453125;4.92999998755295;494;100 mA
73.3993888146844;-0.9991455078125;-0.0449981689453125;4.9399999875277;495;100 mA
73.4093888146591;-0.99945068359375;-0.0450469970703125;4.94999998750245;496;100 mA
73.4193888146339;-0.9991455078125;-0.0449188232421875;4.9599999874772;497;100 mA
73.4293888146086;-0.99945068359375;-0.0450592041015625;4.96999998745196;498;100 mA
73.4393888145834;-0.9991455078125;-0.0449615478515625;4.97999998742671;499;100 mA
73.4493888145581;-0.99945068359375;-0.04495849609375;4.98999998740146;500;100 mA
73.4593888145329;-0.99945068359375;-0.04501953125;4.99999998737621;501;100 mA
73.4693888145076;-0.99945068359375;-0.0452117919921875;5.00999998735097;502;100 mA
73.4793888144824;-0.99945068359375;-0.0451690673828125;5.01999998732572;503;100 mA
73.4893888144571;-0.99945068359375;-0.0451080322265625;5.02999998730047;504;100 mA
73.4993888144319;-1.00006103515625;-0.0452392578125;5.03999998727522;505;100 mA
73.5093888144066;-0.999755859375;-0.0450225830078125;5.04999998724998;506;100 mA
73.5193888143814;-0.99945068359375;-0.0452178955078125;5.05999998722473;507;100 mA
73.5293888143561;-0.99945068359375;-0.0450897216796875;5.06999998719948;508;100 mA
73.5393888143309;-0.999755859375;-0.0449981689453125;5.07999998717423;509;100 mA
73.5493888143056;-0.9991455078125;-0.045050048828125;5.08999998714899;510;100 mA
73.5593888142804;-0.99945068359375;-0.0450408935546875;5.09999998712374;511;100 mA
73.5693888142551;-0.9991455078125;-0.0451080322265625;5.10999998709849;512;100 mA
73.5793888142299;-0.999755859375;-0.0450042724609375;5.11999998707324;513;100 mA
73.5893888142047;-0.9991455078125;-0.0450439453125;5.129999987048;514;100 mA
73.5993888141794;-0.9991455078125;-0.04498291015625;5.13999998702275;515;100 mA
73.6093888141542;-0.99945068359375;-0.044970703125;5.1499999869975;516;100 mA
73.6193888141289;-0.99945068359375;-0.04508056640625;5.15999998697225;517;100 mA
73.6293888141037;-0.99945068359375;-0.0448028564453125;5.169999986947;518;100 mA
73.6393888140784;-0.9991455078125;-0.044805908203125;5.17999998692176;519;100 mA
73.6493888140532;-0.999755859375;-0.04482421875;5.18999998689651;520;100 mA
73.6593888140279;-0.99884033203125;-0.0447052001953125;5.19999998687126;521;100 mA
73.6693888140027;-0.9991455078125;-0.0447540283203125;5.20999998684601;522;100 mA
73.6793888139774;-0.999755859375;-0.0446075439453125;5.21999998682077;523;100 mA
73.6893888139522;-0.9991455078125;-0.0445068359375;5.22999998679552;524;100 mA
73.6993888139269;-0.99945068359375;-0.044451904296875;5.23999998677027;525;100 mA
73.7093888139017;-0.99945068359375;-0.04451904296875;5.24999998674502;526;100 mA
73.7193888138764;-1.00006103515625;-0.044329833984375;5.25999998671978;527;100 mA
73.7293888138512;-0.999755859375;-0.0442474365234375;5.26999998669453;528;100 mA
73.7393888138259;-0.99884033203125;-0.0442657470703125;5.27999998666928;529;100 mA
73.7493888138007;-0.9991455078125;-0.044110107421875;5.28999998664403;530;100 mA
73.7593888137754;-0.99945068359375;-0.0443878173828125;5.29999998661879;531;100 mA
73.7693888137502;-0.9991455078125;-0.0442657470703125;5.30999998659354;532;100 mA
73.7793888137249;-0.999755859375;-0.044268798828125;5.31999998656829;533;100 mA
73.7893888136997;-0.9991455078125;-0.04439697265625;5.32999998654304;534;100 mA
73.7993888136745;-0.9991455078125;-0.0443603515625;5.3399999865178;535;100 mA
73.8093888136492;-0.999755859375;-0.0445526123046875;5.34999998649255;536;100 mA
73.819388813624;-0.9991455078125;-0.044537353515625;5.3599999864673;537;100 mA
73.8293888135987;-0.9991455078125;-0.04468994140625;5.36999998644205;538;100 mA
73.8393888135735;-0.9991455078125;-0.04473876953125;5.37999998641681;539;100 mA
73.8493888135482;-0.99945068359375;-0.044879150390625;5.38999998639156;540;100 mA
73.859388813523;-0.99945068359375;-0.0451385498046875;5.39999998636631;541;100 mA
73.8693888134977;-0.999755859375;-0.045068359375;5.40999998634106;542;100 mA
73.8793888134725;-0.99945068359375;-0.0452911376953125;5.41999998631582;543;100 mA
73.8893888134472;-0.9991455078125;-0.0454315185546875;5.42999998629057;544;100 mA
73.899388813422;-0.99945068359375;-0.0454254150390625;5.43999998626532;545;100 mA
73.9093888133967;-0.99945068359375;-0.0456329345703125;5.44999998624007;546;100 mA
73.9193888133715;-0.999755859375;-0.045538330078125;5.45999998621483;547;100 mA
73.9293888133462;-0.9991455078125;-0.0455230712890625;5.46999998618958;548;100 mA
73.939388813321;-0.99945068359375;-0.04559326171875;5.47999998616433;549;100 mA
73.9493888132957;-0.9991455078125;-0.0457305908203125;5.48999998613908;550;100 mA
73.9593888132705;-0.9991455078125;-0.04569091796875;5.49999998611383;551;100 mA
73.9693888132452;-0.99945068359375;-0.0457000732421875;5.50999998608859;552;100 mA
73.97938881322;-0.999755859375;-0.04578857421875;5.51999998606334;553;100 mA
73.9893888131948;-0.99945068359375;-0.04569091796875;5.52999998603809;554;100 mA
73.9993888131695;-1.00006103515625;-0.0459930419921875;5.53999998601284;555;100 mA
74.0093888131443;-0.999755859375;-0.0459075927734375;5.5499999859876;556;100 mA
74.019388813119;-1.00006103515625;-0.045928955078125;5.55999998596235;557;100 mA
74.0293888130938;-0.99945068359375;-0.0461517333984375;5.5699999859371;558;100 mA
74.0393888130685;-1.00006103515625;-0.0461181640625;5.57999998591185;559;100 mA
74.0493888130433;-0.999755859375;-0.0463226318359375;5.58999998588661;560;100 mA
74.059388813018;-0.99945068359375;-0.0462982177734375;5.59999998586136;561;100 mA
74.0693888129928;-0.9991455078125;-0.0464080810546875;5.60999998583611;562;100 mA
74.0793888129675;-0.99945068359375;-0.0464508056640625;5.61999998581086;563;100 mA
74.0893888129423;-0.99945068359375;-0.0465240478515625;5.62999998578562;564;100 mA
74.099388812917;-0.99945068359375;-0.0466705322265625;5.63999998576037;565;100 mA
74.1093888128918;-0.999755859375;-0.046490478515625;5.64999998573512;566;100 mA
74.1193888128665;-0.99945068359375;-0.0466705322265625;5.65999998570987;567;100 mA
74.1293888128413;-0.9991455078125;-0.0467010498046875;5.66999998568463;568;100 mA
74.139388812816;-0.9991455078125;-0.046630859375;5.67999998565938;569;100 mA
74.1493888127908;-0.99884033203125;-0.0468353271484375;5.68999998563413;570;100 mA
74.1593888127655;-0.999755859375;-0.0467071533203125;5.69999998560888;571;100 mA
74.1693888127403;-0.9991455078125;-0.0467254638671875;5.70999998558364;572;100 mA
74.179388812715;-0.99945068359375;-0.0468231201171875;5.71999998555839;573;100 mA
74.1893888126898;-0.99945068359375;-0.0468658447265625;5.72999998553314;574;100 mA
74.1993888126646;-0.9991455078125;-0.0468597412109375;5.73999998550789;575;100 mA
74.2093888126393;-0.99945068359375;-0.0468536376953125;5.74999998548265;576;100 mA
74.2193888126141;-0.99945068359375;-0.046856689453125;5.7599999854574;577;100 mA
74.2293888125888;-0.9991455078125;-0.046728515625;5.76999998543215;578;100 mA
74.2393888125636;-0.9991455078125;-0.0469390869140625;5.7799999854069;579;100 mA
74.2493888125383;-0.99945068359375;-0.046734619140625;5.78999998538166;580;100 mA
74.2593888125131;-0.9991455078125;-0.0466522216796875;5.79999998535641;581;100 mA
74.2693888124878;-0.99945068359375;-0.04676513671875;5.80999998533116;582;100 mA
74.2793888124626;-0.99945068359375;-0.046588134765625;5.81999998530591;583;100 mA
74.2893888124373;-0.9991455078125;-0.046630859375;5.82999998528066;584;100 mA
74.2993888124121;-0.9991455078125;-0.0464813232421875;5.83999998525542;585;100 mA
74.3093888123868;-0.9991455078125;-0.04644775390625;5.84999998523017;586;100 mA
74.3193888123616;-0.99945068359375;-0.0463592529296875;5.85999998520492;587;100 mA
74.3293888123363;-0.99945068359375;-0.0463592529296875;5.86999998517967;588;100 mA
74.3393888123111;-0.99945068359375;-0.0463592529296875;5.87999998515443;589;100 mA
74.3493888122858;-0.9991455078125;-0.0461181640625;5.88999998512918;590;100 mA
74.3593888122606;-1.00006103515625;-0.0462310791015625;5.89999998510393;591;100 mA
74.3693888122353;-0.9991455078125;-0.046124267578125;5.90999998507868;592;100 mA
74.3793888122101;-0.99945068359375;-0.0461151123046875;5.91999998505344;593;100 mA
74.3893888121848;-0.999755859375;-0.046221923828125;5.92999998502819;594;100 mA
74.3993888121596;-0.999755859375;-0.0460296630859375;5.93999998500294;595;100 mA
74.4093888121344;-0.99884033203125;-0.046063232421875;5.94999998497769;596;100 mA
74.4193888121091;-0.999755859375;-0.0460968017578125;5.95999998495245;597;100 mA
74.4293888120839;-0.999755859375;-0.0461273193359375;5.9699999849272;598;100 mA
74.4393888120586;-0.99884033203125;-0.0461029052734375;5.97999998490195;599;100 mA
74.4493888120334;-0.99945068359375;-0.0461273193359375;5.9899999848767;600;100 mA
74.4593888120081;-0.9991455078125;-0.04617919921875;5.99999998485146;601;100 mA
74.4693888119829;-0.9991455078125;-0.046136474609375;6.00999998482621;602;100 mA
74.4793888119576;-0.999755859375;-0.046417236328125;6.01999998480096;603;100 mA
74.4893888119324;-0.999755859375;-0.0462982177734375;6.02999998477571;604;100 mA
74.4993888119071;-0.9991455078125;-0.046307373046875;6.03999998475047;605;100 mA
74.5093888118819;-0.9991455078125;-0.046527099609375;6.04999998472522;606;100 mA
74.5193888118566;-0.9991455078125;-0.0464630126953125;6.05999998469997;607;100 mA
74.5293888118314;-0.99945068359375;-0.0465728759765625;6.06999998467472;608;100 mA
74.5393888118061;-0.999755859375;-0.046466064453125;6.07999998464948;609;100 mA
74.5493888117809;-0.99945068359375;-0.0464508056640625;6.08999998462423;610;100 mA
74.5593888117556;-0.9991455078125;-0.0464874267578125;6.09999998459898;611;100 mA
74.5693888117304;-0.99945068359375;-0.046484375;6.10999998457373;612;100 mA
74.5793888117051;-0.9991455078125;-0.0465545654296875;6.11999998454849;613;100 mA
74.5893888116799;-0.999755859375;-0.0463775634765625;6.12999998452324;614;100 mA
74.5993888116546;-0.9991455078125;-0.0465118408203125;6.13999998449799;615;100 mA
74.6093888116294;-0.999755859375;-0.0464447021484375;6.14999998447274;616;100 mA
74.6193888116042;-0.99945068359375;-0.0464324951171875;6.1599999844475;617;100 mA
74.6293888115789;-0.99945068359375;-0.0465301513671875;6.16999998442225;618;100 mA
74.6393888115537;-0.99945068359375;-0.046319580078125;6.179999984397;619;100 mA
74.6493888115284;-0.9991455078125;-0.04637451171875;6.18999998437175;620;100 mA
74.6593888115032;-1.00006103515625;-0.0464569091796875;6.1999999843465;621;100 mA
74.6693888114779;-0.9991455078125;-0.04644775390625;6.20999998432126;622;100 mA
74.6793888114527;-1.00006103515625;-0.04644775390625;6.21999998429601;623;100 mA
74.6893888114274;-0.9991455078125;-0.046356201171875;6.22999998427076;624;100 mA
74.6993888114022;-0.9991455078125;-0.0462432861328125;6.23999998424551;625;100 mA
74.7093888113769;-0.9991455078125;-0.046075439453125;6.24999998422027;626;100 mA
74.7193888113517;-0.99945068359375;-0.0462432861328125;6.25999998419502;627;100 mA
74.7293888113264;-0.99945068359375;-0.0460113525390625;6.26999998416977;628;100 mA
74.7393888113012;-0.99945068359375;-0.0459381103515625;6.27999998414452;629;100 mA
74.7493888112759;-0.99945068359375;-0.046112060546875;6.28999998411928;630;100 mA
74.7593888112507;-0.99945068359375;-0.045947265625;6.29999998409403;631;100 mA
74.7693888112254;-0.9991455078125;-0.0461944580078125;6.30999998406878;632;100 mA
74.7793888112002;-0.999755859375;-0.0461395263671875;6.31999998404353;633;100 mA
74.7893888111749;-1.00006103515625;-0.0461639404296875;6.32999998401829;634;100 mA
74.7993888111497;-0.99945068359375;-0.0462554931640625;6.33999998399304;635;100 mA
74.8093888111244;-0.99945068359375;-0.0462738037109375;6.34999998396779;636;100 mA
74.8193888110992;-0.999755859375;-0.0463470458984375;6.35999998394254;637;100 mA
74.829388811074;-0.9991455078125;-0.0462127685546875;6.3699999839173;638;100 mA
74.8393888110487;-0.9991455078125;-0.0463165283203125;6.37999998389205;639;100 mA
74.8493888110235;-0.99945068359375;-0.04625244140625;6.3899999838668;640;100 mA
74.8593888109982;-0.99945068359375;-0.0462799072265625;6.39999998384155;641;100 mA
74.869388810973;-0.999755859375;-0.046356201171875;6.40999998381631;642;100 mA
74.8793888109477;-0.9991455078125;-0.046160888671875;6.41999998379106;643;100 mA
74.8893888109225;-0.9991455078125;-0.046221923828125;6.42999998376581;644;100 mA
74.8993888108972;-0.999755859375;-0.0462646484375;6.43999998374056;645;100 mA
74.909388810872;-0.9991455078125;-0.04630126953125;6.44999998371532;646;100 mA
74.9193888108467;-0.999755859375;-0.0463592529296875;6.45999998369007;647;100 mA
74.9293888108215;-0.99945068359375;-0.0464263916015625;6.46999998366482;648;100 mA
74.9393888107962;-0.99945068359375;-0.046435546875;6.47999998363957;649;100 mA
74.949388810771;-0.99945068359375;-0.0464874267578125;6.48999998361433;650;100 mA
74.9593888107457;-0.99945068359375;-0.0468048095703125;6.49999998358908;651;100 mA
74.9693888107205;-0.999755859375;-0.046685791015625;6.50999998356383;652;100 mA
74.9793888106952;-0.999755859375;-0.0467742919921875;6.51999998353858;653;100 mA
74.98938881067;-0.999755859375;-0.04693603515625;6.52999998351333;654;100 mA
74.9993888106447;-0.99945068359375;-0.0467620849609375;6.53999998348809;655;100 mA
75.0093888106195;-0.99945068359375;-0.047100830078125;6.54999998346284;656;100 mA
75.0193888105943;-0.9991455078125;-0.0470001220703125;6.55999998343759;657;100 mA
75.029388810569;-0.9991455078125;-0.0470855712890625;6.56999998341234;658;100 mA
75.0393888105438;-0.9991455078125;-0.04720458984375;6.5799999833871;659;100 mA
75.0493888105185;-0.999755859375;-0.0471405029296875;6.58999998336185;660;100 mA
75.0593888104933;-0.99945068359375;-0.0472076416015625;6.5999999833366;661;100 mA
75.069388810468;-0.9991455078125;-0.0469940185546875;6.60999998331135;662;100 mA
75.0793888104428;-0.99945068359375;-0.04700927734375;6.61999998328611;663;100 mA
75.0893888104175;-0.999755859375;-0.046868896484375;6.62999998326086;664;100 mA
75.0993888103923;-0.99945068359375;-0.0468597412109375;6.63999998323561;665;100 mA
75.109388810367;-0.99945068359375;-0.0469024658203125;6.64999998321036;666;100 mA
75.1193888103418;-0.99945068359375;-0.046710205078125;6.65999998318512;667;100 mA
75.1293888103165;-0.999755859375;-0.0467926025390625;6.66999998315987;668;100 mA
75.1393888102913;-0.99884033203125;-0.0468475341796875;6.67999998313462;669;100 mA
75.149388810266;-0.99945068359375;-0.046875;6.68999998310937;670;100 mA
75.1593888102408;-0.999755859375;-0.046966552734375;6.69999998308413;671;100 mA
75.1693888102155;-0.99945068359375;-0.04696044921875;6.70999998305888;672;100 mA
75.1793888101903;-0.9991455078125;-0.0469207763671875;6.71999998303363;673;100 mA
75.189388810165;-0.999755859375;-0.0468963623046875;6.72999998300838;674;100 mA
75.1993888101398;-0.99945068359375;-0.047064208984375;6.73999998298314;675;100 mA
75.2093888101145;-0.9991455078125;-0.0468414306640625;6.74999998295789;676;100 mA
75.2193888100893;-0.9991455078125;-0.0468841552734375;6.75999998293264;677;100 mA
75.2293888100641;-0.99945068359375;-0.0470001220703125;6.76999998290739;678;100 mA
75.2393888100388;-0.99945068359375;-0.0467926025390625;6.77999998288215;679;100 mA
75.2493888100136;-1.00006103515625;-0.04708251953125;6.7899999828569;680;100 mA
75.2593888099883;-0.9991455078125;-0.0468994140625;6.79999998283165;681;100 mA
75.2693888099631;-0.99884033203125;-0.046905517578125;6.8099999828064;682;100 mA
75.2793888099378;-0.999755859375;-0.047015380859375;6.81999998278116;683;100 mA
75.2893888099126;-0.9991455078125;-0.0468902587890625;6.82999998275591;684;100 mA
75.2993888098873;-0.99945068359375;-0.0469818115234375;6.83999998273066;685;100 mA
75.3093888098621;-0.99945068359375;-0.0468353271484375;6.84999998270541;686;100 mA
75.3193888098368;-0.999755859375;-0.046856689453125;6.85999998268016;687;100 mA
75.3293888098116;-0.999755859375;-0.0467987060546875;6.86999998265492;688;100 mA
75.3393888097863;-0.9991455078125;-0.0467529296875;6.87999998262967;689;100 mA
75.3493888097611;-0.99945068359375;-0.046771240234375;6.88999998260442;690;100 mA
75.3593888097358;-0.999755859375;-0.0465179443359375;6.89999998257917;691;100 mA
75.3693888097106;-0.99945068359375;-0.0465850830078125;6.90999998255393;692;100 mA
75.3793888096853;-1.00006103515625;-0.04652099609375;6.91999998252868;693;100 mA
75.3893888096601;-0.99945068359375;-0.0464324951171875;6.92999998250343;694;100 mA
75.3993888096348;-1.00006103515625;-0.0464324951171875;6.93999998247818;695;100 mA
75.4093888096096;-0.999755859375;-0.0462982177734375;6.94999998245294;696;100 mA
75.4193888095843;-0.99945068359375;-0.0461334228515625;6.95999998242769;697;100 mA
75.4293888095591;-0.9991455078125;-0.046038818359375;6.96999998240244;698;100 mA
75.4393888095339;-0.9991455078125;-0.046026611328125;6.97999998237719;699;100 mA
75.4493888095086;-0.99884033203125;-0.045709228515625;6.98999998235195;700;100 mA
