Time (s);WE(1).Potential (V);WE(1).Current (A);Corrected time (s);Index;Current range
0.484163998777603;0.400482177734375;0.0118621826171875;0;1;100 mA
0.494163998752356;0.400482177734375;0.0085693359375;0.00999999997475243;2;100 mA
0.504163998727108;0.40057373046875;0.006842041015625;0.0199999999495049;3;100 mA
0.514163998701861;0.40045166015625;0.00576171875;0.0299999999242573;4;100 mA
0.524163998676613;0.400604248046875;0.004986572265625;0.0399999998990097;5;100 mA
0.534163998651366;0.4005126953125;0.0043792724609375;0.0499999998737621;6;100 mA
0.544163998626118;0.400604248046875;0.00395355224609375;0.0599999998485146;7;100 mA
0.55416399860087;0.4005126953125;0.00360443115234375;0.069999999823267;8;100 mA
0.564163998575623;0.4005126953125;0.00332305908203125;0.0799999997980194;9;100 mA
0.574163998550375;0.400543212890625;0.00311920166015625;0.0899999997727718;10;100 mA
0.584163998525128;0.400543212890625;0.00290374755859375;0.0999999997475243;11;100 mA
0.59416399849988;0.40057373046875;0.0027386474609375;0.109999999722277;12;100 mA
0.604163998474633;0.400604248046875;0.002568359375;0.119999999697029;13;100 mA
0.614163998449385;0.400604248046875;0.00242706298828125;0.129999999671782;14;100 mA
0.624163998424137;0.400543212890625;0.002327880859375;0.139999999646534;15;100 mA
0.63416399839889;0.40057373046875;0.00222900390625;0.149999999621286;16;100 mA
0.644163998373642;0.400482177734375;0.00214263916015625;0.159999999596039;17;100 mA
0.654163998348395;0.400665283203125;0.002044677734375;0.169999999570791;18;100 mA
0.664163998323147;0.400665283203125;0.00195068359375;0.179999999545544;19;100 mA
0.6741639982979;0.400665283203125;0.00189208984375;0.189999999520296;20;100 mA
0.684163998272652;0.40045166015625;0.00181549072265625;0.199999999495049;21;100 mA
0.694163998247404;0.40057373046875;0.00178009033203125;0.209999999469801;22;100 mA
0.704163998222157;0.4005126953125;0.00171600341796875;0.219999999444553;23;100 mA
0.714163998196909;0.400604248046875;0.00167449951171875;0.229999999419306;24;100 mA
0.724163998171662;0.40057373046875;0.00161895751953125;0.239999999394058;25;100 mA
0.734163998146414;0.400634765625;0.0015625;0.249999999368811;26;100 mA
0.744163998121167;0.40057373046875;0.0015191650390625;0.259999999343563;27;100 mA
0.754163998095919;0.400543212890625;0.00149261474609375;0.269999999318316;28;100 mA
0.764163998070671;0.400482177734375;0.00145294189453125;0.279999999293068;29;100 mA
0.774163998045424;0.400543212890625;0.0014227294921875;0.28999999926782;30;100 mA
0.784163998020176;0.4005126953125;0.0013677978515625;0.299999999242573;31;100 mA
0.794163997994929;0.40057373046875;0.00134765625;0.309999999217325;32;100 mA
0.804163997969681;0.400634765625;0.001341552734375;0.319999999192078;33;100 mA
0.814163997944434;0.400604248046875;0.00130218505859375;0.32999999916683;34;100 mA
0.824163997919186;0.40057373046875;0.00128326416015625;0.339999999141583;35;100 mA
0.834163997893938;0.400543212890625;0.00123931884765625;0.349999999116335;36;100 mA
0.844163997868691;0.40057373046875;0.001214599609375;0.359999999091087;37;100 mA
0.854163997843443;0.40057373046875;0.00118988037109375;0.36999999906584;38;100 mA
0.864163997818196;0.400634765625;0.00116546630859375;0.379999999040592;39;100 mA
0.874163997792948;0.400543212890625;0.00118072509765625;0.389999999015345;40;100 mA
0.8841639977677;0.400665283203125;0.0011419677734375;0.399999998990097;41;100 mA
0.894163997742453;0.40057373046875;0.0011260986328125;0.40999999896485;42;100 mA
0.904163997717205;0.400604248046875;0.001090087890625;0.419999998939602;43;100 mA
0.914163997691958;0.4005126953125;0.00106658935546875;0.429999998914354;44;100 mA
0.92416399766671;0.400604248046875;0.0010699462890625;0.439999998889107;45;100 mA
0.934163997641463;0.4005126953125;0.00105438232421875;0.449999998863859;46;100 mA
0.944163997616215;0.400543212890625;0.0010626220703125;0.459999998838612;47;100 mA
0.954163997590967;0.400634765625;0.00102508544921875;0.469999998813364;48;100 mA
0.96416399756572;0.400726318359375;0.00099456787109375;0.479999998788116;49;100 mA
0.974163997540472;0.400482177734375;0.00098907470703125;0.489999998762869;50;100 mA
0.984163997515225;0.40057373046875;0.0009716796875;0.499999998737621;51;100 mA
0.994163997489977;0.40057373046875;0.00098724365234375;0.509999998712374;52;100 mA
1.00416399746473;0.400543212890625;0.0009735107421875;0.519999998687126;53;100 mA
1.01416399743948;0.400634765625;0.000946655273437499;0.529999998661879;54;100 mA
1.02416399741423;0.400604248046875;0.000928649902343751;0.539999998636631;55;100 mA
1.03416399738899;0.400543212890625;0.0009075927734375;0.549999998611383;56;100 mA
1.04416399736374;0.400482177734375;0.0009075927734375;0.559999998586136;57;100 mA
1.05416399733849;0.40057373046875;0.000910034179687499;0.569999998560888;58;100 mA
1.06416399731324;0.400543212890625;0.00089691162109375;0.579999998535641;59;100 mA
1.074163997288;0.400634765625;0.00088775634765625;0.589999998510393;60;100 mA
1.08416399726275;0.4005126953125;0.000861511230468751;0.599999998485146;61;100 mA
1.0941639972375;0.400665283203125;0.000856628417968749;0.609999998459898;62;100 mA
1.10416399721225;0.400482177734375;0.000855712890625;0.61999999843465;63;100 mA
1.11416399718701;0.4005126953125;0.000850524902343749;0.629999998409403;64;100 mA
1.12416399716176;0.400543212890625;0.0008526611328125;0.639999998384155;65;100 mA
1.13416399713651;0.40057373046875;0.0008282470703125;0.649999998358908;66;100 mA
1.14416399711126;0.400604248046875;0.000816650390625;0.65999999833366;67;100 mA
1.15416399708602;0.4007568359375;0.000803527832031251;0.669999998308413;68;100 mA
1.16416399706077;0.40057373046875;0.00079925537109375;0.679999998283165;69;100 mA
1.17416399703552;0.400604248046875;0.00081329345703125;0.689999998257917;70;100 mA
1.18416399701027;0.400482177734375;0.00079681396484375;0.69999999823267;71;100 mA
1.19416399698503;0.400634765625;0.0007965087890625;0.709999998207422;72;100 mA
1.20416399695978;0.400604248046875;0.00077056884765625;0.719999998182175;73;100 mA
1.21416399693453;0.40057373046875;0.000765380859375001;0.729999998156927;74;100 mA
1.22416399690928;0.400543212890625;0.000769958496093751;0.73999999813168;75;100 mA
1.23416399688404;0.40057373046875;0.00076141357421875;0.749999998106432;76;100 mA
1.24416399685879;0.400482177734375;0.00076873779296875;0.759999998081184;77;100 mA
1.25416399683354;0.40057373046875;0.000755920410156249;0.769999998055937;78;100 mA
1.26416399680829;0.400665283203125;0.000736389160156251;0.779999998030689;79;100 mA
1.27416399678305;0.40057373046875;0.0007354736328125;0.789999998005442;80;100 mA
1.2841639967578;0.400634765625;0.000727233886718751;0.799999997980194;81;100 mA
1.29416399673255;0.400543212890625;0.00073516845703125;0.809999997954947;82;100 mA
1.3041639967073;0.40057373046875;0.000733642578125;0.819999997929699;83;100 mA
1.31416399668205;0.4005126953125;0.000721130371093751;0.829999997904451;84;100 mA
1.32416399665681;0.400543212890625;0.000710144042968749;0.839999997879204;85;100 mA
1.33416399663156;0.4005126953125;0.0006927490234375;0.849999997853956;86;100 mA
1.34416399660631;0.400604248046875;0.000701904296875;0.859999997828709;87;100 mA
1.35416399658106;0.400543212890625;0.00070648193359375;0.869999997803461;88;100 mA
1.36416399655582;0.400634765625;0.00070037841796875;0.879999997778214;89;100 mA
1.37416399653057;0.400604248046875;0.0006988525390625;0.889999997752966;90;100 mA
1.38416399650532;0.400604248046875;0.00067657470703125;0.899999997727718;91;100 mA
1.39416399648007;0.4005126953125;0.00067718505859375;0.909999997702471;92;100 mA
1.40416399645483;0.400482177734375;0.00067626953125;0.919999997677223;93;100 mA
1.41416399642958;0.400543212890625;0.00067779541015625;0.929999997651976;94;100 mA
1.42416399640433;0.400604248046875;0.000684509277343751;0.939999997626728;95;100 mA
1.43416399637908;0.40057373046875;0.00066558837890625;0.949999997601481;96;100 mA
1.44416399635384;0.400665283203125;0.00065765380859375;0.959999997576233;97;100 mA
1.45416399632859;0.4005126953125;0.0006500244140625;0.969999997550985;98;100 mA
1.46416399630334;0.4005126953125;0.00064697265625;0.979999997525738;99;100 mA
1.47416399627809;0.40057373046875;0.00065765380859375;0.98999999750049;100;100 mA
1.48416399625285;0.400543212890625;0.000650939941406251;0.999999997475243;101;100 mA
1.4941639962276;0.400604248046875;0.00065032958984375;1.00999999745;102;100 mA
1.50416399620235;0.40069580078125;0.00063446044921875;1.01999999742475;103;100 mA
1.5141639961771;0.400543212890625;0.000626525878906251;1.0299999973995;104;100 mA
1.52416399615186;0.40045166015625;0.0006390380859375;1.03999999737425;105;100 mA
1.53416399612661;0.400543212890625;0.000626525878906251;1.049999997349;106;100 mA
1.54416399610136;0.4005126953125;0.00063201904296875;1.05999999732376;107;100 mA
1.55416399607611;0.400634765625;0.000623779296875;1.06999999729851;108;100 mA
1.56416399605087;0.400604248046875;0.00061004638671875;1.07999999727326;109;100 mA
1.57416399602562;0.400665283203125;0.0006121826171875;1.08999999724801;110;100 mA
1.58416399600037;0.400482177734375;0.00060699462890625;1.09999999722277;111;100 mA
1.59416399597512;0.400604248046875;0.00060760498046875;1.10999999719752;112;100 mA
1.60416399594988;0.40045166015625;0.000617370605468751;1.11999999717227;113;100 mA
1.61416399592463;0.400665283203125;0.000604248046875;1.12999999714702;114;100 mA
1.62416399589938;0.400634765625;0.00059326171875;1.13999999712178;115;100 mA
1.63416399587413;0.400604248046875;0.00058624267578125;1.14999999709653;116;100 mA
1.64416399584888;0.40045166015625;0.000597229003906249;1.15999999707128;117;100 mA
1.65416399582364;0.40057373046875;0.000599060058593751;1.16999999704603;118;100 mA
1.66416399579839;0.400543212890625;0.00059844970703125;1.17999999702079;119;100 mA
1.67416399577314;0.400634765625;0.0005999755859375;1.18999999699554;120;100 mA
1.68416399574789;0.400604248046875;0.000578918457031249;1.19999999697029;121;100 mA
1.69416399572265;0.400634765625;0.000575866699218749;1.20999999694504;122;100 mA
1.7041639956974;0.40057373046875;0.000587158203125;1.2199999969198;123;100 mA
1.71416399567215;0.40057373046875;0.000577697753906251;1.22999999689455;124;100 mA
1.7241639956469;0.40057373046875;0.00059051513671875;1.2399999968693;125;100 mA
1.73416399562166;0.400543212890625;0.00057342529296875;1.24999999684405;126;100 mA
1.74416399559641;0.400604248046875;0.0005694580078125;1.25999999681881;127;100 mA
1.75416399557116;0.400543212890625;0.0005596923828125;1.26999999679356;128;100 mA
1.76416399554591;0.400634765625;0.000568542480468751;1.27999999676831;129;100 mA
1.77416399552067;0.400665283203125;0.000570068359375001;1.28999999674306;130;100 mA
1.78416399549542;0.400543212890625;0.000572814941406249;1.29999999671782;131;100 mA
1.79416399547017;0.400604248046875;0.000570068359375001;1.30999999669257;132;100 mA
1.80416399544492;0.400604248046875;0.00054962158203125;1.31999999666732;133;100 mA
1.81416399541968;0.4005126953125;0.000551452636718749;1.32999999664207;134;100 mA
1.82416399539443;0.400604248046875;0.000559082031249999;1.33999999661683;135;100 mA
1.83416399536918;0.400604248046875;0.00054931640625;1.34999999659158;136;100 mA
1.84416399534393;0.400634765625;0.0005657958984375;1.35999999656633;137;100 mA
1.85416399531869;0.400634765625;0.0005572509765625;1.36999999654108;138;100 mA
1.86416399529344;0.400665283203125;0.00053985595703125;1.37999999651583;139;100 mA
1.87416399526819;0.4005126953125;0.00054473876953125;1.38999999649059;140;100 mA
1.88416399524294;0.4005126953125;0.00054473876953125;1.39999999646534;141;100 mA
1.8941639952177;0.40057373046875;0.00054290771484375;1.40999999644009;142;100 mA
1.90416399519245;0.40057373046875;0.00055267333984375;1.41999999641484;143;100 mA
1.9141639951672;0.40057373046875;0.000549926757812499;1.4299999963896;144;100 mA
1.92416399514195;0.400634765625;0.0005413818359375;1.43999999636435;145;100 mA
1.93416399511671;0.400543212890625;0.00052490234375;1.4499999963391;146;100 mA
1.94416399509146;0.400482177734375;0.0005401611328125;1.45999999631385;147;100 mA
1.95416399506621;0.400604248046875;0.000537719726562499;1.46999999628861;148;100 mA
1.96416399504096;0.400634765625;0.00053985595703125;1.47999999626336;149;100 mA
1.97416399501572;0.400634765625;0.000543212890625;1.48999999623811;150;100 mA
1.98416399499047;0.400634765625;0.000526123046875;1.49999999621286;151;100 mA
1.99416399496522;0.400634765625;0.00052520751953125;1.50999999618762;152;100 mA
2.00416399493997;0.400482177734375;0.000533142089843749;1.51999999616237;153;100 mA
2.01416399491472;0.400604248046875;0.000527343750000001;1.52999999613712;154;100 mA
2.02416399488948;0.400543212890625;0.0005450439453125;1.53999999611187;155;100 mA
2.03416399486423;0.400665283203125;0.00052825927734375;1.54999999608663;156;100 mA
2.04416399483898;0.4005126953125;0.00052490234375;1.55999999606138;157;100 mA
2.05416399481373;0.40069580078125;0.000517578125;1.56999999603613;158;100 mA
2.06416399478849;0.40045166015625;0.0005279541015625;1.57999999601088;159;100 mA
2.07416399476324;0.400604248046875;0.000530090332031249;1.58999999598564;160;100 mA
2.08416399473799;0.400421142578125;0.000525817871093751;1.59999999596039;161;100 mA
2.09416399471274;0.400634765625;0.00053070068359375;1.60999999593514;162;100 mA
2.1041639946875;0.40057373046875;0.00051910400390625;1.61999999590989;163;100 mA
2.11416399466225;0.40069580078125;0.000504455566406251;1.62999999588465;164;100 mA
2.124163994637;0.4005126953125;0.000525817871093751;1.6399999958594;165;100 mA
2.13416399461175;0.40057373046875;0.000515136718750001;1.64999999583415;166;100 mA
2.14416399458651;0.400482177734375;0.00053131103515625;1.6599999958089;167;100 mA
2.15416399456126;0.400604248046875;0.000518798828125;1.66999999578366;168;100 mA
2.16416399453601;0.400604248046875;0.00050811767578125;1.67999999575841;169;100 mA
2.17416399451076;0.40057373046875;0.000506591796875;1.68999999573316;170;100 mA
2.18416399448552;0.40057373046875;0.0005145263671875;1.69999999570791;171;100 mA
2.19416399446027;0.400604248046875;0.00051605224609375;1.70999999568267;172;100 mA
2.20416399443502;0.400543212890625;0.00052215576171875;1.71999999565742;173;100 mA
2.21416399440977;0.400543212890625;0.00051239013671875;1.72999999563217;174;100 mA
2.22416399438453;0.400543212890625;0.000511779785156249;1.73999999560692;175;100 mA
2.23416399435928;0.400543212890625;0.00049591064453125;1.74999999558167;176;100 mA
2.24416399433403;0.40057373046875;0.000510253906249999;1.75999999555643;177;100 mA
2.25416399430878;0.400634765625;0.000510559082031251;1.76999999553118;178;100 mA
2.26416399428354;0.400543212890625;0.0005157470703125;1.77999999550593;179;100 mA
2.27416399425829;0.400543212890625;0.000517578125;1.78999999548068;180;100 mA
2.28416399423304;0.400604248046875;0.000499572753906249;1.79999999545544;181;100 mA
2.29416399420779;0.400482177734375;0.000498352050781251;1.80999999543019;182;100 mA
2.30416399418255;0.40057373046875;0.000510253906249999;1.81999999540494;183;100 mA
2.3141639941573;0.400665283203125;0.00049774169921875;1.82999999537969;184;100 mA
2.32416399413205;0.40057373046875;0.000519409179687499;1.83999999535445;185;100 mA
2.3341639941068;0.400543212890625;0.000505981445312501;1.8499999953292;186;100 mA
2.34416399408155;0.400604248046875;0.0004986572265625;1.85999999530395;187;100 mA
2.35416399405631;0.400482177734375;0.00049285888671875;1.8699999952787;188;100 mA
2.36416399403106;0.400543212890625;0.00050018310546875;1.87999999525346;189;100 mA
2.37416399400581;0.400634765625;0.00050201416015625;1.88999999522821;190;100 mA
2.38416399398056;0.400634765625;0.000501708984375;1.89999999520296;191;100 mA
2.39416399395532;0.400604248046875;0.000502624511718749;1.90999999517771;192;100 mA
2.40416399393007;0.400604248046875;0.000496826171875001;1.91999999515247;193;100 mA
2.41416399390482;0.400482177734375;0.000487365722656249;1.92999999512722;194;100 mA
2.42416399387957;0.400543212890625;0.000499267578125;1.93999999510197;195;100 mA
2.43416399385433;0.400543212890625;0.00049102783203125;1.94999999507672;196;100 mA
2.44416399382908;0.40057373046875;0.00050811767578125;1.95999999505148;197;100 mA
2.45416399380383;0.400665283203125;0.00049713134765625;1.96999999502623;198;100 mA
2.46416399377858;0.400604248046875;0.00048370361328125;1.97999999500098;199;100 mA
2.47416399375334;0.40057373046875;0.00048553466796875;1.98999999497573;200;100 mA
2.48416399372809;0.400421142578125;0.0004913330078125;1.99999999495049;201;100 mA
2.49416399370284;0.400604248046875;0.000491943359374999;2.00999999492524;202;100 mA
2.50416399367759;0.400482177734375;0.000501708984375;2.01999999489999;203;100 mA
2.51416399365235;0.400665283203125;0.000490722656250001;2.02999999487474;204;100 mA
2.5241639936271;0.400543212890625;0.000487060546875;2.0399999948495;205;100 mA
2.53416399360185;0.400665283203125;0.000469360351562501;2.04999999482425;206;100 mA
2.5441639935766;0.400421142578125;0.000489196777343751;2.059999994799;207;100 mA
2.55416399355136;0.400634765625;0.00048187255859375;2.06999999477375;208;100 mA
2.56416399352611;0.4005126953125;0.00049346923828125;2.0799999947485;209;100 mA
2.57416399350086;0.400604248046875;0.00049560546875;2.08999999472326;210;100 mA
2.58416399347561;0.40057373046875;0.000478210449218749;2.09999999469801;211;100 mA
2.59416399345037;0.400665283203125;0.00047760009765625;2.10999999467276;212;100 mA
2.60416399342512;0.40057373046875;0.000489501953125;2.11999999464751;213;100 mA
2.61416399339987;0.400634765625;0.000478210449218749;2.12999999462227;214;100 mA
2.62416399337462;0.4005126953125;0.00049560546875;2.13999999459702;215;100 mA
2.63416399334938;0.400604248046875;0.00048065185546875;2.14999999457177;216;100 mA
2.64416399332413;0.400482177734375;0.00048065185546875;2.15999999454652;217;100 mA
2.65416399329888;0.400604248046875;0.000470886230468751;2.16999999452128;218;100 mA
2.66416399327363;0.400604248046875;0.00047760009765625;2.17999999449603;219;100 mA
2.67416399324838;0.400665283203125;0.00048065185546875;2.18999999447078;220;100 mA
2.68416399322314;0.40057373046875;0.0004852294921875;2.19999999444553;221;100 mA
2.69416399319789;0.400543212890625;0.000481262207031249;2.20999999442029;222;100 mA
2.70416399317264;0.400604248046875;0.0004730224609375;2.21999999439504;223;100 mA
2.71416399314739;0.400543212890625;0.00046417236328125;2.22999999436979;224;100 mA
2.72416399312215;0.400604248046875;0.00048065185546875;2.23999999434454;225;100 mA
2.7341639930969;0.400604248046875;0.000467529296874999;2.2499999943193;226;100 mA
2.74416399307165;0.40057373046875;0.000485839843749999;2.25999999429405;227;100 mA
2.7541639930464;0.400543212890625;0.00047332763671875;2.2699999942688;228;100 mA
2.76416399302116;0.400604248046875;0.000462951660156249;2.27999999424355;229;100 mA
2.77416399299591;0.400543212890625;0.00046661376953125;2.28999999421831;230;100 mA
2.78416399297066;0.4005126953125;0.00047271728515625;2.29999999419306;231;100 mA
2.79416399294541;0.400604248046875;0.000469970703125;2.30999999416781;232;100 mA
2.80416399292017;0.400665283203125;0.000476684570312499;2.31999999414256;233;100 mA
2.81416399289492;0.40057373046875;0.0004656982421875;2.32999999411732;234;100 mA
2.82416399286967;0.400604248046875;0.0004638671875;2.33999999409207;235;100 mA
2.83416399284442;0.4005126953125;0.00045318603515625;2.34999999406682;236;100 mA
2.84416399281918;0.400482177734375;0.00046539306640625;2.35999999404157;237;100 mA
2.85416399279393;0.400634765625;0.000458984375;2.36999999401633;238;100 mA
2.86416399276868;0.400634765625;0.00046875;2.37999999399108;239;100 mA
2.87416399274343;0.40057373046875;0.00047027587890625;2.38999999396583;240;100 mA
2.88416399271819;0.40057373046875;0.000452575683593751;2.39999999394058;241;100 mA
2.89416399269294;0.4005126953125;0.00045013427734375;2.40999999391533;242;100 mA
2.90416399266769;0.4005126953125;0.000461730957031251;2.41999999389009;243;100 mA
2.91416399264244;0.40057373046875;0.000452575683593751;2.42999999386484;244;100 mA
2.9241639926172;0.400543212890625;0.00047149658203125;2.43999999383959;245;100 mA
2.93416399259195;0.400604248046875;0.00045623779296875;2.44999999381434;246;100 mA
2.9441639925667;0.40057373046875;0.000455627441406251;2.4599999937891;247;100 mA
2.95416399254145;0.400665283203125;0.000441894531250001;2.46999999376385;248;100 mA
2.96416399251621;0.40045166015625;0.000457153320312501;2.4799999937386;249;100 mA
2.97416399249096;0.400604248046875;0.0004547119140625;2.48999999371335;250;100 mA
2.98416399246571;0.4005126953125;0.0004620361328125;2.49999999368811;251;100 mA
2.99416399244046;0.400634765625;0.000457153320312501;2.50999999366286;252;100 mA
3.00416399241522;0.40057373046875;0.0004486083984375;2.51999999363761;253;100 mA
3.01416399238997;0.400665283203125;0.000440063476562499;2.52999999361236;254;100 mA
3.02416399236472;0.400482177734375;0.00045501708984375;2.53999999358712;255;100 mA
3.03416399233947;0.400634765625;0.000441589355468749;2.54999999356187;256;100 mA
3.04416399231422;0.4005126953125;0.0004547119140625;2.55999999353662;257;100 mA
3.05416399228898;0.40057373046875;0.000452270507812499;2.56999999351137;258;100 mA
3.06416399226373;0.4005126953125;0.000435485839843749;2.57999999348613;259;100 mA
3.07416399223848;0.40057373046875;0.000439453125;2.58999999346088;260;100 mA
3.08416399221323;0.400482177734375;0.00044586181640625;2.59999999343563;261;100 mA
3.09416399218799;0.400665283203125;0.000438842773437501;2.60999999341038;262;100 mA
3.10416399216274;0.4005126953125;0.000449523925781251;2.61999999338514;263;100 mA
3.11416399213749;0.400604248046875;0.000443115234374999;2.62999999335989;264;100 mA
3.12416399211224;0.400543212890625;0.000438232421875;2.63999999333464;265;100 mA
3.134163992087;0.40057373046875;0.000426330566406249;2.64999999330939;266;100 mA
3.14416399206175;0.400634765625;0.00043975830078125;2.65999999328415;267;100 mA
3.1541639920365;0.400665283203125;0.0004351806640625;2.6699999932589;268;100 mA
3.16416399201125;0.400482177734375;0.000443115234374999;2.67999999323365;269;100 mA
3.17416399198601;0.400543212890625;0.000441894531250001;2.6899999932084;270;100 mA
3.18416399196076;0.400543212890625;0.000429382324218749;2.69999999318316;271;100 mA
3.19416399193551;0.400482177734375;0.00042694091796875;2.70999999315791;272;100 mA
3.20416399191026;0.400604248046875;0.000441589355468749;2.71999999313266;273;100 mA
3.21416399188502;0.400604248046875;0.000429687500000001;2.72999999310741;274;100 mA
3.22416399185977;0.400634765625;0.00044525146484375;2.73999999308217;275;100 mA
3.23416399183452;0.40057373046875;0.000431213378906251;2.74999999305692;276;100 mA
3.24416399180927;0.400543212890625;0.000434265136718751;2.75999999303167;277;100 mA
3.25416399178403;0.40057373046875;0.000414428710937501;2.76999999300642;278;100 mA
3.26416399175878;0.400543212890625;0.0004302978515625;2.77999999298117;279;100 mA
3.27416399173353;0.400604248046875;0.00043212890625;2.78999999295593;280;100 mA
3.28416399170828;0.400634765625;0.0004351806640625;2.79999999293068;281;100 mA
3.29416399168304;0.400604248046875;0.000429382324218749;2.80999999290543;282;100 mA
3.30416399165779;0.400482177734375;0.0004302978515625;2.81999999288018;283;100 mA
3.31416399163254;0.400482177734375;0.000415954589843751;2.82999999285494;284;100 mA
3.32416399160729;0.4005126953125;0.000435791015625001;2.83999999282969;285;100 mA
3.33416399158205;0.40057373046875;0.000419921875;2.84999999280444;286;100 mA
3.3441639915568;0.40057373046875;0.00043182373046875;2.85999999277919;287;100 mA
3.35416399153155;0.40057373046875;0.000432434082031249;2.86999999275395;288;100 mA
3.3641639915063;0.400634765625;0.000421142578125;2.8799999927287;289;100 mA
3.37416399148105;0.400634765625;0.000417480468750001;2.88999999270345;290;100 mA
3.38416399145581;0.40045166015625;0.0004290771484375;2.8999999926782;291;100 mA
3.39416399143056;0.400665283203125;0.00042083740234375;2.90999999265296;292;100 mA
3.40416399140531;0.400482177734375;0.000435791015625001;2.91999999262771;293;100 mA
3.41416399138006;0.40069580078125;0.00042388916015625;2.92999999260246;294;100 mA
3.42416399135482;0.40057373046875;0.000425109863281251;2.93999999257721;295;100 mA
3.43416399132957;0.400604248046875;0.00040863037109375;2.94999999255197;296;100 mA
3.44416399130432;0.400543212890625;0.000427856445312499;2.95999999252672;297;100 mA
3.45416399127907;0.400726318359375;0.000417480468750001;2.96999999250147;298;100 mA
3.46416399125383;0.40057373046875;0.00042388916015625;2.97999999247622;299;100 mA
3.47416399122858;0.400543212890625;0.0004290771484375;2.98999999245098;300;100 mA
3.48416399120333;0.40045166015625;0.000417480468750001;2.99999999242573;301;100 mA
3.49416399117808;0.400604248046875;0.000406494140624999;3.00999999240048;302;100 mA
3.50416399115284;0.40057373046875;0.000425109863281251;3.01999999237523;303;100 mA
3.51416399112759;0.400604248046875;0.00041046142578125;3.02999999234999;304;100 mA
3.52416399110234;0.400604248046875;0.000427856445312499;3.03999999232474;305;100 mA
3.53416399107709;0.40057373046875;0.000412597656249999;3.04999999229949;306;100 mA
3.54416399105185;0.400543212890625;0.000413818359375;3.05999999227424;307;100 mA
3.5541639910266;0.40057373046875;0.00040283203125;3.069999992249;308;100 mA
3.56416399100135;0.400634765625;0.00041778564453125;3.07999999222375;309;100 mA
3.5741639909761;0.40057373046875;0.00041229248046875;3.0899999921985;310;100 mA
3.58416399095086;0.40057373046875;0.00042083740234375;3.09999999217325;311;100 mA
3.59416399092561;0.40057373046875;0.000416259765625;3.109999992148;312;100 mA
3.60416399090036;0.400604248046875;0.00041229248046875;3.11999999212276;313;100 mA
3.61416399087511;0.4005126953125;0.000397338867187499;3.12999999209751;314;100 mA
3.62416399084987;0.40057373046875;0.000423278808593749;3.13999999207226;315;100 mA
3.63416399082462;0.400604248046875;0.000408020019531249;3.14999999204701;316;100 mA
3.64416399079937;0.400604248046875;0.00042144775390625;3.15999999202177;317;100 mA
3.65416399077412;0.400604248046875;0.000412902832031251;3.16999999199652;318;100 mA
3.66416399074888;0.400604248046875;0.000412597656249999;3.17999999197127;319;100 mA
3.67416399072363;0.400543212890625;0.000404968261718749;3.18999999194602;320;100 mA
3.68416399069838;0.40045166015625;0.000419006347656251;3.19999999192078;321;100 mA
3.69416399067313;0.400604248046875;0.000416259765625;3.20999999189553;322;100 mA
3.70416399064788;0.400543212890625;0.00041839599609375;3.21999999187028;323;100 mA
3.71416399062264;0.400604248046875;0.0004119873046875;3.22999999184503;324;100 mA
3.72416399059739;0.400543212890625;0.00041778564453125;3.23999999181979;325;100 mA
3.73416399057214;0.40069580078125;0.0003948974609375;3.24999999179454;326;100 mA
3.74416399054689;0.400482177734375;0.000423583984375001;3.25999999176929;327;100 mA
3.75416399052165;0.400665283203125;0.000409851074218751;3.26999999174404;328;100 mA
3.7641639904964;0.400543212890625;0.00041229248046875;3.2799999917188;329;100 mA
3.77416399047115;0.400604248046875;0.000415649414062499;3.28999999169355;330;100 mA
3.7841639904459;0.4005126953125;0.000404968261718749;3.2999999916683;331;100 mA
3.79416399042066;0.400665283203125;0.000397338867187499;3.30999999164305;332;100 mA
3.80416399039541;0.40057373046875;0.000417175292968749;3.31999999161781;333;100 mA
3.81416399037016;0.400665283203125;0.000401611328125;3.32999999159256;334;100 mA
3.82416399034491;0.400543212890625;0.000416259765625;3.33999999156731;335;100 mA
3.83416399031967;0.400482177734375;0.000403747558593751;3.34999999154206;336;100 mA
3.84416399029442;0.400543212890625;0.000403747558593751;3.35999999151682;337;100 mA
3.85416399026917;0.40057373046875;0.000391845703125;3.36999999149157;338;100 mA
3.86416399024392;0.400604248046875;0.000409545898437499;3.37999999146632;339;100 mA
3.87416399021868;0.400634765625;0.000406494140624999;3.38999999144107;340;100 mA
3.88416399019343;0.400604248046875;0.00040740966796875;3.39999999141583;341;100 mA
3.89416399016818;0.400543212890625;0.00041046142578125;3.40999999139058;342;100 mA
3.90416399014293;0.400543212890625;0.000403747558593751;3.41999999136533;343;100 mA
3.91416399011769;0.400482177734375;0.00039093017578125;3.42999999134008;344;100 mA
3.92416399009244;0.40057373046875;0.00041168212890625;3.43999999131483;345;100 mA
3.93416399006719;0.400634765625;0.000400390624999999;3.44999999128959;346;100 mA
3.94416399004194;0.400665283203125;0.00040924072265625;3.45999999126434;347;100 mA
3.9541639900167;0.40057373046875;0.000408325195312501;3.46999999123909;348;100 mA
3.96416398999145;0.40057373046875;0.000400390624999999;3.47999999121384;349;100 mA
3.9741639899662;0.4005126953125;0.00039794921875;3.4899999911886;350;100 mA
3.98416398994095;0.4005126953125;0.00041015625;3.49999999116335;351;100 mA
3.99416398991571;0.400604248046875;0.000406799316406251;3.5099999911381;352;100 mA
4.00416398989046;0.40057373046875;0.00041534423828125;3.51999999111285;353;100 mA
4.01416398986521;0.400604248046875;0.00040435791015625;3.52999999108761;354;100 mA
4.02416398983996;0.400543212890625;0.000406799316406251;3.53999999106236;355;100 mA
4.03416398981472;0.400543212890625;0.0003875732421875;3.54999999103711;356;100 mA
4.04416398978947;0.400482177734375;0.000413818359375;3.55999999101186;357;100 mA
4.05416398976422;0.400665283203125;0.000401916503906249;3.56999999098662;358;100 mA
4.06416398973897;0.4005126953125;0.00040924072265625;3.57999999096137;359;100 mA
4.07416398971372;0.400665283203125;0.000408020019531249;3.58999999093612;360;100 mA
4.08416398968848;0.4005126953125;0.000397644042968751;3.59999999091087;361;100 mA
4.09416398966323;0.400634765625;0.000391235351562499;3.60999999088563;362;100 mA
4.10416398963798;0.4005126953125;0.0004058837890625;3.61999999086038;363;100 mA
4.11416398961273;0.400665283203125;0.000397644042968751;3.62999999083513;364;100 mA
4.12416398958749;0.400543212890625;0.00040252685546875;3.63999999080988;365;100 mA
4.13416398956224;0.400543212890625;0.000395812988281249;3.64999999078464;366;100 mA
4.14416398953699;0.400543212890625;0.000396728515625;3.65999999075939;367;100 mA
4.15416398951174;0.400634765625;0.000382385253906251;3.66999999073414;368;100 mA
4.1641639894865;0.400543212890625;0.000399169921875001;3.67999999070889;369;100 mA
4.17416398946125;0.400665283203125;0.0003948974609375;3.68999999068365;370;100 mA
4.184163989436;0.40057373046875;0.0003955078125;3.6999999906584;371;100 mA
4.19416398941075;0.4005126953125;0.000397644042968751;3.70999999063315;372;100 mA
4.20416398938551;0.40057373046875;0.00039031982421875;3.7199999906079;373;100 mA
4.21416398936026;0.40057373046875;0.00038421630859375;3.72999999058266;374;100 mA
4.22416398933501;0.400634765625;0.0004058837890625;3.73999999055741;375;100 mA
4.23416398930976;0.400604248046875;0.000390625;3.74999999053216;376;100 mA
4.24416398928452;0.40057373046875;0.0004010009765625;3.75999999050691;377;100 mA
4.25416398925927;0.40057373046875;0.0003985595703125;3.76999999048167;378;100 mA
4.26416398923402;0.400604248046875;0.000390625;3.77999999045642;379;100 mA
4.27416398920877;0.400482177734375;0.000390014648437501;3.78999999043117;380;100 mA
4.28416398918353;0.400543212890625;0.000406494140624999;3.79999999040592;381;100 mA
4.29416398915828;0.400604248046875;0.00039825439453125;3.80999999038067;382;100 mA
4.30416398913303;0.400634765625;0.000405273437500001;3.81999999035543;383;100 mA
4.31416398910778;0.400543212890625;0.00039337158203125;3.82999999033018;384;100 mA
4.32416398908254;0.400482177734375;0.000400695800781251;3.83999999030493;385;100 mA
4.33416398905729;0.4005126953125;0.000382385253906251;3.84999999027968;386;100 mA
4.34416398903204;0.400482177734375;0.000404052734375;3.85999999025444;387;100 mA
4.35416398900679;0.400634765625;0.000391845703125;3.86999999022919;388;100 mA
4.36416398898155;0.400543212890625;0.00039947509765625;3.87999999020394;389;100 mA
4.3741639889563;0.400634765625;0.00040008544921875;3.88999999017869;390;100 mA
4.38416398893105;0.400543212890625;0.000390014648437501;3.89999999015345;391;100 mA
4.3941639889058;0.400665283203125;0.000383605957031249;3.9099999901282;392;100 mA
4.40416398888055;0.400543212890625;0.00040740966796875;3.91999999010295;393;100 mA
4.41416398885531;0.400634765625;0.00038787841796875;3.9299999900777;394;100 mA
4.42416398883006;0.40045166015625;0.0003985595703125;3.93999999005246;395;100 mA
4.43416398880481;0.400604248046875;0.0003924560546875;3.94999999002721;396;100 mA
4.44416398877956;0.40057373046875;0.000390625;3.95999999000196;397;100 mA
4.45416398875432;0.400634765625;0.00038116455078125;3.96999998997671;398;100 mA
4.46416398872907;0.40057373046875;0.000396728515625;3.97999998995147;399;100 mA
4.47416398870382;0.400634765625;0.000391540527343751;3.98999998992622;400;100 mA
4.48416398867857;0.400482177734375;0.00039215087890625;3.99999998990097;401;100 mA
4.49416398865333;0.400543212890625;0.00039337158203125;4.00999998987572;402;100 mA
4.50416398862808;0.400543212890625;0.00038909912109375;4.01999998985048;403;100 mA
4.51416398860283;0.400543212890625;0.000376281738281251;4.02999998982523;404;100 mA
4.52416398857758;0.400634765625;0.00039703369140625;4.03999998979998;405;100 mA
4.53416398855234;0.400604248046875;0.00038787841796875;4.04999998977473;406;100 mA
4.54416398852709;0.40057373046875;0.0003955078125;4.05999998974949;407;100 mA
4.55416398850184;0.400482177734375;0.000389404296875;4.06999998972424;408;100 mA
4.56416398847659;0.40045166015625;0.000393066406250001;4.07999998969899;409;100 mA
4.57416398845135;0.40045166015625;0.000385437011718751;4.08999998967374;410;100 mA
4.5841639884261;0.40057373046875;0.000401611328125;4.0999999896485;411;100 mA
4.59416398840085;0.400634765625;0.000394592285156251;4.10999998962325;412;100 mA
4.6041639883756;0.400634765625;0.000397338867187499;4.119999989598;413;100 mA
4.61416398835036;0.400543212890625;0.000389404296875;4.12999998957275;414;100 mA
4.62416398832511;0.40057373046875;0.000396728515625;4.1399999895475;415;100 mA
4.63416398829986;0.400421142578125;0.000380554199218749;4.14999998952226;416;100 mA
4.64416398827461;0.400543212890625;0.00039794921875;4.15999998949701;417;100 mA
4.65416398824937;0.400634765625;0.000391845703125;4.16999998947176;418;100 mA
4.66416398822412;0.400665283203125;0.000391540527343751;4.17999998944651;419;100 mA
4.67416398819887;0.40057373046875;0.000391235351562499;4.18999998942127;420;100 mA
4.68416398817362;0.4005126953125;0.00038604736328125;4.19999998939602;421;100 mA
4.69416398814838;0.4005126953125;0.000380554199218749;4.20999998937077;422;100 mA
4.70416398812313;0.400482177734375;0.000396118164062501;4.21999998934552;423;100 mA
4.71416398809788;0.400634765625;0.0003875732421875;4.22999998932028;424;100 mA
4.72416398807263;0.400543212890625;0.00039703369140625;4.23999998929503;425;100 mA
4.73416398804738;0.400604248046875;0.000383605957031249;4.24999998926978;426;100 mA
4.74416398802214;0.400543212890625;0.000388488769531251;4.25999998924453;427;100 mA
4.75416398799689;0.40069580078125;0.0003802490234375;4.26999998921929;428;100 mA
4.76416398797164;0.400543212890625;0.0003955078125;4.27999998919404;429;100 mA
4.77416398794639;0.400665283203125;0.00039520263671875;4.28999998916879;430;100 mA
4.78416398792115;0.400543212890625;0.000390625;4.29999998914354;431;100 mA
4.7941639878959;0.400634765625;0.000390014648437501;4.3099999891183;432;100 mA
4.80416398787065;0.4005126953125;0.00039215087890625;4.31999998909305;433;100 mA
4.8141639878454;0.400634765625;0.000383605957031249;4.3299999890678;434;100 mA
4.82416398782016;0.400604248046875;0.00040313720703125;4.33999998904255;435;100 mA
4.83416398779491;0.400634765625;0.0003857421875;4.34999998901731;436;100 mA
4.84416398776966;0.4005126953125;0.00039398193359375;4.35999998899206;437;100 mA
4.85416398774441;0.4005126953125;0.000385437011718751;4.36999998896681;438;100 mA
4.86416398771917;0.40045166015625;0.000382385253906251;4.37999998894156;439;100 mA
4.87416398769392;0.4005126953125;0.000386962890625001;4.38999998891632;440;100 mA
4.88416398766867;0.400665283203125;0.000390625;4.39999998889107;441;100 mA
4.89416398764342;0.400634765625;0.00039215087890625;4.40999998886582;442;100 mA
4.90416398761818;0.40057373046875;0.00039398193359375;4.41999998884057;443;100 mA
4.91416398759293;0.4005126953125;0.0003875732421875;4.42999998881533;444;100 mA
4.92416398756768;0.400482177734375;0.00039093017578125;4.43999998879008;445;100 mA
4.93416398754243;0.400543212890625;0.00038299560546875;4.44999998876483;446;100 mA
4.94416398751719;0.400634765625;0.000392761230468749;4.45999998873958;447;100 mA
4.95416398749194;0.400634765625;0.000389709472656249;4.46999998871433;448;100 mA
4.96416398746669;0.400634765625;0.000393066406250001;4.47999998868909;449;100 mA
4.97416398744144;0.400604248046875;0.000391235351562499;4.48999998866384;450;100 mA
4.9841639874162;0.40057373046875;0.000389709472656249;4.49999998863859;451;100 mA
4.99416398739095;0.400482177734375;0.00038482666015625;4.50999998861334;452;100 mA
5.0041639873657;0.400543212890625;0.0003985595703125;4.5199999885881;453;100 mA
5.01416398734045;0.400543212890625;0.000389709472656249;4.52999998856285;454;100 mA
5.02416398731521;0.400604248046875;0.000401916503906249;4.5399999885376;455;100 mA
5.03416398728996;0.40057373046875;0.000385437011718751;4.54999998851235;456;100 mA
5.04416398726471;0.400543212890625;0.00038787841796875;4.55999998848711;457;100 mA
5.05416398723946;0.4005126953125;0.000385131835937499;4.56999998846186;458;100 mA
5.06416398721422;0.4005126953125;0.00039398193359375;4.57999998843661;459;100 mA
5.07416398718897;0.40057373046875;0.000399169921875001;4.58999998841136;460;100 mA
5.08416398716372;0.40057373046875;0.000394287109374999;4.59999998838612;461;100 mA
5.09416398713847;0.40057373046875;0.000386962890625001;4.60999998836087;462;100 mA
5.10416398711322;0.400482177734375;0.00039398193359375;4.61999998833562;463;100 mA
5.11416398708798;0.400634765625;0.000379638671875;4.62999998831037;464;100 mA
5.12416398706273;0.400482177734375;0.000398864746093749;4.63999998828513;465;100 mA
5.13416398703748;0.40057373046875;0.000390625;4.64999998825988;466;100 mA
5.14416398701223;0.400482177734375;0.0003936767578125;4.65999998823463;467;100 mA
5.15416398698699;0.40057373046875;0.000393066406250001;4.66999998820938;468;100 mA
5.16416398696174;0.4005126953125;0.00038421630859375;4.67999998818414;469;100 mA
5.17416398693649;0.400543212890625;0.00038604736328125;4.68999998815889;470;100 mA
5.18416398691124;0.400543212890625;0.000390014648437501;4.69999998813364;471;100 mA
5.194163986886;0.400634765625;0.0003887939453125;4.70999998810839;472;100 mA
5.20416398686075;0.400543212890625;0.0003924560546875;4.71999998808315;473;100 mA
5.2141639868355;0.4005126953125;0.000382385253906251;4.7299999880579;474;100 mA
5.22416398681025;0.4005126953125;0.00038726806640625;4.73999998803265;475;100 mA
5.23416398678501;0.400543212890625;0.0003741455078125;4.7499999880074;476;100 mA
5.24416398675976;0.400634765625;0.00039031982421875;4.75999998798216;477;100 mA
5.25416398673451;0.400604248046875;0.00038726806640625;4.76999998795691;478;100 mA
5.26416398670926;0.400665283203125;0.00038299560546875;4.77999998793166;479;100 mA
5.27416398668402;0.400482177734375;0.0003863525390625;4.78999998790641;480;100 mA
5.28416398665877;0.400421142578125;0.000385131835937499;4.79999998788116;481;100 mA
5.29416398663352;0.4005126953125;0.000372924804687499;4.80999998785592;482;100 mA
5.30416398660827;0.400543212890625;0.00039520263671875;4.81999998783067;483;100 mA
5.31416398658303;0.40057373046875;0.00038299560546875;4.82999998780542;484;100 mA
5.32416398655778;0.400665283203125;0.000389709472656249;4.83999998778017;485;100 mA
5.33416398653253;0.400543212890625;0.00038299560546875;4.84999998775493;486;100 mA
5.34416398650728;0.4005126953125;0.00038116455078125;4.85999998772968;487;100 mA
5.35416398648204;0.400421142578125;0.00037872314453125;4.86999998770443;488;100 mA
5.36416398645679;0.400543212890625;0.000391540527343751;4.87999998767918;489;100 mA
5.37416398643154;0.400604248046875;0.0003857421875;4.88999998765394;490;100 mA
5.38416398640629;0.40057373046875;0.000386657714843749;4.89999998762869;491;100 mA
5.39416398638105;0.40057373046875;0.00038482666015625;4.90999998760344;492;100 mA
5.4041639863558;0.4005126953125;0.0003857421875;4.91999998757819;493;100 mA
5.41416398633055;0.40057373046875;0.00037384033203125;4.92999998755295;494;100 mA
5.4241639863053;0.400482177734375;0.00039337158203125;4.9399999875277;495;100 mA
5.43416398628005;0.400634765625;0.0003826904296875;4.94999998750245;496;100 mA
5.44416398625481;0.400482177734375;0.000382385253906251;4.9599999874772;497;100 mA
5.45416398622956;0.400604248046875;0.000386657714843749;4.96999998745196;498;100 mA
5.46416398620431;0.4005126953125;0.000379028320312499;4.97999998742671;499;100 mA
5.47416398617906;0.400665283203125;0.00037353515625;4.98999998740146;500;100 mA
5.48416398615382;0.400482177734375;0.000390014648437501;4.99999998737621;501;100 mA
5.49416398612857;0.400634765625;0.00038787841796875;5.00999998735097;502;100 mA
5.50416398610332;0.400543212890625;0.00038299560546875;5.01999998732572;503;100 mA
5.51416398607807;0.4005126953125;0.000377807617187501;5.02999998730047;504;100 mA
5.52416398605283;0.4005126953125;0.00038177490234375;5.03999998727522;505;100 mA
5.53416398602758;0.400543212890625;0.00037109375;5.04999998724998;506;100 mA
5.54416398600233;0.400634765625;0.000384521484375;5.05999998722473;507;100 mA
5.55416398597708;0.400634765625;0.00038299560546875;5.06999998719948;508;100 mA
5.56416398595184;0.400604248046875;0.000382080078124999;5.07999998717423;509;100 mA
5.57416398592659;0.4005126953125;0.00037689208984375;5.08999998714899;510;100 mA
5.58416398590134;0.400482177734375;0.00037811279296875;5.09999998712374;511;100 mA
5.59416398587609;0.400482177734375;0.000376281738281251;5.10999998709849;512;100 mA
5.60416398585085;0.400634765625;0.0003863525390625;5.11999998707324;513;100 mA
5.6141639858256;0.40057373046875;0.00038299560546875;5.129999987048;514;100 mA
5.62416398580035;0.400634765625;0.000384521484375;5.13999998702275;515;100 mA
5.6341639857751;0.4005126953125;0.00037261962890625;5.1499999869975;516;100 mA
5.64416398574986;0.400543212890625;0.0003741455078125;5.15999998697225;517;100 mA
5.65416398572461;0.40045166015625;0.000373229980468751;5.169999986947;518;100 mA
5.66416398569936;0.400665283203125;0.000377807617187501;5.17999998692176;519;100 mA
5.67416398567411;0.400604248046875;0.00038177490234375;5.18999998689651;520;100 mA
5.68416398564887;0.400634765625;0.00037841796875;5.19999998687126;521;100 mA
5.69416398562362;0.400543212890625;0.000380554199218749;5.20999998684601;522;100 mA
5.70416398559837;0.400604248046875;0.00037506103515625;5.21999998682077;523;100 mA
5.71416398557312;0.4005126953125;0.000367126464843751;5.22999998679552;524;100 mA
5.72416398554788;0.400482177734375;0.00038909912109375;5.23999998677027;525;100 mA
5.73416398552263;0.400543212890625;0.000376281738281251;5.24999998674502;526;100 mA
5.74416398549738;0.4005126953125;0.0003741455078125;5.25999998671978;527;100 mA
5.75416398547213;0.40057373046875;0.00037567138671875;5.26999998669453;528;100 mA
5.76416398544688;0.400604248046875;0.000371704101562501;5.27999998666928;529;100 mA
5.77416398542164;0.400634765625;0.000366821289062499;5.28999998664403;530;100 mA
5.78416398539639;0.400482177734375;0.0003741455078125;5.29999998661879;531;100 mA
5.79416398537114;0.400665283203125;0.0003814697265625;5.30999998659354;532;100 mA
5.80416398534589;0.40057373046875;0.000375976562499999;5.31999998656829;533;100 mA
5.81416398532065;0.400604248046875;0.00036590576171875;5.32999998654304;534;100 mA
5.8241639852954;0.40045166015625;0.000375976562499999;5.3399999865178;535;100 mA
5.83416398527015;0.400604248046875;0.000360107421875;5.34999998649255;536;100 mA
5.8441639852449;0.400543212890625;0.00037384033203125;5.3599999864673;537;100 mA
5.85416398521966;0.40057373046875;0.000377197265625;5.36999998644205;538;100 mA
5.86416398519441;0.400543212890625;0.000368652343750001;5.37999998641681;539;100 mA
5.87416398516916;0.400543212890625;0.000371398925781249;5.38999998639156;540;100 mA
5.88416398514391;0.400543212890625;0.000364074707031251;5.39999998636631;541;100 mA
5.89416398511867;0.40057373046875;0.000360717773437499;5.40999998634106;542;100 mA
5.90416398509342;0.40057373046875;0.000380554199218749;5.41999998631582;543;100 mA
5.91416398506817;0.400634765625;0.000368652343750001;5.42999998629057;544;100 mA
5.92416398504292;0.400604248046875;0.0003753662109375;5.43999998626532;545;100 mA
5.93416398501768;0.40045166015625;0.000365600585937501;5.44999998624007;546;100 mA
5.94416398499243;0.400482177734375;0.000364990234375;5.45999998621483;547;100 mA
5.95416398496718;0.4005126953125;0.00036285400390625;5.46999998618958;548;100 mA
5.96416398494193;0.400634765625;0.000370178222656251;5.47999998616433;549;100 mA
5.97416398491669;0.400543212890625;0.000377197265625;5.48999998613908;550;100 mA
5.98416398489144;0.400604248046875;0.0003692626953125;5.49999998611383;551;100 mA
5.99416398486619;0.4005126953125;0.000365600585937501;5.50999998608859;552;100 mA
6.00416398484094;0.4005126953125;0.000369873046874999;5.51999998606334;553;100 mA
6.0141639848157;0.4005126953125;0.000354614257812499;5.52999998603809;554;100 mA
6.02416398479045;0.40057373046875;0.000379638671875;5.53999998601284;555;100 mA
6.0341639847652;0.40057373046875;0.0003662109375;5.5499999859876;556;100 mA
6.04416398473995;0.400604248046875;0.0003680419921875;5.55999998596235;557;100 mA
6.05416398471471;0.4005126953125;0.000365295410156249;5.5699999859371;558;100 mA
6.06416398468946;0.400543212890625;0.000360107421875;5.57999998591185;559;100 mA
6.07416398466421;0.4005126953125;0.000361022949218751;5.58999998588661;560;100 mA
6.08416398463896;0.4005126953125;0.000368652343750001;5.59999998586136;561;100 mA
6.09416398461372;0.400604248046875;0.00037200927734375;5.60999998583611;562;100 mA
6.10416398458847;0.400482177734375;0.00036895751953125;5.61999998581086;563;100 mA
6.11416398456322;0.40057373046875;0.000361022949218751;5.62999998578562;564;100 mA
6.12416398453797;0.400543212890625;0.0003643798828125;5.63999998576037;565;100 mA
6.13416398451272;0.400634765625;0.00035369873046875;5.64999998573512;566;100 mA
6.14416398448748;0.4005126953125;0.0003643798828125;5.65999998570987;567;100 mA
6.15416398446223;0.40057373046875;0.0003753662109375;5.66999998568463;568;100 mA
6.16416398443698;0.400543212890625;0.000359191894531249;5.67999998565938;569;100 mA
6.17416398441173;0.400604248046875;0.00036346435546875;5.68999998563413;570;100 mA
6.18416398438649;0.400482177734375;0.00035736083984375;5.69999998560888;571;100 mA
6.19416398436124;0.400634765625;0.00035125732421875;5.70999998558364;572;100 mA
6.20416398433599;0.4005126953125;0.00037109375;5.71999998555839;573;100 mA
6.21416398431074;0.400634765625;0.000361022949218751;5.72999998553314;574;100 mA
6.2241639842855;0.4005126953125;0.000367126464843751;5.73999998550789;575;100 mA
6.23416398426025;0.40057373046875;0.00034912109375;5.74999998548265;576;100 mA
6.244163984235;0.400482177734375;0.0003521728515625;5.7599999854574;577;100 mA
6.25416398420975;0.400543212890625;0.000354919433593751;5.76999998543215;578;100 mA
6.26416398418451;0.40069580078125;0.0003582763671875;5.7799999854069;579;100 mA
6.27416398415926;0.400634765625;0.0003643798828125;5.78999998538166;580;100 mA
6.28416398413401;0.400604248046875;0.000353393554687501;5.79999998535641;581;100 mA
6.29416398410876;0.400421142578125;0.000347900390625;5.80999998533116;582;100 mA
6.30416398408352;0.40045166015625;0.00035675048828125;5.81999998530591;583;100 mA
6.31416398405827;0.4005126953125;0.00034637451171875;5.82999998528066;584;100 mA
6.32416398403302;0.40069580078125;0.000361022949218751;5.83999998525542;585;100 mA
6.33416398400777;0.400604248046875;0.0003570556640625;5.84999998523017;586;100 mA
6.34416398398253;0.40069580078125;0.0003521728515625;5.85999998520492;587;100 mA
6.35416398395728;0.400543212890625;0.00035430908203125;5.86999998517967;588;100 mA
6.36416398393203;0.400482177734375;0.000351562499999999;5.87999998515443;589;100 mA
6.37416398390678;0.4005126953125;0.00035552978515625;5.88999998512918;590;100 mA
6.38416398388154;0.400604248046875;0.000357666015624999;5.89999998510393;591;100 mA
6.39416398385629;0.400634765625;0.0003619384765625;5.90999998507868;592;100 mA
6.40416398383104;0.400665283203125;0.00035736083984375;5.91999998505344;593;100 mA
6.41416398380579;0.400543212890625;0.000350341796875001;5.92999998502819;594;100 mA
6.42416398378055;0.400634765625;0.00035369873046875;5.93999998500294;595;100 mA
6.4341639837553;0.400482177734375;0.0003497314453125;5.94999998497769;596;100 mA
6.44416398373005;0.40057373046875;0.000350036621093749;5.95999998495245;597;100 mA
6.4541639837048;0.400482177734375;0.0003704833984375;5.9699999849272;598;100 mA
6.46416398367955;0.40057373046875;0.00035369873046875;5.97999998490195;599;100 mA
6.47416398365431;0.400543212890625;0.00035400390625;5.9899999848767;600;100 mA
6.48416398362906;0.400482177734375;0.00035125732421875;5.99999998485146;601;100 mA
6.49416398360381;0.400665283203125;0.00034912109375;6.00999998482621;602;100 mA
6.50416398357856;0.400482177734375;0.00036590576171875;6.01999998480096;603;100 mA
6.51416398355332;0.400634765625;0.00035888671875;6.02999998477571;604;100 mA
6.52416398352807;0.4005126953125;0.000357666015624999;6.03999998475047;605;100 mA
6.53416398350282;0.400604248046875;0.0003466796875;6.04999998472522;606;100 mA
6.54416398347757;0.4005126953125;0.0003497314453125;6.05999998469997;607;100 mA
6.55416398345233;0.400543212890625;0.000350036621093749;6.06999998467472;608;100 mA
6.56416398342708;0.4005126953125;0.00035552978515625;6.07999998464948;609;100 mA
6.57416398340183;0.400543212890625;0.0003662109375;6.08999998462423;610;100 mA
6.58416398337658;0.400543212890625;0.00035064697265625;6.09999998459898;611;100 mA
6.59416398335134;0.400543212890625;0.00034942626953125;6.10999998457373;612;100 mA
6.60416398332609;0.40045166015625;0.0003570556640625;6.11999998454849;613;100 mA
6.61416398330084;0.40057373046875;0.00034149169921875;6.12999998452324;614;100 mA
6.62416398327559;0.400634765625;0.00036285400390625;6.13999998449799;615;100 mA
6.63416398325035;0.40057373046875;0.000357666015624999;6.14999998447274;616;100 mA
6.6441639832251;0.400604248046875;0.0003509521484375;6.1599999844475;617;100 mA
6.65416398319985;0.400421142578125;0.000348815917968751;6.16999998442225;618;100 mA
6.6641639831746;0.400482177734375;0.000350341796875001;6.179999984397;619;100 mA
6.67416398314936;0.400390625;0.000345458984374999;6.18999998437175;620;100 mA
6.68416398312411;0.40057373046875;0.000353393554687501;6.1999999843465;621;100 mA
6.69416398309886;0.400604248046875;0.000360107421875;6.20999998432126;622;100 mA
6.70416398307361;0.400665283203125;0.000356445312500001;6.21999998429601;623;100 mA
6.71416398304837;0.4005126953125;0.00034820556640625;6.22999998427076;624;100 mA
6.72416398302312;0.4005126953125;0.000351867675781251;6.23999998424551;625;100 mA
6.73416398299787;0.400482177734375;0.000343017578125;6.24999998422027;626;100 mA
6.74416398297262;0.400604248046875;0.0003497314453125;6.25999998419502;627;100 mA
6.75416398294738;0.400482177734375;0.00036651611328125;6.26999998416977;628;100 mA
6.76416398292213;0.400665283203125;0.000350036621093749;6.27999998414452;629;100 mA
6.77416398289688;0.400543212890625;0.000354919433593751;6.28999998411928;630;100 mA
6.78416398287163;0.40057373046875;0.000340576171875;6.29999998409403;631;100 mA
6.79416398284638;0.40057373046875;0.000350036621093749;6.30999998406878;632;100 mA
6.80416398282114;0.400543212890625;0.000361328125;6.31999998404353;633;100 mA
6.81416398279589;0.40057373046875;0.00035675048828125;6.32999998401829;634;100 mA
6.82416398277064;0.4005126953125;0.000364074707031251;6.33999998399304;635;100 mA
6.83416398274539;0.400665283203125;0.00034027099609375;6.34999998396779;636;100 mA
6.84416398272015;0.400482177734375;0.0003448486328125;6.35999998394254;637;100 mA
6.8541639826949;0.400604248046875;0.00034912109375;6.3699999839173;638;100 mA
6.86416398266965;0.4005126953125;0.000354614257812499;6.37999998389205;639;100 mA
6.8741639826444;0.40057373046875;0.000366821289062499;6.3899999838668;640;100 mA
6.88416398261916;0.4005126953125;0.00034637451171875;6.39999998384155;641;100 mA
6.89416398259391;0.40057373046875;0.0003466796875;6.40999998381631;642;100 mA
6.90416398256866;0.40045166015625;0.00035247802734375;6.41999998379106;643;100 mA
6.91416398254341;0.400604248046875;0.0003448486328125;6.42999998376581;644;100 mA
6.92416398251817;0.400543212890625;0.000354614257812499;6.43999998374056;645;100 mA
6.93416398249292;0.400604248046875;0.000353088378906249;6.44999998371532;646;100 mA
6.94416398246767;0.40057373046875;0.000345458984374999;6.45999998369007;647;100 mA
6.95416398244242;0.400543212890625;0.0003460693359375;6.46999998366482;648;100 mA
6.96416398241718;0.4005126953125;0.00034454345703125;6.47999998363957;649;100 mA
6.97416398239193;0.400604248046875;0.00034820556640625;6.48999998361433;650;100 mA
6.98416398236668;0.400665283203125;0.00034912109375;6.49999998358908;651;100 mA
6.99416398234143;0.40057373046875;0.00035888671875;6.50999998356383;652;100 mA
7.00416398231619;0.40057373046875;0.00035736083984375;6.51999998353858;653;100 mA
7.01416398229094;0.40045166015625;0.000340576171875;6.52999998351333;654;100 mA
7.02416398226569;0.40045166015625;0.00035552978515625;6.53999998348809;655;100 mA
7.03416398224044;0.400482177734375;0.000343933105468749;6.54999998346284;656;100 mA
7.0441639822152;0.400604248046875;0.0003448486328125;6.55999998343759;657;100 mA
7.05416398218995;0.4005126953125;0.00036163330078125;6.56999998341234;658;100 mA
7.0641639821647;0.40069580078125;0.000347290039062501;6.5799999833871;659;100 mA
7.07416398213945;0.400482177734375;0.0003497314453125;6.58999998336185;660;100 mA
7.08416398211421;0.4005126953125;0.000345458984374999;6.5999999833366;661;100 mA
7.09416398208896;0.400482177734375;0.00034515380859375;6.60999998331135;662;100 mA
7.10416398206371;0.400604248046875;0.00035369873046875;6.61999998328611;663;100 mA
7.11416398203846;0.40057373046875;0.0003570556640625;6.62999998326086;664;100 mA
7.12416398201321;0.400634765625;0.00035369873046875;6.63999998323561;665;100 mA
7.13416398198797;0.40057373046875;0.00033843994140625;6.64999998321036;666;100 mA
7.14416398196272;0.4005126953125;0.000341186523437501;6.65999998318512;667;100 mA
7.15416398193747;0.400482177734375;0.000343933105468749;6.66999998315987;668;100 mA
7.16416398191222;0.4005126953125;0.000348510742187499;6.67999998313462;669;100 mA
7.17416398188698;0.400543212890625;0.000363769531249999;6.68999998310937;670;100 mA
7.18416398186173;0.4005126953125;0.000345764160156251;6.69999998308413;671;100 mA
7.19416398183648;0.400543212890625;0.0003466796875;6.70999998305888;672;100 mA
7.20416398181123;0.400543212890625;0.00034820556640625;6.71999998303363;673;100 mA
7.21416398178599;0.40057373046875;0.0003399658203125;6.72999998300838;674;100 mA
7.22416398176074;0.4005126953125;0.000354919433593751;6.73999998298314;675;100 mA
7.23416398173549;0.4005126953125;0.000351867675781251;6.74999998295789;676;100 mA
7.24416398171024;0.400482177734375;0.0003436279296875;6.75999998293264;677;100 mA
7.254163981685;0.400604248046875;0.0003460693359375;6.76999998290739;678;100 mA
7.26416398165975;0.40045166015625;0.000337829589843749;6.77999998288215;679;100 mA
7.2741639816345;0.400604248046875;0.00034759521484375;6.7899999828569;680;100 mA
7.28416398160925;0.40057373046875;0.000347900390625;6.79999998283165;681;100 mA
7.29416398158401;0.400543212890625;0.000364074707031251;6.8099999828064;682;100 mA
7.30416398155876;0.4005126953125;0.000351562499999999;6.81999998278116;683;100 mA
7.31416398153351;0.400482177734375;0.000343933105468749;6.82999998275591;684;100 mA
7.32416398150826;0.400482177734375;0.00035125732421875;6.83999998273066;685;100 mA
7.33416398148302;0.40057373046875;0.0003466796875;6.84999998270541;686;100 mA
7.34416398145777;0.40069580078125;0.000350036621093749;6.85999998268016;687;100 mA
7.35416398143252;0.400543212890625;0.000364990234375;6.86999998265492;688;100 mA
7.36416398140727;0.400634765625;0.000354919433593751;6.87999998262967;689;100 mA
7.37416398138203;0.400421142578125;0.0003497314453125;6.88999998260442;690;100 mA
7.38416398135678;0.40045166015625;0.000344238281250001;6.89999998257917;691;100 mA
7.39416398133153;0.400482177734375;0.00034942626953125;6.90999998255393;692;100 mA
7.40416398130628;0.400634765625;0.00035736083984375;6.91999998252868;693;100 mA
7.41416398128104;0.40057373046875;0.000365295410156249;6.92999998250343;694;100 mA
7.42416398125579;0.400634765625;0.0003570556640625;6.93999998247818;695;100 mA
7.43416398123054;0.4005126953125;0.00034210205078125;6.94999998245294;696;100 mA
7.44416398120529;0.40057373046875;0.000335693359375;6.95999998242769;697;100 mA
7.45416398118005;0.400360107421875;0.000352783203125;6.96999998240244;698;100 mA
7.4641639811548;0.400634765625;0.000346984863281249;6.97999998237719;699;100 mA
7.47416398112955;0.40057373046875;0.000368652343750001;6.98999998235195;700;100 mA
