Time (s);WE(1).Potential (V);WE(1).Current (A);Corrected time (s);Index;Current range
7.98330597984409;0.3057861328125;-0.000274658203125;0;1;100 mA
7.99330597981884;0.299530029296875;-0.0003997802734375;0.00999999997475243;2;100 mA
8.00330597979359;0.300201416015625;-0.00027587890625;0.0199999999495049;3;100 mA
8.01330597976835;0.30047607421875;-0.000205078124999999;0.0299999999242573;4;100 mA
8.0233059797431;0.30047607421875;-0.0001416015625;0.0399999998990097;5;100 mA
8.03330597971785;0.30047607421875;-9.002685546875E-05;0.0499999998737621;6;100 mA
8.0433059796926;0.30047607421875;-3.78417968750003E-05;0.0599999998485146;7;100 mA
8.05330597966736;0.300628662109375;-1.49536132812503E-05;0.069999999823267;8;100 mA
8.06330597964211;0.30047607421875;3.11279296874994E-05;0.0799999997980194;9;100 mA
8.07330597961686;0.300537109375;3.60107421875006E-05;0.0899999997727718;10;100 mA
8.08330597959161;0.30035400390625;5.79833984375E-05;0.0999999997475243;11;100 mA
8.09330597956637;0.300537109375;6.04248046875006E-05;0.109999999722277;12;100 mA
8.10330597954112;0.300506591796875;8.30078124999995E-05;0.119999999697029;13;100 mA
8.11330597951587;0.300506591796875;9.33837890624997E-05;0.129999999671782;14;100 mA
8.12330597949062;0.300445556640625;0.000121154785156249;0.139999999646534;15;100 mA
8.13330597946538;0.30059814453125;0.00012542724609375;0.149999999621286;16;100 mA
8.14330597944013;0.30047607421875;0.00011871337890625;0.159999999596039;17;100 mA
8.15330597941488;0.300506591796875;0.0001263427734375;0.169999999570791;18;100 mA
8.16330597938963;0.3004150390625;0.000145263671875;0.179999999545544;19;100 mA
8.17330597936439;0.300506591796875;0.0001385498046875;0.189999999520296;20;100 mA
8.18330597933914;0.30047607421875;0.000176086425781249;0.199999999495049;21;100 mA
8.19330597931389;0.300537109375;0.000157470703125;0.209999999469801;22;100 mA
8.20330597928864;0.300506591796875;0.00015869140625;0.219999999444553;23;100 mA
8.2133059792634;0.30047607421875;0.00015869140625;0.229999999419306;24;100 mA
8.22330597923815;0.30047607421875;0.000169982910156249;0.239999999394058;25;100 mA
8.2333059792129;0.300445556640625;0.000179138183593749;0.249999999368811;26;100 mA
8.24330597918765;0.300506591796875;0.000196533203125;0.259999999343563;27;100 mA
8.25330597916241;0.300445556640625;0.000183715820312499;0.269999999318316;28;100 mA
8.26330597913716;0.300506591796875;0.000185241699218749;0.279999999293068;29;100 mA
8.27330597911191;0.30047607421875;0.000174865722656251;0.28999999926782;30;100 mA
8.28330597908666;0.300567626953125;0.0001971435546875;0.299999999242573;31;100 mA
8.29330597906142;0.30047607421875;0.000183715820312499;0.309999999217325;32;100 mA
8.30330597903617;0.300384521484375;0.000212707519531249;0.319999999192078;33;100 mA
8.31330597901092;0.300384521484375;0.00020172119140625;0.32999999916683;34;100 mA
8.32330597898567;0.300506591796875;0.000191650390625001;0.339999999141583;35;100 mA
8.33330597896042;0.300506591796875;0.0001995849609375;0.349999999116335;36;100 mA
8.34330597893518;0.300445556640625;0.000209655761718749;0.359999999091087;37;100 mA
8.35330597890993;0.30059814453125;0.00020294189453125;0.36999999906584;38;100 mA
8.36330597888468;0.30047607421875;0.0002301025390625;0.379999999040592;39;100 mA
8.37330597885943;0.3004150390625;0.00021484375;0.389999999015345;40;100 mA
8.38330597883419;0.300506591796875;0.00021514892578125;0.399999998990097;41;100 mA
8.39330597880894;0.30047607421875;0.000203857421875001;0.40999999896485;42;100 mA
8.40330597878369;0.300537109375;0.00022003173828125;0.419999998939602;43;100 mA
8.41330597875844;0.30059814453125;0.000220642089843751;0.429999998914354;44;100 mA
8.4233059787332;0.3004150390625;0.00023681640625;0.439999998889107;45;100 mA
8.43330597870795;0.30047607421875;0.000234069824218749;0.449999998863859;46;100 mA
8.4433059786827;0.3004150390625;0.00022308349609375;0.459999998838612;47;100 mA
8.45330597865745;0.300537109375;0.0002166748046875;0.469999998813364;48;100 mA
8.46330597863221;0.30047607421875;0.000229797363281251;0.479999998788116;49;100 mA
8.47330597860696;0.300567626953125;0.000218811035156249;0.489999998762869;50;100 mA
8.48330597858171;0.300384521484375;0.000256958007812499;0.499999998737621;51;100 mA
8.49330597855646;0.300537109375;0.000232849121093751;0.509999998712374;52;100 mA
8.50330597853122;0.300506591796875;0.000225219726562501;0.519999998687126;53;100 mA
8.51330597850597;0.300537109375;0.00022613525390625;0.529999998661879;54;100 mA
8.52330597848072;0.300506591796875;0.000231323242187501;0.539999998636631;55;100 mA
8.53330597845547;0.300567626953125;0.0002337646484375;0.549999998611383;56;100 mA
8.54330597843023;0.3004150390625;0.000257568359375;0.559999998586136;57;100 mA
8.55330597840498;0.30059814453125;0.0002301025390625;0.569999998560888;58;100 mA
8.56330597837973;0.300506591796875;0.00023345947265625;0.579999998535641;59;100 mA
8.57330597835448;0.300537109375;0.00022308349609375;0.589999998510393;60;100 mA
8.58330597832924;0.30047607421875;0.00024566650390625;0.599999998485146;61;100 mA
8.59330597830399;0.300506591796875;0.000231018066406249;0.609999998459898;62;100 mA
8.60330597827874;0.300506591796875;0.000255737304687501;0.61999999843465;63;100 mA
8.61330597825349;0.30047607421875;0.0002459716796875;0.629999998409403;64;100 mA
8.62330597822825;0.300537109375;0.000232849121093751;0.639999998384155;65;100 mA
8.633305978203;0.300567626953125;0.00023834228515625;0.649999998358908;66;100 mA
8.64330597817775;0.300537109375;0.000242919921875;0.65999999833366;67;100 mA
8.6533059781525;0.300506591796875;0.00023529052734375;0.669999998308413;68;100 mA
8.66330597812726;0.30035400390625;0.000266418457031251;0.679999998283165;69;100 mA
8.67330597810201;0.3004150390625;0.000242004394531251;0.689999998257917;70;100 mA
8.68330597807676;0.300537109375;0.000248107910156251;0.69999999823267;71;100 mA
8.69330597805151;0.300537109375;0.000234069824218749;0.709999998207422;72;100 mA
8.70330597802626;0.300537109375;0.000249328613281249;0.719999998182175;73;100 mA
8.71330597800102;0.300537109375;0.0002423095703125;0.729999998156927;74;100 mA
8.72330597797577;0.300537109375;0.000263061523437499;0.73999999813168;75;100 mA
8.73330597795052;0.30047607421875;0.00025634765625;0.749999998106432;76;100 mA
8.74330597792527;0.3004150390625;0.00025054931640625;0.759999998081184;77;100 mA
8.75330597790003;0.300537109375;0.0002392578125;0.769999998055937;78;100 mA
8.76330597787478;0.300537109375;0.00025909423828125;0.779999998030689;79;100 mA
8.77330597784953;0.30059814453125;0.000246276855468749;0.789999998005442;80;100 mA
8.78330597782428;0.3004150390625;0.0002838134765625;0.799999997980194;81;100 mA
8.79330597779904;0.300506591796875;0.000251159667968751;0.809999997954947;82;100 mA
8.80330597777379;0.300384521484375;0.00025054931640625;0.819999997929699;83;100 mA
8.81330597774854;0.3004150390625;0.000246582031250001;0.829999997904451;84;100 mA
8.82330597772329;0.3004150390625;0.0002545166015625;0.839999997879204;85;100 mA
8.83330597769805;0.30059814453125;0.000250854492187499;0.849999997853956;86;100 mA
8.8433059776728;0.30035400390625;0.000280151367187501;0.859999997828709;87;100 mA
8.85330597764755;0.30059814453125;0.000256958007812499;0.869999997803461;88;100 mA
8.8633059776223;0.3004150390625;0.0002545166015625;0.879999997778214;89;100 mA
8.87330597759706;0.30047607421875;0.000241699218749999;0.889999997752966;90;100 mA
8.88330597757181;0.300445556640625;0.00025482177734375;0.899999997727718;91;100 mA
8.89330597754656;0.300537109375;0.00024444580078125;0.909999997702471;92;100 mA
8.90330597752131;0.300445556640625;0.00027130126953125;0.919999997677223;93;100 mA
8.91330597749607;0.30059814453125;0.0002545166015625;0.929999997651976;94;100 mA
8.92330597747082;0.30047607421875;0.00024688720703125;0.939999997626728;95;100 mA
8.93330597744557;0.30059814453125;0.000248107910156251;0.949999997601481;96;100 mA
8.94330597742032;0.30047607421875;0.000255432128906249;0.959999997576233;97;100 mA
8.95330597739508;0.30047607421875;0.000249633789062501;0.969999997550985;98;100 mA
8.96330597736983;0.3004150390625;0.000272521972656251;0.979999997525738;99;100 mA
8.97330597734458;0.300506591796875;0.000258789062500001;0.98999999750049;100;100 mA
8.98330597731933;0.30047607421875;0.000264892578125001;0.999999997475243;101;100 mA
8.99330597729409;0.300567626953125;0.000243530273437501;1.00999999745;102;100 mA
9.00330597726884;0.30059814453125;0.000260009765624999;1.01999999742475;103;100 mA
9.01330597724359;0.30047607421875;0.000257263183593751;1.0299999973995;104;100 mA
9.02330597721834;0.300384521484375;0.00027740478515625;1.03999999737425;105;100 mA
9.03330597719309;0.300445556640625;0.0002667236328125;1.049999997349;106;100 mA
9.04330597716785;0.30047607421875;0.0002655029296875;1.05999999732376;107;100 mA
9.0533059771426;0.300445556640625;0.000248107910156251;1.06999999729851;108;100 mA
9.06330597711735;0.300628662109375;0.0002685546875;1.07999999727326;109;100 mA
9.0733059770921;0.300537109375;0.0002484130859375;1.08999999724801;110;100 mA
9.08330597706686;0.30035400390625;0.00028717041015625;1.09999999722277;111;100 mA
9.09330597704161;0.3004150390625;0.00026519775390625;1.10999999719752;112;100 mA
9.10330597701636;0.300445556640625;0.000258789062500001;1.11999999717227;113;100 mA
9.11330597699111;0.300445556640625;0.0002532958984375;1.12999999714702;114;100 mA
9.12330597696587;0.300506591796875;0.00025909423828125;1.13999999712178;115;100 mA
9.13330597694062;0.30059814453125;0.0002593994140625;1.14999999709653;116;100 mA
9.14330597691537;0.300384521484375;0.00028350830078125;1.15999999707128;117;100 mA
9.15330597689012;0.300537109375;0.000261535644531249;1.16999999704603;118;100 mA
9.16330597686488;0.3004150390625;0.00025970458984375;1.17999999702079;119;100 mA
9.17330597683963;0.300506591796875;0.00024871826171875;1.18999999699554;120;100 mA
9.18330597681438;0.300506591796875;0.000269775390625;1.19999999697029;121;100 mA
9.19330597678913;0.300628662109375;0.000251159667968751;1.20999999694504;122;100 mA
9.20330597676389;0.3004150390625;0.000279846191406249;1.2199999969198;123;100 mA
9.21330597673864;0.300537109375;0.00026824951171875;1.22999999689455;124;100 mA
9.22330597671339;0.300445556640625;0.0002545166015625;1.2399999968693;125;100 mA
9.23330597668814;0.300628662109375;0.000250854492187499;1.24999999684405;126;100 mA
9.2433059766629;0.300384521484375;0.000269165039062499;1.25999999681881;127;100 mA
9.25330597663765;0.30059814453125;0.00025177001953125;1.26999999679356;128;100 mA
9.2633059766124;0.300445556640625;0.000280151367187501;1.27999999676831;129;100 mA
9.27330597658715;0.300567626953125;0.00026275634765625;1.28999999674306;130;100 mA
9.28330597656191;0.300506591796875;0.000267333984375;1.29999999671782;131;100 mA
9.29330597653666;0.300506591796875;0.000247802734374999;1.30999999669257;132;100 mA
9.30330597651141;0.300445556640625;0.000264892578125001;1.31999999666732;133;100 mA
9.31330597648616;0.300537109375;0.000258483886718749;1.32999999664207;134;100 mA
9.32330597646092;0.300445556640625;0.00027587890625;1.33999999661683;135;100 mA
9.33330597643567;0.300537109375;0.000270996093750001;1.34999999659158;136;100 mA
9.34330597641042;0.300506591796875;0.000263061523437499;1.35999999656633;137;100 mA
9.35330597638517;0.3006591796875;0.000251159667968751;1.36999999654108;138;100 mA
9.36330597635992;0.300567626953125;0.00026397705078125;1.37999999651583;139;100 mA
9.37330597633468;0.30047607421875;0.000255126953125;1.38999999649059;140;100 mA
9.38330597630943;0.300506591796875;0.0002838134765625;1.39999999646534;141;100 mA
9.39330597628418;0.300445556640625;0.0002667236328125;1.40999999644009;142;100 mA
9.40330597625893;0.30059814453125;0.00025787353515625;1.41999999641484;143;100 mA
9.41330597623369;0.300506591796875;0.00024871826171875;1.4299999963896;144;100 mA
9.42330597620844;0.300567626953125;0.00025970458984375;1.43999999636435;145;100 mA
9.43330597618319;0.30047607421875;0.00026092529296875;1.4499999963391;146;100 mA
9.44330597615794;0.3004150390625;0.000286254882812501;1.45999999631385;147;100 mA
9.4533059761327;0.30047607421875;0.000264892578125001;1.46999999628861;148;100 mA
9.46330597610745;0.300506591796875;0.00026214599609375;1.47999999626336;149;100 mA
9.4733059760822;0.300537109375;0.00025299072265625;1.48999999623811;150;100 mA
9.48330597605695;0.300567626953125;0.0002716064453125;1.49999999621286;151;100 mA
9.49330597603171;0.300567626953125;0.0002581787109375;1.50999999618762;152;100 mA
9.50330597600646;0.300445556640625;0.000284423828124999;1.51999999616237;153;100 mA
9.51330597598121;0.300445556640625;0.000274658203125;1.52999999613712;154;100 mA
9.52330597595596;0.300445556640625;0.000263671875;1.53999999611187;155;100 mA
9.53330597593072;0.300567626953125;0.00026275634765625;1.54999999608663;156;100 mA
9.54330597590547;0.300445556640625;0.00027313232421875;1.55999999606138;157;100 mA
9.55330597588022;0.3006591796875;0.00026275634765625;1.56999999603613;158;100 mA
9.56330597585497;0.3004150390625;0.00028717041015625;1.57999999601088;159;100 mA
9.57330597582973;0.300506591796875;0.000270690917968749;1.58999999598564;160;100 mA
9.58330597580448;0.3004150390625;0.00027496337890625;1.59999999596039;161;100 mA
9.59330597577923;0.300537109375;0.000253906249999999;1.60999999593514;162;100 mA
9.60330597575398;0.300445556640625;0.0002716064453125;1.61999999590989;163;100 mA
9.61330597572874;0.300537109375;0.00026885986328125;1.62999999588465;164;100 mA
9.62330597570349;0.300384521484375;0.00028350830078125;1.6399999958594;165;100 mA
9.63330597567824;0.300567626953125;0.00027435302734375;1.64999999583415;166;100 mA
9.64330597565299;0.3004150390625;0.000275268554687499;1.6599999958089;167;100 mA
9.65330597562775;0.300537109375;0.000260009765624999;1.66999999578366;168;100 mA
9.6633059756025;0.3004150390625;0.00027435302734375;1.67999999575841;169;100 mA
9.67330597557725;0.30047607421875;0.000256958007812499;1.68999999573316;170;100 mA
9.683305975552;0.30035400390625;0.00029571533203125;1.69999999570791;171;100 mA
9.69330597552675;0.300506591796875;0.00027191162109375;1.70999999568267;172;100 mA
9.70330597550151;0.300537109375;0.000269165039062499;1.71999999565742;173;100 mA
9.71330597547626;0.300537109375;0.00026214599609375;1.72999999563217;174;100 mA
9.72330597545101;0.30047607421875;0.000267333984375;1.73999999560692;175;100 mA
9.73330597542576;0.30047607421875;0.000269775390625;1.74999999558167;176;100 mA
9.74330597540052;0.30035400390625;0.00029266357421875;1.75999999555643;177;100 mA
9.75330597537527;0.30047607421875;0.0002764892578125;1.76999999553118;178;100 mA
9.76330597535002;0.30047607421875;0.00027587890625;1.77999999550593;179;100 mA
9.77330597532477;0.30059814453125;0.000257263183593751;1.78999999548068;180;100 mA
9.78330597529953;0.300628662109375;0.0002838134765625;1.79999999545544;181;100 mA
9.79330597527428;0.30047607421875;0.0002642822265625;1.80999999543019;182;100 mA
9.80330597524903;0.300445556640625;0.00029632568359375;1.81999999540494;183;100 mA
9.81330597522378;0.3004150390625;0.00028533935546875;1.82999999537969;184;100 mA
9.82330597519854;0.300506591796875;0.00027496337890625;1.83999999535445;185;100 mA
9.83330597517329;0.300537109375;0.000269775390625;1.8499999953292;186;100 mA
9.84330597514804;0.300567626953125;0.00028045654296875;1.85999999530395;187;100 mA
9.85330597512279;0.300506591796875;0.00027008056640625;1.8699999952787;188;100 mA
9.86330597509755;0.300445556640625;0.0002972412109375;1.87999999525346;189;100 mA
9.8733059750723;0.300445556640625;0.000280151367187501;1.88999999522821;190;100 mA
9.88330597504705;0.30047607421875;0.00028411865234375;1.89999999520296;191;100 mA
9.8933059750218;0.300537109375;0.000266113281249999;1.90999999517771;192;100 mA
9.90330597499656;0.300567626953125;0.000272216796874999;1.91999999515247;193;100 mA
9.91330597497131;0.300567626953125;0.000269775390625;1.92999999512722;194;100 mA
9.92330597494606;0.300445556640625;0.00028839111328125;1.93999999510197;195;100 mA
9.93330597492081;0.300506591796875;0.000284423828124999;1.94999999507672;196;100 mA
9.94330597489557;0.300323486328125;0.00028076171875;1.95999999505148;197;100 mA
9.95330597487032;0.300537109375;0.0002655029296875;1.96999999502623;198;100 mA
9.96330597484507;0.300506591796875;0.00027801513671875;1.97999999500098;199;100 mA
9.97330597481982;0.30059814453125;0.0002606201171875;1.98999999497573;200;100 mA
9.98330597479458;0.300445556640625;0.0002960205078125;1.99999999495049;201;100 mA
9.99330597476933;0.300506591796875;0.00027740478515625;2.00999999492524;202;100 mA
10.0033059747441;0.300537109375;0.000269165039062499;2.01999999489999;203;100 mA
10.0133059747188;0.300567626953125;0.00025970458984375;2.02999999487474;204;100 mA
10.0233059746936;0.300445556640625;0.00026824951171875;2.0399999948495;205;100 mA
10.0333059746683;0.300537109375;0.00027008056640625;2.04999999482425;206;100 mA
10.0433059746431;0.300384521484375;0.00028961181640625;2.059999994799;207;100 mA
10.0533059746178;0.300567626953125;0.00028076171875;2.06999999477375;208;100 mA
10.0633059745926;0.300567626953125;0.000274047851562501;2.0799999947485;209;100 mA
10.0733059745673;0.30059814453125;0.000258483886718749;2.08999999472326;210;100 mA
10.0833059745421;0.300445556640625;0.000278625488281251;2.09999999469801;211;100 mA
10.0933059745169;0.3004150390625;0.00026519775390625;2.10999999467276;212;100 mA
10.1033059744916;0.300445556640625;0.000289001464843749;2.11999999464751;213;100 mA
10.1133059744664;0.300506591796875;0.000286865234375;2.12999999462227;214;100 mA
10.1233059744411;0.300537109375;0.0002777099609375;2.13999999459702;215;100 mA
10.1333059744159;0.300537109375;0.0002685546875;2.14999999457177;216;100 mA
10.1433059743906;0.300537109375;0.00027801513671875;2.15999999454652;217;100 mA
10.1533059743654;0.30047607421875;0.000267639160156249;2.16999999452128;218;100 mA
10.1633059743401;0.3004150390625;0.000292053222656249;2.17999999449603;219;100 mA
10.1733059743149;0.300445556640625;0.00027801513671875;2.18999999447078;220;100 mA
10.1833059742896;0.30047607421875;0.000284729003906251;2.19999999444553;221;100 mA
10.1933059742644;0.300567626953125;0.000263366699218751;2.20999999442029;222;100 mA
10.2033059742391;0.300567626953125;0.00027435302734375;2.21999999439504;223;100 mA
10.2133059742139;0.30047607421875;0.00027130126953125;2.22999999436979;224;100 mA
10.2233059741886;0.30047607421875;0.00028839111328125;2.23999999434454;225;100 mA
10.2333059741634;0.30047607421875;0.0002880859375;2.2499999943193;226;100 mA
10.2433059741381;0.3004150390625;0.00028228759765625;2.25999999429405;227;100 mA
10.2533059741129;0.300537109375;0.000269165039062499;2.2699999942688;228;100 mA
10.2633059740876;0.300567626953125;0.00027801513671875;2.27999999424355;229;100 mA
10.2733059740624;0.30059814453125;0.0002655029296875;2.28999999421831;230;100 mA
10.2833059740371;0.300384521484375;0.000295410156250001;2.29999999419306;231;100 mA
10.2933059740119;0.30047607421875;0.000281677246093751;2.30999999416781;232;100 mA
10.3033059739867;0.300445556640625;0.000274658203125;2.31999999414256;233;100 mA
10.3133059739614;0.300537109375;0.00026702880859375;2.32999999411732;234;100 mA
10.3233059739362;0.300537109375;0.00027496337890625;2.33999999409207;235;100 mA
10.3333059739109;0.300567626953125;0.000272216796874999;2.34999999406682;236;100 mA
10.3433059738857;0.300384521484375;0.0002947998046875;2.35999999404157;237;100 mA
10.3533059738604;0.300537109375;0.000287780761718751;2.36999999401633;238;100 mA
10.3633059738352;0.300506591796875;0.00028228759765625;2.37999999399108;239;100 mA
10.3733059738099;0.300567626953125;0.00026702880859375;2.38999999396583;240;100 mA
10.3833059737847;0.30047607421875;0.0002850341796875;2.39999999394058;241;100 mA
10.3933059737594;0.300506591796875;0.00027191162109375;2.40999999391533;242;100 mA
10.4033059737342;0.3004150390625;0.000293579101562499;2.41999999389009;243;100 mA
10.4133059737089;0.300567626953125;0.00029144287109375;2.42999999386484;244;100 mA
10.4233059736837;0.300506591796875;0.000283203125000001;2.43999999383959;245;100 mA
10.4333059736584;0.300628662109375;0.0002728271484375;2.44999999381434;246;100 mA
10.4433059736332;0.3004150390625;0.000284423828124999;2.4599999937891;247;100 mA
10.4533059736079;0.30047607421875;0.00027313232421875;2.46999999376385;248;100 mA
10.4633059735827;0.300445556640625;0.00029754638671875;2.4799999937386;249;100 mA
10.4733059735574;0.30047607421875;0.00028717041015625;2.48999999371335;250;100 mA
10.4833059735322;0.30059814453125;0.0002899169921875;2.49999999368811;251;100 mA
10.4933059735069;0.30059814453125;0.0002667236328125;2.50999999366286;252;100 mA
10.5033059734817;0.30047607421875;0.000286254882812501;2.51999999363761;253;100 mA
10.5133059734565;0.300537109375;0.00027923583984375;2.52999999361236;254;100 mA
10.5233059734312;0.300445556640625;0.000299682617187499;2.53999999358712;255;100 mA
10.533305973406;0.30047607421875;0.00029632568359375;2.54999999356187;256;100 mA
10.5433059733807;0.300506591796875;0.00029632568359375;2.55999999353662;257;100 mA
10.5533059733555;0.300567626953125;0.000275268554687499;2.56999999351137;258;100 mA
10.5633059733302;0.3006591796875;0.000292053222656249;2.57999999348613;259;100 mA
10.573305973305;0.30047607421875;0.00027587890625;2.58999999346088;260;100 mA
10.5833059732797;0.3004150390625;0.00031158447265625;2.59999999343563;261;100 mA
10.5933059732545;0.300445556640625;0.000295410156250001;2.60999999341038;262;100 mA
10.6033059732292;0.30059814453125;0.000287475585937499;2.61999999338514;263;100 mA
10.613305973204;0.300537109375;0.000284423828124999;2.62999999335989;264;100 mA
10.6233059731787;0.300537109375;0.0002789306640625;2.63999999333464;265;100 mA
10.6333059731535;0.300537109375;0.000289001464843749;2.64999999330939;266;100 mA
10.6433059731282;0.3004150390625;0.0003082275390625;2.65999999328415;267;100 mA
10.653305973103;0.3004150390625;0.000298461914062501;2.6699999932589;268;100 mA
10.6633059730777;0.300506591796875;0.0002978515625;2.67999999323365;269;100 mA
10.6733059730525;0.30059814453125;0.000275573730468751;2.6899999932084;270;100 mA
10.6833059730272;0.300537109375;0.00029144287109375;2.69999999318316;271;100 mA
10.693305973002;0.300537109375;0.0002838134765625;2.70999999315791;272;100 mA
10.7033059729768;0.300445556640625;0.000304565429687501;2.71999999313266;273;100 mA
10.7133059729515;0.300537109375;0.000303039550781251;2.72999999310741;274;100 mA
10.7233059729263;0.300384521484375;0.00029022216796875;2.73999999308217;275;100 mA
10.733305972901;0.300537109375;0.000287780761718751;2.74999999305692;276;100 mA
10.7433059728758;0.3004150390625;0.000291748046875;2.75999999303167;277;100 mA
10.7533059728505;0.300567626953125;0.000282897949218749;2.76999999300642;278;100 mA
10.7633059728253;0.30047607421875;0.000303039550781251;2.77999999298117;279;100 mA
10.7733059728;0.300567626953125;0.00029449462890625;2.78999999295593;280;100 mA
10.7833059727748;0.30047607421875;0.000298461914062501;2.79999999293068;281;100 mA
10.7933059727495;0.300537109375;0.00027801513671875;2.80999999290543;282;100 mA
10.8033059727243;0.300445556640625;0.00028656005859375;2.81999999288018;283;100 mA
10.813305972699;0.300506591796875;0.000281372070312499;2.82999999285494;284;100 mA
10.8233059726738;0.300445556640625;0.000301208496093749;2.83999999282969;285;100 mA
10.8333059726485;0.300537109375;0.0003021240234375;2.84999999280444;286;100 mA
10.8433059726233;0.300506591796875;0.0002947998046875;2.85999999277919;287;100 mA
10.853305972598;0.30059814453125;0.0002825927734375;2.86999999275395;288;100 mA
10.8633059725728;0.300506591796875;0.00029022216796875;2.8799999927287;289;100 mA
10.8733059725475;0.3004150390625;0.00028106689453125;2.88999999270345;290;100 mA
10.8833059725223;0.30047607421875;0.000311889648437499;2.8999999926782;291;100 mA
10.893305972497;0.300445556640625;0.0002978515625;2.90999999265296;292;100 mA
10.9033059724718;0.300537109375;0.000296936035156251;2.91999999262771;293;100 mA
10.9133059724466;0.300567626953125;0.00028350830078125;2.92999999260246;294;100 mA
10.9233059724213;0.300567626953125;0.000285949707031249;2.93999999257721;295;100 mA
10.9333059723961;0.300506591796875;0.000289001464843749;2.94999999255197;296;100 mA
10.9433059723708;0.300384521484375;0.00031097412109375;2.95999999252672;297;100 mA
10.9533059723456;0.300445556640625;0.000295410156250001;2.96999999250147;298;100 mA
10.9633059723203;0.300567626953125;0.00029876708984375;2.97999999247622;299;100 mA
10.9733059722951;0.30059814453125;0.00027618408203125;2.98999999245098;300;100 mA
10.9833059722698;0.3006591796875;0.000292358398437501;2.99999999242573;301;100 mA
10.9933059722446;0.30047607421875;0.000279846191406249;3.00999999240048;302;100 mA
11.0033059722193;0.300445556640625;0.000299072265625;3.01999999237523;303;100 mA
11.0133059721941;0.3004150390625;0.000299682617187499;3.02999999234999;304;100 mA
11.0233059721688;0.30059814453125;0.0002911376953125;3.03999999232474;305;100 mA
11.0333059721436;0.300537109375;0.00028411865234375;3.04999999229949;306;100 mA
11.0433059721183;0.300506591796875;0.0002899169921875;3.05999999227424;307;100 mA
11.0533059720931;0.300628662109375;0.000278625488281251;3.069999992249;308;100 mA
11.0633059720678;0.30047607421875;0.00029937744140625;3.07999999222375;309;100 mA
11.0733059720426;0.3004150390625;0.0002978515625;3.0899999921985;310;100 mA
11.0833059720173;0.300506591796875;0.0002947998046875;3.09999999217325;311;100 mA
11.0933059719921;0.300506591796875;0.00027587890625;3.109999992148;312;100 mA
11.1033059719668;0.300506591796875;0.000287475585937499;3.11999999212276;313;100 mA
11.1133059719416;0.300506591796875;0.000281677246093751;3.12999999209751;314;100 mA
11.1233059719164;0.3004150390625;0.0003009033203125;3.13999999207226;315;100 mA
11.1333059718911;0.300537109375;0.000303039550781251;3.14999999204701;316;100 mA
11.1433059718659;0.30047607421875;0.000296630859374999;3.15999999202177;317;100 mA
11.1533059718406;0.3006591796875;0.00027587890625;3.16999999199652;318;100 mA
11.1633059718154;0.30047607421875;0.000292358398437501;3.17999999197127;319;100 mA
11.1733059717901;0.300506591796875;0.000281372070312499;3.18999999194602;320;100 mA
11.1833059717649;0.30047607421875;0.00030487060546875;3.19999999192078;321;100 mA
11.1933059717396;0.300537109375;0.00029876708984375;3.20999999189553;322;100 mA
11.2033059717144;0.300567626953125;0.0002947998046875;3.21999999187028;323;100 mA
11.2133059716891;0.300628662109375;0.00027587890625;3.22999999184503;324;100 mA
11.2233059716639;0.300445556640625;0.000287780761718751;3.23999999181979;325;100 mA
11.2333059716386;0.300506591796875;0.000286254882812501;3.24999999179454;326;100 mA
11.2433059716134;0.300384521484375;0.0003009033203125;3.25999999176929;327;100 mA
11.2533059715881;0.300506591796875;0.00029632568359375;3.26999999174404;328;100 mA
11.2633059715629;0.300567626953125;0.00029571533203125;3.2799999917188;329;100 mA
11.2733059715376;0.30059814453125;0.000272521972656251;3.28999999169355;330;100 mA
11.2833059715124;0.300567626953125;0.00028533935546875;3.2999999916683;331;100 mA
11.2933059714871;0.300445556640625;0.00027618408203125;3.30999999164305;332;100 mA
11.3033059714619;0.3004150390625;0.000287780761718751;3.31999999161781;333;100 mA
11.3133059714366;0.3004150390625;0.0002911376953125;3.32999999159256;334;100 mA
11.3233059714114;0.300567626953125;0.000278625488281251;3.33999999156731;335;100 mA
11.3333059713862;0.30059814453125;0.000278320312499999;3.34999999154206;336;100 mA
11.3433059713609;0.3006591796875;0.00027801513671875;3.35999999151682;337;100 mA
11.3533059713357;0.30047607421875;0.000269470214843751;3.36999999149157;338;100 mA
11.3633059713104;0.30047607421875;0.0002886962890625;3.37999999146632;339;100 mA
11.3733059712852;0.3004150390625;0.000285949707031249;3.38999999144107;340;100 mA
11.3833059712599;0.300537109375;0.000287475585937499;3.39999999141583;341;100 mA
11.3933059712347;0.300537109375;0.0002655029296875;3.40999999139058;342;100 mA
11.4033059712094;0.3006591796875;0.0002716064453125;3.41999999136533;343;100 mA
11.4133059711842;0.300537109375;0.0002728271484375;3.42999999134008;344;100 mA
11.4233059711589;0.3004150390625;0.000286865234375;3.43999999131483;345;100 mA
11.4333059711337;0.300506591796875;0.00029571533203125;3.44999999128959;346;100 mA
11.4433059711084;0.300506591796875;0.00028564453125;3.45999999126434;347;100 mA
11.4533059710832;0.300537109375;0.00026885986328125;3.46999999123909;348;100 mA
11.4633059710579;0.300537109375;0.000278625488281251;3.47999999121384;349;100 mA
11.4733059710327;0.30059814453125;0.000264587402343749;3.4899999911886;350;100 mA
11.4833059710074;0.300445556640625;0.000292053222656249;3.49999999116335;351;100 mA
11.4933059709822;0.300506591796875;0.000281982421875;3.5099999911381;352;100 mA
11.5033059709569;0.300506591796875;0.00028411865234375;3.51999999111285;353;100 mA
11.5133059709317;0.30059814453125;0.000266113281249999;3.52999999108761;354;100 mA
11.5233059709064;0.3004150390625;0.0002734375;3.53999999106236;355;100 mA
11.5333059708812;0.300567626953125;0.0002789306640625;3.54999999103711;356;100 mA
11.543305970856;0.300445556640625;0.00028839111328125;3.55999999101186;357;100 mA
11.5533059708307;0.30059814453125;0.000286865234375;3.56999999098662;358;100 mA
11.5633059708055;0.30047607421875;0.000287780761718751;3.57999999096137;359;100 mA
11.5733059707802;0.300537109375;0.0002667236328125;3.58999999093612;360;100 mA
11.583305970755;0.300445556640625;0.00028076171875;3.59999999091087;361;100 mA
11.5933059707297;0.300506591796875;0.00026519775390625;3.60999999088563;362;100 mA
11.6033059707045;0.3004150390625;0.000289001464843749;3.61999999086038;363;100 mA
11.6133059706792;0.300537109375;0.000290527343749999;3.62999999083513;364;100 mA
11.623305970654;0.300537109375;0.00027923583984375;3.63999999080988;365;100 mA
11.6333059706287;0.30059814453125;0.000269775390625;3.64999999078464;366;100 mA
11.6433059706035;0.300445556640625;0.0002777099609375;3.65999999075939;367;100 mA
11.6533059705782;0.300537109375;0.000264587402343749;3.66999999073414;368;100 mA
11.663305970553;0.300445556640625;0.000285949707031249;3.67999999070889;369;100 mA
11.6733059705277;0.30047607421875;0.000286865234375;3.68999999068365;370;100 mA
11.6833059705025;0.300628662109375;0.000293884277343751;3.6999999906584;371;100 mA
11.6933059704772;0.30059814453125;0.000260009765624999;3.70999999063315;372;100 mA
11.703305970452;0.30059814453125;0.0002734375;3.7199999906079;373;100 mA
11.7133059704267;0.300445556640625;0.000269775390625;3.72999999058266;374;100 mA
11.7233059704015;0.300537109375;0.000285949707031249;3.73999999055741;375;100 mA
11.7333059703763;0.3004150390625;0.00029449462890625;3.74999999053216;376;100 mA
11.743305970351;0.300537109375;0.00028656005859375;3.75999999050691;377;100 mA
11.7533059703258;0.30059814453125;0.000267639160156249;3.76999999048167;378;100 mA
11.7633059703005;0.300567626953125;0.000278320312499999;3.77999999045642;379;100 mA
11.7733059702753;0.300445556640625;0.000273742675781249;3.78999999043117;380;100 mA
11.78330597025;0.30047607421875;0.000299682617187499;3.79999999040592;381;100 mA
11.7933059702248;0.300445556640625;0.0002899169921875;3.80999999038067;382;100 mA
11.8033059701995;0.30059814453125;0.000284729003906251;3.81999999035543;383;100 mA
11.8133059701743;0.300537109375;0.000275268554687499;3.82999999033018;384;100 mA
11.823305970149;0.300567626953125;0.00027130126953125;3.83999999030493;385;100 mA
11.8333059701238;0.300506591796875;0.00028076171875;3.84999999027968;386;100 mA
11.8433059700985;0.3004150390625;0.00029022216796875;3.85999999025444;387;100 mA
11.8533059700733;0.300537109375;0.000287780761718751;3.86999999022919;388;100 mA
11.863305970048;0.3004150390625;0.00029327392578125;3.87999999020394;389;100 mA
11.8733059700228;0.300628662109375;0.000267944335937501;3.88999999017869;390;100 mA
11.8833059699975;0.300506591796875;0.000281677246093751;3.89999999015345;391;100 mA
11.8933059699723;0.30059814453125;0.00026885986328125;3.9099999901282;392;100 mA
11.903305969947;0.30047607421875;0.00028839111328125;3.91999999010295;393;100 mA
11.9133059699218;0.300537109375;0.000292053222656249;3.9299999900777;394;100 mA
11.9233059698965;0.300506591796875;0.0002825927734375;3.93999999005246;395;100 mA
11.9333059698713;0.300628662109375;0.00027435302734375;3.94999999002721;396;100 mA
11.9433059698461;0.30047607421875;0.000276794433593749;3.95999999000196;397;100 mA
11.9533059698208;0.300567626953125;0.00027313232421875;3.96999998997671;398;100 mA
11.9633059697956;0.300537109375;0.000285949707031249;3.97999998995147;399;100 mA
11.9733059697703;0.300537109375;0.00028839111328125;3.98999998992622;400;100 mA
11.9833059697451;0.300537109375;0.000287475585937499;3.99999998990097;401;100 mA
11.9933059697198;0.300567626953125;0.000264892578125001;4.00999998987572;402;100 mA
12.0033059696946;0.300445556640625;0.000270996093750001;4.01999998985048;403;100 mA
12.0133059696693;0.300445556640625;0.000274658203125;4.02999998982523;404;100 mA
12.0233059696441;0.300445556640625;0.000286865234375;4.03999998979998;405;100 mA
12.0333059696188;0.300506591796875;0.000292358398437501;4.04999998977473;406;100 mA
12.0433059695936;0.300537109375;0.000287780761718751;4.05999998974949;407;100 mA
12.0533059695683;0.3006591796875;0.000263061523437499;4.06999998972424;408;100 mA
12.0633059695431;0.300506591796875;0.000279541015625;4.07999998969899;409;100 mA
12.0733059695178;0.300445556640625;0.0002685546875;4.08999998967374;410;100 mA
12.0833059694926;0.30047607421875;0.000287780761718751;4.0999999896485;411;100 mA
12.0933059694673;0.30047607421875;0.000281982421875;4.10999998962325;412;100 mA
12.1033059694421;0.300567626953125;0.0002838134765625;4.119999989598;413;100 mA
12.1133059694168;0.300537109375;0.00027435302734375;4.12999998957275;414;100 mA
12.1233059693916;0.300628662109375;0.00027008056640625;4.1399999895475;415;100 mA
12.1333059693663;0.300445556640625;0.00027587890625;4.14999998952226;416;100 mA
12.1433059693411;0.3004150390625;0.000290527343749999;4.15999998949701;417;100 mA
12.1533059693159;0.300384521484375;0.00028564453125;4.16999998947176;418;100 mA
12.1633059692906;0.300567626953125;0.00028717041015625;4.17999998944651;419;100 mA
12.1733059692654;0.300567626953125;0.000267333984375;4.18999998942127;420;100 mA
12.1833059692401;0.300567626953125;0.00027923583984375;4.19999998939602;421;100 mA
12.1933059692149;0.300506591796875;0.0002685546875;4.20999998937077;422;100 mA
12.2033059691896;0.300506591796875;0.00028076171875;4.21999998934552;423;100 mA
12.2133059691644;0.30047607421875;0.00029144287109375;4.22999998932028;424;100 mA
12.2233059691391;0.300506591796875;0.00028045654296875;4.23999998929503;425;100 mA
12.2333059691139;0.300567626953125;0.000275573730468751;4.24999998926978;426;100 mA
12.2433059690886;0.300537109375;0.00027587890625;4.25999998924453;427;100 mA
12.2533059690634;0.300567626953125;0.0002764892578125;4.26999998921929;428;100 mA
12.2633059690381;0.300506591796875;0.0002850341796875;4.27999998919404;429;100 mA
12.2733059690129;0.30047607421875;0.000287475585937499;4.28999998916879;430;100 mA
12.2833059689876;0.30047607421875;0.00029022216796875;4.29999998914354;431;100 mA
12.2933059689624;0.300537109375;0.000267944335937501;4.3099999891183;432;100 mA
12.3033059689371;0.30047607421875;0.000274658203125;4.31999998909305;433;100 mA
12.3133059689119;0.300506591796875;0.0002789306640625;4.3299999890678;434;100 mA
12.3233059688866;0.30047607421875;0.000281677246093751;4.33999998904255;435;100 mA
12.3333059688614;0.300537109375;0.000298461914062501;4.34999998901731;436;100 mA
12.3433059688361;0.300506591796875;0.000287780761718751;4.35999998899206;437;100 mA
12.3533059688109;0.300628662109375;0.00027130126953125;4.36999998896681;438;100 mA
12.3633059687857;0.300506591796875;0.00027587890625;4.37999998894156;439;100 mA
12.3733059687604;0.300445556640625;0.000269775390625;4.38999998891632;440;100 mA
12.3833059687352;0.300506591796875;0.0002880859375;4.39999998889107;441;100 mA
12.3933059687099;0.300567626953125;0.00028717041015625;4.40999998886582;442;100 mA
12.4033059686847;0.30059814453125;0.00028228759765625;4.41999998884057;443;100 mA
12.4133059686594;0.300628662109375;0.000272216796874999;4.42999998881533;444;100 mA
12.4233059686342;0.300445556640625;0.0002703857421875;4.43999998879008;445;100 mA
12.4333059686089;0.30047607421875;0.000278625488281251;4.44999998876483;446;100 mA
12.4433059685837;0.300445556640625;0.00028564453125;4.45999998873958;447;100 mA
12.4533059685584;0.300506591796875;0.000283203125000001;4.46999998871433;448;100 mA
12.4633059685332;0.300567626953125;0.000285949707031249;4.47999998868909;449;100 mA
12.4733059685079;0.300628662109375;0.000266418457031251;4.48999998866384;450;100 mA
12.4833059684827;0.300537109375;0.000278625488281251;4.49999998863859;451;100 mA
12.4933059684574;0.300384521484375;0.00027496337890625;4.50999998861334;452;100 mA
12.5033059684322;0.300506591796875;0.000281982421875;4.5199999885881;453;100 mA
12.5133059684069;0.3004150390625;0.000295104980468749;4.52999998856285;454;100 mA
12.5233059683817;0.30059814453125;0.00028564453125;4.5399999885376;455;100 mA
12.5333059683564;0.300537109375;0.00028076171875;4.54999998851235;456;100 mA
12.5433059683312;0.30059814453125;0.000273742675781249;4.55999998848711;457;100 mA
12.5533059683059;0.30047607421875;0.000274658203125;4.56999998846186;458;100 mA
12.5633059682807;0.300506591796875;0.000286254882812501;4.57999998843661;459;100 mA
12.5733059682555;0.300445556640625;0.000290527343749999;4.58999998841136;460;100 mA
12.5833059682302;0.300567626953125;0.00029266357421875;4.59999998838612;461;100 mA
12.593305968205;0.300537109375;0.0002716064453125;4.60999998836087;462;100 mA
12.6033059681797;0.300567626953125;0.000272521972656251;4.61999998833562;463;100 mA
12.6133059681545;0.300537109375;0.000281372070312499;4.62999998831037;464;100 mA
12.6233059681292;0.300537109375;0.0002789306640625;4.63999998828513;465;100 mA
12.633305968104;0.3004150390625;0.00030029296875;4.64999998825988;466;100 mA
12.6433059680787;0.30047607421875;0.000296936035156251;4.65999998823463;467;100 mA
12.6533059680535;0.30059814453125;0.000278625488281251;4.66999998820938;468;100 mA
12.6633059680282;0.300537109375;0.00027923583984375;4.67999998818414;469;100 mA
12.673305968003;0.30059814453125;0.0002825927734375;4.68999998815889;470;100 mA
12.6833059679777;0.30047607421875;0.000293884277343751;4.69999998813364;471;100 mA
12.6933059679525;0.300567626953125;0.0002972412109375;4.70999998810839;472;100 mA
12.7033059679272;0.300506591796875;0.00029327392578125;4.71999998808315;473;100 mA
12.713305967902;0.300537109375;0.00028350830078125;4.7299999880579;474;100 mA
12.7233059678767;0.30047607421875;0.000277099609375001;4.73999998803265;475;100 mA
12.7333059678515;0.300445556640625;0.000294189453125;4.7499999880074;476;100 mA
12.7433059678262;0.30059814453125;0.000285949707031249;4.75999998798216;477;100 mA
12.753305967801;0.300567626953125;0.0003009033203125;4.76999998795691;478;100 mA
12.7633059677758;0.300537109375;0.00030059814453125;4.77999998793166;479;100 mA
12.7733059677505;0.300628662109375;0.000274658203125;4.78999998790641;480;100 mA
12.7833059677253;0.300445556640625;0.000289001464843749;4.79999998788116;481;100 mA
12.7933059677;0.3004150390625;0.00028533935546875;4.80999998785592;482;100 mA
12.8033059676748;0.30047607421875;0.000286865234375;4.81999998783067;483;100 mA
12.8133059676495;0.300567626953125;0.000307312011718749;4.82999998780542;484;100 mA
12.8233059676243;0.300567626953125;0.00029327392578125;4.83999998778017;485;100 mA
12.833305967599;0.300567626953125;0.000287475585937499;4.84999998775493;486;100 mA
12.8433059675738;0.30047607421875;0.0002880859375;4.85999998772968;487;100 mA
12.8533059675485;0.3004150390625;0.000289001464843749;4.86999998770443;488;100 mA
12.8633059675233;0.30047607421875;0.0002899169921875;4.87999998767918;489;100 mA
12.873305967498;0.3004150390625;0.00030181884765625;4.88999998765394;490;100 mA
12.8833059674728;0.30059814453125;0.00030548095703125;4.89999998762869;491;100 mA
12.8933059674475;0.300567626953125;0.00028106689453125;4.90999998760344;492;100 mA
12.9033059674223;0.300628662109375;0.000281982421875;4.91999998757819;493;100 mA
12.913305967397;0.3004150390625;0.000290527343749999;4.92999998755295;494;100 mA
12.9233059673718;0.300537109375;0.0002911376953125;4.9399999875277;495;100 mA
12.9333059673465;0.30035400390625;0.00031097412109375;4.94999998750245;496;100 mA
12.9433059673213;0.30059814453125;0.0002972412109375;4.9599999874772;497;100 mA
12.953305967296;0.30059814453125;0.00028228759765625;4.96999998745196;498;100 mA
12.9633059672708;0.3006591796875;0.000284423828124999;4.97999998742671;499;100 mA
12.9733059672456;0.300445556640625;0.00028656005859375;4.98999998740146;500;100 mA
12.9833059672203;0.300506591796875;0.0002978515625;4.99999998737621;501;100 mA
12.9933059671951;0.300445556640625;0.000299682617187499;5.00999998735097;502;100 mA
13.0033059671698;0.300537109375;0.00029876708984375;5.01999998732572;503;100 mA
13.0133059671446;0.300537109375;0.000285949707031249;5.02999998730047;504;100 mA
13.0233059671193;0.300506591796875;0.0002789306640625;5.03999998727522;505;100 mA
13.0333059670941;0.300567626953125;0.000295410156250001;5.04999998724998;506;100 mA
13.0433059670688;0.300567626953125;0.000290832519531251;5.05999998722473;507;100 mA
13.0533059670436;0.300537109375;0.00030059814453125;5.06999998719948;508;100 mA
13.0633059670183;0.300506591796875;0.000296936035156251;5.07999998717423;509;100 mA
13.0733059669931;0.300506591796875;0.000281982421875;5.08999998714899;510;100 mA
13.0833059669678;0.300506591796875;0.000287475585937499;5.09999998712374;511;100 mA
13.0933059669426;0.300506591796875;0.000284423828124999;5.10999998709849;512;100 mA
13.1033059669173;0.300537109375;0.0002886962890625;5.11999998707324;513;100 mA
13.1133059668921;0.30059814453125;0.00030792236328125;5.129999987048;514;100 mA
13.1233059668668;0.300506591796875;0.000296936035156251;5.13999998702275;515;100 mA
13.1333059668416;0.300567626953125;0.000291748046875;5.1499999869975;516;100 mA
13.1433059668163;0.30047607421875;0.000286254882812501;5.15999998697225;517;100 mA
13.1533059667911;0.30047607421875;0.000295104980468749;5.169999986947;518;100 mA
13.1633059667658;0.300567626953125;0.00029022216796875;5.17999998692176;519;100 mA
13.1733059667406;0.300567626953125;0.000304260253906249;5.18999998689651;520;100 mA
13.1833059667154;0.30059814453125;0.0003021240234375;5.19999998687126;521;100 mA
13.1933059666901;0.30059814453125;0.0002850341796875;5.20999998684601;522;100 mA
13.2033059666649;0.30047607421875;0.00028656005859375;5.21999998682077;523;100 mA
13.2133059666396;0.3004150390625;0.000302734374999999;5.22999998679552;524;100 mA
13.2233059666144;0.30059814453125;0.000290832519531251;5.23999998677027;525;100 mA
13.2333059665891;0.30047607421875;0.000316772460937501;5.24999998674502;526;100 mA
13.2433059665639;0.300567626953125;0.000308837890624999;5.25999998671978;527;100 mA
13.2533059665386;0.30059814453125;0.000292053222656249;5.26999998669453;528;100 mA
13.2633059665134;0.30059814453125;0.00029022216796875;5.27999998666928;529;100 mA
13.2733059664881;0.300384521484375;0.000296630859374999;5.28999998664403;530;100 mA
13.2833059664629;0.300537109375;0.0003009033203125;5.29999998661879;531;100 mA
13.2933059664376;0.300445556640625;0.000306396484375;5.30999998659354;532;100 mA
13.3033059664124;0.30059814453125;0.000303955078125;5.31999998656829;533;100 mA
13.3133059663871;0.300537109375;0.00029266357421875;5.32999998654304;534;100 mA
13.3233059663619;0.30059814453125;0.00028717041015625;5.3399999865178;535;100 mA
13.3333059663366;0.300445556640625;0.000301208496093749;5.34999998649255;536;100 mA
13.3433059663114;0.300567626953125;0.00029327392578125;5.3599999864673;537;100 mA
13.3533059662861;0.300445556640625;0.000303955078125;5.36999998644205;538;100 mA
13.3633059662609;0.30059814453125;0.0003033447265625;5.37999998641681;539;100 mA
13.3733059662356;0.300537109375;0.000286254882812501;5.38999998639156;540;100 mA
13.3833059662104;0.30059814453125;0.000293579101562499;5.39999998636631;541;100 mA
13.3933059661852;0.300445556640625;0.00029266357421875;5.40999998634106;542;100 mA
13.4033059661599;0.300537109375;0.000293884277343751;5.41999998631582;543;100 mA
13.4133059661347;0.300445556640625;0.000310668945312501;5.42999998629057;544;100 mA
13.4233059661094;0.30047607421875;0.0003033447265625;5.43999998626532;545;100 mA
13.4333059660842;0.300506591796875;0.0002947998046875;5.44999998624007;546;100 mA
13.4433059660589;0.30047607421875;0.0002886962890625;5.45999998621483;547;100 mA
13.4533059660337;0.300567626953125;0.0002972412109375;5.46999998618958;548;100 mA
13.4633059660084;0.300506591796875;0.00029632568359375;5.47999998616433;549;100 mA
13.4733059659832;0.300506591796875;0.00030242919921875;5.48999998613908;550;100 mA
13.4833059659579;0.300506591796875;0.000307617187500001;5.49999998611383;551;100 mA
13.4933059659327;0.300567626953125;0.00029022216796875;5.50999998608859;552;100 mA
13.5033059659074;0.300506591796875;0.0002850341796875;5.51999998606334;553;100 mA
13.5133059658822;0.300506591796875;0.00029937744140625;5.52999998603809;554;100 mA
13.5233059658569;0.300506591796875;0.0002880859375;5.53999998601284;555;100 mA
13.5333059658317;0.300537109375;0.000311889648437499;5.5499999859876;556;100 mA
13.5433059658064;0.300506591796875;0.00030181884765625;5.55999998596235;557;100 mA
13.5533059657812;0.30059814453125;0.00028717041015625;5.5699999859371;558;100 mA
13.5633059657559;0.300445556640625;0.00028656005859375;5.57999998591185;559;100 mA
13.5733059657307;0.300445556640625;0.000294189453125;5.58999998588661;560;100 mA
13.5833059657054;0.300506591796875;0.00030059814453125;5.59999998586136;561;100 mA
13.5933059656802;0.300537109375;0.00029571533203125;5.60999998583611;562;100 mA
13.603305965655;0.300567626953125;0.00029937744140625;5.61999998581086;563;100 mA
13.6133059656297;0.300537109375;0.000290832519531251;5.62999998578562;564;100 mA
13.6233059656045;0.300445556640625;0.000281982421875;5.63999998576037;565;100 mA
13.6333059655792;0.3004150390625;0.0003021240234375;5.64999998573512;566;100 mA
13.643305965554;0.300537109375;0.0002886962890625;5.65999998570987;567;100 mA
13.6533059655287;0.300506591796875;0.0003021240234375;5.66999998568463;568;100 mA
13.6633059655035;0.300567626953125;0.00030242919921875;5.67999998565938;569;100 mA
13.6733059654782;0.300628662109375;0.00028045654296875;5.68999998563413;570;100 mA
13.683305965453;0.30059814453125;0.0002886962890625;5.69999998560888;571;100 mA
13.6933059654277;0.3004150390625;0.000287780761718751;5.70999998558364;572;100 mA
13.7033059654025;0.300537109375;0.0002886962890625;5.71999998555839;573;100 mA
13.7133059653772;0.3004150390625;0.000308837890624999;5.72999998553314;574;100 mA
13.723305965352;0.30059814453125;0.000296936035156251;5.73999998550789;575;100 mA
13.7333059653267;0.300506591796875;0.00029754638671875;5.74999998548265;576;100 mA
13.7433059653015;0.30059814453125;0.0002825927734375;5.7599999854574;577;100 mA
13.7533059652762;0.300445556640625;0.00029144287109375;5.76999998543215;578;100 mA
13.763305965251;0.300567626953125;0.00029449462890625;5.7799999854069;579;100 mA
13.7733059652257;0.30047607421875;0.0002978515625;5.78999998538166;580;100 mA
13.7833059652005;0.300537109375;0.000303039550781251;5.79999998535641;581;100 mA
13.7933059651753;0.300537109375;0.000281372070312499;5.80999998533116;582;100 mA
13.80330596515;0.30059814453125;0.000278625488281251;5.81999998530591;583;100 mA
13.8133059651248;0.300445556640625;0.000296630859374999;5.82999998528066;584;100 mA
13.8233059650995;0.300506591796875;0.000286865234375;5.83999998525542;585;100 mA
13.8333059650743;0.300506591796875;0.00030548095703125;5.84999998523017;586;100 mA
13.843305965049;0.30047607421875;0.00029632568359375;5.85999998520492;587;100 mA
13.8533059650238;0.30047607421875;0.000285949707031249;5.86999998517967;588;100 mA
13.8633059649985;0.300537109375;0.000280151367187501;5.87999998515443;589;100 mA
13.8733059649733;0.300537109375;0.00028656005859375;5.88999998512918;590;100 mA
13.883305964948;0.300567626953125;0.00028961181640625;5.89999998510393;591;100 mA
13.8933059649228;0.300567626953125;0.000296936035156251;5.90999998507868;592;100 mA
13.9033059648975;0.300506591796875;0.00029449462890625;5.91999998505344;593;100 mA
13.9133059648723;0.300537109375;0.000289001464843749;5.92999998502819;594;100 mA
13.923305964847;0.30047607421875;0.000275268554687499;5.93999998500294;595;100 mA
13.9333059648218;0.30047607421875;0.0003009033203125;5.94999998497769;596;100 mA
13.9433059647965;0.300567626953125;0.0002838134765625;5.95999998495245;597;100 mA
13.9533059647713;0.30059814453125;0.000299682617187499;5.9699999849272;598;100 mA
13.963305964746;0.300506591796875;0.000299987792968751;5.97999998490195;599;100 mA
13.9733059647208;0.300506591796875;0.000281677246093751;5.9899999848767;600;100 mA
13.9833059646955;0.3004150390625;0.000285949707031249;5.99999998485146;601;100 mA
13.9933059646703;0.300445556640625;0.000287780761718751;6.00999998482621;602;100 mA
14.0033059646451;0.300506591796875;0.00028656005859375;6.01999998480096;603;100 mA
14.0133059646198;0.300567626953125;0.00029876708984375;6.02999998477571;604;100 mA
14.0233059645946;0.300506591796875;0.00029571533203125;6.03999998475047;605;100 mA
14.0333059645693;0.300537109375;0.0002886962890625;6.04999998472522;606;100 mA
14.0433059645441;0.300445556640625;0.00027618408203125;6.05999998469997;607;100 mA
14.0533059645188;0.3004150390625;0.000292053222656249;6.06999998467472;608;100 mA
14.0633059644936;0.300567626953125;0.000281982421875;6.07999998464948;609;100 mA
14.0733059644683;0.3004150390625;0.00029937744140625;6.08999998462423;610;100 mA
14.0833059644431;0.300628662109375;0.000298461914062501;6.09999998459898;611;100 mA
14.0933059644178;0.30047607421875;0.000280151367187501;6.10999998457373;612;100 mA
14.1033059643926;0.300537109375;0.00027923583984375;6.11999998454849;613;100 mA
14.1133059643673;0.3004150390625;0.00029144287109375;6.12999998452324;614;100 mA
14.1233059643421;0.300537109375;0.00027923583984375;6.13999998449799;615;100 mA
14.1333059643168;0.3004150390625;0.00029876708984375;6.14999998447274;616;100 mA
14.1433059642916;0.300537109375;0.00029144287109375;6.1599999844475;617;100 mA
14.1533059642663;0.300537109375;0.0002777099609375;6.16999998442225;618;100 mA
14.1633059642411;0.30059814453125;0.00028076171875;6.179999984397;619;100 mA
14.1733059642158;0.30047607421875;0.00028350830078125;6.18999998437175;620;100 mA
14.1833059641906;0.30059814453125;0.00028411865234375;6.1999999843465;621;100 mA
14.1933059641653;0.30047607421875;0.000290527343749999;6.20999998432126;622;100 mA
14.2033059641401;0.300537109375;0.00029266357421875;6.21999998429601;623;100 mA
14.2133059641149;0.300445556640625;0.0002886962890625;6.22999998427076;624;100 mA
14.2233059640896;0.300506591796875;0.000278320312499999;6.23999998424551;625;100 mA
14.2333059640644;0.300537109375;0.000292358398437501;6.24999998422027;626;100 mA
14.2433059640391;0.30059814453125;0.00028045654296875;6.25999998419502;627;100 mA
14.2533059640139;0.3004150390625;0.00030059814453125;6.26999998416977;628;100 mA
14.2633059639886;0.300445556640625;0.0002972412109375;6.27999998414452;629;100 mA
14.2733059639634;0.300506591796875;0.000280151367187501;6.28999998411928;630;100 mA
14.2833059639381;0.30047607421875;0.000283203125000001;6.29999998409403;631;100 mA
14.2933059639129;0.300567626953125;0.00028656005859375;6.30999998406878;632;100 mA
14.3033059638876;0.30059814453125;0.00028045654296875;6.31999998404353;633;100 mA
14.3133059638624;0.30047607421875;0.00029754638671875;6.32999998401829;634;100 mA
14.3233059638371;0.30047607421875;0.000289306640625001;6.33999998399304;635;100 mA
14.3333059638119;0.300506591796875;0.000284423828124999;6.34999998396779;636;100 mA
14.3433059637866;0.3004150390625;0.00027618408203125;6.35999998394254;637;100 mA
14.3533059637614;0.300537109375;0.0002838134765625;6.3699999839173;638;100 mA
14.3633059637361;0.300567626953125;0.000282897949218749;6.37999998389205;639;100 mA
14.3733059637109;0.300537109375;0.00029022216796875;6.3899999838668;640;100 mA
14.3833059636856;0.300506591796875;0.000295104980468749;6.39999998384155;641;100 mA
14.3933059636604;0.300567626953125;0.000272521972656251;6.40999998381631;642;100 mA
14.4033059636351;0.3004150390625;0.0002728271484375;6.41999998379106;643;100 mA
14.4133059636099;0.300445556640625;0.00029022216796875;6.42999998376581;644;100 mA
14.4233059635847;0.300567626953125;0.000272216796874999;6.43999998374056;645;100 mA
14.4333059635594;0.300537109375;0.0002972412109375;6.44999998371532;646;100 mA
14.4433059635342;0.300506591796875;0.000284729003906251;6.45999998369007;647;100 mA
14.4533059635089;0.300567626953125;0.00028076171875;6.46999998366482;648;100 mA
14.4633059634837;0.300506591796875;0.00027008056640625;6.47999998363957;649;100 mA
14.4733059634584;0.3004150390625;0.000281677246093751;6.48999998361433;650;100 mA
14.4833059634332;0.300567626953125;0.0002850341796875;6.49999998358908;651;100 mA
14.4933059634079;0.300567626953125;0.000289306640625001;6.50999998356383;652;100 mA
14.5033059633827;0.300628662109375;0.00029022216796875;6.51999998353858;653;100 mA
14.5133059633574;0.300506591796875;0.0002838134765625;6.52999998351333;654;100 mA
14.5233059633322;0.300567626953125;0.000269470214843751;6.53999998348809;655;100 mA
14.5333059633069;0.300445556640625;0.000296630859374999;6.54999998346284;656;100 mA
14.5433059632817;0.300567626953125;0.000280151367187501;6.55999998343759;657;100 mA
14.5533059632564;0.30047607421875;0.000292053222656249;6.56999998341234;658;100 mA
14.5633059632312;0.300506591796875;0.00029144287109375;6.5799999833871;659;100 mA
14.5733059632059;0.300506591796875;0.00027801513671875;6.58999998336185;660;100 mA
14.5833059631807;0.30059814453125;0.000278625488281251;6.5999999833366;661;100 mA
14.5933059631554;0.3004150390625;0.0002880859375;6.60999998331135;662;100 mA
14.6033059631302;0.300628662109375;0.0002728271484375;6.61999998328611;663;100 mA
14.6133059631049;0.30047607421875;0.000295410156250001;6.62999998326086;664;100 mA
14.6233059630797;0.300567626953125;0.000283203125000001;6.63999998323561;665;100 mA
14.6333059630545;0.300506591796875;0.000283203125000001;6.64999998321036;666;100 mA
14.6433059630292;0.300506591796875;0.000269470214843751;6.65999998318512;667;100 mA
14.653305963004;0.300506591796875;0.00028564453125;6.66999998315987;668;100 mA
14.6633059629787;0.300567626953125;0.00027801513671875;6.67999998313462;669;100 mA
14.6733059629535;0.300537109375;0.000286865234375;6.68999998310937;670;100 mA
14.6833059629282;0.30047607421875;0.00028839111328125;6.69999998308413;671;100 mA
14.693305962903;0.30047607421875;0.000273742675781249;6.70999998305888;672;100 mA
14.7033059628777;0.300567626953125;0.0002642822265625;6.71999998303363;673;100 mA
14.7133059628525;0.300506591796875;0.000281982421875;6.72999998300838;674;100 mA
14.7233059628272;0.300506591796875;0.0002728271484375;6.73999998298314;675;100 mA
14.733305962802;0.300567626953125;0.000289306640625001;6.74999998295789;676;100 mA
14.7433059627767;0.300445556640625;0.00028564453125;6.75999998293264;677;100 mA
14.7533059627515;0.300506591796875;0.000274047851562501;6.76999998290739;678;100 mA
14.7633059627262;0.300445556640625;0.00026885986328125;6.77999998288215;679;100 mA
14.773305962701;0.300506591796875;0.00027801513671875;6.7899999828569;680;100 mA
14.7833059626757;0.30059814453125;0.0002764892578125;6.79999998283165;681;100 mA
14.7933059626505;0.300567626953125;0.00028045654296875;6.8099999828064;682;100 mA
14.8033059626252;0.3004150390625;0.0002838134765625;6.81999998278116;683;100 mA
14.8133059626;0.300506591796875;0.0002789306640625;6.82999998275591;684;100 mA
14.8233059625748;0.300445556640625;0.0002667236328125;6.83999998273066;685;100 mA
14.8333059625495;0.300506591796875;0.0002880859375;6.84999998270541;686;100 mA
14.8433059625243;0.30047607421875;0.000274658203125;6.85999998268016;687;100 mA
14.853305962499;0.30059814453125;0.000284729003906251;6.86999998265492;688;100 mA
14.8633059624738;0.300537109375;0.00028656005859375;6.87999998262967;689;100 mA
14.8733059624485;0.30047607421875;0.00027496337890625;6.88999998260442;690;100 mA
14.8833059624233;0.300506591796875;0.000270996093750001;6.89999998257917;691;100 mA
14.893305962398;0.3004150390625;0.0002777099609375;6.90999998255393;692;100 mA
14.9033059623728;0.300567626953125;0.00026885986328125;6.91999998252868;693;100 mA
14.9133059623475;0.300506591796875;0.00029022216796875;6.92999998250343;694;100 mA
14.9233059623223;0.30059814453125;0.000281982421875;6.93999998247818;695;100 mA
14.933305962297;0.30047607421875;0.0002850341796875;6.94999998245294;696;100 mA
14.9433059622718;0.300537109375;0.000267639160156249;6.95999998242769;697;100 mA
14.9533059622465;0.300445556640625;0.00028106689453125;6.96999998240244;698;100 mA
14.9633059622213;0.300567626953125;0.0002728271484375;6.97999998237719;699;100 mA
14.973305962196;0.3004150390625;0.000287475585937499;6.98999998235195;700;100 mA
