Time (s);WE(1).Potential (V);WE(1).Current (A);Corrected time (s);Index;Current range
22.9757299419919;-0.79986572265625;-0.31829833984375;0;1;100 mA
22.9857299419666;-0.7989501953125;-0.235198974609375;0.00999999997475243;2;100 mA
22.9957299419414;-0.79925537109375;-0.19482421875;0.0199999999495049;3;100 mA
23.0057299419161;-0.79925537109375;-0.1702880859375;0.0299999999242573;4;100 mA
23.0157299418909;-0.79925537109375;-0.15283203125;0.0399999998990097;5;100 mA
23.0257299418656;-0.7989501953125;-0.13970947265625;0.0499999998737621;6;100 mA
23.0357299418404;-0.7989501953125;-0.129669189453125;0.0599999998485146;7;100 mA
23.0457299418151;-0.7989501953125;-0.12152099609375;0.069999999823267;8;100 mA
23.0557299417899;-0.799560546875;-0.11474609375;0.0799999997980194;9;100 mA
23.0657299417646;-0.79925537109375;-0.1090087890625;0.0899999997727718;10;100 mA
23.0757299417394;-0.79925537109375;-0.10400390625;0.0999999997475243;11;100 mA
23.0857299417141;-0.799560546875;-0.099578857421875;0.109999999722277;12;100 mA
23.0957299416889;-0.799560546875;-0.09576416015625;0.119999999697029;13;100 mA
23.1057299416636;-0.7989501953125;-0.09234619140625;0.129999999671782;14;100 mA
23.1157299416384;-0.79864501953125;-0.089263916015625;0.139999999646534;15;100 mA
23.1257299416131;-0.79986572265625;-0.086517333984375;0.149999999621286;16;100 mA
23.1357299415879;-0.79986572265625;-0.083984375;0.159999999596039;17;100 mA
23.1457299415626;-0.799560546875;-0.081695556640625;0.169999999570791;18;100 mA
23.1557299415374;-0.7989501953125;-0.079620361328125;0.179999999545544;19;100 mA
23.1657299415122;-0.7989501953125;-0.07763671875;0.189999999520296;20;100 mA
23.1757299414869;-0.79925537109375;-0.0758056640625;0.199999999495049;21;100 mA
23.1857299414617;-0.79925537109375;-0.074371337890625;0.209999999469801;22;100 mA
23.1957299414364;-0.79925537109375;-0.072662353515625;0.219999999444553;23;100 mA
23.2057299414112;-0.79864501953125;-0.07122802734375;0.229999999419306;24;100 mA
23.2157299413859;-0.7989501953125;-0.0699462890625;0.239999999394058;25;100 mA
23.2257299413607;-0.79925537109375;-0.06866455078125;0.249999999368811;26;100 mA
23.2357299413354;-0.79925537109375;-0.067596435546875;0.259999999343563;27;100 mA
23.2457299413102;-0.79925537109375;-0.06634521484375;0.269999999318316;28;100 mA
23.2557299412849;-0.799560546875;-0.06536865234375;0.279999999293068;29;100 mA
23.2657299412597;-0.79925537109375;-0.064361572265625;0.28999999926782;30;100 mA
23.2757299412344;-0.79925537109375;-0.063446044921875;0.299999999242573;31;100 mA
23.2857299412092;-0.79925537109375;-0.0626220703125;0.309999999217325;32;100 mA
23.2957299411839;-0.799560546875;-0.061737060546875;0.319999999192078;33;100 mA
23.3057299411587;-0.7989501953125;-0.06109619140625;0.32999999916683;34;100 mA
23.3157299411334;-0.7989501953125;-0.060211181640625;0.339999999141583;35;100 mA
23.3257299411082;-0.79925537109375;-0.0594482421875;0.349999999116335;36;100 mA
23.3357299410829;-0.7989501953125;-0.058746337890625;0.359999999091087;37;100 mA
23.3457299410577;-0.799560546875;-0.058074951171875;0.36999999906584;38;100 mA
23.3557299410325;-0.79925537109375;-0.05743408203125;0.379999999040592;39;100 mA
23.3657299410072;-0.79925537109375;-0.056854248046875;0.389999999015345;40;100 mA
23.375729940982;-0.7989501953125;-0.05621337890625;0.399999998990097;41;100 mA
23.3857299409567;-0.799560546875;-0.05560302734375;0.40999999896485;42;100 mA
23.3957299409315;-0.799560546875;-0.05511474609375;0.419999998939602;43;100 mA
23.4057299409062;-0.79925537109375;-0.05450439453125;0.429999998914354;44;100 mA
23.415729940881;-0.79925537109375;-0.054046630859375;0.439999998889107;45;100 mA
23.4257299408557;-0.79864501953125;-0.0535888671875;0.449999998863859;46;100 mA
23.4357299408305;-0.79925537109375;-0.05316162109375;0.459999998838612;47;100 mA
23.4457299408052;-0.79925537109375;-0.052703857421875;0.469999998813364;48;100 mA
23.45572994078;-0.79925537109375;-0.0523681640625;0.479999998788116;49;100 mA
23.4657299407547;-0.799560546875;-0.051971435546875;0.489999998762869;50;100 mA
23.4757299407295;-0.7989501953125;-0.051544189453125;0.499999998737621;51;100 mA
23.4857299407042;-0.7989501953125;-0.0513916015625;0.509999998712374;52;100 mA
23.495729940679;-0.799560546875;-0.050933837890625;0.519999998687126;53;100 mA
23.5057299406537;-0.79925537109375;-0.05059814453125;0.529999998661879;54;100 mA
23.5157299406285;-0.7989501953125;-0.050323486328125;0.539999998636631;55;100 mA
23.5257299406032;-0.79986572265625;-0.050018310546875;0.549999998611383;56;100 mA
23.535729940578;-0.79925537109375;-0.049835205078125;0.559999998586136;57;100 mA
23.5457299405527;-0.79925537109375;-0.049462890625;0.569999998560888;58;100 mA
23.5557299405275;-0.7989501953125;-0.0492584228515625;0.579999998535641;59;100 mA
23.5657299405023;-0.79864501953125;-0.0489410400390625;0.589999998510393;60;100 mA
23.575729940477;-0.7989501953125;-0.0487457275390625;0.599999998485146;61;100 mA
23.5857299404518;-0.79925537109375;-0.04847412109375;0.609999998459898;62;100 mA
23.5957299404265;-0.79925537109375;-0.0482208251953125;0.61999999843465;63;100 mA
23.6057299404013;-0.79925537109375;-0.04810791015625;0.629999998409403;64;100 mA
23.615729940376;-0.79925537109375;-0.0477783203125;0.639999998384155;65;100 mA
23.6257299403508;-0.79925537109375;-0.047564697265625;0.649999998358908;66;100 mA
23.6357299403255;-0.7989501953125;-0.047283935546875;0.65999999833366;67;100 mA
23.6457299403003;-0.79925537109375;-0.0470428466796875;0.669999998308413;68;100 mA
23.655729940275;-0.7989501953125;-0.0468170166015625;0.679999998283165;69;100 mA
23.6657299402498;-0.79925537109375;-0.0466461181640625;0.689999998257917;70;100 mA
23.6757299402245;-0.7989501953125;-0.046356201171875;0.69999999823267;71;100 mA
23.6857299401993;-0.799560546875;-0.04609375;0.709999998207422;72;100 mA
23.695729940174;-0.79925537109375;-0.0459259033203125;0.719999998182175;73;100 mA
23.7057299401488;-0.79925537109375;-0.045635986328125;0.729999998156927;74;100 mA
23.7157299401235;-0.79925537109375;-0.04554443359375;0.73999999813168;75;100 mA
23.7257299400983;-0.79925537109375;-0.0453582763671875;0.749999998106432;76;100 mA
23.735729940073;-0.79925537109375;-0.04521484375;0.759999998081184;77;100 mA
23.7457299400478;-0.7989501953125;-0.04501953125;0.769999998055937;78;100 mA
23.7557299400225;-0.79925537109375;-0.0449066162109375;0.779999998030689;79;100 mA
23.7657299399973;-0.7989501953125;-0.044781494140625;0.789999998005442;80;100 mA
23.7757299399721;-0.79925537109375;-0.0446319580078125;0.799999997980194;81;100 mA
23.7857299399468;-0.799560546875;-0.04462890625;0.809999997954947;82;100 mA
23.7957299399216;-0.79925537109375;-0.0444000244140625;0.819999997929699;83;100 mA
23.8057299398963;-0.79925537109375;-0.044256591796875;0.829999997904451;84;100 mA
23.8157299398711;-0.79925537109375;-0.044091796875;0.839999997879204;85;100 mA
23.8257299398458;-0.7989501953125;-0.043927001953125;0.849999997853956;86;100 mA
23.8357299398206;-0.7989501953125;-0.043841552734375;0.859999997828709;87;100 mA
23.8457299397953;-0.79925537109375;-0.043658447265625;0.869999997803461;88;100 mA
23.8557299397701;-0.7989501953125;-0.0435760498046875;0.879999997778214;89;100 mA
23.8657299397448;-0.79864501953125;-0.04337158203125;0.889999997752966;90;100 mA
23.8757299397196;-0.7989501953125;-0.0433197021484375;0.899999997727718;91;100 mA
23.8857299396943;-0.79925537109375;-0.043145751953125;0.909999997702471;92;100 mA
23.8957299396691;-0.7989501953125;-0.0430450439453125;0.919999997677223;93;100 mA
23.9057299396438;-0.79986572265625;-0.0430450439453125;0.929999997651976;94;100 mA
23.9157299396186;-0.79925537109375;-0.0429107666015625;0.939999997626728;95;100 mA
23.9257299395933;-0.79925537109375;-0.042791748046875;0.949999997601481;96;100 mA
23.9357299395681;-0.79925537109375;-0.0426849365234375;0.959999997576233;97;100 mA
23.9457299395428;-0.7989501953125;-0.04268798828125;0.969999997550985;98;100 mA
23.9557299395176;-0.799560546875;-0.0425811767578125;0.979999997525738;99;100 mA
23.9657299394923;-0.79925537109375;-0.0425933837890625;0.98999999750049;100;100 mA
23.9757299394671;-0.799560546875;-0.04249267578125;0.999999997475243;101;100 mA
23.9857299394419;-0.79986572265625;-0.042425537109375;1.00999999745;102;100 mA
23.9957299394166;-0.799560546875;-0.042425537109375;1.01999999742475;103;100 mA
24.0057299393914;-0.7989501953125;-0.0423431396484375;1.0299999973995;104;100 mA
24.0157299393661;-0.79925537109375;-0.042437744140625;1.03999999737425;105;100 mA
24.0257299393409;-0.799560546875;-0.0423919677734375;1.049999997349;106;100 mA
24.0357299393156;-0.79864501953125;-0.0423614501953125;1.05999999732376;107;100 mA
24.0457299392904;-0.799560546875;-0.0422637939453125;1.06999999729851;108;100 mA
24.0557299392651;-0.799560546875;-0.042291259765625;1.07999999727326;109;100 mA
24.0657299392399;-0.7989501953125;-0.04237060546875;1.08999999724801;110;100 mA
24.0757299392146;-0.799560546875;-0.04224853515625;1.09999999722277;111;100 mA
24.0857299391894;-0.79864501953125;-0.0423248291015625;1.10999999719752;112;100 mA
24.0957299391641;-0.79925537109375;-0.04212646484375;1.11999999717227;113;100 mA
24.1057299391389;-0.7989501953125;-0.0420562744140625;1.12999999714702;114;100 mA
24.1157299391136;-0.79925537109375;-0.0419891357421875;1.13999999712178;115;100 mA
24.1257299390884;-0.7989501953125;-0.0419219970703125;1.14999999709653;116;100 mA
24.1357299390631;-0.79925537109375;-0.04185791015625;1.15999999707128;117;100 mA
24.1457299390379;-0.799560546875;-0.0417938232421875;1.16999999704603;118;100 mA
24.1557299390126;-0.7989501953125;-0.0417449951171875;1.17999999702079;119;100 mA
24.1657299389874;-0.799560546875;-0.0416107177734375;1.18999999699554;120;100 mA
24.1757299389621;-0.7989501953125;-0.0416168212890625;1.19999999697029;121;100 mA
24.1857299389369;-0.7989501953125;-0.041522216796875;1.20999999694504;122;100 mA
24.1957299389117;-0.79925537109375;-0.0415283203125;1.2199999969198;123;100 mA
24.2057299388864;-0.79925537109375;-0.04156494140625;1.22999999689455;124;100 mA
24.2157299388612;-0.7989501953125;-0.041510009765625;1.2399999968693;125;100 mA
24.2257299388359;-0.79925537109375;-0.0414825439453125;1.24999999684405;126;100 mA
24.2357299388107;-0.79986572265625;-0.04144287109375;1.25999999681881;127;100 mA
24.2457299387854;-0.7989501953125;-0.041412353515625;1.26999999679356;128;100 mA
24.2557299387602;-0.79925537109375;-0.0413787841796875;1.27999999676831;129;100 mA
24.2657299387349;-0.799560546875;-0.04149169921875;1.28999999674306;130;100 mA
24.2757299387097;-0.799560546875;-0.0413604736328125;1.29999999671782;131;100 mA
24.2857299386844;-0.7989501953125;-0.041326904296875;1.30999999669257;132;100 mA
24.2957299386592;-0.79925537109375;-0.041326904296875;1.31999999666732;133;100 mA
24.3057299386339;-0.79925537109375;-0.0412628173828125;1.32999999664207;134;100 mA
24.3157299386087;-0.7989501953125;-0.0413299560546875;1.33999999661683;135;100 mA
24.3257299385834;-0.79864501953125;-0.041253662109375;1.34999999659158;136;100 mA
24.3357299385582;-0.7989501953125;-0.0413360595703125;1.35999999656633;137;100 mA
24.3457299385329;-0.7989501953125;-0.0412872314453125;1.36999999654108;138;100 mA
24.3557299385077;-0.799560546875;-0.0413543701171875;1.37999999651583;139;100 mA
24.3657299384824;-0.7989501953125;-0.0413055419921875;1.38999999649059;140;100 mA
24.3757299384572;-0.79986572265625;-0.041217041015625;1.39999999646534;141;100 mA
24.385729938432;-0.79925537109375;-0.041363525390625;1.40999999644009;142;100 mA
24.3957299384067;-0.79925537109375;-0.0412139892578125;1.41999999641484;143;100 mA
24.4057299383815;-0.799560546875;-0.041192626953125;1.4299999963896;144;100 mA
24.4157299383562;-0.79925537109375;-0.0410888671875;1.43999999636435;145;100 mA
24.425729938331;-0.79925537109375;-0.0410430908203125;1.4499999963391;146;100 mA
24.4357299383057;-0.79925537109375;-0.0409912109375;1.45999999631385;147;100 mA
24.4457299382805;-0.7989501953125;-0.040972900390625;1.46999999628861;148;100 mA
24.4557299382552;-0.79925537109375;-0.0409210205078125;1.47999999626336;149;100 mA
24.46572993823;-0.79925537109375;-0.0408111572265625;1.48999999623811;150;100 mA
24.4757299382047;-0.79925537109375;-0.04083251953125;1.49999999621286;151;100 mA
24.4857299381795;-0.799560546875;-0.04072265625;1.50999999618762;152;100 mA
24.4957299381542;-0.79925537109375;-0.0407684326171875;1.51999999616237;153;100 mA
24.505729938129;-0.79925537109375;-0.0407745361328125;1.52999999613712;154;100 mA
24.5157299381037;-0.7989501953125;-0.040771484375;1.53999999611187;155;100 mA
24.5257299380785;-0.799560546875;-0.04073486328125;1.54999999608663;156;100 mA
24.5357299380532;-0.79925537109375;-0.04073486328125;1.55999999606138;157;100 mA
24.545729938028;-0.79925537109375;-0.040728759765625;1.56999999603613;158;100 mA
24.5557299380027;-0.79864501953125;-0.040631103515625;1.57999999601088;159;100 mA
24.5657299379775;-0.79925537109375;-0.0407928466796875;1.58999999598564;160;100 mA
24.5757299379522;-0.7989501953125;-0.040673828125;1.59999999596039;161;100 mA
24.585729937927;-0.79925537109375;-0.040667724609375;1.60999999593514;162;100 mA
24.5957299379018;-0.7989501953125;-0.0406524658203125;1.61999999590989;163;100 mA
24.6057299378765;-0.7989501953125;-0.0406036376953125;1.62999999588465;164;100 mA
24.6157299378513;-0.7989501953125;-0.040673828125;1.6399999958594;165;100 mA
24.625729937826;-0.79925537109375;-0.0405975341796875;1.64999999583415;166;100 mA
24.6357299378008;-0.79925537109375;-0.0406982421875;1.6599999958089;167;100 mA
24.6457299377755;-0.7989501953125;-0.040631103515625;1.66999999578366;168;100 mA
24.6557299377503;-0.79925537109375;-0.0406890869140625;1.67999999575841;169;100 mA
24.665729937725;-0.79925537109375;-0.04058837890625;1.68999999573316;170;100 mA
24.6757299376998;-0.7989501953125;-0.040533447265625;1.69999999570791;171;100 mA
24.6857299376745;-0.799560546875;-0.0405975341796875;1.70999999568267;172;100 mA
24.6957299376493;-0.7989501953125;-0.0404205322265625;1.71999999565742;173;100 mA
24.705729937624;-0.7989501953125;-0.0403411865234375;1.72999999563217;174;100 mA
24.7157299375988;-0.79864501953125;-0.0401947021484375;1.73999999560692;175;100 mA
24.7257299375735;-0.7989501953125;-0.040106201171875;1.74999999558167;176;100 mA
24.7357299375483;-0.7989501953125;-0.0399505615234375;1.75999999555643;177;100 mA
24.745729937523;-0.79925537109375;-0.039898681640625;1.76999999553118;178;100 mA
24.7557299374978;-0.79925537109375;-0.0397979736328125;1.77999999550593;179;100 mA
24.7657299374725;-0.799560546875;-0.0396575927734375;1.78999999548068;180;100 mA
24.7757299374473;-0.79925537109375;-0.03963623046875;1.79999999545544;181;100 mA
24.785729937422;-0.79925537109375;-0.0394317626953125;1.80999999543019;182;100 mA
24.7957299373968;-0.7989501953125;-0.039434814453125;1.81999999540494;183;100 mA
24.8057299373716;-0.7989501953125;-0.0393951416015625;1.82999999537969;184;100 mA
24.8157299373463;-0.7989501953125;-0.0393707275390625;1.83999999535445;185;100 mA
24.8257299373211;-0.7989501953125;-0.0392974853515625;1.8499999953292;186;100 mA
24.8357299372958;-0.79925537109375;-0.0392974853515625;1.85999999530395;187;100 mA
24.8457299372706;-0.7989501953125;-0.039251708984375;1.8699999952787;188;100 mA
24.8557299372453;-0.79925537109375;-0.03914794921875;1.87999999525346;189;100 mA
24.8657299372201;-0.79864501953125;-0.0392822265625;1.88999999522821;190;100 mA
24.8757299371948;-0.79925537109375;-0.039129638671875;1.89999999520296;191;100 mA
24.8857299371696;-0.79925537109375;-0.03909912109375;1.90999999517771;192;100 mA
24.8957299371443;-0.79925537109375;-0.0390350341796875;1.91999999515247;193;100 mA
24.9057299371191;-0.79925537109375;-0.0389373779296875;1.92999999512722;194;100 mA
24.9157299370938;-0.799560546875;-0.03892822265625;1.93999999510197;195;100 mA
24.9257299370686;-0.7989501953125;-0.0387969970703125;1.94999999507672;196;100 mA
24.9357299370433;-0.79925537109375;-0.038812255859375;1.95999999505148;197;100 mA
24.9457299370181;-0.79864501953125;-0.0386810302734375;1.96999999502623;198;100 mA
24.9557299369928;-0.79864501953125;-0.0386932373046875;1.97999999500098;199;100 mA
24.9657299369676;-0.799560546875;-0.0385833740234375;1.98999999497573;200;100 mA
24.9757299369423;-0.79925537109375;-0.0385498046875;1.99999999495049;201;100 mA
24.9857299369171;-0.79925537109375;-0.03863525390625;2.00999999492524;202;100 mA
24.9957299368918;-0.79925537109375;-0.038543701171875;2.01999999489999;203;100 mA
25.0057299368666;-0.79925537109375;-0.0385589599609375;2.02999999487474;204;100 mA
25.0157299368414;-0.79925537109375;-0.0384857177734375;2.0399999948495;205;100 mA
25.0257299368161;-0.799560546875;-0.03846435546875;2.04999999482425;206;100 mA
25.0357299367909;-0.79925537109375;-0.038385009765625;2.059999994799;207;100 mA
25.0457299367656;-0.79925537109375;-0.038427734375;2.06999999477375;208;100 mA
25.0557299367404;-0.79925537109375;-0.03839111328125;2.0799999947485;209;100 mA
25.0657299367151;-0.79925537109375;-0.0383392333984375;2.08999999472326;210;100 mA
25.0757299366899;-0.799560546875;-0.0383514404296875;2.09999999469801;211;100 mA
25.0857299366646;-0.799560546875;-0.0382354736328125;2.10999999467276;212;100 mA
25.0957299366394;-0.79864501953125;-0.03826904296875;2.11999999464751;213;100 mA
25.1057299366141;-0.7989501953125;-0.0382476806640625;2.12999999462227;214;100 mA
25.1157299365889;-0.79925537109375;-0.0382537841796875;2.13999999459702;215;100 mA
25.1257299365636;-0.7989501953125;-0.038226318359375;2.14999999457177;216;100 mA
25.1357299365384;-0.79925537109375;-0.038262939453125;2.15999999454652;217;100 mA
25.1457299365131;-0.799560546875;-0.0382720947265625;2.16999999452128;218;100 mA
25.1557299364879;-0.799560546875;-0.03822021484375;2.17999999449603;219;100 mA
25.1657299364626;-0.79925537109375;-0.03841552734375;2.18999999447078;220;100 mA
25.1757299364374;-0.7989501953125;-0.038311767578125;2.19999999444553;221;100 mA
25.1857299364121;-0.79864501953125;-0.0383453369140625;2.20999999442029;222;100 mA
25.1957299363869;-0.7989501953125;-0.03831787109375;2.21999999439504;223;100 mA
25.2057299363616;-0.79925537109375;-0.0382781982421875;2.22999999436979;224;100 mA
25.2157299363364;-0.7989501953125;-0.03828125;2.23999999434454;225;100 mA
25.2257299363112;-0.7989501953125;-0.0381988525390625;2.2499999943193;226;100 mA
25.2357299362859;-0.799560546875;-0.0382476806640625;2.25999999429405;227;100 mA
25.2457299362607;-0.7989501953125;-0.0381561279296875;2.2699999942688;228;100 mA
25.2557299362354;-0.799560546875;-0.0381927490234375;2.27999999424355;229;100 mA
25.2657299362102;-0.79864501953125;-0.0380889892578125;2.28999999421831;230;100 mA
25.2757299361849;-0.79864501953125;-0.038092041015625;2.29999999419306;231;100 mA
25.2857299361597;-0.799560546875;-0.0381805419921875;2.30999999416781;232;100 mA
25.2957299361344;-0.79925537109375;-0.0381378173828125;2.31999999414256;233;100 mA
25.3057299361092;-0.7989501953125;-0.038165283203125;2.32999999411732;234;100 mA
25.3157299360839;-0.799560546875;-0.0381317138671875;2.33999999409207;235;100 mA
25.3257299360587;-0.7989501953125;-0.038128662109375;2.34999999406682;236;100 mA
25.3357299360334;-0.79925537109375;-0.0380523681640625;2.35999999404157;237;100 mA
25.3457299360082;-0.79925537109375;-0.03814697265625;2.36999999401633;238;100 mA
25.3557299359829;-0.7989501953125;-0.0380889892578125;2.37999999399108;239;100 mA
25.3657299359577;-0.79986572265625;-0.0380523681640625;2.38999999396583;240;100 mA
25.3757299359324;-0.79925537109375;-0.0380828857421875;2.39999999394058;241;100 mA
25.3857299359072;-0.79925537109375;-0.03800048828125;2.40999999391533;242;100 mA
25.3957299358819;-0.799560546875;-0.038067626953125;2.41999999389009;243;100 mA
25.4057299358567;-0.7989501953125;-0.038006591796875;2.42999999386484;244;100 mA
25.4157299358315;-0.79925537109375;-0.038031005859375;2.43999999383959;245;100 mA
25.4257299358062;-0.79925537109375;-0.0379913330078125;2.44999999381434;246;100 mA
25.435729935781;-0.79925537109375;-0.038018798828125;2.4599999937891;247;100 mA
25.4457299357557;-0.799560546875;-0.0379791259765625;2.46999999376385;248;100 mA
25.4557299357305;-0.7989501953125;-0.0379119873046875;2.4799999937386;249;100 mA
25.4657299357052;-0.79925537109375;-0.0380767822265625;2.48999999371335;250;100 mA
25.47572993568;-0.79925537109375;-0.0379669189453125;2.49999999368811;251;100 mA
25.4857299356547;-0.7989501953125;-0.0380126953125;2.50999999366286;252;100 mA
25.4957299356295;-0.7989501953125;-0.037969970703125;2.51999999363761;253;100 mA
25.5057299356042;-0.799560546875;-0.037945556640625;2.52999999361236;254;100 mA
25.515729935579;-0.79986572265625;-0.0379302978515625;2.53999999358712;255;100 mA
25.5257299355537;-0.7989501953125;-0.0379119873046875;2.54999999356187;256;100 mA
25.5357299355285;-0.79925537109375;-0.0379425048828125;2.55999999353662;257;100 mA
25.5457299355032;-0.7989501953125;-0.037896728515625;2.56999999351137;258;100 mA
25.555729935478;-0.79925537109375;-0.0379730224609375;2.57999999348613;259;100 mA
25.5657299354527;-0.799560546875;-0.0378662109375;2.58999999346088;260;100 mA
25.5757299354275;-0.7989501953125;-0.03792724609375;2.59999999343563;261;100 mA
25.5857299354022;-0.799560546875;-0.03798828125;2.60999999341038;262;100 mA
25.595729935377;-0.79925537109375;-0.037982177734375;2.61999999338514;263;100 mA
25.6057299353517;-0.799560546875;-0.03802490234375;2.62999999335989;264;100 mA
25.6157299353265;-0.799560546875;-0.0380096435546875;2.63999999333464;265;100 mA
25.6257299353013;-0.7989501953125;-0.038055419921875;2.64999999330939;266;100 mA
25.635729935276;-0.79925537109375;-0.03797607421875;2.65999999328415;267;100 mA
25.6457299352508;-0.79925537109375;-0.038128662109375;2.6699999932589;268;100 mA
25.6557299352255;-0.79864501953125;-0.038067626953125;2.67999999323365;269;100 mA
25.6657299352003;-0.7989501953125;-0.038043212890625;2.6899999932084;270;100 mA
25.675729935175;-0.79925537109375;-0.0380584716796875;2.69999999318316;271;100 mA
25.6857299351498;-0.799560546875;-0.037957763671875;2.70999999315791;272;100 mA
25.6957299351245;-0.79925537109375;-0.03802490234375;2.71999999313266;273;100 mA
25.7057299350993;-0.79925537109375;-0.0379425048828125;2.72999999310741;274;100 mA
25.715729935074;-0.79925537109375;-0.03797607421875;2.73999999308217;275;100 mA
25.7257299350488;-0.79925537109375;-0.037908935546875;2.74999999305692;276;100 mA
25.7357299350235;-0.79925537109375;-0.0379241943359375;2.75999999303167;277;100 mA
25.7457299349983;-0.79864501953125;-0.0378448486328125;2.76999999300642;278;100 mA
25.755729934973;-0.79986572265625;-0.0377685546875;2.77999999298117;279;100 mA
25.7657299349478;-0.79925537109375;-0.0379241943359375;2.78999999295593;280;100 mA
25.7757299349225;-0.799560546875;-0.0378082275390625;2.79999999293068;281;100 mA
25.7857299348973;-0.799560546875;-0.0378265380859375;2.80999999290543;282;100 mA
25.795729934872;-0.7989501953125;-0.0377716064453125;2.81999999288018;283;100 mA
25.8057299348468;-0.79925537109375;-0.0377716064453125;2.82999999285494;284;100 mA
25.8157299348215;-0.79864501953125;-0.0377593994140625;2.83999999282969;285;100 mA
25.8257299347963;-0.79925537109375;-0.0377685546875;2.84999999280444;286;100 mA
25.8357299347711;-0.79986572265625;-0.0378082275390625;2.85999999277919;287;100 mA
25.8457299347458;-0.7989501953125;-0.03773193359375;2.86999999275395;288;100 mA
25.8557299347206;-0.79925537109375;-0.037786865234375;2.8799999927287;289;100 mA
25.8657299346953;-0.799560546875;-0.037664794921875;2.88999999270345;290;100 mA
25.8757299346701;-0.79925537109375;-0.0377105712890625;2.8999999926782;291;100 mA
25.8857299346448;-0.79925537109375;-0.037744140625;2.90999999265296;292;100 mA
25.8957299346196;-0.7989501953125;-0.0377471923828125;2.91999999262771;293;100 mA
25.9057299345943;-0.79925537109375;-0.03780517578125;2.92999999260246;294;100 mA
25.9157299345691;-0.7989501953125;-0.0378143310546875;2.93999999257721;295;100 mA
25.9257299345438;-0.79864501953125;-0.037872314453125;2.94999999255197;296;100 mA
25.9357299345186;-0.7989501953125;-0.0378265380859375;2.95999999252672;297;100 mA
25.9457299344933;-0.799560546875;-0.03802490234375;2.96999999250147;298;100 mA
25.9557299344681;-0.799560546875;-0.0379608154296875;2.97999999247622;299;100 mA
25.9657299344428;-0.7989501953125;-0.0379913330078125;2.98999999245098;300;100 mA
25.9757299344176;-0.799560546875;-0.038031005859375;2.99999999242573;301;100 mA
25.9857299343923;-0.79925537109375;-0.0379730224609375;3.00999999240048;302;100 mA
25.9957299343671;-0.7989501953125;-0.0380645751953125;3.01999999237523;303;100 mA
26.0057299343418;-0.799560546875;-0.038031005859375;3.02999999234999;304;100 mA
26.0157299343166;-0.79925537109375;-0.0381195068359375;3.03999999232474;305;100 mA
26.0257299342913;-0.7989501953125;-0.0380859375;3.04999999229949;306;100 mA
26.0357299342661;-0.799560546875;-0.038165283203125;3.05999999227424;307;100 mA
26.0457299342409;-0.79925537109375;-0.0381195068359375;3.069999992249;308;100 mA
26.0557299342156;-0.799560546875;-0.038104248046875;3.07999999222375;309;100 mA
26.0657299341904;-0.799560546875;-0.0382354736328125;3.0899999921985;310;100 mA
26.0757299341651;-0.79925537109375;-0.038134765625;3.09999999217325;311;100 mA
26.0857299341399;-0.7989501953125;-0.03814697265625;3.109999992148;312;100 mA
26.0957299341146;-0.79925537109375;-0.0380859375;3.11999999212276;313;100 mA
26.1057299340894;-0.7989501953125;-0.038079833984375;3.12999999209751;314;100 mA
26.1157299340641;-0.7989501953125;-0.0380126953125;3.13999999207226;315;100 mA
26.1257299340389;-0.799560546875;-0.038037109375;3.14999999204701;316;100 mA
26.1357299340136;-0.7989501953125;-0.0380462646484375;3.15999999202177;317;100 mA
26.1457299339884;-0.7989501953125;-0.0380126953125;3.16999999199652;318;100 mA
26.1557299339631;-0.79864501953125;-0.0380859375;3.17999999197127;319;100 mA
26.1657299339379;-0.79925537109375;-0.0380218505859375;3.18999999194602;320;100 mA
26.1757299339126;-0.79925537109375;-0.038116455078125;3.19999999192078;321;100 mA
26.1857299338874;-0.7989501953125;-0.03818359375;3.20999999189553;322;100 mA
26.1957299338621;-0.7989501953125;-0.0382537841796875;3.21999999187028;323;100 mA
26.2057299338369;-0.799560546875;-0.038323974609375;3.22999999184503;324;100 mA
26.2157299338116;-0.79925537109375;-0.0383697509765625;3.23999999181979;325;100 mA
26.2257299337864;-0.79925537109375;-0.0384613037109375;3.24999999179454;326;100 mA
26.2357299337611;-0.79925537109375;-0.0384490966796875;3.25999999176929;327;100 mA
26.2457299337359;-0.7989501953125;-0.0386871337890625;3.26999999174404;328;100 mA
26.2557299337107;-0.7989501953125;-0.0386383056640625;3.2799999917188;329;100 mA
26.2657299336854;-0.79925537109375;-0.03870849609375;3.28999999169355;330;100 mA
26.2757299336602;-0.7989501953125;-0.0387542724609375;3.2999999916683;331;100 mA
26.2857299336349;-0.79925537109375;-0.0387359619140625;3.30999999164305;332;100 mA
26.2957299336097;-0.799560546875;-0.038836669921875;3.31999999161781;333;100 mA
26.3057299335844;-0.79925537109375;-0.0388336181640625;3.32999999159256;334;100 mA
26.3157299335592;-0.7989501953125;-0.0389495849609375;3.33999999156731;335;100 mA
26.3257299335339;-0.79925537109375;-0.0389617919921875;3.34999999154206;336;100 mA
26.3357299335087;-0.7989501953125;-0.0390899658203125;3.35999999151682;337;100 mA
26.3457299334834;-0.79925537109375;-0.0390625;3.36999999149157;338;100 mA
26.3557299334582;-0.79925537109375;-0.039105224609375;3.37999999146632;339;100 mA
26.3657299334329;-0.7989501953125;-0.03927001953125;3.38999999144107;340;100 mA
26.3757299334077;-0.799560546875;-0.039239501953125;3.39999999141583;341;100 mA
26.3857299333824;-0.7989501953125;-0.0392974853515625;3.40999999139058;342;100 mA
26.3957299333572;-0.7989501953125;-0.0392669677734375;3.41999999136533;343;100 mA
26.4057299333319;-0.79925537109375;-0.0392913818359375;3.42999999134008;344;100 mA
26.4157299333067;-0.7989501953125;-0.039215087890625;3.43999999131483;345;100 mA
26.4257299332814;-0.799560546875;-0.039306640625;3.44999999128959;346;100 mA
26.4357299332562;-0.79925537109375;-0.0393157958984375;3.45999999126434;347;100 mA
26.445729933231;-0.7989501953125;-0.0393035888671875;3.46999999123909;348;100 mA
26.4557299332057;-0.799560546875;-0.03939208984375;3.47999999121384;349;100 mA
26.4657299331805;-0.79925537109375;-0.039312744140625;3.4899999911886;350;100 mA
26.4757299331552;-0.79925537109375;-0.039422607421875;3.49999999116335;351;100 mA
26.48572993313;-0.79925537109375;-0.0394439697265625;3.5099999911381;352;100 mA
26.4957299331047;-0.7989501953125;-0.0394989013671875;3.51999999111285;353;100 mA
26.5057299330795;-0.79925537109375;-0.0395233154296875;3.52999999108761;354;100 mA
26.5157299330542;-0.79925537109375;-0.039569091796875;3.53999999106236;355;100 mA
26.525729933029;-0.7989501953125;-0.039581298828125;3.54999999103711;356;100 mA
26.5357299330037;-0.7989501953125;-0.0395416259765625;3.55999999101186;357;100 mA
26.5457299329785;-0.79925537109375;-0.0397613525390625;3.56999999098662;358;100 mA
26.5557299329532;-0.79864501953125;-0.0397003173828125;3.57999999096137;359;100 mA
26.565729932928;-0.79925537109375;-0.0397857666015625;3.58999999093612;360;100 mA
26.5757299329027;-0.79925537109375;-0.039825439453125;3.59999999091087;361;100 mA
26.5857299328775;-0.79925537109375;-0.039849853515625;3.60999999088563;362;100 mA
26.5957299328522;-0.79864501953125;-0.039947509765625;3.61999999086038;363;100 mA
26.605729932827;-0.79864501953125;-0.03997802734375;3.62999999083513;364;100 mA
26.6157299328017;-0.799560546875;-0.0401397705078125;3.63999999080988;365;100 mA
26.6257299327765;-0.79864501953125;-0.0401824951171875;3.64999999078464;366;100 mA
26.6357299327512;-0.799560546875;-0.0403594970703125;3.65999999075939;367;100 mA
26.645729932726;-0.7989501953125;-0.04034423828125;3.66999999073414;368;100 mA
26.6557299327008;-0.799560546875;-0.040447998046875;3.67999999070889;369;100 mA
26.6657299326755;-0.79925537109375;-0.0405975341796875;3.68999999068365;370;100 mA
26.6757299326503;-0.799560546875;-0.0406097412109375;3.6999999906584;371;100 mA
26.685729932625;-0.79864501953125;-0.040673828125;3.70999999063315;372;100 mA
26.6957299325998;-0.799560546875;-0.0406585693359375;3.7199999906079;373;100 mA
26.7057299325745;-0.79925537109375;-0.0406951904296875;3.72999999058266;374;100 mA
26.7157299325493;-0.79925537109375;-0.04056396484375;3.73999999055741;375;100 mA
26.725729932524;-0.7989501953125;-0.0406524658203125;3.74999999053216;376;100 mA
26.7357299324988;-0.79925537109375;-0.04056396484375;3.75999999050691;377;100 mA
26.7457299324735;-0.79925537109375;-0.040533447265625;3.76999999048167;378;100 mA
26.7557299324483;-0.79925537109375;-0.0405364990234375;3.77999999045642;379;100 mA
26.765729932423;-0.79925537109375;-0.0404388427734375;3.78999999043117;380;100 mA
26.7757299323978;-0.79925537109375;-0.0405364990234375;3.79999999040592;381;100 mA
26.7857299323725;-0.79925537109375;-0.0404998779296875;3.80999999038067;382;100 mA
26.7957299323473;-0.79864501953125;-0.0405517578125;3.81999999035543;383;100 mA
26.805729932322;-0.799560546875;-0.040545654296875;3.82999999033018;384;100 mA
26.8157299322968;-0.799560546875;-0.040594482421875;3.83999999030493;385;100 mA
26.8257299322715;-0.79925537109375;-0.0406036376953125;3.84999999027968;386;100 mA
26.8357299322463;-0.799560546875;-0.0405426025390625;3.85999999025444;387;100 mA
26.845729932221;-0.79864501953125;-0.0407440185546875;3.86999999022919;388;100 mA
26.8557299321958;-0.799560546875;-0.0406463623046875;3.87999999020394;389;100 mA
26.8657299321706;-0.79925537109375;-0.0407135009765625;3.88999999017869;390;100 mA
26.8757299321453;-0.79925537109375;-0.04066162109375;3.89999999015345;391;100 mA
26.8857299321201;-0.7989501953125;-0.0406097412109375;3.9099999901282;392;100 mA
26.8957299320948;-0.799560546875;-0.04061279296875;3.91999999010295;393;100 mA
26.9057299320696;-0.7989501953125;-0.04053955078125;3.9299999900777;394;100 mA
26.9157299320443;-0.799560546875;-0.040582275390625;3.93999999005246;395;100 mA
26.9257299320191;-0.7989501953125;-0.040496826171875;3.94999999002721;396;100 mA
26.9357299319938;-0.7989501953125;-0.0405670166015625;3.95999999000196;397;100 mA
26.9457299319686;-0.7989501953125;-0.0404876708984375;3.96999998997671;398;100 mA
26.9557299319433;-0.7989501953125;-0.0405059814453125;3.97999998995147;399;100 mA
26.9657299319181;-0.7989501953125;-0.04058837890625;3.98999998992622;400;100 mA
26.9757299318928;-0.79925537109375;-0.0405609130859375;3.99999998990097;401;100 mA
26.9857299318676;-0.7989501953125;-0.04058837890625;4.00999998987572;402;100 mA
26.9957299318423;-0.7989501953125;-0.04056396484375;4.01999998985048;403;100 mA
27.0057299318171;-0.79925537109375;-0.040625;4.02999998982523;404;100 mA
27.0157299317918;-0.79925537109375;-0.04051513671875;4.03999998979998;405;100 mA
27.0257299317666;-0.7989501953125;-0.04061279296875;4.04999998977473;406;100 mA
27.0357299317413;-0.7989501953125;-0.0405120849609375;4.05999998974949;407;100 mA
27.0457299317161;-0.79864501953125;-0.0404510498046875;4.06999998972424;408;100 mA
27.0557299316908;-0.79925537109375;-0.0404510498046875;4.07999998969899;409;100 mA
27.0657299316656;-0.7989501953125;-0.040283203125;4.08999998967374;410;100 mA
27.0757299316404;-0.79925537109375;-0.040338134765625;4.0999999896485;411;100 mA
27.0857299316151;-0.79864501953125;-0.0402313232421875;4.10999998962325;412;100 mA
27.0957299315899;-0.7989501953125;-0.04022216796875;4.119999989598;413;100 mA
27.1057299315646;-0.799560546875;-0.0401458740234375;4.12999998957275;414;100 mA
27.1157299315394;-0.79925537109375;-0.0401336669921875;4.1399999895475;415;100 mA
27.1257299315141;-0.799560546875;-0.040057373046875;4.14999998952226;416;100 mA
27.1357299314889;-0.799560546875;-0.03992919921875;4.15999998949701;417;100 mA
27.1457299314636;-0.7989501953125;-0.0400634765625;4.16999998947176;418;100 mA
27.1557299314384;-0.79925537109375;-0.03990478515625;4.17999998944651;419;100 mA
27.1657299314131;-0.79864501953125;-0.0398773193359375;4.18999998942127;420;100 mA
27.1757299313879;-0.7989501953125;-0.0398193359375;4.19999998939602;421;100 mA
27.1857299313626;-0.799560546875;-0.0397857666015625;4.20999998937077;422;100 mA
27.1957299313374;-0.8001708984375;-0.03975830078125;4.21999998934552;423;100 mA
27.2057299313121;-0.79925537109375;-0.0397186279296875;4.22999998932028;424;100 mA
27.2157299312869;-0.7989501953125;-0.0397216796875;4.23999998929503;425;100 mA
27.2257299312616;-0.79925537109375;-0.0396331787109375;4.24999998926978;426;100 mA
27.2357299312364;-0.799560546875;-0.039666748046875;4.25999998924453;427;100 mA
27.2457299312111;-0.7989501953125;-0.0395355224609375;4.26999998921929;428;100 mA
27.2557299311859;-0.79925537109375;-0.0395263671875;4.27999998919404;429;100 mA
27.2657299311606;-0.799560546875;-0.0395172119140625;4.28999998916879;430;100 mA
27.2757299311354;-0.79925537109375;-0.039459228515625;4.29999998914354;431;100 mA
27.2857299311102;-0.7989501953125;-0.039434814453125;4.3099999891183;432;100 mA
27.2957299310849;-0.7989501953125;-0.039361572265625;4.31999998909305;433;100 mA
27.3057299310597;-0.799560546875;-0.039361572265625;4.3299999890678;434;100 mA
27.3157299310344;-0.79925537109375;-0.039208984375;4.33999998904255;435;100 mA
27.3257299310092;-0.79864501953125;-0.0393096923828125;4.34999998901731;436;100 mA
27.3357299309839;-0.79864501953125;-0.039190673828125;4.35999998899206;437;100 mA
27.3457299309587;-0.79925537109375;-0.039178466796875;4.36999998896681;438;100 mA
27.3557299309334;-0.79925537109375;-0.0392059326171875;4.37999998894156;439;100 mA
27.3657299309082;-0.79925537109375;-0.0391082763671875;4.38999998891632;440;100 mA
27.3757299308829;-0.7989501953125;-0.0391998291015625;4.39999998889107;441;100 mA
27.3857299308577;-0.7989501953125;-0.03916015625;4.40999998886582;442;100 mA
27.3957299308324;-0.79925537109375;-0.0392333984375;4.41999998884057;443;100 mA
27.4057299308072;-0.79925537109375;-0.0392242431640625;4.42999998881533;444;100 mA
27.4157299307819;-0.79986572265625;-0.0392822265625;4.43999998879008;445;100 mA
27.4257299307567;-0.799560546875;-0.039263916015625;4.44999998876483;446;100 mA
27.4357299307314;-0.7989501953125;-0.0392242431640625;4.45999998873958;447;100 mA
27.4457299307062;-0.79925537109375;-0.0394012451171875;4.46999998871433;448;100 mA
27.4557299306809;-0.79925537109375;-0.03929443359375;4.47999998868909;449;100 mA
27.4657299306557;-0.799560546875;-0.0393341064453125;4.48999998866384;450;100 mA
27.4757299306305;-0.799560546875;-0.0392852783203125;4.49999998863859;451;100 mA
27.4857299306052;-0.7989501953125;-0.039300537109375;4.50999998861334;452;100 mA
27.49572993058;-0.7989501953125;-0.0393402099609375;4.5199999885881;453;100 mA
27.5057299305547;-0.799560546875;-0.03927001953125;4.52999998856285;454;100 mA
27.5157299305295;-0.79925537109375;-0.039337158203125;4.5399999885376;455;100 mA
27.5257299305042;-0.79925537109375;-0.03924560546875;4.54999998851235;456;100 mA
27.535729930479;-0.7989501953125;-0.0393341064453125;4.55999998848711;457;100 mA
27.5457299304537;-0.799560546875;-0.039263916015625;4.56999998846186;458;100 mA
27.5557299304285;-0.799560546875;-0.0393402099609375;4.57999998843661;459;100 mA
27.5657299304032;-0.799560546875;-0.039410400390625;4.58999998841136;460;100 mA
27.575729930378;-0.79925537109375;-0.039422607421875;4.59999998838612;461;100 mA
27.5857299303527;-0.7989501953125;-0.0394744873046875;4.60999998836087;462;100 mA
27.5957299303275;-0.7989501953125;-0.0394683837890625;4.61999998833562;463;100 mA
27.6057299303022;-0.7989501953125;-0.039508056640625;4.62999998831037;464;100 mA
27.615729930277;-0.79925537109375;-0.0394256591796875;4.63999998828513;465;100 mA
27.6257299302517;-0.79925537109375;-0.0395965576171875;4.64999998825988;466;100 mA
27.6357299302265;-0.7989501953125;-0.039520263671875;4.65999998823463;467;100 mA
27.6457299302012;-0.7989501953125;-0.039544677734375;4.66999998820938;468;100 mA
27.655729930176;-0.79925537109375;-0.0395538330078125;4.67999998818414;469;100 mA
27.6657299301507;-0.799560546875;-0.0394561767578125;4.68999998815889;470;100 mA
27.6757299301255;-0.7989501953125;-0.03955078125;4.69999998813364;471;100 mA
27.6857299301003;-0.7989501953125;-0.0394989013671875;4.70999998810839;472;100 mA
27.695729930075;-0.7989501953125;-0.0395782470703125;4.71999998808315;473;100 mA
27.7057299300498;-0.79925537109375;-0.03955078125;4.7299999880579;474;100 mA
27.7157299300245;-0.79925537109375;-0.0396392822265625;4.73999998803265;475;100 mA
27.7257299299993;-0.79925537109375;-0.0395538330078125;4.7499999880074;476;100 mA
27.735729929974;-0.7989501953125;-0.039483642578125;4.75999998798216;477;100 mA
27.7457299299488;-0.79925537109375;-0.039599609375;4.76999998795691;478;100 mA
27.7557299299235;-0.79925537109375;-0.039459228515625;4.77999998793166;479;100 mA
27.7657299298983;-0.7989501953125;-0.039434814453125;4.78999998790641;480;100 mA
27.775729929873;-0.799560546875;-0.039349365234375;4.79999998788116;481;100 mA
27.7857299298478;-0.79925537109375;-0.039373779296875;4.80999998785592;482;100 mA
27.7957299298225;-0.799560546875;-0.039208984375;4.81999998783067;483;100 mA
27.8057299297973;-0.7989501953125;-0.039154052734375;4.82999998780542;484;100 mA
27.815729929772;-0.7989501953125;-0.0390838623046875;4.83999998778017;485;100 mA
27.8257299297468;-0.79925537109375;-0.0389801025390625;4.84999998775493;486;100 mA
27.8357299297215;-0.7989501953125;-0.0389739990234375;4.85999998772968;487;100 mA
27.8457299296963;-0.79925537109375;-0.03885498046875;4.86999998770443;488;100 mA
27.855729929671;-0.799560546875;-0.03887939453125;4.87999998767918;489;100 mA
27.8657299296458;-0.79925537109375;-0.0388763427734375;4.88999998765394;490;100 mA
27.8757299296205;-0.799560546875;-0.0388702392578125;4.89999998762869;491;100 mA
27.8857299295953;-0.7989501953125;-0.0389190673828125;4.90999998760344;492;100 mA
27.8957299295701;-0.79925537109375;-0.0388671875;4.91999998757819;493;100 mA
27.9057299295448;-0.7989501953125;-0.038958740234375;4.92999998755295;494;100 mA
27.9157299295196;-0.7989501953125;-0.0388397216796875;4.9399999875277;495;100 mA
27.9257299294943;-0.79986572265625;-0.039013671875;4.94999998750245;496;100 mA
27.9357299294691;-0.7989501953125;-0.0388702392578125;4.9599999874772;497;100 mA
27.9457299294438;-0.79925537109375;-0.038909912109375;4.96999998745196;498;100 mA
27.9557299294186;-0.79864501953125;-0.0388671875;4.97999998742671;499;100 mA
27.9657299293933;-0.7989501953125;-0.0387481689453125;4.98999998740146;500;100 mA
27.9757299293681;-0.79864501953125;-0.0387908935546875;4.99999998737621;501;100 mA
27.9857299293428;-0.79925537109375;-0.0386749267578125;5.00999998735097;502;100 mA
27.9957299293176;-0.79925537109375;-0.038702392578125;5.01999998732572;503;100 mA
28.0057299292923;-0.79925537109375;-0.038592529296875;5.02999998730047;504;100 mA
28.0157299292671;-0.79925537109375;-0.03863525390625;5.03999998727522;505;100 mA
28.0257299292418;-0.79864501953125;-0.038531494140625;5.04999998724998;506;100 mA
28.0357299292166;-0.79925537109375;-0.03839111328125;5.05999998722473;507;100 mA
28.0457299291913;-0.7989501953125;-0.0384429931640625;5.06999998719948;508;100 mA
28.0557299291661;-0.7989501953125;-0.038287353515625;5.07999998717423;509;100 mA
28.0657299291408;-0.79925537109375;-0.038287353515625;5.08999998714899;510;100 mA
28.0757299291156;-0.7989501953125;-0.0381256103515625;5.09999998712374;511;100 mA
28.0857299290903;-0.7989501953125;-0.0380889892578125;5.10999998709849;512;100 mA
28.0957299290651;-0.79925537109375;-0.0379547119140625;5.11999998707324;513;100 mA
28.1057299290399;-0.79925537109375;-0.0379852294921875;5.129999987048;514;100 mA
28.1157299290146;-0.79864501953125;-0.037969970703125;5.13999998702275;515;100 mA
28.1257299289894;-0.79864501953125;-0.0378997802734375;5.1499999869975;516;100 mA
28.1357299289641;-0.79925537109375;-0.0379150390625;5.15999998697225;517;100 mA
28.1457299289389;-0.79986572265625;-0.0377899169921875;5.169999986947;518;100 mA
28.1557299289136;-0.79925537109375;-0.037860107421875;5.17999998692176;519;100 mA
28.1657299288884;-0.799560546875;-0.0378387451171875;5.18999998689651;520;100 mA
28.1757299288631;-0.79925537109375;-0.0378570556640625;5.19999998687126;521;100 mA
28.1857299288379;-0.7989501953125;-0.0378631591796875;5.20999998684601;522;100 mA
28.1957299288126;-0.799560546875;-0.037872314453125;5.21999998682077;523;100 mA
28.2057299287874;-0.79986572265625;-0.037908935546875;5.22999998679552;524;100 mA
28.2157299287621;-0.7989501953125;-0.037860107421875;5.23999998677027;525;100 mA
28.2257299287369;-0.7989501953125;-0.0380523681640625;5.24999998674502;526;100 mA
28.2357299287116;-0.79925537109375;-0.03790283203125;5.25999998671978;527;100 mA
28.2457299286864;-0.79986572265625;-0.0379364013671875;5.26999998669453;528;100 mA
28.2557299286611;-0.79925537109375;-0.0379974365234375;5.27999998666928;529;100 mA
28.2657299286359;-0.7989501953125;-0.0379730224609375;5.28999998664403;530;100 mA
28.2757299286106;-0.79864501953125;-0.0380767822265625;5.29999998661879;531;100 mA
28.2857299285854;-0.79925537109375;-0.03795166015625;5.30999998659354;532;100 mA
28.2957299285601;-0.7989501953125;-0.0380218505859375;5.31999998656829;533;100 mA
28.3057299285349;-0.7989501953125;-0.0379119873046875;5.32999998654304;534;100 mA
28.3157299285097;-0.799560546875;-0.0379791259765625;5.3399999865178;535;100 mA
28.3257299284844;-0.7989501953125;-0.0379058837890625;5.34999998649255;536;100 mA
28.3357299284592;-0.79925537109375;-0.0378936767578125;5.3599999864673;537;100 mA
28.3457299284339;-0.79925537109375;-0.0379852294921875;5.36999998644205;538;100 mA
28.3557299284087;-0.799560546875;-0.037908935546875;5.37999998641681;539;100 mA
28.3657299283834;-0.79864501953125;-0.03790283203125;5.38999998639156;540;100 mA
28.3757299283582;-0.7989501953125;-0.03779296875;5.39999998636631;541;100 mA
28.3857299283329;-0.7989501953125;-0.03779296875;5.40999998634106;542;100 mA
28.3957299283077;-0.799560546875;-0.037689208984375;5.41999998631582;543;100 mA
28.4057299282824;-0.7989501953125;-0.03773193359375;5.42999998629057;544;100 mA
28.4157299282572;-0.7989501953125;-0.0376953125;5.43999998626532;545;100 mA
28.4257299282319;-0.79864501953125;-0.03765869140625;5.44999998624007;546;100 mA
28.4357299282067;-0.79925537109375;-0.03770751953125;5.45999998621483;547;100 mA
28.4457299281814;-0.79925537109375;-0.037646484375;5.46999998618958;548;100 mA
28.4557299281562;-0.799560546875;-0.03775634765625;5.47999998616433;549;100 mA
28.4657299281309;-0.79925537109375;-0.0377593994140625;5.48999998613908;550;100 mA
28.4757299281057;-0.7989501953125;-0.037835693359375;5.49999998611383;551;100 mA
28.4857299280804;-0.7989501953125;-0.0379241943359375;5.50999998608859;552;100 mA
28.4957299280552;-0.79864501953125;-0.0379913330078125;5.51999998606334;553;100 mA
28.50572992803;-0.799560546875;-0.0379974365234375;5.52999998603809;554;100 mA
28.5157299280047;-0.7989501953125;-0.0379638671875;5.53999998601284;555;100 mA
28.5257299279795;-0.79864501953125;-0.038189697265625;5.5499999859876;556;100 mA
28.5357299279542;-0.79925537109375;-0.0381256103515625;5.55999998596235;557;100 mA
28.545729927929;-0.7989501953125;-0.0382720947265625;5.5699999859371;558;100 mA
28.5557299279037;-0.79986572265625;-0.03829345703125;5.57999998591185;559;100 mA
28.5657299278785;-0.79925537109375;-0.038299560546875;5.58999998588661;560;100 mA
28.5757299278532;-0.79864501953125;-0.0383270263671875;5.59999998586136;561;100 mA
28.585729927828;-0.79986572265625;-0.0383056640625;5.60999998583611;562;100 mA
28.5957299278027;-0.799560546875;-0.0384063720703125;5.61999998581086;563;100 mA
28.6057299277775;-0.79986572265625;-0.0383941650390625;5.62999998578562;564;100 mA
28.6157299277522;-0.79864501953125;-0.038482666015625;5.63999998576037;565;100 mA
28.625729927727;-0.79864501953125;-0.0384368896484375;5.64999998573512;566;100 mA
28.6357299277017;-0.799560546875;-0.0385009765625;5.65999998570987;567;100 mA
28.6457299276765;-0.79864501953125;-0.0386016845703125;5.66999998568463;568;100 mA
28.6557299276512;-0.7989501953125;-0.03856201171875;5.67999998565938;569;100 mA
28.665729927626;-0.799560546875;-0.03857421875;5.68999998563413;570;100 mA
28.6757299276007;-0.799560546875;-0.038531494140625;5.69999998560888;571;100 mA
28.6857299275755;-0.79864501953125;-0.038580322265625;5.70999998558364;572;100 mA
28.6957299275502;-0.799560546875;-0.0385406494140625;5.71999998555839;573;100 mA
28.705729927525;-0.799560546875;-0.0386962890625;5.72999998553314;574;100 mA
28.7157299274998;-0.79925537109375;-0.0387176513671875;5.73999998550789;575;100 mA
28.7257299274745;-0.7989501953125;-0.0387451171875;5.74999998548265;576;100 mA
28.7357299274493;-0.7989501953125;-0.0388427734375;5.7599999854574;577;100 mA
28.745729927424;-0.79925537109375;-0.03883056640625;5.76999998543215;578;100 mA
28.7557299273988;-0.79925537109375;-0.03902587890625;5.7799999854069;579;100 mA
28.7657299273735;-0.799560546875;-0.0390777587890625;5.78999998538166;580;100 mA
28.7757299273483;-0.799560546875;-0.0391632080078125;5.79999998535641;581;100 mA
28.785729927323;-0.79925537109375;-0.0391754150390625;5.80999998533116;582;100 mA
28.7957299272978;-0.7989501953125;-0.0392181396484375;5.81999998530591;583;100 mA
28.8057299272725;-0.7989501953125;-0.0393341064453125;5.82999998528066;584;100 mA
28.8157299272473;-0.79864501953125;-0.03934326171875;5.83999998525542;585;100 mA
28.825729927222;-0.79925537109375;-0.0395660400390625;5.84999998523017;586;100 mA
28.8357299271968;-0.7989501953125;-0.0394744873046875;5.85999998520492;587;100 mA
28.8457299271715;-0.799560546875;-0.0395843505859375;5.86999998517967;588;100 mA
28.8557299271463;-0.79925537109375;-0.0396484375;5.87999998515443;589;100 mA
28.865729927121;-0.799560546875;-0.03968505859375;5.88999998512918;590;100 mA
28.8757299270958;-0.7989501953125;-0.039788818359375;5.89999998510393;591;100 mA
28.8857299270705;-0.79925537109375;-0.0398345947265625;5.90999998507868;592;100 mA
28.8957299270453;-0.79925537109375;-0.039923095703125;5.91999998505344;593;100 mA
28.90572992702;-0.79864501953125;-0.0398834228515625;5.92999998502819;594;100 mA
28.9157299269948;-0.7989501953125;-0.03997802734375;5.93999998500294;595;100 mA
28.9257299269696;-0.79925537109375;-0.0399169921875;5.94999998497769;596;100 mA
28.9357299269443;-0.7989501953125;-0.0399688720703125;5.95999998495245;597;100 mA
28.9457299269191;-0.79864501953125;-0.0400115966796875;5.9699999849272;598;100 mA
28.9557299268938;-0.799560546875;-0.03995361328125;5.97999998490195;599;100 mA
28.9657299268686;-0.799560546875;-0.039935302734375;5.9899999848767;600;100 mA
28.9757299268433;-0.7989501953125;-0.039849853515625;5.99999998485146;601;100 mA
28.9857299268181;-0.7989501953125;-0.03983154296875;6.00999998482621;602;100 mA
28.9957299267928;-0.79925537109375;-0.0396942138671875;6.01999998480096;603;100 mA
29.0057299267676;-0.799560546875;-0.0398040771484375;6.02999998477571;604;100 mA
29.0157299267423;-0.79925537109375;-0.0397003173828125;6.03999998475047;605;100 mA
29.0257299267171;-0.79925537109375;-0.039666748046875;6.04999998472522;606;100 mA
29.0357299266918;-0.7989501953125;-0.039678955078125;6.05999998469997;607;100 mA
29.0457299266666;-0.79925537109375;-0.03958740234375;6.06999998467472;608;100 mA
29.0557299266413;-0.7989501953125;-0.0397125244140625;6.07999998464948;609;100 mA
29.0657299266161;-0.799560546875;-0.0396514892578125;6.08999998462423;610;100 mA
29.0757299265908;-0.7989501953125;-0.0397369384765625;6.09999998459898;611;100 mA
29.0857299265656;-0.7989501953125;-0.0396942138671875;6.10999998457373;612;100 mA
29.0957299265403;-0.79925537109375;-0.039739990234375;6.11999998454849;613;100 mA
29.1057299265151;-0.7989501953125;-0.0397308349609375;6.12999998452324;614;100 mA
29.1157299264898;-0.79864501953125;-0.0396881103515625;6.13999998449799;615;100 mA
29.1257299264646;-0.79925537109375;-0.039910888671875;6.14999998447274;616;100 mA
29.1357299264394;-0.79925537109375;-0.0398162841796875;6.1599999844475;617;100 mA
29.1457299264141;-0.799560546875;-0.03988037109375;6.16999998442225;618;100 mA
29.1557299263889;-0.79925537109375;-0.0398651123046875;6.179999984397;619;100 mA
29.1657299263636;-0.7989501953125;-0.039898681640625;6.18999998437175;620;100 mA
29.1757299263384;-0.79864501953125;-0.039898681640625;6.1999999843465;621;100 mA
29.1857299263131;-0.79925537109375;-0.039923095703125;6.20999998432126;622;100 mA
29.1957299262879;-0.7989501953125;-0.039990234375;6.21999998429601;623;100 mA
29.2057299262626;-0.79925537109375;-0.0399810791015625;6.22999998427076;624;100 mA
29.2157299262374;-0.799560546875;-0.040081787109375;6.23999998424551;625;100 mA
29.2257299262121;-0.7989501953125;-0.0400054931640625;6.24999998422027;626;100 mA
29.2357299261869;-0.7989501953125;-0.040087890625;6.25999998419502;627;100 mA
29.2457299261616;-0.7989501953125;-0.0401519775390625;6.26999998416977;628;100 mA
29.2557299261364;-0.7989501953125;-0.0401641845703125;6.27999998414452;629;100 mA
29.2657299261111;-0.79925537109375;-0.0402008056640625;6.28999998411928;630;100 mA
29.2757299260859;-0.799560546875;-0.040179443359375;6.29999998409403;631;100 mA
29.2857299260606;-0.7989501953125;-0.0402191162109375;6.30999998406878;632;100 mA
29.2957299260354;-0.799560546875;-0.0401214599609375;6.31999998404353;633;100 mA
29.3057299260101;-0.7989501953125;-0.040313720703125;6.32999998401829;634;100 mA
29.3157299259849;-0.7989501953125;-0.0402008056640625;6.33999998399304;635;100 mA
29.3257299259596;-0.79925537109375;-0.0402252197265625;6.34999998396779;636;100 mA
29.3357299259344;-0.79925537109375;-0.040240478515625;6.35999998394254;637;100 mA
29.3457299259092;-0.79925537109375;-0.0401702880859375;6.3699999839173;638;100 mA
29.3557299258839;-0.79864501953125;-0.0403106689453125;6.37999998389205;639;100 mA
29.3657299258587;-0.799560546875;-0.04024658203125;6.3899999838668;640;100 mA
29.3757299258334;-0.79925537109375;-0.0403778076171875;6.39999998384155;641;100 mA
29.3857299258082;-0.79925537109375;-0.040350341796875;6.40999998381631;642;100 mA
29.3957299257829;-0.7989501953125;-0.0404327392578125;6.41999998379106;643;100 mA
29.4057299257577;-0.7989501953125;-0.04044189453125;6.42999998376581;644;100 mA
29.4157299257324;-0.7989501953125;-0.040411376953125;6.43999998374056;645;100 mA
29.4257299257072;-0.7989501953125;-0.0406005859375;6.44999998371532;646;100 mA
29.4357299256819;-0.7989501953125;-0.0404876708984375;6.45999998369007;647;100 mA
29.4457299256567;-0.79925537109375;-0.040509033203125;6.46999998366482;648;100 mA
29.4557299256314;-0.799560546875;-0.0404083251953125;6.47999998363957;649;100 mA
29.4657299256062;-0.799560546875;-0.0403778076171875;6.48999998361433;650;100 mA
29.4757299255809;-0.799560546875;-0.0402862548828125;6.49999998358908;651;100 mA
29.4857299255557;-0.79925537109375;-0.040264892578125;6.50999998356383;652;100 mA
29.4957299255304;-0.79864501953125;-0.0402374267578125;6.51999998353858;653;100 mA
29.5057299255052;-0.79864501953125;-0.040142822265625;6.52999998351333;654;100 mA
29.5157299254799;-0.79925537109375;-0.040179443359375;6.53999998348809;655;100 mA
29.5257299254547;-0.7989501953125;-0.0400482177734375;6.54999998346284;656;100 mA
29.5357299254295;-0.799560546875;-0.040093994140625;6.55999998343759;657;100 mA
29.5457299254042;-0.79925537109375;-0.0400909423828125;6.56999998341234;658;100 mA
29.555729925379;-0.79925537109375;-0.0400848388671875;6.5799999833871;659;100 mA
29.5657299253537;-0.7989501953125;-0.0400848388671875;6.58999998336185;660;100 mA
29.5757299253285;-0.79925537109375;-0.0400604248046875;6.5999999833366;661;100 mA
29.5857299253032;-0.79864501953125;-0.0400848388671875;6.60999998331135;662;100 mA
29.595729925278;-0.7989501953125;-0.0399658203125;6.61999998328611;663;100 mA
29.6057299252527;-0.79925537109375;-0.0401458740234375;6.62999998326086;664;100 mA
29.6157299252275;-0.7989501953125;-0.039990234375;6.63999998323561;665;100 mA
29.6257299252022;-0.79925537109375;-0.0399810791015625;6.64999998321036;666;100 mA
29.635729925177;-0.79925537109375;-0.0399566650390625;6.65999998318512;667;100 mA
29.6457299251517;-0.79925537109375;-0.039837646484375;6.66999998315987;668;100 mA
29.6557299251265;-0.799560546875;-0.0399169921875;6.67999998313462;669;100 mA
29.6657299251012;-0.7989501953125;-0.0398284912109375;6.68999998310937;670;100 mA
29.675729925076;-0.79925537109375;-0.0399078369140625;6.69999998308413;671;100 mA
29.6857299250507;-0.79925537109375;-0.0398406982421875;6.70999998305888;672;100 mA
29.6957299250255;-0.79925537109375;-0.03990478515625;6.71999998303363;673;100 mA
29.7057299250002;-0.7989501953125;-0.0398223876953125;6.72999998300838;674;100 mA
29.715729924975;-0.79925537109375;-0.039764404296875;6.73999998298314;675;100 mA
29.7257299249497;-0.7989501953125;-0.0398773193359375;6.74999998295789;676;100 mA
29.7357299249245;-0.79833984375;-0.03973388671875;6.75999998293264;677;100 mA
29.7457299248993;-0.79925537109375;-0.0397064208984375;6.76999998290739;678;100 mA
29.755729924874;-0.7989501953125;-0.039605712890625;6.77999998288215;679;100 mA
29.7657299248488;-0.79925537109375;-0.03955078125;6.7899999828569;680;100 mA
29.7757299248235;-0.79925537109375;-0.0394561767578125;6.79999998283165;681;100 mA
29.7857299247983;-0.7989501953125;-0.03946533203125;6.8099999828064;682;100 mA
29.795729924773;-0.799560546875;-0.0394012451171875;6.81999998278116;683;100 mA
29.8057299247478;-0.79925537109375;-0.0393463134765625;6.82999998275591;684;100 mA
29.8157299247225;-0.79864501953125;-0.0393310546875;6.83999998273066;685;100 mA
29.8257299246973;-0.79864501953125;-0.0391845703125;6.84999998270541;686;100 mA
29.835729924672;-0.79925537109375;-0.0392425537109375;6.85999998268016;687;100 mA
29.8457299246468;-0.79864501953125;-0.039208984375;6.86999998265492;688;100 mA
29.8557299246215;-0.7989501953125;-0.039215087890625;6.87999998262967;689;100 mA
29.8657299245963;-0.7989501953125;-0.039215087890625;6.88999998260442;690;100 mA
29.875729924571;-0.79925537109375;-0.039208984375;6.89999998257917;691;100 mA
29.8857299245458;-0.79925537109375;-0.03919677734375;6.90999998255393;692;100 mA
29.8957299245205;-0.79925537109375;-0.0391265869140625;6.91999998252868;693;100 mA
29.9057299244953;-0.79925537109375;-0.0393310546875;6.92999998250343;694;100 mA
29.91572992447;-0.79925537109375;-0.03924560546875;6.93999998247818;695;100 mA
29.9257299244448;-0.79925537109375;-0.039312744140625;6.94999998245294;696;100 mA
29.9357299244195;-0.79925537109375;-0.0393402099609375;6.95999998242769;697;100 mA
29.9457299243943;-0.79925537109375;-0.0393310546875;6.96999998240244;698;100 mA
29.9557299243691;-0.79925537109375;-0.0394439697265625;6.97999998237719;699;100 mA
29.9657299243438;-0.799560546875;-0.0394195556640625;6.98999998235195;700;100 mA
