Time (s);WE(1).Potential (V);WE(1).Current (A);Corrected time (s);Index;Current range
45.6409278847677;-0.89996337890625;-0.321563720703125;0;1;100 mA
45.6509278847425;-0.89874267578125;-0.236724853515625;0.00999999997475243;2;100 mA
45.6609278847172;-0.89996337890625;-0.19622802734375;0.0199999999495049;3;100 mA
45.670927884692;-0.899658203125;-0.17132568359375;0.0299999999242573;4;100 mA
45.6809278846667;-0.89935302734375;-0.153656005859375;0.0399999998990097;5;100 mA
45.6909278846415;-0.89935302734375;-0.14068603515625;0.0499999998737621;6;100 mA
45.7009278846162;-0.89935302734375;-0.1307373046875;0.0599999998485146;7;100 mA
45.710927884591;-0.89935302734375;-0.122344970703125;0.069999999823267;8;100 mA
45.7209278845658;-0.899658203125;-0.11578369140625;0.0799999997980194;9;100 mA
45.7309278845405;-0.8990478515625;-0.109710693359375;0.0899999997727718;10;100 mA
45.7409278845153;-0.8990478515625;-0.104736328125;0.0999999997475243;11;100 mA
45.75092788449;-0.89935302734375;-0.10040283203125;0.109999999722277;12;100 mA
45.7609278844648;-0.8990478515625;-0.09649658203125;0.119999999697029;13;100 mA
45.7709278844395;-0.89996337890625;-0.0931396484375;0.129999999671782;14;100 mA
45.7809278844143;-0.899658203125;-0.090057373046875;0.139999999646534;15;100 mA
45.790927884389;-0.8990478515625;-0.0872802734375;0.149999999621286;16;100 mA
45.8009278843638;-0.899658203125;-0.084686279296875;0.159999999596039;17;100 mA
45.8109278843385;-0.89935302734375;-0.082305908203125;0.169999999570791;18;100 mA
45.8209278843133;-0.89935302734375;-0.080230712890625;0.179999999545544;19;100 mA
45.830927884288;-0.899658203125;-0.0782470703125;0.189999999520296;20;100 mA
45.8409278842628;-0.8990478515625;-0.076446533203125;0.199999999495049;21;100 mA
45.8509278842375;-0.899658203125;-0.07476806640625;0.209999999469801;22;100 mA
45.8609278842123;-0.89935302734375;-0.073089599609375;0.219999999444553;23;100 mA
45.870927884187;-0.899658203125;-0.071685791015625;0.229999999419306;24;100 mA
45.8809278841618;-0.8990478515625;-0.070281982421875;0.239999999394058;25;100 mA
45.8909278841365;-0.89935302734375;-0.0689697265625;0.249999999368811;26;100 mA
45.9009278841113;-0.89874267578125;-0.067901611328125;0.259999999343563;27;100 mA
45.910927884086;-0.89935302734375;-0.066619873046875;0.269999999318316;28;100 mA
45.9209278840608;-0.899658203125;-0.065582275390625;0.279999999293068;29;100 mA
45.9309278840356;-0.8990478515625;-0.064544677734375;0.28999999926782;30;100 mA
45.9409278840103;-0.8990478515625;-0.063629150390625;0.299999999242573;31;100 mA
45.9509278839851;-0.89935302734375;-0.062744140625;0.309999999217325;32;100 mA
45.9609278839598;-0.89935302734375;-0.06182861328125;0.319999999192078;33;100 mA
45.9709278839346;-0.89935302734375;-0.061065673828125;0.32999999916683;34;100 mA
45.9809278839093;-0.8990478515625;-0.060211181640625;0.339999999141583;35;100 mA
45.9909278838841;-0.89996337890625;-0.0594482421875;0.349999999116335;36;100 mA
46.0009278838588;-0.89874267578125;-0.058837890625;0.359999999091087;37;100 mA
46.0109278838336;-0.899658203125;-0.058135986328125;0.36999999906584;38;100 mA
46.0209278838083;-0.89996337890625;-0.0576171875;0.379999999040592;39;100 mA
46.0309278837831;-0.8990478515625;-0.05694580078125;0.389999999015345;40;100 mA
46.0409278837578;-0.8990478515625;-0.05633544921875;0.399999998990097;41;100 mA
46.0509278837326;-0.8990478515625;-0.055816650390625;0.40999999896485;42;100 mA
46.0609278837073;-0.899658203125;-0.05535888671875;0.419999998939602;43;100 mA
46.0709278836821;-0.8990478515625;-0.0548095703125;0.429999998914354;44;100 mA
46.0809278836568;-0.899658203125;-0.054351806640625;0.439999998889107;45;100 mA
46.0909278836316;-0.89874267578125;-0.053863525390625;0.449999998863859;46;100 mA
46.1009278836063;-0.89935302734375;-0.05340576171875;0.459999998838612;47;100 mA
46.1109278835811;-0.8990478515625;-0.052947998046875;0.469999998813364;48;100 mA
46.1209278835559;-0.8990478515625;-0.052581787109375;0.479999998788116;49;100 mA
46.1309278835306;-0.89935302734375;-0.052215576171875;0.489999998762869;50;100 mA
46.1409278835054;-0.9002685546875;-0.051849365234375;0.499999998737621;51;100 mA
46.1509278834801;-0.899658203125;-0.051513671875;0.509999998712374;52;100 mA
46.1609278834549;-0.89935302734375;-0.0511474609375;0.519999998687126;53;100 mA
46.1709278834296;-0.89935302734375;-0.050811767578125;0.529999998661879;54;100 mA
46.1809278834044;-0.89874267578125;-0.050567626953125;0.539999998636631;55;100 mA
46.1909278833791;-0.899658203125;-0.050140380859375;0.549999998611383;56;100 mA
46.2009278833539;-0.89935302734375;-0.04998779296875;0.559999998586136;57;100 mA
46.2109278833286;-0.8990478515625;-0.049652099609375;0.569999998560888;58;100 mA
46.2209278833034;-0.899658203125;-0.0493560791015625;0.579999998535641;59;100 mA
46.2309278832781;-0.8990478515625;-0.0490814208984375;0.589999998510393;60;100 mA
46.2409278832529;-0.89935302734375;-0.04886474609375;0.599999998485146;61;100 mA
46.2509278832276;-0.89935302734375;-0.04866943359375;0.609999998459898;62;100 mA
46.2609278832024;-0.8990478515625;-0.0484222412109375;0.61999999843465;63;100 mA
46.2709278831771;-0.899658203125;-0.0482635498046875;0.629999998409403;64;100 mA
46.2809278831519;-0.89935302734375;-0.047991943359375;0.639999998384155;65;100 mA
46.2909278831266;-0.89935302734375;-0.04775390625;0.649999998358908;66;100 mA
46.3009278831014;-0.8990478515625;-0.0475982666015625;0.65999999833366;67;100 mA
46.3109278830761;-0.899658203125;-0.0473846435546875;0.669999998308413;68;100 mA
46.3209278830509;-0.8990478515625;-0.04732666015625;0.679999998283165;69;100 mA
46.3309278830257;-0.899658203125;-0.0470916748046875;0.689999998257917;70;100 mA
46.3409278830004;-0.8990478515625;-0.046905517578125;0.69999999823267;71;100 mA
46.3509278829752;-0.89935302734375;-0.0467254638671875;0.709999998207422;72;100 mA
46.3609278829499;-0.899658203125;-0.046575927734375;0.719999998182175;73;100 mA
46.3709278829247;-0.89874267578125;-0.046337890625;0.729999998156927;74;100 mA
46.3809278828994;-0.9002685546875;-0.0462158203125;0.73999999813168;75;100 mA
46.3909278828742;-0.89935302734375;-0.04599609375;0.749999998106432;76;100 mA
46.4009278828489;-0.89935302734375;-0.0457977294921875;0.759999998081184;77;100 mA
46.4109278828237;-0.89935302734375;-0.0456634521484375;0.769999998055937;78;100 mA
46.4209278827984;-0.89874267578125;-0.04549560546875;0.779999998030689;79;100 mA
46.4309278827732;-0.899658203125;-0.04527587890625;0.789999998005442;80;100 mA
46.4409278827479;-0.899658203125;-0.0451324462890625;0.799999997980194;81;100 mA
46.4509278827227;-0.89935302734375;-0.0450164794921875;0.809999997954947;82;100 mA
46.4609278826974;-0.8990478515625;-0.0448272705078125;0.819999997929699;83;100 mA
46.4709278826722;-0.8990478515625;-0.04468994140625;0.829999997904451;84;100 mA
46.4809278826469;-0.899658203125;-0.0446624755859375;0.839999997879204;85;100 mA
46.4909278826217;-0.89935302734375;-0.0444549560546875;0.849999997853956;86;100 mA
46.5009278825964;-0.899658203125;-0.044488525390625;0.859999997828709;87;100 mA
46.5109278825712;-0.899658203125;-0.0442840576171875;0.869999997803461;88;100 mA
46.5209278825459;-0.89935302734375;-0.044219970703125;0.879999997778214;89;100 mA
46.5309278825207;-0.89935302734375;-0.0441009521484375;0.889999997752966;90;100 mA
46.5409278824955;-0.89935302734375;-0.04403076171875;0.899999997727718;91;100 mA
46.5509278824702;-0.8990478515625;-0.0439849853515625;0.909999997702471;92;100 mA
46.560927882445;-0.899658203125;-0.04390869140625;0.919999997677223;93;100 mA
46.5709278824197;-0.89935302734375;-0.0439117431640625;0.929999997651976;94;100 mA
46.5809278823945;-0.89935302734375;-0.0437957763671875;0.939999997626728;95;100 mA
46.5909278823692;-0.89935302734375;-0.0437225341796875;0.949999997601481;96;100 mA
46.600927882344;-0.89935302734375;-0.043682861328125;0.959999997576233;97;100 mA
46.6109278823187;-0.89935302734375;-0.0436126708984375;0.969999997550985;98;100 mA
46.6209278822935;-0.8990478515625;-0.0436553955078125;0.979999997525738;99;100 mA
46.6309278822682;-0.899658203125;-0.04349365234375;0.98999999750049;100;100 mA
46.640927882243;-0.899658203125;-0.0434356689453125;0.999999997475243;101;100 mA
46.6509278822177;-0.89935302734375;-0.043341064453125;1.00999999745;102;100 mA
46.6609278821925;-0.8990478515625;-0.043310546875;1.01999999742475;103;100 mA
46.6709278821672;-0.8990478515625;-0.04317626953125;1.0299999973995;104;100 mA
46.680927882142;-0.89935302734375;-0.0432403564453125;1.03999999737425;105;100 mA
46.6909278821167;-0.89935302734375;-0.0431793212890625;1.049999997349;106;100 mA
46.7009278820915;-0.89935302734375;-0.04315185546875;1.05999999732376;107;100 mA
46.7109278820662;-0.8990478515625;-0.0429534912109375;1.06999999729851;108;100 mA
46.720927882041;-0.89935302734375;-0.0428985595703125;1.07999999727326;109;100 mA
46.7309278820157;-0.89874267578125;-0.0428009033203125;1.08999999724801;110;100 mA
46.7409278819905;-0.89935302734375;-0.0427215576171875;1.09999999722277;111;100 mA
46.7509278819653;-0.89874267578125;-0.0427215576171875;1.10999999719752;112;100 mA
46.76092788194;-0.89935302734375;-0.042578125;1.11999999717227;113;100 mA
46.7709278819148;-0.89935302734375;-0.042529296875;1.12999999714702;114;100 mA
46.7809278818895;-0.8990478515625;-0.0425079345703125;1.13999999712178;115;100 mA
46.7909278818643;-0.8990478515625;-0.0423980712890625;1.14999999709653;116;100 mA
46.800927881839;-0.89874267578125;-0.0424560546875;1.15999999707128;117;100 mA
46.8109278818138;-0.899658203125;-0.0423187255859375;1.16999999704603;118;100 mA
46.8209278817885;-0.899658203125;-0.04229736328125;1.17999999702079;119;100 mA
46.8309278817633;-0.899658203125;-0.0422271728515625;1.18999999699554;120;100 mA
46.840927881738;-0.89935302734375;-0.0422088623046875;1.19999999697029;121;100 mA
46.8509278817128;-0.89874267578125;-0.0421112060546875;1.20999999694504;122;100 mA
46.8609278816875;-0.899658203125;-0.04210205078125;1.2199999969198;123;100 mA
46.8709278816623;-0.89935302734375;-0.042138671875;1.22999999689455;124;100 mA
46.880927881637;-0.899658203125;-0.0419677734375;1.2399999968693;125;100 mA
46.8909278816118;-0.89935302734375;-0.041888427734375;1.24999999684405;126;100 mA
46.9009278815865;-0.89935302734375;-0.041754150390625;1.25999999681881;127;100 mA
46.9109278815613;-0.8990478515625;-0.041668701171875;1.26999999679356;128;100 mA
46.920927881536;-0.89935302734375;-0.0416595458984375;1.27999999676831;129;100 mA
46.9309278815108;-0.89935302734375;-0.041558837890625;1.28999999674306;130;100 mA
46.9409278814855;-0.8990478515625;-0.0414825439453125;1.29999999671782;131;100 mA
46.9509278814603;-0.89935302734375;-0.0414459228515625;1.30999999669257;132;100 mA
46.9609278814351;-0.8990478515625;-0.041424560546875;1.31999999666732;133;100 mA
46.9709278814098;-0.89935302734375;-0.0412994384765625;1.32999999664207;134;100 mA
46.9809278813846;-0.89935302734375;-0.041400146484375;1.33999999661683;135;100 mA
46.9909278813593;-0.89935302734375;-0.0412689208984375;1.34999999659158;136;100 mA
47.0009278813341;-0.899658203125;-0.04122314453125;1.35999999656633;137;100 mA
47.0109278813088;-0.8990478515625;-0.0411102294921875;1.36999999654108;138;100 mA
47.0209278812836;-0.899658203125;-0.0410491943359375;1.37999999651583;139;100 mA
47.0309278812583;-0.899658203125;-0.0410003662109375;1.38999999649059;140;100 mA
47.0409278812331;-0.89935302734375;-0.0409332275390625;1.39999999646534;141;100 mA
47.0509278812078;-0.899658203125;-0.041058349609375;1.40999999644009;142;100 mA
47.0609278811826;-0.89935302734375;-0.0408477783203125;1.41999999641484;143;100 mA
47.0709278811573;-0.8990478515625;-0.040765380859375;1.4299999963896;144;100 mA
47.0809278811321;-0.89935302734375;-0.0407135009765625;1.43999999636435;145;100 mA
47.0909278811068;-0.8990478515625;-0.0406036376953125;1.4499999963391;146;100 mA
47.1009278810816;-0.8990478515625;-0.0407318115234375;1.45999999631385;147;100 mA
47.1109278810563;-0.8990478515625;-0.0405914306640625;1.46999999628861;148;100 mA
47.1209278810311;-0.8990478515625;-0.040618896484375;1.47999999626336;149;100 mA
47.1309278810058;-0.89996337890625;-0.0406036376953125;1.48999999623811;150;100 mA
47.1409278809806;-0.899658203125;-0.040625;1.49999999621286;151;100 mA
47.1509278809554;-0.89935302734375;-0.040570068359375;1.50999999618762;152;100 mA
47.1609278809301;-0.899658203125;-0.040606689453125;1.51999999616237;153;100 mA
47.1709278809049;-0.89935302734375;-0.040667724609375;1.52999999613712;154;100 mA
47.1809278808796;-0.8990478515625;-0.0406402587890625;1.53999999611187;155;100 mA
47.1909278808544;-0.8990478515625;-0.040728759765625;1.54999999608663;156;100 mA
47.2009278808291;-0.89935302734375;-0.040728759765625;1.55999999606138;157;100 mA
47.2109278808039;-0.89935302734375;-0.0407867431640625;1.56999999603613;158;100 mA
47.2209278807786;-0.89935302734375;-0.04088134765625;1.57999999601088;159;100 mA
47.2309278807534;-0.8990478515625;-0.0409210205078125;1.58999999598564;160;100 mA
47.2409278807281;-0.8990478515625;-0.0409637451171875;1.59999999596039;161;100 mA
47.2509278807029;-0.8990478515625;-0.041021728515625;1.60999999593514;162;100 mA
47.2609278806776;-0.8990478515625;-0.04112548828125;1.61999999590989;163;100 mA
47.2709278806524;-0.899658203125;-0.0412017822265625;1.62999999588465;164;100 mA
47.2809278806271;-0.899658203125;-0.041302490234375;1.6399999958594;165;100 mA
47.2909278806019;-0.89935302734375;-0.041259765625;1.64999999583415;166;100 mA
47.3009278805766;-0.89935302734375;-0.0412628173828125;1.6599999958089;167;100 mA
47.3109278805514;-0.8990478515625;-0.041265869140625;1.66999999578366;168;100 mA
47.3209278805261;-0.899658203125;-0.04124755859375;1.67999999575841;169;100 mA
47.3309278805009;-0.89935302734375;-0.0412384033203125;1.68999999573316;170;100 mA
47.3409278804756;-0.89935302734375;-0.041162109375;1.69999999570791;171;100 mA
47.3509278804504;-0.89935302734375;-0.0412078857421875;1.70999999568267;172;100 mA
47.3609278804252;-0.89935302734375;-0.0410400390625;1.71999999565742;173;100 mA
47.3709278803999;-0.8990478515625;-0.04095458984375;1.72999999563217;174;100 mA
47.3809278803747;-0.899658203125;-0.040887451171875;1.73999999560692;175;100 mA
47.3909278803494;-0.89935302734375;-0.0407806396484375;1.74999999558167;176;100 mA
47.4009278803242;-0.8990478515625;-0.0408660888671875;1.75999999555643;177;100 mA
47.4109278802989;-0.8990478515625;-0.0407196044921875;1.76999999553118;178;100 mA
47.4209278802737;-0.89935302734375;-0.04073486328125;1.77999999550593;179;100 mA
47.4309278802484;-0.89874267578125;-0.04066162109375;1.78999999548068;180;100 mA
47.4409278802232;-0.89935302734375;-0.0406524658203125;1.79999999545544;181;100 mA
47.4509278801979;-0.89935302734375;-0.0405731201171875;1.80999999543019;182;100 mA
47.4609278801727;-0.89935302734375;-0.0405914306640625;1.81999999540494;183;100 mA
47.4709278801474;-0.89996337890625;-0.0405975341796875;1.82999999537969;184;100 mA
47.4809278801222;-0.89935302734375;-0.04052734375;1.83999999535445;185;100 mA
47.4909278800969;-0.89935302734375;-0.0404510498046875;1.8499999953292;186;100 mA
47.5009278800717;-0.89935302734375;-0.0403778076171875;1.85999999530395;187;100 mA
47.5109278800464;-0.89935302734375;-0.0403106689453125;1.8699999952787;188;100 mA
47.5209278800212;-0.89935302734375;-0.040277099609375;1.87999999525346;189;100 mA
47.5309278799959;-0.8990478515625;-0.04022216796875;1.88999999522821;190;100 mA
47.5409278799707;-0.89996337890625;-0.04014892578125;1.89999999520296;191;100 mA
47.5509278799454;-0.899658203125;-0.0400909423828125;1.90999999517771;192;100 mA
47.5609278799202;-0.89935302734375;-0.040093994140625;1.91999999515247;193;100 mA
47.570927879895;-0.89935302734375;-0.0399627685546875;1.92999999512722;194;100 mA
47.5809278798697;-0.899658203125;-0.0400482177734375;1.93999999510197;195;100 mA
47.5909278798445;-0.89935302734375;-0.0399505615234375;1.94999999507672;196;100 mA
47.6009278798192;-0.89935302734375;-0.03994140625;1.95999999505148;197;100 mA
47.610927879794;-0.89935302734375;-0.039886474609375;1.96999999502623;198;100 mA
47.6209278797687;-0.899658203125;-0.0398468017578125;1.97999999500098;199;100 mA
47.6309278797435;-0.89935302734375;-0.039794921875;1.98999999497573;200;100 mA
47.6409278797182;-0.8990478515625;-0.039739990234375;1.99999999495049;201;100 mA
47.650927879693;-0.899658203125;-0.0397796630859375;2.00999999492524;202;100 mA
47.6609278796677;-0.89935302734375;-0.03963623046875;2.01999999489999;203;100 mA
47.6709278796425;-0.89935302734375;-0.03958740234375;2.02999999487474;204;100 mA
47.6809278796172;-0.89935302734375;-0.0395111083984375;2.0399999948495;205;100 mA
47.690927879592;-0.89935302734375;-0.039410400390625;2.04999999482425;206;100 mA
47.7009278795667;-0.89935302734375;-0.0394683837890625;2.059999994799;207;100 mA
47.7109278795415;-0.8990478515625;-0.0393280029296875;2.06999999477375;208;100 mA
47.7209278795162;-0.89935302734375;-0.039324951171875;2.0799999947485;209;100 mA
47.730927879491;-0.89935302734375;-0.03927001953125;2.08999999472326;210;100 mA
47.7409278794657;-0.899658203125;-0.0392608642578125;2.09999999469801;211;100 mA
47.7509278794405;-0.89935302734375;-0.03919677734375;2.10999999467276;212;100 mA
47.7609278794152;-0.9002685546875;-0.0392425537109375;2.11999999464751;213;100 mA
47.77092787939;-0.89935302734375;-0.0392547607421875;2.12999999462227;214;100 mA
47.7809278793648;-0.89935302734375;-0.0392333984375;2.13999999459702;215;100 mA
47.7909278793395;-0.899658203125;-0.039239501953125;2.14999999457177;216;100 mA
47.8009278793143;-0.899658203125;-0.03922119140625;2.15999999454652;217;100 mA
47.810927879289;-0.89935302734375;-0.03924560546875;2.16999999452128;218;100 mA
47.8209278792638;-0.899658203125;-0.0392791748046875;2.17999999449603;219;100 mA
47.8309278792385;-0.89996337890625;-0.03934326171875;2.18999999447078;220;100 mA
47.8409278792133;-0.89935302734375;-0.0393035888671875;2.19999999444553;221;100 mA
47.850927879188;-0.89935302734375;-0.0393280029296875;2.20999999442029;222;100 mA
47.8609278791628;-0.8990478515625;-0.0393646240234375;2.21999999439504;223;100 mA
47.8709278791375;-0.89935302734375;-0.039288330078125;2.22999999436979;224;100 mA
47.8809278791123;-0.899658203125;-0.0394134521484375;2.23999999434454;225;100 mA
47.890927879087;-0.899658203125;-0.03931884765625;2.2499999943193;226;100 mA
47.9009278790618;-0.8990478515625;-0.0393798828125;2.25999999429405;227;100 mA
47.9109278790365;-0.89935302734375;-0.039312744140625;2.2699999942688;228;100 mA
47.9209278790113;-0.8990478515625;-0.039337158203125;2.27999999424355;229;100 mA
47.930927878986;-0.8990478515625;-0.0393218994140625;2.28999999421831;230;100 mA
47.9409278789608;-0.89935302734375;-0.0393218994140625;2.29999999419306;231;100 mA
47.9509278789355;-0.89996337890625;-0.0394378662109375;2.30999999416781;232;100 mA
47.9609278789103;-0.8990478515625;-0.039373779296875;2.31999999414256;233;100 mA
47.970927878885;-0.899658203125;-0.039422607421875;2.32999999411732;234;100 mA
47.9809278788598;-0.89935302734375;-0.0394439697265625;2.33999999409207;235;100 mA
47.9909278788346;-0.8990478515625;-0.0394683837890625;2.34999999406682;236;100 mA
48.0009278788093;-0.89935302734375;-0.0396209716796875;2.35999999404157;237;100 mA
48.0109278787841;-0.89935302734375;-0.039605712890625;2.36999999401633;238;100 mA
48.0209278787588;-0.899658203125;-0.039697265625;2.37999999399108;239;100 mA
48.0309278787336;-0.899658203125;-0.0397247314453125;2.38999999396583;240;100 mA
48.0409278787083;-0.89935302734375;-0.0397979736328125;2.39999999394058;241;100 mA
48.0509278786831;-0.89935302734375;-0.039727783203125;2.40999999391533;242;100 mA
48.0609278786578;-0.89935302734375;-0.039801025390625;2.41999999389009;243;100 mA
48.0709278786326;-0.89935302734375;-0.0397552490234375;2.42999999386484;244;100 mA
48.0809278786073;-0.8990478515625;-0.0397186279296875;2.43999999383959;245;100 mA
48.0909278785821;-0.899658203125;-0.039642333984375;2.44999999381434;246;100 mA
48.1009278785568;-0.8990478515625;-0.0395843505859375;2.4599999937891;247;100 mA
48.1109278785316;-0.8990478515625;-0.0395416259765625;2.46999999376385;248;100 mA
48.1209278785063;-0.8990478515625;-0.039495849609375;2.4799999937386;249;100 mA
48.1309278784811;-0.899658203125;-0.0395843505859375;2.48999999371335;250;100 mA
48.1409278784558;-0.89935302734375;-0.039532470703125;2.49999999368811;251;100 mA
48.1509278784306;-0.8990478515625;-0.0395721435546875;2.50999999366286;252;100 mA
48.1609278784053;-0.89996337890625;-0.039666748046875;2.51999999363761;253;100 mA
48.1709278783801;-0.899658203125;-0.039605712890625;2.52999999361236;254;100 mA
48.1809278783549;-0.899658203125;-0.03978271484375;2.53999999358712;255;100 mA
48.1909278783296;-0.8990478515625;-0.039697265625;2.54999999356187;256;100 mA
48.2009278783044;-0.899658203125;-0.0398040771484375;2.55999999353662;257;100 mA
48.2109278782791;-0.899658203125;-0.03980712890625;2.56999999351137;258;100 mA
48.2209278782539;-0.89874267578125;-0.039886474609375;2.57999999348613;259;100 mA
48.2309278782286;-0.89996337890625;-0.0398956298828125;2.58999999346088;260;100 mA
48.2409278782034;-0.89935302734375;-0.03995361328125;2.59999999343563;261;100 mA
48.2509278781781;-0.89935302734375;-0.040093994140625;2.60999999341038;262;100 mA
48.2609278781529;-0.9002685546875;-0.040045166015625;2.61999999338514;263;100 mA
48.2709278781276;-0.8990478515625;-0.040081787109375;2.62999999335989;264;100 mA
48.2809278781024;-0.8990478515625;-0.0400970458984375;2.63999999333464;265;100 mA
48.2909278780771;-0.8990478515625;-0.0401123046875;2.64999999330939;266;100 mA
48.3009278780519;-0.89996337890625;-0.04022216796875;2.65999999328415;267;100 mA
48.3109278780266;-0.8990478515625;-0.0401702880859375;2.6699999932589;268;100 mA
48.3209278780014;-0.89996337890625;-0.0402252197265625;2.67999999323365;269;100 mA
48.3309278779761;-0.899658203125;-0.0402069091796875;2.6899999932084;270;100 mA
48.3409278779509;-0.8990478515625;-0.040252685546875;2.69999999318316;271;100 mA
48.3509278779256;-0.89935302734375;-0.04014892578125;2.70999999315791;272;100 mA
48.3609278779004;-0.89874267578125;-0.040203857421875;2.71999999313266;273;100 mA
48.3709278778751;-0.899658203125;-0.0401275634765625;2.72999999310741;274;100 mA
48.3809278778499;-0.89935302734375;-0.0400421142578125;2.73999999308217;275;100 mA
48.3909278778247;-0.89935302734375;-0.03994140625;2.74999999305692;276;100 mA
48.4009278777994;-0.89935302734375;-0.039849853515625;2.75999999303167;277;100 mA
48.4109278777742;-0.899658203125;-0.039801025390625;2.76999999300642;278;100 mA
48.4209278777489;-0.89935302734375;-0.0397003173828125;2.77999999298117;279;100 mA
48.4309278777237;-0.89935302734375;-0.0397247314453125;2.78999999295593;280;100 mA
48.4409278776984;-0.8990478515625;-0.039599609375;2.79999999293068;281;100 mA
48.4509278776732;-0.899658203125;-0.03958740234375;2.80999999290543;282;100 mA
48.4609278776479;-0.89935302734375;-0.0395904541015625;2.81999999288018;283;100 mA
48.4709278776227;-0.89935302734375;-0.03951416015625;2.82999999285494;284;100 mA
48.4809278775974;-0.89935302734375;-0.03966064453125;2.83999999282969;285;100 mA
48.4909278775722;-0.899658203125;-0.039556884765625;2.84999999280444;286;100 mA
48.5009278775469;-0.89935302734375;-0.039642333984375;2.85999999277919;287;100 mA
48.5109278775217;-0.899658203125;-0.0396209716796875;2.86999999275395;288;100 mA
48.5209278774964;-0.8990478515625;-0.0396942138671875;2.8799999927287;289;100 mA
48.5309278774712;-0.89935302734375;-0.0396820068359375;2.88999999270345;290;100 mA
48.5409278774459;-0.89935302734375;-0.0397369384765625;2.8999999926782;291;100 mA
48.5509278774207;-0.89935302734375;-0.039862060546875;2.90999999265296;292;100 mA
48.5609278773954;-0.89935302734375;-0.03983154296875;2.91999999262771;293;100 mA
48.5709278773702;-0.899658203125;-0.0398681640625;2.92999999260246;294;100 mA
48.5809278773449;-0.8990478515625;-0.0398834228515625;2.93999999257721;295;100 mA
48.5909278773197;-0.89935302734375;-0.039892578125;2.94999999255197;296;100 mA
48.6009278772945;-0.899658203125;-0.0400115966796875;2.95999999252672;297;100 mA
48.6109278772692;-0.89935302734375;-0.0399810791015625;2.96999999250147;298;100 mA
48.620927877244;-0.89935302734375;-0.0400177001953125;2.97999999247622;299;100 mA
48.6309278772187;-0.899658203125;-0.0400115966796875;2.98999999245098;300;100 mA
48.6409278771935;-0.89935302734375;-0.0400726318359375;2.99999999242573;301;100 mA
48.6509278771682;-0.89935302734375;-0.0399932861328125;3.00999999240048;302;100 mA
48.660927877143;-0.89935302734375;-0.04010009765625;3.01999999237523;303;100 mA
48.6709278771177;-0.89874267578125;-0.0400665283203125;3.02999999234999;304;100 mA
48.6809278770925;-0.89935302734375;-0.0400665283203125;3.03999999232474;305;100 mA
48.6909278770672;-0.89935302734375;-0.0400177001953125;3.04999999229949;306;100 mA
48.700927877042;-0.89935302734375;-0.039996337890625;3.05999999227424;307;100 mA
48.7109278770167;-0.89935302734375;-0.039971923828125;3.069999992249;308;100 mA
48.7209278769915;-0.899658203125;-0.03992919921875;3.07999999222375;309;100 mA
48.7309278769662;-0.8990478515625;-0.0399871826171875;3.0899999921985;310;100 mA
48.740927876941;-0.89935302734375;-0.0398773193359375;3.09999999217325;311;100 mA
48.7509278769157;-0.8990478515625;-0.039886474609375;3.109999992148;312;100 mA
48.7609278768905;-0.89935302734375;-0.039874267578125;3.11999999212276;313;100 mA
48.7709278768652;-0.89874267578125;-0.039801025390625;3.12999999209751;314;100 mA
48.78092787684;-0.89935302734375;-0.0399261474609375;3.13999999207226;315;100 mA
48.7909278768147;-0.89935302734375;-0.03985595703125;3.14999999204701;316;100 mA
48.8009278767895;-0.899658203125;-0.0399322509765625;3.15999999202177;317;100 mA
48.8109278767643;-0.89935302734375;-0.0399169921875;3.16999999199652;318;100 mA
48.820927876739;-0.899658203125;-0.04000244140625;3.17999999197127;319;100 mA
48.8309278767138;-0.89935302734375;-0.0399505615234375;3.18999999194602;320;100 mA
48.8409278766885;-0.89996337890625;-0.0400238037109375;3.19999999192078;321;100 mA
48.8509278766633;-0.89935302734375;-0.04012451171875;3.20999999189553;322;100 mA
48.860927876638;-0.899658203125;-0.0400604248046875;3.21999999187028;323;100 mA
48.8709278766128;-0.899658203125;-0.0400909423828125;3.22999999184503;324;100 mA
48.8809278765875;-0.8990478515625;-0.040087890625;3.23999999181979;325;100 mA
48.8909278765623;-0.899658203125;-0.0400970458984375;3.24999999179454;326;100 mA
48.900927876537;-0.89935302734375;-0.040118408203125;3.25999999176929;327;100 mA
48.9109278765118;-0.89935302734375;-0.0400787353515625;3.26999999174404;328;100 mA
48.9209278764865;-0.89935302734375;-0.040045166015625;3.2799999917188;329;100 mA
48.9309278764613;-0.89935302734375;-0.04000244140625;3.28999999169355;330;100 mA
48.940927876436;-0.89996337890625;-0.0399993896484375;3.2999999916683;331;100 mA
48.9509278764108;-0.89996337890625;-0.039874267578125;3.30999999164305;332;100 mA
48.9609278763855;-0.8990478515625;-0.03994140625;3.31999999161781;333;100 mA
48.9709278763603;-0.899658203125;-0.0398162841796875;3.32999999159256;334;100 mA
48.980927876335;-0.8990478515625;-0.0397705078125;3.33999999156731;335;100 mA
48.9909278763098;-0.89935302734375;-0.0396728515625;3.34999999154206;336;100 mA
49.0009278762845;-0.899658203125;-0.0396026611328125;3.35999999151682;337;100 mA
49.0109278762593;-0.89935302734375;-0.0395050048828125;3.36999999149157;338;100 mA
49.0209278762341;-0.8990478515625;-0.039434814453125;3.37999999146632;339;100 mA
49.0309278762088;-0.899658203125;-0.039501953125;3.38999999144107;340;100 mA
49.0409278761836;-0.89935302734375;-0.0393829345703125;3.39999999141583;341;100 mA
49.0509278761583;-0.8984375;-0.0394134521484375;3.40999999139058;342;100 mA
49.0609278761331;-0.89935302734375;-0.0393890380859375;3.41999999136533;343;100 mA
49.0709278761078;-0.899658203125;-0.039361572265625;3.42999999134008;344;100 mA
49.0809278760826;-0.89935302734375;-0.0394927978515625;3.43999999131483;345;100 mA
49.0909278760573;-0.899658203125;-0.0394195556640625;3.44999999128959;346;100 mA
49.1009278760321;-0.89935302734375;-0.0394989013671875;3.45999999126434;347;100 mA
49.1109278760068;-0.899658203125;-0.039459228515625;3.46999999123909;348;100 mA
49.1209278759816;-0.89935302734375;-0.0395355224609375;3.47999999121384;349;100 mA
49.1309278759563;-0.89874267578125;-0.0394439697265625;3.4899999911886;350;100 mA
49.1409278759311;-0.89935302734375;-0.03951416015625;3.49999999116335;351;100 mA
49.1509278759058;-0.89935302734375;-0.0395477294921875;3.5099999911381;352;100 mA
49.1609278758806;-0.89996337890625;-0.039483642578125;3.51999999111285;353;100 mA
49.1709278758553;-0.89935302734375;-0.0394927978515625;3.52999999108761;354;100 mA
49.1809278758301;-0.89935302734375;-0.039459228515625;3.53999999106236;355;100 mA
49.1909278758048;-0.89935302734375;-0.039447021484375;3.54999999103711;356;100 mA
49.2009278757796;-0.8990478515625;-0.03941650390625;3.55999999101186;357;100 mA
49.2109278757544;-0.8990478515625;-0.0393829345703125;3.56999999098662;358;100 mA
49.2209278757291;-0.899658203125;-0.039312744140625;3.57999999096137;359;100 mA
49.2309278757039;-0.899658203125;-0.0392578125;3.58999999093612;360;100 mA
49.2409278756786;-0.89935302734375;-0.0392303466796875;3.59999999091087;361;100 mA
49.2509278756534;-0.89935302734375;-0.039111328125;3.60999999088563;362;100 mA
49.2609278756281;-0.8990478515625;-0.0391876220703125;3.61999999086038;363;100 mA
49.2709278756029;-0.8990478515625;-0.0390655517578125;3.62999999083513;364;100 mA
49.2809278755776;-0.89935302734375;-0.039068603515625;3.63999999080988;365;100 mA
49.2909278755524;-0.8990478515625;-0.038958740234375;3.64999999078464;366;100 mA
49.3009278755271;-0.8990478515625;-0.038909912109375;3.65999999075939;367;100 mA
49.3109278755019;-0.899658203125;-0.038812255859375;3.66999999073414;368;100 mA
49.3209278754766;-0.8990478515625;-0.03873291015625;3.67999999070889;369;100 mA
49.3309278754514;-0.89935302734375;-0.0387847900390625;3.68999999068365;370;100 mA
49.3409278754261;-0.8990478515625;-0.03863525390625;3.6999999906584;371;100 mA
49.3509278754009;-0.89935302734375;-0.0386260986328125;3.70999999063315;372;100 mA
49.3609278753756;-0.89935302734375;-0.0385772705078125;3.7199999906079;373;100 mA
49.3709278753504;-0.89935302734375;-0.03853759765625;3.72999999058266;374;100 mA
49.3809278753251;-0.89935302734375;-0.038629150390625;3.73999999055741;375;100 mA
49.3909278752999;-0.89935302734375;-0.0385498046875;3.74999999053216;376;100 mA
49.4009278752746;-0.89935302734375;-0.0386016845703125;3.75999999050691;377;100 mA
49.4109278752494;-0.89935302734375;-0.0385833740234375;3.76999999048167;378;100 mA
49.4209278752242;-0.899658203125;-0.03865966796875;3.77999999045642;379;100 mA
49.4309278751989;-0.89935302734375;-0.0385711669921875;3.78999999043117;380;100 mA
49.4409278751737;-0.89935302734375;-0.03865966796875;3.79999999040592;381;100 mA
49.4509278751484;-0.89935302734375;-0.038818359375;3.80999999038067;382;100 mA
49.4609278751232;-0.89935302734375;-0.0387603759765625;3.81999999035543;383;100 mA
49.4709278750979;-0.89935302734375;-0.038665771484375;3.82999999033018;384;100 mA
49.4809278750727;-0.899658203125;-0.038641357421875;3.83999999030493;385;100 mA
49.4909278750474;-0.89935302734375;-0.038671875;3.84999999027968;386;100 mA
49.5009278750222;-0.89935302734375;-0.0386627197265625;3.85999999025444;387;100 mA
49.5109278749969;-0.8990478515625;-0.0387176513671875;3.86999999022919;388;100 mA
49.5209278749717;-0.89935302734375;-0.038677978515625;3.87999999020394;389;100 mA
49.5309278749464;-0.89874267578125;-0.038690185546875;3.88999999017869;390;100 mA
49.5409278749212;-0.8990478515625;-0.03870849609375;3.89999999015345;391;100 mA
49.5509278748959;-0.899658203125;-0.03865966796875;3.9099999901282;392;100 mA
49.5609278748707;-0.89935302734375;-0.0388031005859375;3.91999999010295;393;100 mA
49.5709278748454;-0.899658203125;-0.038751220703125;3.9299999900777;394;100 mA
49.5809278748202;-0.89935302734375;-0.0388641357421875;3.93999999005246;395;100 mA
49.5909278747949;-0.89935302734375;-0.038861083984375;3.94999999002721;396;100 mA
49.6009278747697;-0.89874267578125;-0.0389068603515625;3.95999999000196;397;100 mA
49.6109278747444;-0.899658203125;-0.038934326171875;3.96999998997671;398;100 mA
49.6209278747192;-0.89996337890625;-0.038995361328125;3.97999998995147;399;100 mA
49.630927874694;-0.8990478515625;-0.0390899658203125;3.98999998992622;400;100 mA
49.6409278746687;-0.89935302734375;-0.0390045166015625;3.99999998990097;401;100 mA
49.6509278746435;-0.89935302734375;-0.0390625;4.00999998987572;402;100 mA
49.6609278746182;-0.899658203125;-0.0390625;4.01999998985048;403;100 mA
49.670927874593;-0.899658203125;-0.0390716552734375;4.02999998982523;404;100 mA
49.6809278745677;-0.8990478515625;-0.0392608642578125;4.03999998979998;405;100 mA
49.6909278745425;-0.89935302734375;-0.039141845703125;4.04999998977473;406;100 mA
49.7009278745172;-0.8990478515625;-0.039215087890625;4.05999998974949;407;100 mA
49.710927874492;-0.899658203125;-0.03922119140625;4.06999998972424;408;100 mA
49.7209278744667;-0.899658203125;-0.0393280029296875;4.07999998969899;409;100 mA
49.7309278744415;-0.8990478515625;-0.0392791748046875;4.08999998967374;410;100 mA
49.7409278744162;-0.89935302734375;-0.0393951416015625;4.0999999896485;411;100 mA
49.750927874391;-0.899658203125;-0.039453125;4.10999998962325;412;100 mA
49.7609278743657;-0.899658203125;-0.039434814453125;4.119999989598;413;100 mA
49.7709278743405;-0.899658203125;-0.039434814453125;4.12999998957275;414;100 mA
49.7809278743152;-0.899658203125;-0.0394012451171875;4.1399999895475;415;100 mA
49.79092787429;-0.89935302734375;-0.0394134521484375;4.14999998952226;416;100 mA
49.8009278742647;-0.89935302734375;-0.039404296875;4.15999998949701;417;100 mA
49.8109278742395;-0.899658203125;-0.0394439697265625;4.16999998947176;418;100 mA
49.8209278742142;-0.899658203125;-0.0393951416015625;4.17999998944651;419;100 mA
49.830927874189;-0.89935302734375;-0.039385986328125;4.18999998942127;420;100 mA
49.8409278741638;-0.8990478515625;-0.039398193359375;4.19999998939602;421;100 mA
49.8509278741385;-0.899658203125;-0.03931884765625;4.20999998937077;422;100 mA
49.8609278741133;-0.899658203125;-0.0394317626953125;4.21999998934552;423;100 mA
49.870927874088;-0.8990478515625;-0.039337158203125;4.22999998932028;424;100 mA
49.8809278740628;-0.8990478515625;-0.039373779296875;4.23999998929503;425;100 mA
49.8909278740375;-0.89935302734375;-0.0393280029296875;4.24999998926978;426;100 mA
49.9009278740123;-0.89935302734375;-0.039349365234375;4.25999998924453;427;100 mA
49.910927873987;-0.899658203125;-0.0392791748046875;4.26999998921929;428;100 mA
49.9209278739618;-0.89935302734375;-0.0392730712890625;4.27999998919404;429;100 mA
49.9309278739365;-0.89874267578125;-0.0393646240234375;4.28999998916879;430;100 mA
49.9409278739113;-0.89935302734375;-0.0392669677734375;4.29999998914354;431;100 mA
49.950927873886;-0.89935302734375;-0.0392913818359375;4.3099999891183;432;100 mA
49.9609278738608;-0.8990478515625;-0.0392669677734375;4.31999998909305;433;100 mA
49.9709278738355;-0.899658203125;-0.0392486572265625;4.3299999890678;434;100 mA
49.9809278738103;-0.899658203125;-0.03936767578125;4.33999998904255;435;100 mA
49.990927873785;-0.89996337890625;-0.0393096923828125;4.34999998901731;436;100 mA
50.0009278737598;-0.899658203125;-0.0393402099609375;4.35999998899206;437;100 mA
50.0109278737345;-0.899658203125;-0.039312744140625;4.36999998896681;438;100 mA
50.0209278737093;-0.8990478515625;-0.0393035888671875;4.37999998894156;439;100 mA
50.030927873684;-0.8990478515625;-0.039166259765625;4.38999998891632;440;100 mA
50.0409278736588;-0.89874267578125;-0.0392364501953125;4.39999998889107;441;100 mA
50.0509278736336;-0.8990478515625;-0.0391754150390625;4.40999998886582;442;100 mA
50.0609278736083;-0.89935302734375;-0.039068603515625;4.41999998884057;443;100 mA
50.0709278735831;-0.899658203125;-0.0389801025390625;4.42999998881533;444;100 mA
50.0809278735578;-0.89935302734375;-0.038909912109375;4.43999998879008;445;100 mA
50.0909278735326;-0.8990478515625;-0.0388519287109375;4.44999998876483;446;100 mA
50.1009278735073;-0.899658203125;-0.03878173828125;4.45999998873958;447;100 mA
50.1109278734821;-0.8990478515625;-0.0388214111328125;4.46999998871433;448;100 mA
50.1209278734568;-0.899658203125;-0.0387481689453125;4.47999998868909;449;100 mA
50.1309278734316;-0.8990478515625;-0.0387481689453125;4.48999998866384;450;100 mA
50.1409278734063;-0.89935302734375;-0.03875732421875;4.49999998863859;451;100 mA
50.1509278733811;-0.8990478515625;-0.03878173828125;4.50999998861334;452;100 mA
50.1609278733558;-0.8990478515625;-0.03887939453125;4.5199999885881;453;100 mA
50.1709278733306;-0.8990478515625;-0.038812255859375;4.52999998856285;454;100 mA
50.1809278733053;-0.899658203125;-0.0389190673828125;4.5399999885376;455;100 mA
50.1909278732801;-0.9002685546875;-0.0389007568359375;4.54999998851235;456;100 mA
50.2009278732548;-0.89935302734375;-0.038995361328125;4.55999998848711;457;100 mA
50.2109278732296;-0.89935302734375;-0.0389251708984375;4.56999998846186;458;100 mA
50.2209278732043;-0.89935302734375;-0.03900146484375;4.57999998843661;459;100 mA
50.2309278731791;-0.89935302734375;-0.039154052734375;4.58999998841136;460;100 mA
50.2409278731539;-0.89935302734375;-0.03905029296875;4.59999998838612;461;100 mA
50.2509278731286;-0.89996337890625;-0.0390625;4.60999998836087;462;100 mA
50.2609278731034;-0.8990478515625;-0.0390106201171875;4.61999998833562;463;100 mA
50.2709278730781;-0.89935302734375;-0.0390167236328125;4.62999998831037;464;100 mA
50.2809278730529;-0.899658203125;-0.0390594482421875;4.63999998828513;465;100 mA
50.2909278730276;-0.899658203125;-0.03900146484375;4.64999998825988;466;100 mA
50.3009278730024;-0.89935302734375;-0.0390045166015625;4.65999998823463;467;100 mA
50.3109278729771;-0.899658203125;-0.038970947265625;4.66999998820938;468;100 mA
50.3209278729519;-0.8990478515625;-0.0389984130859375;4.67999998818414;469;100 mA
50.3309278729266;-0.89996337890625;-0.0388671875;4.68999998815889;470;100 mA
50.3409278729014;-0.8990478515625;-0.038970947265625;4.69999998813364;471;100 mA
50.3509278728761;-0.89935302734375;-0.0389190673828125;4.70999998810839;472;100 mA
50.3609278728509;-0.89935302734375;-0.038946533203125;4.71999998808315;473;100 mA
50.3709278728256;-0.8990478515625;-0.0389068603515625;4.7299999880579;474;100 mA
50.3809278728004;-0.8990478515625;-0.0390045166015625;4.73999998803265;475;100 mA
50.3909278727751;-0.89935302734375;-0.0390045166015625;4.7499999880074;476;100 mA
50.4009278727499;-0.89996337890625;-0.038861083984375;4.75999998798216;477;100 mA
50.4109278727246;-0.89935302734375;-0.0389007568359375;4.76999998795691;478;100 mA
50.4209278726994;-0.899658203125;-0.0387908935546875;4.77999998793166;479;100 mA
50.4309278726741;-0.899658203125;-0.0388031005859375;4.78999998790641;480;100 mA
50.4409278726489;-0.8990478515625;-0.0387908935546875;4.79999998788116;481;100 mA
50.4509278726237;-0.899658203125;-0.038763427734375;4.80999998785592;482;100 mA
50.4609278725984;-0.8990478515625;-0.0388916015625;4.81999998783067;483;100 mA
50.4709278725732;-0.899658203125;-0.0387847900390625;4.82999998780542;484;100 mA
50.4809278725479;-0.89996337890625;-0.03885498046875;4.83999998778017;485;100 mA
50.4909278725227;-0.899658203125;-0.0388031005859375;4.84999998775493;486;100 mA
50.5009278724974;-0.899658203125;-0.0388580322265625;4.85999998772968;487;100 mA
50.5109278724722;-0.89935302734375;-0.0387969970703125;4.86999998770443;488;100 mA
50.5209278724469;-0.89935302734375;-0.038885498046875;4.87999998767918;489;100 mA
50.5309278724217;-0.8990478515625;-0.038848876953125;4.88999998765394;490;100 mA
50.5409278723964;-0.89935302734375;-0.0387786865234375;4.89999998762869;491;100 mA
50.5509278723712;-0.899658203125;-0.0387451171875;4.90999998760344;492;100 mA
50.5609278723459;-0.89935302734375;-0.0386688232421875;4.91999998757819;493;100 mA
50.5709278723207;-0.89935302734375;-0.03870849609375;4.92999998755295;494;100 mA
50.5809278722954;-0.89935302734375;-0.0387054443359375;4.9399999875277;495;100 mA
50.5909278722702;-0.8990478515625;-0.03873291015625;4.94999998750245;496;100 mA
50.6009278722449;-0.899658203125;-0.038751220703125;4.9599999874772;497;100 mA
50.6109278722197;-0.89996337890625;-0.038763427734375;4.96999998745196;498;100 mA
50.6209278721944;-0.89874267578125;-0.0389556884765625;4.97999998742671;499;100 mA
50.6309278721692;-0.89874267578125;-0.0388427734375;4.98999998740146;500;100 mA
50.6409278721439;-0.8990478515625;-0.03896484375;4.99999998737621;501;100 mA
50.6509278721187;-0.8990478515625;-0.038861083984375;5.00999998735097;502;100 mA
50.6609278720935;-0.899658203125;-0.0388336181640625;5.01999998732572;503;100 mA
50.6709278720682;-0.89874267578125;-0.03876953125;5.02999998730047;504;100 mA
50.680927872043;-0.899658203125;-0.0387847900390625;5.03999998727522;505;100 mA
50.6909278720177;-0.89935302734375;-0.0387298583984375;5.04999998724998;506;100 mA
50.7009278719925;-0.89935302734375;-0.0386627197265625;5.05999998722473;507;100 mA
50.7109278719672;-0.8990478515625;-0.038714599609375;5.06999998719948;508;100 mA
50.720927871942;-0.89935302734375;-0.0386016845703125;5.07999998717423;509;100 mA
50.7309278719167;-0.8990478515625;-0.038592529296875;5.08999998714899;510;100 mA
50.7409278718915;-0.8990478515625;-0.0386016845703125;5.09999998712374;511;100 mA
50.7509278718662;-0.899658203125;-0.0385986328125;5.10999998709849;512;100 mA
50.760927871841;-0.89935302734375;-0.038751220703125;5.11999998707324;513;100 mA
50.7709278718157;-0.8990478515625;-0.0386932373046875;5.129999987048;514;100 mA
50.7809278717905;-0.8990478515625;-0.03876953125;5.13999998702275;515;100 mA
50.7909278717652;-0.89874267578125;-0.0387664794921875;5.1499999869975;516;100 mA
50.80092787174;-0.899658203125;-0.0388641357421875;5.15999998697225;517;100 mA
50.8109278717147;-0.8990478515625;-0.0387969970703125;5.169999986947;518;100 mA
50.8209278716895;-0.89935302734375;-0.0389007568359375;5.17999998692176;519;100 mA
50.8309278716642;-0.8990478515625;-0.0389495849609375;5.18999998689651;520;100 mA
50.840927871639;-0.89935302734375;-0.0389251708984375;5.19999998687126;521;100 mA
50.8509278716137;-0.89996337890625;-0.038970947265625;5.20999998684601;522;100 mA
50.8609278715885;-0.89874267578125;-0.038958740234375;5.21999998682077;523;100 mA
50.8709278715633;-0.8990478515625;-0.0389556884765625;5.22999998679552;524;100 mA
50.880927871538;-0.89935302734375;-0.0389739990234375;5.23999998677027;525;100 mA
50.8909278715128;-0.89935302734375;-0.0389892578125;5.24999998674502;526;100 mA
50.9009278714875;-0.899658203125;-0.03896484375;5.25999998671978;527;100 mA
50.9109278714623;-0.89935302734375;-0.038946533203125;5.26999998669453;528;100 mA
50.920927871437;-0.8990478515625;-0.038983154296875;5.27999998666928;529;100 mA
50.9309278714118;-0.89935302734375;-0.0388702392578125;5.28999998664403;530;100 mA
50.9409278713865;-0.8990478515625;-0.03897705078125;5.29999998661879;531;100 mA
50.9509278713613;-0.89935302734375;-0.0388702392578125;5.30999998659354;532;100 mA
50.960927871336;-0.89935302734375;-0.0388580322265625;5.31999998656829;533;100 mA
50.9709278713108;-0.89874267578125;-0.0387725830078125;5.32999998654304;534;100 mA
50.9809278712855;-0.89935302734375;-0.03875732421875;5.3399999865178;535;100 mA
50.9909278712603;-0.89935302734375;-0.0386993408203125;5.34999998649255;536;100 mA
51.000927871235;-0.899658203125;-0.038671875;5.3599999864673;537;100 mA
51.0109278712098;-0.899658203125;-0.038720703125;5.36999998644205;538;100 mA
51.0209278711845;-0.89935302734375;-0.0386322021484375;5.37999998641681;539;100 mA
51.0309278711593;-0.89935302734375;-0.038641357421875;5.38999998639156;540;100 mA
51.040927871134;-0.899658203125;-0.03861083984375;5.39999998636631;541;100 mA
51.0509278711088;-0.89996337890625;-0.038616943359375;5.40999998634106;542;100 mA
51.0609278710835;-0.8990478515625;-0.038726806640625;5.41999998631582;543;100 mA
51.0709278710583;-0.8990478515625;-0.0386932373046875;5.42999998629057;544;100 mA
51.0809278710331;-0.8990478515625;-0.03876953125;5.43999998626532;545;100 mA
51.0909278710078;-0.899658203125;-0.0387664794921875;5.44999998624007;546;100 mA
51.1009278709826;-0.89935302734375;-0.038873291015625;5.45999998621483;547;100 mA
51.1109278709573;-0.8990478515625;-0.0388153076171875;5.46999998618958;548;100 mA
51.1209278709321;-0.8990478515625;-0.0389801025390625;5.47999998616433;549;100 mA
51.1309278709068;-0.899658203125;-0.0390045166015625;5.48999998613908;550;100 mA
51.1409278708816;-0.89935302734375;-0.039044189453125;5.49999998611383;551;100 mA
51.1509278708563;-0.9002685546875;-0.039093017578125;5.50999998608859;552;100 mA
51.1609278708311;-0.89935302734375;-0.039093017578125;5.51999998606334;553;100 mA
51.1709278708058;-0.899658203125;-0.03916015625;5.52999998603809;554;100 mA
51.1809278707806;-0.89935302734375;-0.0391845703125;5.53999998601284;555;100 mA
51.1909278707553;-0.899658203125;-0.0392578125;5.5499999859876;556;100 mA
51.2009278707301;-0.89996337890625;-0.0392364501953125;5.55999998596235;557;100 mA
51.2109278707048;-0.89935302734375;-0.0392425537109375;5.5699999859371;558;100 mA
51.2209278706796;-0.899658203125;-0.0393280029296875;5.57999998591185;559;100 mA
51.2309278706543;-0.8990478515625;-0.0392852783203125;5.58999998588661;560;100 mA
51.2409278706291;-0.89935302734375;-0.0394775390625;5.59999998586136;561;100 mA
51.2509278706038;-0.89935302734375;-0.0394256591796875;5.60999998583611;562;100 mA
51.2609278705786;-0.8990478515625;-0.039508056640625;5.61999998581086;563;100 mA
51.2709278705534;-0.899658203125;-0.039508056640625;5.62999998578562;564;100 mA
51.2809278705281;-0.899658203125;-0.0395843505859375;5.63999998576037;565;100 mA
51.2909278705029;-0.89935302734375;-0.03955078125;5.64999998573512;566;100 mA
51.3009278704776;-0.899658203125;-0.0396209716796875;5.65999998570987;567;100 mA
51.3109278704524;-0.89935302734375;-0.0397369384765625;5.66999998568463;568;100 mA
51.3209278704271;-0.89996337890625;-0.0396820068359375;5.67999998565938;569;100 mA
51.3309278704019;-0.899658203125;-0.0397308349609375;5.68999998563413;570;100 mA
51.3409278703766;-0.899658203125;-0.039715576171875;5.69999998560888;571;100 mA
51.3509278703514;-0.8990478515625;-0.039776611328125;5.70999998558364;572;100 mA
51.3609278703261;-0.899658203125;-0.0398956298828125;5.71999998555839;573;100 mA
51.3709278703009;-0.89935302734375;-0.0399200439453125;5.72999998553314;574;100 mA
51.3809278702756;-0.89874267578125;-0.040020751953125;5.73999998550789;575;100 mA
51.3909278702504;-0.899658203125;-0.0400482177734375;5.74999998548265;576;100 mA
51.4009278702251;-0.8990478515625;-0.040155029296875;5.7599999854574;577;100 mA
51.4109278701999;-0.89935302734375;-0.040081787109375;5.76999998543215;578;100 mA
51.4209278701746;-0.89935302734375;-0.04029541015625;5.7799999854069;579;100 mA
51.4309278701494;-0.899658203125;-0.0402984619140625;5.78999998538166;580;100 mA
51.4409278701241;-0.89935302734375;-0.0403076171875;5.79999998535641;581;100 mA
51.4509278700989;-0.8990478515625;-0.040325927734375;5.80999998533116;582;100 mA
51.4609278700736;-0.8990478515625;-0.0403106689453125;5.81999998530591;583;100 mA
51.4709278700484;-0.89996337890625;-0.04033203125;5.82999998528066;584;100 mA
51.4809278700232;-0.89874267578125;-0.040289306640625;5.83999998525542;585;100 mA
51.4909278699979;-0.899658203125;-0.040386962890625;5.84999998523017;586;100 mA
51.5009278699727;-0.8990478515625;-0.0403289794921875;5.85999998520492;587;100 mA
51.5109278699474;-0.8990478515625;-0.040350341796875;5.86999998517967;588;100 mA
51.5209278699222;-0.89874267578125;-0.0404266357421875;5.87999998515443;589;100 mA
51.5309278698969;-0.89874267578125;-0.040386962890625;5.88999998512918;590;100 mA
51.5409278698717;-0.899658203125;-0.0406036376953125;5.89999998510393;591;100 mA
51.5509278698464;-0.89874267578125;-0.0405548095703125;5.90999998507868;592;100 mA
51.5609278698212;-0.89935302734375;-0.0406463623046875;5.91999998505344;593;100 mA
51.5709278697959;-0.899658203125;-0.0406280517578125;5.92999998502819;594;100 mA
51.5809278697707;-0.89935302734375;-0.0407073974609375;5.93999998500294;595;100 mA
51.5909278697454;-0.8990478515625;-0.040643310546875;5.94999998497769;596;100 mA
51.6009278697202;-0.89935302734375;-0.0406890869140625;5.95999998495245;597;100 mA
51.6109278696949;-0.8990478515625;-0.04075927734375;5.9699999849272;598;100 mA
51.6209278696697;-0.89935302734375;-0.040673828125;5.97999998490195;599;100 mA
51.6309278696444;-0.89935302734375;-0.0406829833984375;5.9899999848767;600;100 mA
51.6409278696192;-0.89935302734375;-0.0406585693359375;5.99999998485146;601;100 mA
51.6509278695939;-0.89935302734375;-0.040692138671875;6.00999998482621;602;100 mA
51.6609278695687;-0.8990478515625;-0.04078369140625;6.01999998480096;603;100 mA
51.6709278695434;-0.899658203125;-0.040789794921875;6.02999998477571;604;100 mA
51.6809278695182;-0.89935302734375;-0.0408416748046875;6.03999998475047;605;100 mA
51.690927869493;-0.899658203125;-0.040838623046875;6.04999998472522;606;100 mA
51.7009278694677;-0.89935302734375;-0.0409210205078125;6.05999998469997;607;100 mA
51.7109278694425;-0.89935302734375;-0.04080810546875;6.06999998467472;608;100 mA
51.7209278694172;-0.8990478515625;-0.040924072265625;6.07999998464948;609;100 mA
51.730927869392;-0.89935302734375;-0.0408447265625;6.08999998462423;610;100 mA
51.7409278693667;-0.8990478515625;-0.0408111572265625;6.09999998459898;611;100 mA
51.7509278693415;-0.89935302734375;-0.0407470703125;6.10999998457373;612;100 mA
51.7609278693162;-0.89935302734375;-0.040631103515625;6.11999998454849;613;100 mA
51.770927869291;-0.89935302734375;-0.040557861328125;6.12999998452324;614;100 mA
51.7809278692657;-0.8990478515625;-0.040460205078125;6.13999998449799;615;100 mA
51.7909278692405;-0.89935302734375;-0.0404815673828125;6.14999998447274;616;100 mA
51.8009278692152;-0.89935302734375;-0.04031982421875;6.1599999844475;617;100 mA
51.81092786919;-0.89935302734375;-0.0402801513671875;6.16999998442225;618;100 mA
51.8209278691647;-0.8990478515625;-0.0402435302734375;6.179999984397;619;100 mA
51.8309278691395;-0.89935302734375;-0.040142822265625;6.18999998437175;620;100 mA
51.8409278691142;-0.899658203125;-0.0402801513671875;6.1999999843465;621;100 mA
51.850927869089;-0.89935302734375;-0.040167236328125;6.20999998432126;622;100 mA
51.8609278690637;-0.89935302734375;-0.040228271484375;6.21999998429601;623;100 mA
51.8709278690385;-0.89874267578125;-0.0401885986328125;6.22999998427076;624;100 mA
51.8809278690132;-0.8990478515625;-0.0402496337890625;6.23999998424551;625;100 mA
51.890927868988;-0.8990478515625;-0.0401824951171875;6.24999998422027;626;100 mA
51.9009278689628;-0.89935302734375;-0.0402618408203125;6.25999998419502;627;100 mA
51.9109278689375;-0.89935302734375;-0.0403594970703125;6.26999998416977;628;100 mA
51.9209278689123;-0.8990478515625;-0.0403411865234375;6.27999998414452;629;100 mA
51.930927868887;-0.89935302734375;-0.04039306640625;6.28999998411928;630;100 mA
51.9409278688618;-0.89935302734375;-0.040386962890625;6.29999998409403;631;100 mA
51.9509278688365;-0.89935302734375;-0.0404571533203125;6.30999998406878;632;100 mA
51.9609278688113;-0.899658203125;-0.0405181884765625;6.31999998404353;633;100 mA
51.970927868786;-0.899658203125;-0.040576171875;6.32999998401829;634;100 mA
51.9809278687608;-0.8990478515625;-0.0405975341796875;6.33999998399304;635;100 mA
51.9909278687355;-0.8990478515625;-0.040606689453125;6.34999998396779;636;100 mA
52.0009278687103;-0.8990478515625;-0.04071044921875;6.35999998394254;637;100 mA
52.010927868685;-0.89935302734375;-0.04061279296875;6.3699999839173;638;100 mA
52.0209278686598;-0.89935302734375;-0.040777587890625;6.37999998389205;639;100 mA
52.0309278686345;-0.8990478515625;-0.0407073974609375;6.3899999838668;640;100 mA
52.0409278686093;-0.89935302734375;-0.040753173828125;6.39999998384155;641;100 mA
52.050927868584;-0.89874267578125;-0.0407012939453125;6.40999998381631;642;100 mA
52.0609278685588;-0.899658203125;-0.0406890869140625;6.41999998379106;643;100 mA
52.0709278685335;-0.89874267578125;-0.040643310546875;6.42999998376581;644;100 mA
52.0809278685083;-0.89935302734375;-0.040576171875;6.43999998374056;645;100 mA
52.090927868483;-0.8990478515625;-0.0406494140625;6.44999998371532;646;100 mA
52.1009278684578;-0.89874267578125;-0.0404998779296875;6.45999998369007;647;100 mA
52.1109278684326;-0.89935302734375;-0.040460205078125;6.46999998366482;648;100 mA
52.1209278684073;-0.899658203125;-0.0404052734375;6.47999998363957;649;100 mA
52.1309278683821;-0.8990478515625;-0.040289306640625;6.48999998361433;650;100 mA
52.1409278683568;-0.8990478515625;-0.0403656005859375;6.49999998358908;651;100 mA
52.1509278683316;-0.89874267578125;-0.0402435302734375;6.50999998356383;652;100 mA
52.1609278683063;-0.89935302734375;-0.040289306640625;6.51999998353858;653;100 mA
52.1709278682811;-0.899658203125;-0.0402252197265625;6.52999998351333;654;100 mA
52.1809278682558;-0.89935302734375;-0.0402618408203125;6.53999998348809;655;100 mA
52.1909278682306;-0.89935302734375;-0.0401336669921875;6.54999998346284;656;100 mA
52.2009278682053;-0.8990478515625;-0.0401885986328125;6.55999998343759;657;100 mA
52.2109278681801;-0.8990478515625;-0.040185546875;6.56999998341234;658;100 mA
52.2209278681548;-0.899658203125;-0.0401092529296875;6.5799999833871;659;100 mA
52.2309278681296;-0.8990478515625;-0.0400482177734375;6.58999998336185;660;100 mA
52.2409278681043;-0.89935302734375;-0.0399627685546875;6.5999999833366;661;100 mA
52.2509278680791;-0.8990478515625;-0.03990478515625;6.60999998331135;662;100 mA
52.2609278680538;-0.89996337890625;-0.039886474609375;6.61999998328611;663;100 mA
52.2709278680286;-0.89935302734375;-0.03984375;6.62999998326086;664;100 mA
52.2809278680033;-0.89874267578125;-0.03974609375;6.63999998323561;665;100 mA
52.2909278679781;-0.89996337890625;-0.0396881103515625;6.64999998321036;666;100 mA
52.3009278679529;-0.89935302734375;-0.039739990234375;6.65999998318512;667;100 mA
52.3109278679276;-0.8990478515625;-0.039599609375;6.66999998315987;668;100 mA
52.3209278679024;-0.89935302734375;-0.0397247314453125;6.67999998313462;669;100 mA
52.3309278678771;-0.899658203125;-0.03961181640625;6.68999998310937;670;100 mA
52.3409278678519;-0.89996337890625;-0.0396453857421875;6.69999998308413;671;100 mA
52.3509278678266;-0.89874267578125;-0.0395965576171875;6.70999998305888;672;100 mA
52.3609278678014;-0.8990478515625;-0.0395965576171875;6.71999998303363;673;100 mA
52.3709278677761;-0.89935302734375;-0.039520263671875;6.72999998300838;674;100 mA
52.3809278677509;-0.89935302734375;-0.0395050048828125;6.73999998298314;675;100 mA
52.3909278677256;-0.899658203125;-0.039599609375;6.74999998295789;676;100 mA
52.4009278677004;-0.89935302734375;-0.039471435546875;6.75999998293264;677;100 mA
52.4109278676751;-0.89935302734375;-0.0394378662109375;6.76999998290739;678;100 mA
52.4209278676499;-0.8990478515625;-0.0393768310546875;6.77999998288215;679;100 mA
52.4309278676246;-0.899658203125;-0.0393096923828125;6.7899999828569;680;100 mA
52.4409278675994;-0.8990478515625;-0.0393798828125;6.79999998283165;681;100 mA
52.4509278675741;-0.89935302734375;-0.0393096923828125;6.8099999828064;682;100 mA
52.4609278675489;-0.89935302734375;-0.03931884765625;6.81999998278116;683;100 mA
52.4709278675236;-0.899658203125;-0.0392974853515625;6.82999998275591;684;100 mA
52.4809278674984;-0.899658203125;-0.0393585205078125;6.83999998273066;685;100 mA
52.4909278674731;-0.8990478515625;-0.039239501953125;6.84999998270541;686;100 mA
52.5009278674479;-0.89935302734375;-0.039361572265625;6.85999998268016;687;100 mA
52.5109278674227;-0.8990478515625;-0.039385986328125;6.86999998265492;688;100 mA
52.5209278673974;-0.8990478515625;-0.0393524169921875;6.87999998262967;689;100 mA
52.5309278673722;-0.89996337890625;-0.0393341064453125;6.88999998260442;690;100 mA
52.5409278673469;-0.899658203125;-0.0392822265625;6.89999998257917;691;100 mA
52.5509278673217;-0.8990478515625;-0.0392730712890625;6.90999998255393;692;100 mA
52.5609278672964;-0.899658203125;-0.0391845703125;6.91999998252868;693;100 mA
52.5709278672712;-0.89996337890625;-0.039215087890625;6.92999998250343;694;100 mA
52.5809278672459;-0.89935302734375;-0.0391021728515625;6.93999998247818;695;100 mA
52.5909278672207;-0.8990478515625;-0.0390594482421875;6.94999998245294;696;100 mA
52.6009278671954;-0.8990478515625;-0.0390472412109375;6.95999998242769;697;100 mA
52.6109278671702;-0.89874267578125;-0.038922119140625;6.96999998240244;698;100 mA
52.6209278671449;-0.899658203125;-0.0390594482421875;6.97999998237719;699;100 mA
52.6309278671197;-0.89874267578125;-0.0389495849609375;6.98999998235195;700;100 mA
