Time (s);WE(1).Potential (V);WE(1).Current (A);Corrected time (s);Index;Current range
68.5314378269748;-1.0015869140625;-0.323394775390625;0;1;100 mA
68.5414378269495;-0.99945068359375;-0.237945556640625;0.00999999997475243;2;100 mA
68.5514378269243;-0.999755859375;-0.197113037109375;0.0199999999495049;3;100 mA
68.561437826899;-0.999755859375;-0.171905517578125;0.0299999999242573;4;100 mA
68.5714378268738;-0.99945068359375;-0.15423583984375;0.0399999998990097;5;100 mA
68.5814378268485;-0.99945068359375;-0.14111328125;0.0499999998737621;6;100 mA
68.5914378268233;-0.99945068359375;-0.13092041015625;0.0599999998485146;7;100 mA
68.601437826798;-0.9991455078125;-0.122711181640625;0.069999999823267;8;100 mA
68.6114378267728;-0.9991455078125;-0.115753173828125;0.0799999997980194;9;100 mA
68.6214378267475;-0.99945068359375;-0.10992431640625;0.0899999997727718;10;100 mA
68.6314378267223;-0.999755859375;-0.104949951171875;0.0999999997475243;11;100 mA
68.641437826697;-0.99945068359375;-0.10040283203125;0.109999999722277;12;100 mA
68.6514378266718;-0.99945068359375;-0.096588134765625;0.119999999697029;13;100 mA
68.6614378266465;-0.99945068359375;-0.09326171875;0.129999999671782;14;100 mA
68.6714378266213;-0.99945068359375;-0.090118408203125;0.139999999646534;15;100 mA
68.681437826596;-0.9991455078125;-0.08746337890625;0.149999999621286;16;100 mA
68.6914378265708;-0.999755859375;-0.084686279296875;0.159999999596039;17;100 mA
68.7014378265455;-0.999755859375;-0.082489013671875;0.169999999570791;18;100 mA
68.7114378265203;-0.99945068359375;-0.08038330078125;0.179999999545544;19;100 mA
68.721437826495;-0.99945068359375;-0.078460693359375;0.189999999520296;20;100 mA
68.7314378264698;-0.99945068359375;-0.07666015625;0.199999999495049;21;100 mA
68.7414378264446;-0.9991455078125;-0.07501220703125;0.209999999469801;22;100 mA
68.7514378264193;-1.00006103515625;-0.073486328125;0.219999999444553;23;100 mA
68.7614378263941;-0.9991455078125;-0.07196044921875;0.229999999419306;24;100 mA
68.7714378263688;-0.999755859375;-0.070556640625;0.239999999394058;25;100 mA
68.7814378263436;-0.99945068359375;-0.0693359375;0.249999999368811;26;100 mA
68.7914378263183;-0.9991455078125;-0.06817626953125;0.259999999343563;27;100 mA
68.8014378262931;-0.999755859375;-0.067108154296875;0.269999999318316;28;100 mA
68.8114378262678;-0.99945068359375;-0.066009521484375;0.279999999293068;29;100 mA
68.8214378262426;-0.99945068359375;-0.064971923828125;0.28999999926782;30;100 mA
68.8314378262173;-0.99945068359375;-0.064117431640625;0.299999999242573;31;100 mA
68.8414378261921;-0.99945068359375;-0.063201904296875;0.309999999217325;32;100 mA
68.8514378261668;-0.9991455078125;-0.062347412109375;0.319999999192078;33;100 mA
68.8614378261416;-0.99945068359375;-0.061614990234375;0.32999999916683;34;100 mA
68.8714378261163;-0.9991455078125;-0.060760498046875;0.339999999141583;35;100 mA
68.8814378260911;-0.9991455078125;-0.060028076171875;0.349999999116335;36;100 mA
68.8914378260658;-0.999755859375;-0.059295654296875;0.359999999091087;37;100 mA
68.9014378260406;-0.99945068359375;-0.05865478515625;0.36999999906584;38;100 mA
68.9114378260153;-0.99945068359375;-0.05804443359375;0.379999999040592;39;100 mA
68.9214378259901;-0.999755859375;-0.057373046875;0.389999999015345;40;100 mA
68.9314378259648;-0.9991455078125;-0.056854248046875;0.399999998990097;41;100 mA
68.9414378259396;-1.00006103515625;-0.056182861328125;0.40999999896485;42;100 mA
68.9514378259144;-0.9991455078125;-0.0556640625;0.419999998939602;43;100 mA
68.9614378258891;-0.99884033203125;-0.05523681640625;0.429999998914354;44;100 mA
68.9714378258639;-0.999755859375;-0.05474853515625;0.439999998889107;45;100 mA
68.9814378258386;-0.999755859375;-0.054412841796875;0.449999998863859;46;100 mA
68.9914378258134;-0.999755859375;-0.0538330078125;0.459999998838612;47;100 mA
69.0014378257881;-0.99945068359375;-0.053466796875;0.469999998813364;48;100 mA
69.0114378257629;-0.999755859375;-0.05303955078125;0.479999998788116;49;100 mA
69.0214378257376;-0.99884033203125;-0.052703857421875;0.489999998762869;50;100 mA
69.0314378257124;-0.99945068359375;-0.052337646484375;0.499999998737621;51;100 mA
69.0414378256871;-0.999755859375;-0.051971435546875;0.509999998712374;52;100 mA
69.0514378256619;-0.99945068359375;-0.051666259765625;0.519999998687126;53;100 mA
69.0614378256366;-0.999755859375;-0.051239013671875;0.529999998661879;54;100 mA
69.0714378256114;-0.99945068359375;-0.050933837890625;0.539999998636631;55;100 mA
69.0814378255861;-0.99945068359375;-0.050628662109375;0.549999998611383;56;100 mA
69.0914378255609;-0.999755859375;-0.05035400390625;0.559999998586136;57;100 mA
69.1014378255356;-0.9991455078125;-0.05010986328125;0.569999998560888;58;100 mA
69.1114378255104;-0.99945068359375;-0.049774169921875;0.579999998535641;59;100 mA
69.1214378254851;-0.9991455078125;-0.049456787109375;0.589999998510393;60;100 mA
69.1314378254599;-0.99945068359375;-0.04921875;0.599999998485146;61;100 mA
69.1414378254347;-0.9991455078125;-0.04901123046875;0.609999998459898;62;100 mA
69.1514378254094;-0.99945068359375;-0.0486907958984375;0.61999999843465;63;100 mA
69.1614378253842;-0.99884033203125;-0.048553466796875;0.629999998409403;64;100 mA
69.1714378253589;-0.9991455078125;-0.048223876953125;0.639999998384155;65;100 mA
69.1814378253337;-0.999755859375;-0.04798583984375;0.649999998358908;66;100 mA
69.1914378253084;-0.99945068359375;-0.0477386474609375;0.65999999833366;67;100 mA
69.2014378252832;-0.9991455078125;-0.0475433349609375;0.669999998308413;68;100 mA
69.2114378252579;-0.999755859375;-0.0473297119140625;0.679999998283165;69;100 mA
69.2214378252327;-0.9991455078125;-0.0470458984375;0.689999998257917;70;100 mA
69.2314378252074;-0.9991455078125;-0.046893310546875;0.69999999823267;71;100 mA
69.2414378251822;-0.99945068359375;-0.0465850830078125;0.709999998207422;72;100 mA
69.2514378251569;-0.99884033203125;-0.0463592529296875;0.719999998182175;73;100 mA
69.2614378251317;-0.99945068359375;-0.0462005615234375;0.729999998156927;74;100 mA
69.2714378251064;-0.99945068359375;-0.0459564208984375;0.73999999813168;75;100 mA
69.2814378250812;-1.00006103515625;-0.04591064453125;0.749999998106432;76;100 mA
69.2914378250559;-0.999755859375;-0.0455963134765625;0.759999998081184;77;100 mA
69.3014378250307;-0.999755859375;-0.0454620361328125;0.769999998055937;78;100 mA
69.3114378250054;-0.99884033203125;-0.0452789306640625;0.779999998030689;79;100 mA
69.3214378249802;-0.99945068359375;-0.0451690673828125;0.789999998005442;80;100 mA
69.3314378249549;-0.9991455078125;-0.045025634765625;0.799999997980194;81;100 mA
69.3414378249297;-0.999755859375;-0.04490966796875;0.809999997954947;82;100 mA
69.3514378249045;-0.9991455078125;-0.0448455810546875;0.819999997929699;83;100 mA
69.3614378248792;-0.999755859375;-0.044659423828125;0.829999997904451;84;100 mA
69.371437824854;-0.99945068359375;-0.04454345703125;0.839999997879204;85;100 mA
69.3814378248287;-0.99945068359375;-0.0444732666015625;0.849999997853956;86;100 mA
69.3914378248035;-1.00006103515625;-0.0443572998046875;0.859999997828709;87;100 mA
69.4014378247782;-0.99945068359375;-0.0443115234375;0.869999997803461;88;100 mA
69.411437824753;-0.9991455078125;-0.0441436767578125;0.879999997778214;89;100 mA
69.4214378247277;-0.99945068359375;-0.0440216064453125;0.889999997752966;90;100 mA
69.4314378247025;-0.99945068359375;-0.043927001953125;0.899999997727718;91;100 mA
69.4414378246772;-0.9991455078125;-0.04383544921875;0.909999997702471;92;100 mA
69.451437824652;-0.999755859375;-0.0436279296875;0.919999997677223;93;100 mA
69.4614378246267;-0.999755859375;-0.043646240234375;0.929999997651976;94;100 mA
69.4714378246015;-0.99884033203125;-0.04344482421875;0.939999997626728;95;100 mA
69.4814378245762;-0.999755859375;-0.04332275390625;0.949999997601481;96;100 mA
69.491437824551;-0.99945068359375;-0.043182373046875;0.959999997576233;97;100 mA
69.5014378245257;-0.999755859375;-0.043096923828125;0.969999997550985;98;100 mA
69.5114378245005;-0.9991455078125;-0.042999267578125;0.979999997525738;99;100 mA
69.5214378244752;-0.99884033203125;-0.042901611328125;0.98999999750049;100;100 mA
69.53143782445;-0.9991455078125;-0.04287109375;0.999999997475243;101;100 mA
69.5414378244247;-0.9991455078125;-0.042706298828125;1.00999999745;102;100 mA
69.5514378243995;-0.99945068359375;-0.042626953125;1.01999999742475;103;100 mA
69.5614378243743;-0.999755859375;-0.0425872802734375;1.0299999973995;104;100 mA
69.571437824349;-0.99945068359375;-0.042498779296875;1.03999999737425;105;100 mA
69.5814378243238;-0.9991455078125;-0.0425750732421875;1.049999997349;106;100 mA
69.5914378242985;-0.999755859375;-0.042449951171875;1.05999999732376;107;100 mA
69.6014378242733;-0.99884033203125;-0.042401123046875;1.06999999729851;108;100 mA
69.611437824248;-0.99945068359375;-0.042303466796875;1.07999999727326;109;100 mA
69.6214378242228;-0.99945068359375;-0.04228515625;1.08999999724801;110;100 mA
69.6314378241975;-1.00006103515625;-0.04217529296875;1.09999999722277;111;100 mA
69.6414378241723;-0.99884033203125;-0.0421661376953125;1.10999999719752;112;100 mA
69.651437824147;-0.9991455078125;-0.0421356201171875;1.11999999717227;113;100 mA
69.6614378241218;-0.9991455078125;-0.0420379638671875;1.12999999714702;114;100 mA
69.6714378240965;-0.999755859375;-0.0419921875;1.13999999712178;115;100 mA
69.6814378240713;-0.99945068359375;-0.0420318603515625;1.14999999709653;116;100 mA
69.691437824046;-0.9991455078125;-0.041998291015625;1.15999999707128;117;100 mA
69.7014378240208;-0.9991455078125;-0.041943359375;1.16999999704603;118;100 mA
69.7114378239955;-0.99945068359375;-0.0419219970703125;1.17999999702079;119;100 mA
69.7214378239703;-0.99945068359375;-0.0418975830078125;1.18999999699554;120;100 mA
69.731437823945;-0.999755859375;-0.041912841796875;1.19999999697029;121;100 mA
69.7414378239198;-0.99945068359375;-0.0419708251953125;1.20999999694504;122;100 mA
69.7514378238945;-0.999755859375;-0.04195556640625;1.2199999969198;123;100 mA
69.7614378238693;-0.99945068359375;-0.0421661376953125;1.22999999689455;124;100 mA
69.7714378238441;-0.99945068359375;-0.0420562744140625;1.2399999968693;125;100 mA
69.7814378238188;-0.99945068359375;-0.0420867919921875;1.24999999684405;126;100 mA
69.7914378237936;-0.99945068359375;-0.041998291015625;1.25999999681881;127;100 mA
69.8014378237683;-0.9991455078125;-0.0420196533203125;1.26999999679356;128;100 mA
69.8114378237431;-0.999755859375;-0.0419769287109375;1.27999999676831;129;100 mA
69.8214378237178;-0.999755859375;-0.0419342041015625;1.28999999674306;130;100 mA
69.8314378236926;-0.99945068359375;-0.0419708251953125;1.29999999671782;131;100 mA
69.8414378236673;-0.99945068359375;-0.04183349609375;1.30999999669257;132;100 mA
69.8514378236421;-0.99945068359375;-0.0418182373046875;1.31999999666732;133;100 mA
69.8614378236168;-0.99884033203125;-0.0417633056640625;1.32999999664207;134;100 mA
69.8714378235916;-0.999755859375;-0.0417144775390625;1.33999999661683;135;100 mA
69.8814378235663;-0.99945068359375;-0.041796875;1.34999999659158;136;100 mA
69.8914378235411;-0.999755859375;-0.041693115234375;1.35999999656633;137;100 mA
69.9014378235158;-0.99945068359375;-0.0417144775390625;1.36999999654108;138;100 mA
69.9114378234906;-0.9991455078125;-0.0416778564453125;1.37999999651583;139;100 mA
69.9214378234653;-0.9991455078125;-0.04171142578125;1.38999999649059;140;100 mA
69.9314378234401;-0.9991455078125;-0.04166259765625;1.39999999646534;141;100 mA
69.9414378234148;-0.999755859375;-0.04169921875;1.40999999644009;142;100 mA
69.9514378233896;-1.00006103515625;-0.04169921875;1.41999999641484;143;100 mA
69.9614378233643;-0.999755859375;-0.0416656494140625;1.4299999963896;144;100 mA
69.9714378233391;-0.99945068359375;-0.0416412353515625;1.43999999636435;145;100 mA
69.9814378233139;-0.99945068359375;-0.0416015625;1.4499999963391;146;100 mA
69.9914378232886;-0.99945068359375;-0.0415740966796875;1.45999999631385;147;100 mA
70.0014378232634;-0.9991455078125;-0.04154052734375;1.46999999628861;148;100 mA
70.0114378232381;-0.999755859375;-0.0415771484375;1.47999999626336;149;100 mA
70.0214378232129;-0.9991455078125;-0.041473388671875;1.48999999623811;150;100 mA
70.0314378231876;-0.9991455078125;-0.0414337158203125;1.49999999621286;151;100 mA
70.0414378231624;-0.999755859375;-0.0414306640625;1.50999999618762;152;100 mA
70.0514378231371;-0.9991455078125;-0.04163818359375;1.51999999616237;153;100 mA
70.0614378231119;-0.9991455078125;-0.0415008544921875;1.52999999613712;154;100 mA
70.0714378230866;-0.9991455078125;-0.0413360595703125;1.53999999611187;155;100 mA
70.0814378230614;-0.99945068359375;-0.04132080078125;1.54999999608663;156;100 mA
70.0914378230361;-0.999755859375;-0.0412017822265625;1.55999999606138;157;100 mA
70.1014378230109;-0.99945068359375;-0.041204833984375;1.56999999603613;158;100 mA
70.1114378229856;-0.9991455078125;-0.04117431640625;1.57999999601088;159;100 mA
70.1214378229604;-1.00006103515625;-0.04119873046875;1.58999999598564;160;100 mA
70.1314378229351;-0.999755859375;-0.0411346435546875;1.59999999596039;161;100 mA
70.1414378229099;-0.9991455078125;-0.040972900390625;1.60999999593514;162;100 mA
70.1514378228846;-0.999755859375;-0.0409423828125;1.61999999590989;163;100 mA
70.1614378228594;-0.99945068359375;-0.040863037109375;1.62999999588465;164;100 mA
70.1714378228342;-0.99945068359375;-0.04088134765625;1.6399999958594;165;100 mA
70.1814378228089;-0.999755859375;-0.041046142578125;1.64999999583415;166;100 mA
70.1914378227837;-0.99945068359375;-0.040869140625;1.6599999958089;167;100 mA
70.2014378227584;-0.99945068359375;-0.0407806396484375;1.66999999578366;168;100 mA
70.2114378227332;-1.00006103515625;-0.040740966796875;1.67999999575841;169;100 mA
70.2214378227079;-0.9991455078125;-0.0408447265625;1.68999999573316;170;100 mA
70.2314378226827;-0.9991455078125;-0.0407257080078125;1.69999999570791;171;100 mA
70.2414378226574;-0.99945068359375;-0.0408172607421875;1.70999999568267;172;100 mA
70.2514378226322;-0.99853515625;-0.0407745361328125;1.71999999565742;173;100 mA
70.2614378226069;-0.99945068359375;-0.040704345703125;1.72999999563217;174;100 mA
70.2714378225817;-0.999755859375;-0.040643310546875;1.73999999560692;175;100 mA
70.2814378225564;-0.99945068359375;-0.0405517578125;1.74999999558167;176;100 mA
70.2914378225312;-0.9991455078125;-0.040509033203125;1.75999999555643;177;100 mA
70.3014378225059;-0.99945068359375;-0.0404266357421875;1.76999999553118;178;100 mA
70.3114378224807;-0.99945068359375;-0.040472412109375;1.77999999550593;179;100 mA
70.3214378224554;-0.99884033203125;-0.040350341796875;1.78999999548068;180;100 mA
70.3314378224302;-0.9991455078125;-0.0403411865234375;1.79999999545544;181;100 mA
70.3414378224049;-0.99945068359375;-0.0403350830078125;1.80999999543019;182;100 mA
70.3514378223797;-0.999755859375;-0.040283203125;1.81999999540494;183;100 mA
70.3614378223544;-0.99945068359375;-0.0404144287109375;1.82999999537969;184;100 mA
70.3714378223292;-0.9991455078125;-0.0403228759765625;1.83999999535445;185;100 mA
70.381437822304;-0.9991455078125;-0.0403839111328125;1.8499999953292;186;100 mA
70.3914378222787;-0.99945068359375;-0.04033203125;1.85999999530395;187;100 mA
70.4014378222535;-0.99945068359375;-0.0403472900390625;1.8699999952787;188;100 mA
70.4114378222282;-0.99945068359375;-0.0402740478515625;1.87999999525346;189;100 mA
70.421437822203;-0.99884033203125;-0.04027099609375;1.88999999522821;190;100 mA
70.4314378221777;-0.99945068359375;-0.040338134765625;1.89999999520296;191;100 mA
70.4414378221525;-0.9991455078125;-0.040252685546875;1.90999999517771;192;100 mA
70.4514378221272;-0.9991455078125;-0.0402618408203125;1.91999999515247;193;100 mA
70.461437822102;-0.9991455078125;-0.0402252197265625;1.92999999512722;194;100 mA
70.4714378220767;-0.9991455078125;-0.0402191162109375;1.93999999510197;195;100 mA
70.4814378220515;-0.99945068359375;-0.0403076171875;1.94999999507672;196;100 mA
70.4914378220262;-0.9991455078125;-0.0402435302734375;1.95999999505148;197;100 mA
70.501437822001;-0.999755859375;-0.04024658203125;1.96999999502623;198;100 mA
70.5114378219757;-0.99945068359375;-0.0401763916015625;1.97999999500098;199;100 mA
70.5214378219505;-0.9991455078125;-0.0401702880859375;1.98999999497573;200;100 mA
70.5314378219252;-0.999755859375;-0.0400054931640625;1.99999999495049;201;100 mA
70.5414378219;-0.99884033203125;-0.0400421142578125;2.00999999492524;202;100 mA
70.5514378218747;-0.9991455078125;-0.0399261474609375;2.01999999489999;203;100 mA
70.5614378218495;-0.99945068359375;-0.0398468017578125;2.02999999487474;204;100 mA
70.5714378218242;-0.99945068359375;-0.03973388671875;2.0399999948495;205;100 mA
70.581437821799;-0.99945068359375;-0.0396240234375;2.04999999482425;206;100 mA
70.5914378217738;-0.999755859375;-0.0395416259765625;2.059999994799;207;100 mA
70.6014378217485;-0.9991455078125;-0.039447021484375;2.06999999477375;208;100 mA
70.6114378217233;-1.00006103515625;-0.0394287109375;2.0799999947485;209;100 mA
70.621437821698;-0.9991455078125;-0.03929443359375;2.08999999472326;210;100 mA
70.6314378216728;-0.9991455078125;-0.0392547607421875;2.09999999469801;211;100 mA
70.6414378216475;-0.999755859375;-0.039208984375;2.10999999467276;212;100 mA
70.6514378216223;-1.0003662109375;-0.0391448974609375;2.11999999464751;213;100 mA
70.661437821597;-0.99945068359375;-0.0392486572265625;2.12999999462227;214;100 mA
70.6714378215718;-0.9991455078125;-0.039141845703125;2.13999999459702;215;100 mA
70.6814378215465;-0.999755859375;-0.0391876220703125;2.14999999457177;216;100 mA
70.6914378215213;-0.99945068359375;-0.0391326904296875;2.15999999454652;217;100 mA
70.701437821496;-0.99945068359375;-0.0391510009765625;2.16999999452128;218;100 mA
70.7114378214708;-0.999755859375;-0.03907470703125;2.17999999449603;219;100 mA
70.7214378214455;-0.999755859375;-0.0391021728515625;2.18999999447078;220;100 mA
70.7314378214203;-0.9991455078125;-0.039154052734375;2.19999999444553;221;100 mA
70.741437821395;-0.999755859375;-0.039080810546875;2.20999999442029;222;100 mA
70.7514378213698;-0.99945068359375;-0.03907470703125;2.21999999439504;223;100 mA
70.7614378213445;-0.99945068359375;-0.0390472412109375;2.22999999436979;224;100 mA
70.7714378213193;-0.999755859375;-0.0390228271484375;2.23999999434454;225;100 mA
70.781437821294;-0.99884033203125;-0.0390472412109375;2.2499999943193;226;100 mA
70.7914378212688;-0.9991455078125;-0.0389984130859375;2.25999999429405;227;100 mA
70.8014378212436;-0.999755859375;-0.0389892578125;2.2699999942688;228;100 mA
70.8114378212183;-1.00006103515625;-0.03896484375;2.27999999424355;229;100 mA
70.8214378211931;-0.99945068359375;-0.0389892578125;2.28999999421831;230;100 mA
70.8314378211678;-0.99884033203125;-0.0389068603515625;2.29999999419306;231;100 mA
70.8414378211426;-0.999755859375;-0.038970947265625;2.30999999416781;232;100 mA
70.8514378211173;-1.00006103515625;-0.0389190673828125;2.31999999414256;233;100 mA
70.8614378210921;-0.99945068359375;-0.0389434814453125;2.32999999411732;234;100 mA
70.8714378210668;-0.99945068359375;-0.0388885498046875;2.33999999409207;235;100 mA
70.8814378210416;-0.99945068359375;-0.038885498046875;2.34999999406682;236;100 mA
70.8914378210163;-0.99884033203125;-0.038836669921875;2.35999999404157;237;100 mA
70.9014378209911;-0.99945068359375;-0.038812255859375;2.36999999401633;238;100 mA
70.9114378209658;-0.999755859375;-0.038848876953125;2.37999999399108;239;100 mA
70.9214378209406;-0.99945068359375;-0.0387420654296875;2.38999999396583;240;100 mA
70.9314378209153;-0.99945068359375;-0.0387176513671875;2.39999999394058;241;100 mA
70.9414378208901;-0.9991455078125;-0.0386749267578125;2.40999999391533;242;100 mA
70.9514378208648;-0.999755859375;-0.0386322021484375;2.41999999389009;243;100 mA
70.9614378208396;-0.9991455078125;-0.0387420654296875;2.42999999386484;244;100 mA
70.9714378208143;-0.99945068359375;-0.0386627197265625;2.43999999383959;245;100 mA
70.9814378207891;-0.99945068359375;-0.038702392578125;2.44999999381434;246;100 mA
70.9914378207638;-1.0003662109375;-0.038690185546875;2.4599999937891;247;100 mA
71.0014378207386;-0.999755859375;-0.0387237548828125;2.46999999376385;248;100 mA
71.0114378207134;-0.999755859375;-0.0386474609375;2.4799999937386;249;100 mA
71.0214378206881;-0.999755859375;-0.0386962890625;2.48999999371335;250;100 mA
71.0314378206629;-0.99945068359375;-0.038836669921875;2.49999999368811;251;100 mA
71.0414378206376;-1.0003662109375;-0.038739013671875;2.50999999366286;252;100 mA
71.0514378206124;-0.99945068359375;-0.0387786865234375;2.51999999363761;253;100 mA
71.0614378205871;-0.999755859375;-0.03865966796875;2.52999999361236;254;100 mA
71.0714378205619;-0.9991455078125;-0.0386688232421875;2.53999999358712;255;100 mA
71.0814378205366;-0.999755859375;-0.0386871337890625;2.54999999356187;256;100 mA
71.0914378205114;-0.999755859375;-0.0387115478515625;2.55999999353662;257;100 mA
71.1014378204861;-0.9991455078125;-0.0386932373046875;2.56999999351137;258;100 mA
71.1114378204609;-0.99945068359375;-0.038690185546875;2.57999999348613;259;100 mA
71.1214378204356;-0.999755859375;-0.0386993408203125;2.58999999346088;260;100 mA
71.1314378204104;-0.999755859375;-0.03863525390625;2.59999999343563;261;100 mA
71.1414378203851;-0.99945068359375;-0.0387939453125;2.60999999341038;262;100 mA
71.1514378203599;-0.999755859375;-0.038726806640625;2.61999999338514;263;100 mA
71.1614378203346;-0.9991455078125;-0.038787841796875;2.62999999335989;264;100 mA
71.1714378203094;-0.9991455078125;-0.03875732421875;2.63999999333464;265;100 mA
71.1814378202841;-0.99945068359375;-0.0387939453125;2.64999999330939;266;100 mA
71.1914378202589;-0.9991455078125;-0.038702392578125;2.65999999328415;267;100 mA
71.2014378202337;-0.99945068359375;-0.0386474609375;2.6699999932589;268;100 mA
71.2114378202084;-0.999755859375;-0.038702392578125;2.67999999323365;269;100 mA
71.2214378201832;-1.00006103515625;-0.038568115234375;2.6899999932084;270;100 mA
71.2314378201579;-0.9991455078125;-0.0385528564453125;2.69999999318316;271;100 mA
71.2414378201327;-0.999755859375;-0.038507080078125;2.70999999315791;272;100 mA
71.2514378201074;-0.9991455078125;-0.0385589599609375;2.71999999313266;273;100 mA
71.2614378200822;-0.999755859375;-0.0385589599609375;2.72999999310741;274;100 mA
71.2714378200569;-1.00006103515625;-0.0384735107421875;2.73999999308217;275;100 mA
71.2814378200317;-0.999755859375;-0.0385345458984375;2.74999999305692;276;100 mA
71.2914378200064;-0.99945068359375;-0.038525390625;2.75999999303167;277;100 mA
71.3014378199812;-0.9991455078125;-0.0385986328125;2.76999999300642;278;100 mA
71.3114378199559;-0.99945068359375;-0.0385101318359375;2.77999999298117;279;100 mA
71.3214378199307;-0.99945068359375;-0.0386016845703125;2.78999999295593;280;100 mA
71.3314378199054;-0.9991455078125;-0.0386077880859375;2.79999999293068;281;100 mA
71.3414378198802;-0.9991455078125;-0.03861083984375;2.80999999290543;282;100 mA
71.3514378198549;-0.99945068359375;-0.0386260986328125;2.81999999288018;283;100 mA
71.3614378198297;-0.9991455078125;-0.038623046875;2.82999999285494;284;100 mA
71.3714378198044;-0.999755859375;-0.038720703125;2.83999999282969;285;100 mA
71.3814378197792;-0.9991455078125;-0.0385986328125;2.84999999280444;286;100 mA
71.3914378197539;-0.999755859375;-0.038580322265625;2.85999999277919;287;100 mA
71.4014378197287;-0.9991455078125;-0.038519287109375;2.86999999275395;288;100 mA
71.4114378197035;-0.99945068359375;-0.0385162353515625;2.8799999927287;289;100 mA
71.4214378196782;-0.99945068359375;-0.0385345458984375;2.88999999270345;290;100 mA
71.431437819653;-0.99945068359375;-0.038470458984375;2.8999999926782;291;100 mA
71.4414378196277;-0.99945068359375;-0.0385894775390625;2.90999999265296;292;100 mA
71.4514378196025;-0.99945068359375;-0.038519287109375;2.91999999262771;293;100 mA
71.4614378195772;-0.9991455078125;-0.038555908203125;2.92999999260246;294;100 mA
71.471437819552;-0.99945068359375;-0.038525390625;2.93999999257721;295;100 mA
71.4814378195267;-0.9991455078125;-0.0385345458984375;2.94999999255197;296;100 mA
71.4914378195015;-0.999755859375;-0.038470458984375;2.95999999252672;297;100 mA
71.5014378194762;-0.99945068359375;-0.0384796142578125;2.96999999250147;298;100 mA
71.511437819451;-0.99945068359375;-0.0385528564453125;2.97999999247622;299;100 mA
71.5214378194257;-0.9991455078125;-0.0384796142578125;2.98999999245098;300;100 mA
71.5314378194005;-0.9991455078125;-0.0385009765625;2.99999999242573;301;100 mA
71.5414378193752;-0.999755859375;-0.0384552001953125;3.00999999240048;302;100 mA
71.55143781935;-0.9991455078125;-0.038543701171875;3.01999999237523;303;100 mA
71.5614378193247;-0.99945068359375;-0.0385833740234375;3.02999999234999;304;100 mA
71.5714378192995;-0.99945068359375;-0.0385284423828125;3.03999999232474;305;100 mA
71.5814378192742;-0.9991455078125;-0.03857421875;3.04999999229949;306;100 mA
71.591437819249;-0.9991455078125;-0.0385345458984375;3.05999999227424;307;100 mA
71.6014378192237;-0.99884033203125;-0.0385955810546875;3.069999992249;308;100 mA
71.6114378191985;-0.99945068359375;-0.0385223388671875;3.07999999222375;309;100 mA
71.6214378191733;-0.99884033203125;-0.038616943359375;3.0899999921985;310;100 mA
71.631437819148;-0.99945068359375;-0.0386077880859375;3.09999999217325;311;100 mA
71.6414378191228;-0.99945068359375;-0.03857421875;3.109999992148;312;100 mA
71.6514378190975;-0.99945068359375;-0.038568115234375;3.11999999212276;313;100 mA
71.6614378190723;-0.99945068359375;-0.0385101318359375;3.12999999209751;314;100 mA
71.671437819047;-0.99945068359375;-0.0385467529296875;3.13999999207226;315;100 mA
71.6814378190218;-0.999755859375;-0.0385498046875;3.14999999204701;316;100 mA
71.6914378189965;-0.99945068359375;-0.0386322021484375;3.15999999202177;317;100 mA
71.7014378189713;-0.999755859375;-0.0385833740234375;3.16999999199652;318;100 mA
71.711437818946;-0.9991455078125;-0.0385955810546875;3.17999999197127;319;100 mA
71.7214378189208;-0.999755859375;-0.0386138916015625;3.18999999194602;320;100 mA
71.7314378188955;-0.9991455078125;-0.0385955810546875;3.19999999192078;321;100 mA
71.7414378188703;-0.99945068359375;-0.0387451171875;3.20999999189553;322;100 mA
71.751437818845;-0.9991455078125;-0.0386932373046875;3.21999999187028;323;100 mA
71.7614378188198;-0.999755859375;-0.03878173828125;3.22999999184503;324;100 mA
71.7714378187945;-0.99945068359375;-0.0387603759765625;3.23999999181979;325;100 mA
71.7814378187693;-0.9991455078125;-0.0388153076171875;3.24999999179454;326;100 mA
71.791437818744;-0.9991455078125;-0.0387725830078125;3.25999999176929;327;100 mA
71.8014378187188;-0.99945068359375;-0.038824462890625;3.26999999174404;328;100 mA
71.8114378186935;-0.999755859375;-0.038909912109375;3.2799999917188;329;100 mA
71.8214378186683;-0.99945068359375;-0.0388671875;3.28999999169355;330;100 mA
71.8314378186431;-0.99945068359375;-0.0389068603515625;3.2999999916683;331;100 mA
71.8414378186178;-0.999755859375;-0.038885498046875;3.30999999164305;332;100 mA
71.8514378185926;-0.99945068359375;-0.0389190673828125;3.31999999161781;333;100 mA
71.8614378185673;-1.00006103515625;-0.0390411376953125;3.32999999159256;334;100 mA
71.8714378185421;-0.999755859375;-0.0390533447265625;3.33999999156731;335;100 mA
71.8814378185168;-1.00006103515625;-0.0391082763671875;3.34999999154206;336;100 mA
71.8914378184916;-0.9991455078125;-0.03912353515625;3.35999999151682;337;100 mA
71.9014378184663;-0.9991455078125;-0.039202880859375;3.36999999149157;338;100 mA
71.9114378184411;-0.999755859375;-0.0391448974609375;3.37999999146632;339;100 mA
71.9214378184158;-0.9991455078125;-0.0392852783203125;3.38999999144107;340;100 mA
71.9314378183906;-1.00006103515625;-0.0392547607421875;3.39999999141583;341;100 mA
71.9414378183653;-0.99884033203125;-0.039263916015625;3.40999999139058;342;100 mA
71.9514378183401;-0.9991455078125;-0.03922119140625;3.41999999136533;343;100 mA
71.9614378183148;-0.9991455078125;-0.0391632080078125;3.42999999134008;344;100 mA
71.9714378182896;-0.999755859375;-0.03912353515625;3.43999999131483;345;100 mA
71.9814378182643;-0.999755859375;-0.039068603515625;3.44999999128959;346;100 mA
71.9914378182391;-0.9991455078125;-0.0391204833984375;3.45999999126434;347;100 mA
72.0014378182138;-0.999755859375;-0.03900146484375;3.46999999123909;348;100 mA
72.0114378181886;-0.99945068359375;-0.0389678955078125;3.47999999121384;349;100 mA
72.0214378181633;-0.99945068359375;-0.038916015625;3.4899999911886;350;100 mA
72.0314378181381;-0.9991455078125;-0.0388214111328125;3.49999999116335;351;100 mA
72.0414378181129;-1.00006103515625;-0.03890380859375;3.5099999911381;352;100 mA
72.0514378180876;-0.99945068359375;-0.038787841796875;3.51999999111285;353;100 mA
72.0614378180624;-0.999755859375;-0.0388153076171875;3.52999999108761;354;100 mA
72.0714378180371;-0.99945068359375;-0.0387664794921875;3.53999999106236;355;100 mA
72.0814378180119;-0.99945068359375;-0.0387939453125;3.54999999103711;356;100 mA
72.0914378179866;-0.99884033203125;-0.0387115478515625;3.55999999101186;357;100 mA
72.1014378179614;-0.999755859375;-0.03876953125;3.56999999098662;358;100 mA
72.1114378179361;-0.999755859375;-0.0388336181640625;3.57999999096137;359;100 mA
72.1214378179109;-0.9991455078125;-0.03880615234375;3.58999999093612;360;100 mA
72.1314378178856;-0.99945068359375;-0.0388458251953125;3.59999999091087;361;100 mA
72.1414378178604;-0.9991455078125;-0.0388458251953125;3.60999999088563;362;100 mA
72.1514378178351;-0.9991455078125;-0.0389190673828125;3.61999999086038;363;100 mA
72.1614378178099;-0.99884033203125;-0.0389862060546875;3.62999999083513;364;100 mA
72.1714378177846;-0.999755859375;-0.0390472412109375;3.63999999080988;365;100 mA
72.1814378177594;-0.99945068359375;-0.0390838623046875;3.64999999078464;366;100 mA
72.1914378177341;-0.9991455078125;-0.03916015625;3.65999999075939;367;100 mA
72.2014378177089;-0.99945068359375;-0.039251708984375;3.66999999073414;368;100 mA
72.2114378176836;-0.99945068359375;-0.0392181396484375;3.67999999070889;369;100 mA
72.2214378176584;-0.99945068359375;-0.03935546875;3.68999999068365;370;100 mA
72.2314378176332;-0.999755859375;-0.039300537109375;3.6999999906584;371;100 mA
72.2414378176079;-0.999755859375;-0.0393310546875;3.70999999063315;372;100 mA
72.2514378175827;-0.99945068359375;-0.03927001953125;3.7199999906079;373;100 mA
72.2614378175574;-0.99945068359375;-0.0392364501953125;3.72999999058266;374;100 mA
72.2714378175322;-0.99884033203125;-0.039239501953125;3.73999999055741;375;100 mA
72.2814378175069;-0.999755859375;-0.039190673828125;3.74999999053216;376;100 mA
72.2914378174817;-0.9991455078125;-0.0392578125;3.75999999050691;377;100 mA
72.3014378174564;-0.999755859375;-0.039154052734375;3.76999999048167;378;100 mA
72.3114378174312;-0.99945068359375;-0.0391754150390625;3.77999999045642;379;100 mA
72.3214378174059;-0.9991455078125;-0.0391815185546875;3.78999999043117;380;100 mA
72.3314378173807;-0.9991455078125;-0.0391632080078125;3.79999999040592;381;100 mA
72.3414378173554;-0.99945068359375;-0.0393157958984375;3.80999999038067;382;100 mA
72.3514378173302;-0.99945068359375;-0.039276123046875;3.81999999035543;383;100 mA
72.3614378173049;-0.9991455078125;-0.0393646240234375;3.82999999033018;384;100 mA
72.3714378172797;-0.99945068359375;-0.039373779296875;3.83999999030493;385;100 mA
72.3814378172544;-0.9991455078125;-0.039453125;3.84999999027968;386;100 mA
72.3914378172292;-0.99945068359375;-0.039617919921875;3.85999999025444;387;100 mA
72.4014378172039;-0.99945068359375;-0.0395721435546875;3.86999999022919;388;100 mA
72.4114378171787;-0.99945068359375;-0.0396484375;3.87999999020394;389;100 mA
72.4214378171534;-0.9991455078125;-0.0396209716796875;3.88999999017869;390;100 mA
72.4314378171282;-0.999755859375;-0.03963623046875;3.89999999015345;391;100 mA
72.441437817103;-0.9991455078125;-0.0395538330078125;3.9099999901282;392;100 mA
72.4514378170777;-0.9991455078125;-0.0395843505859375;3.91999999010295;393;100 mA
72.4614378170525;-0.9991455078125;-0.039605712890625;3.9299999900777;394;100 mA
72.4714378170272;-0.999755859375;-0.039630126953125;3.93999999005246;395;100 mA
72.481437817002;-0.9991455078125;-0.039599609375;3.94999999002721;396;100 mA
72.4914378169767;-0.9991455078125;-0.0396728515625;3.95999999000196;397;100 mA
72.5014378169515;-0.9991455078125;-0.0396240234375;3.96999998997671;398;100 mA
72.5114378169262;-0.99945068359375;-0.0395050048828125;3.97999998995147;399;100 mA
72.521437816901;-0.999755859375;-0.03961181640625;3.98999998992622;400;100 mA
72.5314378168757;-0.99945068359375;-0.0394317626953125;3.99999998990097;401;100 mA
72.5414378168505;-0.9991455078125;-0.039410400390625;4.00999998987572;402;100 mA
72.5514378168252;-0.9991455078125;-0.0392974853515625;4.01999998985048;403;100 mA
72.5614378168;-0.99945068359375;-0.0392242431640625;4.02999998982523;404;100 mA
72.5714378167747;-0.999755859375;-0.039117431640625;4.03999998979998;405;100 mA
72.5814378167495;-0.999755859375;-0.039013671875;4.04999998977473;406;100 mA
72.5914378167242;-0.99945068359375;-0.039044189453125;4.05999998974949;407;100 mA
72.601437816699;-0.999755859375;-0.038897705078125;4.06999998972424;408;100 mA
72.6114378166737;-0.999755859375;-0.0388519287109375;4.07999998969899;409;100 mA
72.6214378166485;-1.00006103515625;-0.038787841796875;4.08999998967374;410;100 mA
72.6314378166232;-0.9991455078125;-0.038720703125;4.0999999896485;411;100 mA
72.641437816598;-0.99945068359375;-0.0387664794921875;4.10999998962325;412;100 mA
72.6514378165728;-0.9991455078125;-0.038671875;4.119999989598;413;100 mA
72.6614378165475;-0.999755859375;-0.0386871337890625;4.12999998957275;414;100 mA
72.6714378165223;-0.999755859375;-0.038641357421875;4.1399999895475;415;100 mA
72.681437816497;-0.99945068359375;-0.0387115478515625;4.14999998952226;416;100 mA
72.6914378164718;-0.99945068359375;-0.0387451171875;4.15999998949701;417;100 mA
72.7014378164465;-0.99945068359375;-0.0387725830078125;4.16999998947176;418;100 mA
72.7114378164213;-0.9991455078125;-0.0387542724609375;4.17999998944651;419;100 mA
72.721437816396;-0.9991455078125;-0.0387237548828125;4.18999998942127;420;100 mA
72.7314378163708;-0.99945068359375;-0.0387359619140625;4.19999998939602;421;100 mA
72.7414378163455;-0.9991455078125;-0.03875732421875;4.20999998937077;422;100 mA
72.7514378163203;-0.9991455078125;-0.038885498046875;4.21999998934552;423;100 mA
72.761437816295;-0.99945068359375;-0.0388519287109375;4.22999998932028;424;100 mA
72.7714378162698;-0.99945068359375;-0.03878173828125;4.23999998929503;425;100 mA
72.7814378162445;-0.99945068359375;-0.0387298583984375;4.24999998926978;426;100 mA
72.7914378162193;-0.99945068359375;-0.0386566162109375;4.25999998924453;427;100 mA
72.801437816194;-0.99945068359375;-0.038677978515625;4.26999998921929;428;100 mA
72.8114378161688;-0.99945068359375;-0.03858642578125;4.27999998919404;429;100 mA
72.8214378161435;-0.999755859375;-0.0386688232421875;4.28999998916879;430;100 mA
72.8314378161183;-0.999755859375;-0.03853759765625;4.29999998914354;431;100 mA
72.841437816093;-0.99945068359375;-0.0385528564453125;4.3099999891183;432;100 mA
72.8514378160678;-0.99945068359375;-0.0384918212890625;4.31999998909305;433;100 mA
72.8614378160426;-0.9991455078125;-0.038446044921875;4.3299999890678;434;100 mA
72.8714378160173;-0.99945068359375;-0.0384002685546875;4.33999998904255;435;100 mA
72.8814378159921;-0.999755859375;-0.03837890625;4.34999998901731;436;100 mA
72.8914378159668;-0.9991455078125;-0.038446044921875;4.35999998899206;437;100 mA
72.9014378159416;-0.9991455078125;-0.038372802734375;4.36999998896681;438;100 mA
72.9114378159163;-0.999755859375;-0.03837890625;4.37999998894156;439;100 mA
72.9214378158911;-0.999755859375;-0.0383453369140625;4.38999998891632;440;100 mA
72.9314378158658;-1.00006103515625;-0.0383148193359375;4.39999998889107;441;100 mA
72.9414378158406;-0.9991455078125;-0.038433837890625;4.40999998886582;442;100 mA
72.9514378158153;-1.0003662109375;-0.0383880615234375;4.41999998884057;443;100 mA
72.9614378157901;-0.9991455078125;-0.038385009765625;4.42999998881533;444;100 mA
72.9714378157648;-0.99945068359375;-0.038348388671875;4.43999998879008;445;100 mA
72.9814378157396;-0.99884033203125;-0.0384002685546875;4.44999998876483;446;100 mA
72.9914378157143;-0.99945068359375;-0.0382598876953125;4.45999998873958;447;100 mA
73.0014378156891;-0.9991455078125;-0.038385009765625;4.46999998871433;448;100 mA
73.0114378156638;-0.99884033203125;-0.03837890625;4.47999998868909;449;100 mA
73.0214378156386;-0.99945068359375;-0.0384002685546875;4.48999998866384;450;100 mA
73.0314378156133;-0.9991455078125;-0.038360595703125;4.49999998863859;451;100 mA
73.0414378155881;-0.999755859375;-0.0383331298828125;4.50999998861334;452;100 mA
73.0514378155628;-0.9991455078125;-0.03837890625;4.5199999885881;453;100 mA
73.0614378155376;-0.999755859375;-0.0383697509765625;4.52999998856285;454;100 mA
73.0714378155124;-0.999755859375;-0.0384552001953125;4.5399999885376;455;100 mA
73.0814378154871;-0.999755859375;-0.0384490966796875;4.54999998851235;456;100 mA
73.0914378154619;-0.99945068359375;-0.038458251953125;4.55999998848711;457;100 mA
73.1014378154366;-0.999755859375;-0.0384918212890625;4.56999998846186;458;100 mA
73.1114378154114;-0.99945068359375;-0.0384246826171875;4.57999998843661;459;100 mA
73.1214378153861;-0.9991455078125;-0.038555908203125;4.58999998841136;460;100 mA
73.1314378153609;-0.99945068359375;-0.0384735107421875;4.59999998838612;461;100 mA
73.1414378153356;-0.99945068359375;-0.0385345458984375;4.60999998836087;462;100 mA
73.1514378153104;-0.99945068359375;-0.03848876953125;4.61999998833562;463;100 mA
73.1614378152851;-0.9991455078125;-0.038494873046875;4.62999998831037;464;100 mA
73.1714378152599;-0.99945068359375;-0.0384124755859375;4.63999998828513;465;100 mA
73.1814378152346;-0.9991455078125;-0.038446044921875;4.64999998825988;466;100 mA
73.1914378152094;-0.999755859375;-0.038555908203125;4.65999998823463;467;100 mA
73.2014378151841;-0.99945068359375;-0.0385162353515625;4.66999998820938;468;100 mA
73.2114378151589;-0.9991455078125;-0.038543701171875;4.67999998818414;469;100 mA
73.2214378151336;-0.9991455078125;-0.038531494140625;4.68999998815889;470;100 mA
73.2314378151084;-0.999755859375;-0.0385589599609375;4.69999998813364;471;100 mA
73.2414378150831;-0.9991455078125;-0.0386749267578125;4.70999998810839;472;100 mA
73.2514378150579;-0.99945068359375;-0.0386962890625;4.71999998808315;473;100 mA
73.2614378150327;-0.9991455078125;-0.0387664794921875;4.7299999880579;474;100 mA
73.2714378150074;-0.9991455078125;-0.0388214111328125;4.73999998803265;475;100 mA
73.2814378149822;-0.999755859375;-0.0389404296875;4.7499999880074;476;100 mA
73.2914378149569;-0.9991455078125;-0.03897705078125;4.75999998798216;477;100 mA
73.3014378149317;-0.99945068359375;-0.03912353515625;4.76999998795691;478;100 mA
73.3114378149064;-0.99945068359375;-0.0391632080078125;4.77999998793166;479;100 mA
73.3214378148812;-0.99945068359375;-0.0392669677734375;4.78999998790641;480;100 mA
73.3314378148559;-0.99945068359375;-0.03935546875;4.79999998788116;481;100 mA
73.3414378148307;-0.99945068359375;-0.03936767578125;4.80999998785592;482;100 mA
73.3514378148054;-0.99945068359375;-0.039447021484375;4.81999998783067;483;100 mA
73.3614378147802;-0.99945068359375;-0.0394439697265625;4.82999998780542;484;100 mA
73.3714378147549;-0.99945068359375;-0.03958740234375;4.83999998778017;485;100 mA
73.3814378147297;-0.99945068359375;-0.0395477294921875;4.84999998775493;486;100 mA
73.3914378147044;-0.99945068359375;-0.039593505859375;4.85999998772968;487;100 mA
73.4014378146792;-0.99945068359375;-0.0396484375;4.86999998770443;488;100 mA
73.4114378146539;-0.9991455078125;-0.0396026611328125;4.87999998767918;489;100 mA
73.4214378146287;-0.99945068359375;-0.0397735595703125;4.88999998765394;490;100 mA
73.4314378146034;-0.99945068359375;-0.0397125244140625;4.89999998762869;491;100 mA
73.4414378145782;-0.9991455078125;-0.0398193359375;4.90999998760344;492;100 mA
73.4514378145529;-0.99945068359375;-0.039794921875;4.91999998757819;493;100 mA
73.4614378145277;-0.999755859375;-0.03984375;4.92999998755295;494;100 mA
73.4714378145025;-0.99945068359375;-0.03978271484375;4.9399999875277;495;100 mA
73.4814378144772;-0.99945068359375;-0.039825439453125;4.94999998750245;496;100 mA
73.491437814452;-0.9991455078125;-0.0399017333984375;4.9599999874772;497;100 mA
73.5014378144267;-0.999755859375;-0.0398406982421875;4.96999998745196;498;100 mA
73.5114378144015;-0.9991455078125;-0.039825439453125;4.97999998742671;499;100 mA
73.5214378143762;-0.99945068359375;-0.039776611328125;4.98999998740146;500;100 mA
73.531437814351;-0.99945068359375;-0.039776611328125;4.99999998737621;501;100 mA
73.5414378143257;-0.999755859375;-0.0398193359375;5.00999998735097;502;100 mA
73.5514378143005;-0.9991455078125;-0.0397979736328125;5.01999998732572;503;100 mA
73.5614378142752;-0.999755859375;-0.039788818359375;5.02999998730047;504;100 mA
73.57143781425;-0.9991455078125;-0.0397705078125;5.03999998727522;505;100 mA
73.5814378142247;-0.999755859375;-0.0398101806640625;5.04999998724998;506;100 mA
73.5914378141995;-0.999755859375;-0.039678955078125;5.05999998722473;507;100 mA
73.6014378141742;-0.9991455078125;-0.039764404296875;5.06999998719948;508;100 mA
73.611437814149;-0.9991455078125;-0.039697265625;5.07999998717423;509;100 mA
73.6214378141237;-0.99945068359375;-0.0396759033203125;5.08999998714899;510;100 mA
73.6314378140985;-0.999755859375;-0.039605712890625;5.09999998712374;511;100 mA
73.6414378140732;-0.99945068359375;-0.0395416259765625;5.10999998709849;512;100 mA
73.651437814048;-0.99945068359375;-0.0394989013671875;5.11999998707324;513;100 mA
73.6614378140227;-0.999755859375;-0.039422607421875;5.129999987048;514;100 mA
73.6714378139975;-0.99945068359375;-0.039508056640625;5.13999998702275;515;100 mA
73.6814378139723;-0.99945068359375;-0.03939208984375;5.1499999869975;516;100 mA
73.691437813947;-0.99945068359375;-0.0393890380859375;5.15999998697225;517;100 mA
73.7014378139218;-0.99945068359375;-0.039398193359375;5.169999986947;518;100 mA
73.7114378138965;-0.9991455078125;-0.0393310546875;5.17999998692176;519;100 mA
73.7214378138713;-0.99945068359375;-0.039471435546875;5.18999998689651;520;100 mA
73.731437813846;-0.99945068359375;-0.0393707275390625;5.19999998687126;521;100 mA
73.7414378138208;-0.99945068359375;-0.039447021484375;5.20999998684601;522;100 mA
73.7514378137955;-0.9991455078125;-0.03941650390625;5.21999998682077;523;100 mA
73.7614378137703;-0.999755859375;-0.039471435546875;5.22999998679552;524;100 mA
73.771437813745;-0.99945068359375;-0.0394073486328125;5.23999998677027;525;100 mA
73.7814378137198;-0.99884033203125;-0.0394622802734375;5.24999998674502;526;100 mA
73.7914378136945;-0.9991455078125;-0.039532470703125;5.25999998671978;527;100 mA
73.8014378136693;-0.9991455078125;-0.039495849609375;5.26999998669453;528;100 mA
73.811437813644;-1.00006103515625;-0.039501953125;5.27999998666928;529;100 mA
73.8214378136188;-0.99945068359375;-0.0394927978515625;5.28999998664403;530;100 mA
73.8314378135935;-0.999755859375;-0.0395233154296875;5.29999998661879;531;100 mA
73.8414378135683;-0.99945068359375;-0.03956298828125;5.30999998659354;532;100 mA
73.851437813543;-0.9991455078125;-0.03961181640625;5.31999998656829;533;100 mA
73.8614378135178;-0.9991455078125;-0.0396148681640625;5.32999998654304;534;100 mA
73.8714378134925;-0.9991455078125;-0.03963623046875;5.3399999865178;535;100 mA
73.8814378134673;-0.99945068359375;-0.0397064208984375;5.34999998649255;536;100 mA
73.8914378134421;-0.9991455078125;-0.03961181640625;5.3599999864673;537;100 mA
73.9014378134168;-0.999755859375;-0.0397857666015625;5.36999998644205;538;100 mA
73.9114378133916;-0.9991455078125;-0.03970947265625;5.37999998641681;539;100 mA
73.9214378133663;-0.99945068359375;-0.0397216796875;5.38999998639156;540;100 mA
73.9314378133411;-0.99884033203125;-0.0396331787109375;5.39999998636631;541;100 mA
73.9414378133158;-0.99945068359375;-0.039593505859375;5.40999998634106;542;100 mA
73.9514378132906;-0.99945068359375;-0.039544677734375;5.41999998631582;543;100 mA
73.9614378132653;-0.99945068359375;-0.03946533203125;5.42999998629057;544;100 mA
73.9714378132401;-0.99945068359375;-0.0395233154296875;5.43999998626532;545;100 mA
73.9814378132148;-0.9991455078125;-0.03939208984375;5.44999998624007;546;100 mA
73.9914378131896;-0.99945068359375;-0.0393768310546875;5.45999998621483;547;100 mA
74.0014378131643;-0.99945068359375;-0.03934326171875;5.46999998618958;548;100 mA
74.0114378131391;-0.9991455078125;-0.039263916015625;5.47999998616433;549;100 mA
74.0214378131138;-0.99945068359375;-0.0393768310546875;5.48999998613908;550;100 mA
74.0314378130886;-0.9991455078125;-0.039300537109375;5.49999998611383;551;100 mA
74.0414378130633;-0.9991455078125;-0.0393585205078125;5.50999998608859;552;100 mA
74.0514378130381;-0.999755859375;-0.0393524169921875;5.51999998606334;553;100 mA
74.0614378130128;-0.9991455078125;-0.0393951416015625;5.52999998603809;554;100 mA
74.0714378129876;-0.99945068359375;-0.03931884765625;5.53999998601284;555;100 mA
74.0814378129623;-0.9991455078125;-0.039422607421875;5.5499999859876;556;100 mA
74.0914378129371;-0.9991455078125;-0.0394622802734375;5.55999998596235;557;100 mA
74.1014378129119;-0.9991455078125;-0.0395538330078125;5.5699999859371;558;100 mA
74.1114378128866;-0.99945068359375;-0.0395233154296875;5.57999998591185;559;100 mA
74.1214378128614;-0.99945068359375;-0.0395233154296875;5.58999998588661;560;100 mA
74.1314378128361;-0.999755859375;-0.039593505859375;5.59999998586136;561;100 mA
74.1414378128109;-0.999755859375;-0.0396392822265625;5.60999998583611;562;100 mA
74.1514378127856;-0.999755859375;-0.03973388671875;5.61999998581086;563;100 mA
74.1614378127604;-0.99945068359375;-0.0397125244140625;5.62999998578562;564;100 mA
74.1714378127351;-0.99945068359375;-0.03973388671875;5.63999998576037;565;100 mA
74.1814378127099;-0.9991455078125;-0.0397979736328125;5.64999998573512;566;100 mA
74.1914378126846;-0.99945068359375;-0.0397369384765625;5.65999998570987;567;100 mA
74.2014378126594;-0.99945068359375;-0.0399078369140625;5.66999998568463;568;100 mA
74.2114378126341;-0.99945068359375;-0.0397979736328125;5.67999998565938;569;100 mA
74.2214378126089;-0.99945068359375;-0.039837646484375;5.68999998563413;570;100 mA
74.2314378125836;-0.999755859375;-0.039739990234375;5.69999998560888;571;100 mA
74.2414378125584;-0.9991455078125;-0.0397125244140625;5.70999998558364;572;100 mA
74.2514378125331;-0.99884033203125;-0.0397491455078125;5.71999998555839;573;100 mA
74.2614378125079;-0.9991455078125;-0.03963623046875;5.72999998553314;574;100 mA
74.2714378124826;-0.999755859375;-0.039654541015625;5.73999998550789;575;100 mA
74.2814378124574;-0.99945068359375;-0.03946533203125;5.74999998548265;576;100 mA
74.2914378124322;-0.99945068359375;-0.039434814453125;5.7599999854574;577;100 mA
74.3014378124069;-0.99945068359375;-0.0393768310546875;5.76999998543215;578;100 mA
74.3114378123817;-0.99945068359375;-0.039306640625;5.7799999854069;579;100 mA
74.3214378123564;-0.99884033203125;-0.03941650390625;5.78999998538166;580;100 mA
74.3314378123312;-0.99945068359375;-0.039373779296875;5.79999998535641;581;100 mA
74.3414378123059;-0.99884033203125;-0.0393890380859375;5.80999998533116;582;100 mA
74.3514378122807;-0.99945068359375;-0.03936767578125;5.81999998530591;583;100 mA
74.3614378122554;-0.9991455078125;-0.039434814453125;5.82999998528066;584;100 mA
74.3714378122302;-0.99945068359375;-0.0393341064453125;5.83999998525542;585;100 mA
74.3814378122049;-0.999755859375;-0.039434814453125;5.84999998523017;586;100 mA
74.3914378121797;-0.999755859375;-0.0394134521484375;5.85999998520492;587;100 mA
74.4014378121544;-0.99945068359375;-0.039404296875;5.86999998517967;588;100 mA
74.4114378121292;-0.99884033203125;-0.03934326171875;5.87999998515443;589;100 mA
74.4214378121039;-0.9991455078125;-0.039312744140625;5.88999998512918;590;100 mA
74.4314378120787;-0.99945068359375;-0.0393463134765625;5.89999998510393;591;100 mA
74.4414378120534;-0.999755859375;-0.039215087890625;5.90999998507868;592;100 mA
74.4514378120282;-0.999755859375;-0.039239501953125;5.91999998505344;593;100 mA
74.4614378120029;-0.99945068359375;-0.0391387939453125;5.92999998502819;594;100 mA
74.4714378119777;-0.999755859375;-0.039129638671875;5.93999998500294;595;100 mA
74.4814378119524;-0.9991455078125;-0.03917236328125;5.94999998497769;596;100 mA
74.4914378119272;-0.9991455078125;-0.039117431640625;5.95999998495245;597;100 mA
74.501437811902;-0.99945068359375;-0.039324951171875;5.9699999849272;598;100 mA
74.5114378118767;-0.9991455078125;-0.039190673828125;5.97999998490195;599;100 mA
74.5214378118515;-0.9991455078125;-0.0392913818359375;5.9899999848767;600;100 mA
74.5314378118262;-0.999755859375;-0.039263916015625;5.99999998485146;601;100 mA
74.541437811801;-0.99884033203125;-0.039306640625;6.00999998482621;602;100 mA
74.5514378117757;-0.9991455078125;-0.0392425537109375;6.01999998480096;603;100 mA
74.5614378117505;-0.999755859375;-0.0392486572265625;6.02999998477571;604;100 mA
74.5714378117252;-0.999755859375;-0.03934326171875;6.03999998475047;605;100 mA
74.5814378117;-0.9991455078125;-0.03924560546875;6.04999998472522;606;100 mA
74.5914378116747;-0.99945068359375;-0.0392486572265625;6.05999998469997;607;100 mA
74.6014378116495;-0.9991455078125;-0.03919677734375;6.06999998467472;608;100 mA
74.6114378116242;-0.999755859375;-0.0391632080078125;6.07999998464948;609;100 mA
74.621437811599;-0.99945068359375;-0.039239501953125;6.08999998462423;610;100 mA
74.6314378115737;-0.99945068359375;-0.039178466796875;6.09999998459898;611;100 mA
74.6414378115485;-0.9991455078125;-0.0391571044921875;6.10999998457373;612;100 mA
74.6514378115232;-0.999755859375;-0.0391082763671875;6.11999998454849;613;100 mA
74.661437811498;-0.999755859375;-0.0391082763671875;6.12999998452324;614;100 mA
74.6714378114727;-0.99945068359375;-0.038934326171875;6.13999998449799;615;100 mA
74.6814378114475;-0.99945068359375;-0.038970947265625;6.14999998447274;616;100 mA
74.6914378114222;-0.999755859375;-0.038848876953125;6.1599999844475;617;100 mA
74.701437811397;-0.99945068359375;-0.038775634765625;6.16999998442225;618;100 mA
74.7114378113718;-0.9991455078125;-0.038665771484375;6.179999984397;619;100 mA
74.7214378113465;-0.99884033203125;-0.038580322265625;6.18999998437175;620;100 mA
74.7314378113213;-1.00006103515625;-0.0385345458984375;6.1999999843465;621;100 mA
74.741437811296;-0.99945068359375;-0.0384735107421875;6.20999998432126;622;100 mA
74.7514378112708;-0.99945068359375;-0.038531494140625;6.21999998429601;623;100 mA
74.7614378112455;-0.999755859375;-0.0384246826171875;6.22999998427076;624;100 mA
74.7714378112203;-0.99945068359375;-0.0384002685546875;6.23999998424551;625;100 mA
74.781437811195;-0.99884033203125;-0.038592529296875;6.24999998422027;626;100 mA
74.7914378111698;-0.99945068359375;-0.03841552734375;6.25999998419502;627;100 mA
74.8014378111445;-0.9991455078125;-0.0384796142578125;6.26999998416977;628;100 mA
74.8114378111193;-0.999755859375;-0.0383331298828125;6.27999998414452;629;100 mA
74.821437811094;-0.99945068359375;-0.038507080078125;6.28999998411928;630;100 mA
74.8314378110688;-0.99945068359375;-0.038525390625;6.29999998409403;631;100 mA
74.8414378110435;-0.9991455078125;-0.038543701171875;6.30999998406878;632;100 mA
74.8514378110183;-0.9991455078125;-0.03846435546875;6.31999998404353;633;100 mA
74.861437810993;-0.9991455078125;-0.0384490966796875;6.32999998401829;634;100 mA
74.8714378109678;-0.999755859375;-0.038531494140625;6.33999998399304;635;100 mA
74.8814378109425;-0.999755859375;-0.0384674072265625;6.34999998396779;636;100 mA
74.8914378109173;-0.999755859375;-0.0384979248046875;6.35999998394254;637;100 mA
74.901437810892;-0.9991455078125;-0.0384521484375;6.3699999839173;638;100 mA
74.9114378108668;-0.9991455078125;-0.0384735107421875;6.37999998389205;639;100 mA
74.9214378108416;-0.999755859375;-0.0385406494140625;6.3899999838668;640;100 mA
74.9314378108163;-0.9991455078125;-0.038592529296875;6.39999998384155;641;100 mA
74.9414378107911;-0.99945068359375;-0.038592529296875;6.40999998381631;642;100 mA
74.9514378107658;-0.99884033203125;-0.038580322265625;6.41999998379106;643;100 mA
74.9614378107406;-0.999755859375;-0.0386077880859375;6.42999998376581;644;100 mA
74.9714378107153;-0.99945068359375;-0.038458251953125;6.43999998374056;645;100 mA
74.9814378106901;-0.99945068359375;-0.03857421875;6.44999998371532;646;100 mA
74.9914378106648;-0.999755859375;-0.0384765625;6.45999998369007;647;100 mA
75.0014378106396;-0.999755859375;-0.0384796142578125;6.46999998366482;648;100 mA
75.0114378106143;-0.9991455078125;-0.03836669921875;6.47999998363957;649;100 mA
75.0214378105891;-0.9991455078125;-0.03828125;6.48999998361433;650;100 mA
75.0314378105638;-0.99945068359375;-0.038189697265625;6.49999998358908;651;100 mA
75.0414378105386;-0.999755859375;-0.0380950927734375;6.50999998356383;652;100 mA
75.0514378105133;-0.9991455078125;-0.038177490234375;6.51999998353858;653;100 mA
75.0614378104881;-0.99945068359375;-0.0380462646484375;6.52999998351333;654;100 mA
75.0714378104628;-0.999755859375;-0.038055419921875;6.53999998348809;655;100 mA
75.0814378104376;-0.99945068359375;-0.0380462646484375;6.54999998346284;656;100 mA
75.0914378104123;-0.999755859375;-0.0379638671875;6.55999998343759;657;100 mA
75.1014378103871;-0.99884033203125;-0.0381317138671875;6.56999998341234;658;100 mA
75.1114378103618;-0.9991455078125;-0.03802490234375;6.5799999833871;659;100 mA
75.1214378103366;-0.99945068359375;-0.038116455078125;6.58999998336185;660;100 mA
75.1314378103114;-0.99945068359375;-0.03809814453125;6.5999999833366;661;100 mA
75.1414378102861;-0.99945068359375;-0.0382293701171875;6.60999998331135;662;100 mA
75.1514378102609;-0.9991455078125;-0.0382232666015625;6.61999998328611;663;100 mA
75.1614378102356;-0.99945068359375;-0.038214111328125;6.62999998326086;664;100 mA
75.1714378102104;-0.99945068359375;-0.0382720947265625;6.63999998323561;665;100 mA
75.1814378101851;-0.99945068359375;-0.038262939453125;6.64999998321036;666;100 mA
75.1914378101599;-0.9991455078125;-0.0383056640625;6.65999998318512;667;100 mA
75.2014378101346;-0.99945068359375;-0.038336181640625;6.66999998315987;668;100 mA
75.2114378101094;-0.99945068359375;-0.0383941650390625;6.67999998313462;669;100 mA
75.2214378100841;-0.9991455078125;-0.0384307861328125;6.68999998310937;670;100 mA
75.2314378100589;-0.99945068359375;-0.0384765625;6.69999998308413;671;100 mA
75.2414378100336;-0.99945068359375;-0.0384857177734375;6.70999998305888;672;100 mA
75.2514378100084;-0.999755859375;-0.0385162353515625;6.71999998303363;673;100 mA
75.2614378099831;-0.99945068359375;-0.0385711669921875;6.72999998300838;674;100 mA
75.2714378099579;-0.99945068359375;-0.03856201171875;6.73999998298314;675;100 mA
75.2814378099326;-0.999755859375;-0.038671875;6.74999998295789;676;100 mA
75.2914378099074;-0.99945068359375;-0.0385833740234375;6.75999998293264;677;100 mA
75.3014378098821;-0.9991455078125;-0.0386444091796875;6.76999998290739;678;100 mA
75.3114378098569;-0.9991455078125;-0.0385406494140625;6.77999998288215;679;100 mA
75.3214378098317;-0.9991455078125;-0.038507080078125;6.7899999828569;680;100 mA
75.3314378098064;-0.9991455078125;-0.038397216796875;6.79999998283165;681;100 mA
75.3414378097812;-0.9991455078125;-0.0382965087890625;6.8099999828064;682;100 mA
75.3514378097559;-0.99945068359375;-0.0383544921875;6.81999998278116;683;100 mA
75.3614378097307;-0.99945068359375;-0.03818359375;6.82999998275591;684;100 mA
75.3714378097054;-0.999755859375;-0.0381744384765625;6.83999998273066;685;100 mA
75.3814378096802;-0.9991455078125;-0.0381317138671875;6.84999998270541;686;100 mA
75.3914378096549;-0.99945068359375;-0.0380859375;6.85999998268016;687;100 mA
75.4014378096297;-0.99945068359375;-0.03818359375;6.86999998265492;688;100 mA
75.4114378096044;-0.999755859375;-0.0380706787109375;6.87999998262967;689;100 mA
75.4214378095792;-0.99945068359375;-0.0381500244140625;6.88999998260442;690;100 mA
75.4314378095539;-1.00006103515625;-0.0381622314453125;6.89999998257917;691;100 mA
75.4414378095287;-0.99945068359375;-0.038275146484375;6.90999998255393;692;100 mA
75.4514378095034;-0.99945068359375;-0.0382415771484375;6.91999998252868;693;100 mA
75.4614378094782;-0.99884033203125;-0.0383697509765625;6.92999998250343;694;100 mA
75.4714378094529;-0.99945068359375;-0.0384063720703125;6.93999998247818;695;100 mA
75.4814378094277;-0.999755859375;-0.0384521484375;6.94999998245294;696;100 mA
75.4914378094024;-0.9991455078125;-0.0384796142578125;6.95999998242769;697;100 mA
75.5014378093772;-0.99945068359375;-0.0385009765625;6.96999998240244;698;100 mA
75.5114378093519;-0.99945068359375;-0.0385833740234375;6.97999998237719;699;100 mA
75.5214378093267;-0.99945068359375;-0.0386199951171875;6.98999998235195;700;100 mA
