Time (s);WE(1).Potential (V);WE(1).Current (A);Corrected time (s);Index;Current range
0.764222998070522;-0.3997802734375;-0.0308319091796875;0;1;1 A
0.774222998045275;-0.39990234375;-0.0264312744140625;0.00999999997475243;2;1 A
0.784222998020027;-0.39971923828125;-0.02310791015625;0.0199999999495049;3;1 A
0.79422299799478;-0.39971923828125;-0.021331787109375;0.0299999999242573;4;1 A
0.804222997969532;-0.39971923828125;-0.01982421875;0.0399999998990097;5;1 A
0.814222997944285;-0.399658203125;-0.0186859130859375;0.0499999998737621;6;1 A
0.824222997919037;-0.399688720703125;-0.0180206298828125;0.0599999998485146;7;1 A
0.834222997893789;-0.399749755859375;-0.017254638671875;0.069999999823267;8;1 A
0.844222997868542;-0.3997802734375;-0.0170196533203125;0.0799999997980194;9;1 A
0.854222997843294;-0.399749755859375;-0.016595458984375;0.0899999997727718;10;1 A
0.864222997818047;-0.399749755859375;-0.0164398193359375;0.0999999997475243;11;1 A
0.874222997792799;-0.3997802734375;-0.0161895751953125;0.109999999722277;12;1 A
0.884222997767552;-0.39959716796875;-0.0158355712890625;0.119999999697029;13;1 A
0.894222997742304;-0.39971923828125;-0.0156219482421875;0.129999999671782;14;1 A
0.904222997717056;-0.399749755859375;-0.015289306640625;0.139999999646534;15;1 A
0.914222997691809;-0.3997802734375;-0.015283203125;0.149999999621286;16;1 A
0.924222997666561;-0.399749755859375;-0.0151336669921875;0.159999999596039;17;1 A
0.934222997641314;-0.399688720703125;-0.015032958984375;0.169999999570791;18;1 A
0.944222997616066;-0.399749755859375;-0.0149261474609375;0.179999999545544;19;1 A
0.954222997590819;-0.399749755859375;-0.014801025390625;0.189999999520296;20;1 A
0.964222997565571;-0.399749755859375;-0.015057373046875;0.199999999495049;21;1 A
0.974222997540323;-0.3997802734375;-0.01480712890625;0.209999999469801;22;1 A
0.984222997515076;-0.39971923828125;-0.0148651123046875;0.219999999444553;23;1 A
0.994222997489828;-0.399749755859375;-0.01483154296875;0.229999999419306;24;1 A
1.00422299746458;-0.399810791015625;-0.014813232421875;0.239999999394058;25;1 A
1.01422299743933;-0.399871826171875;-0.0149383544921875;0.249999999368811;26;1 A
1.02422299741409;-0.39984130859375;-0.0147674560546875;0.259999999343563;27;1 A
1.03422299738884;-0.399688720703125;-0.0149169921875;0.269999999318316;28;1 A
1.04422299736359;-0.399688720703125;-0.0147918701171875;0.279999999293068;29;1 A
1.05422299733834;-0.399688720703125;-0.0148223876953125;0.28999999926782;30;1 A
1.0642229973131;-0.399688720703125;-0.0148101806640625;0.299999999242573;31;1 A
1.07422299728785;-0.399749755859375;-0.014715576171875;0.309999999217325;32;1 A
1.0842229972626;-0.399810791015625;-0.0148193359375;0.319999999192078;33;1 A
1.09422299723735;-0.3997802734375;-0.014739990234375;0.32999999916683;34;1 A
1.1042229972121;-0.399749755859375;-0.01468505859375;0.339999999141583;35;1 A
1.11422299718686;-0.39971923828125;-0.0146392822265625;0.349999999116335;36;1 A
1.12422299716161;-0.399810791015625;-0.014642333984375;0.359999999091087;37;1 A
1.13422299713636;-0.399749755859375;-0.01478271484375;0.36999999906584;38;1 A
1.14422299711111;-0.39971923828125;-0.0147430419921875;0.379999999040592;39;1 A
1.15422299708587;-0.399749755859375;-0.0148651123046875;0.389999999015345;40;1 A
1.16422299706062;-0.39971923828125;-0.01473388671875;0.399999998990097;41;1 A
1.17422299703537;-0.39971923828125;-0.014617919921875;0.40999999896485;42;1 A
1.18422299701012;-0.399810791015625;-0.0145172119140625;0.419999998939602;43;1 A
1.19422299698488;-0.399749755859375;-0.0144561767578125;0.429999998914354;44;1 A
1.20422299695963;-0.39971923828125;-0.01458740234375;0.439999998889107;45;1 A
1.21422299693438;-0.39971923828125;-0.0144378662109375;0.449999998863859;46;1 A
1.22422299690913;-0.39971923828125;-0.0145416259765625;0.459999998838612;47;1 A
1.23422299688389;-0.3997802734375;-0.0146087646484375;0.469999998813364;48;1 A
1.24422299685864;-0.3997802734375;-0.0146392822265625;0.479999998788116;49;1 A
1.25422299683339;-0.3997802734375;-0.0146514892578125;0.489999998762869;50;1 A
1.26422299680814;-0.3997802734375;-0.014569091796875;0.499999998737621;51;1 A
1.2742229967829;-0.39971923828125;-0.0146636962890625;0.509999998712374;52;1 A
1.28422299675765;-0.399688720703125;-0.0145965576171875;0.519999998687126;53;1 A
1.2942229967324;-0.399749755859375;-0.0144927978515625;0.529999998661879;54;1 A
1.30422299670715;-0.399658203125;-0.01456298828125;0.539999998636631;55;1 A
1.31422299668191;-0.399688720703125;-0.014447021484375;0.549999998611383;56;1 A
1.32422299665666;-0.39971923828125;-0.0144317626953125;0.559999998586136;57;1 A
1.33422299663141;-0.3997802734375;-0.0143829345703125;0.569999998560888;58;1 A
1.34422299660616;-0.399749755859375;-0.0143890380859375;0.579999998535641;59;1 A
1.35422299658092;-0.3997802734375;-0.0145477294921875;0.589999998510393;60;1 A
1.36422299655567;-0.399810791015625;-0.01463623046875;0.599999998485146;61;1 A
1.37422299653042;-0.3997802734375;-0.014471435546875;0.609999998459898;62;1 A
1.38422299650517;-0.399688720703125;-0.01475830078125;0.61999999843465;63;1 A
1.39422299647993;-0.399627685546875;-0.014849853515625;0.629999998409403;64;1 A
1.40422299645468;-0.3997802734375;-0.0147979736328125;0.639999998384155;65;1 A
1.41422299642943;-0.399658203125;-0.014776611328125;0.649999998358908;66;1 A
1.42422299640418;-0.3997802734375;-0.01480712890625;0.65999999833366;67;1 A
1.43422299637894;-0.3997802734375;-0.0146820068359375;0.669999998308413;68;1 A
1.44422299635369;-0.3997802734375;-0.0146575927734375;0.679999998283165;69;1 A
1.45422299632844;-0.3997802734375;-0.01461181640625;0.689999998257917;70;1 A
1.46422299630319;-0.399566650390625;-0.0146881103515625;0.69999999823267;71;1 A
1.47422299627794;-0.3997802734375;-0.0147308349609375;0.709999998207422;72;1 A
1.4842229962527;-0.39971923828125;-0.014813232421875;0.719999998182175;73;1 A
1.49422299622745;-0.399688720703125;-0.0148223876953125;0.729999998156927;74;1 A
1.5042229962022;-0.3997802734375;-0.014727783203125;0.73999999813168;75;1 A
1.51422299617695;-0.399810791015625;-0.014837646484375;0.749999998106432;76;1 A
1.52422299615171;-0.399749755859375;-0.01470947265625;0.759999998081184;77;1 A
1.53422299612646;-0.399688720703125;-0.0147186279296875;0.769999998055937;78;1 A
1.54422299610121;-0.399749755859375;-0.0147247314453125;0.779999998030689;79;1 A
1.55422299607596;-0.399658203125;-0.0145751953125;0.789999998005442;80;1 A
1.56422299605072;-0.399749755859375;-0.014605712890625;0.799999997980194;81;1 A
1.57422299602547;-0.39984130859375;-0.0144378662109375;0.809999997954947;82;1 A
1.58422299600022;-0.39971923828125;-0.0145172119140625;0.819999997929699;83;1 A
1.59422299597497;-0.399810791015625;-0.014453125;0.829999997904451;84;1 A
1.60422299594973;-0.3997802734375;-0.0144012451171875;0.839999997879204;85;1 A
1.61422299592448;-0.399810791015625;-0.01453857421875;0.849999997853956;86;1 A
1.62422299589923;-0.399749755859375;-0.0145294189453125;0.859999997828709;87;1 A
1.63422299587398;-0.399658203125;-0.014666748046875;0.869999997803461;88;1 A
1.64422299584874;-0.399688720703125;-0.0146026611328125;0.879999997778214;89;1 A
1.65422299582349;-0.399749755859375;-0.014532470703125;0.889999997752966;90;1 A
1.66422299579824;-0.399658203125;-0.014599609375;0.899999997727718;91;1 A
1.67422299577299;-0.399688720703125;-0.014508056640625;0.909999997702471;92;1 A
1.68422299574775;-0.399749755859375;-0.014544677734375;0.919999997677223;93;1 A
1.6942229957225;-0.3997802734375;-0.014434814453125;0.929999997651976;94;1 A
1.70422299569725;-0.39971923828125;-0.01444091796875;0.939999997626728;95;1 A
1.714222995672;-0.3997802734375;-0.014508056640625;0.949999997601481;96;1 A
1.72422299564676;-0.399688720703125;-0.0144989013671875;0.959999997576233;97;1 A
1.73422299562151;-0.39971923828125;-0.0144989013671875;0.969999997550985;98;1 A
1.74422299559626;-0.39984130859375;-0.01435546875;0.979999997525738;99;1 A
1.75422299557101;-0.399810791015625;-0.0144317626953125;0.98999999750049;100;1 A
1.76422299554577;-0.399810791015625;-0.01434326171875;0.999999997475243;101;1 A
1.77422299552052;-0.399688720703125;-0.0143524169921875;1.00999999745;102;1 A
1.78422299549527;-0.39984130859375;-0.014434814453125;1.01999999742475;103;1 A
1.79422299547002;-0.399658203125;-0.0143524169921875;1.0299999973995;104;1 A
1.80422299544477;-0.399658203125;-0.0144439697265625;1.03999999737425;105;1 A
1.81422299541953;-0.399810791015625;-0.01431884765625;1.049999997349;106;1 A
1.82422299539428;-0.399810791015625;-0.014434814453125;1.05999999732376;107;1 A
1.83422299536903;-0.3997802734375;-0.0144683837890625;1.06999999729851;108;1 A
1.84422299534378;-0.399810791015625;-0.0143829345703125;1.07999999727326;109;1 A
1.85422299531854;-0.39984130859375;-0.0144866943359375;1.08999999724801;110;1 A
1.86422299529329;-0.399810791015625;-0.014434814453125;1.09999999722277;111;1 A
1.87422299526804;-0.399688720703125;-0.0145660400390625;1.10999999719752;112;1 A
1.88422299524279;-0.399810791015625;-0.01453857421875;1.11999999717227;113;1 A
1.89422299521755;-0.399688720703125;-0.0144989013671875;1.12999999714702;114;1 A
1.9042229951923;-0.399688720703125;-0.01455078125;1.13999999712178;115;1 A
1.91422299516705;-0.399688720703125;-0.0144378662109375;1.14999999709653;116;1 A
1.9242229951418;-0.3997802734375;-0.014569091796875;1.15999999707128;117;1 A
1.93422299511656;-0.39984130859375;-0.014654541015625;1.16999999704603;118;1 A
1.94422299509131;-0.39971923828125;-0.014556884765625;1.17999999702079;119;1 A
1.95422299506606;-0.3997802734375;-0.0144866943359375;1.18999999699554;120;1 A
1.96422299504081;-0.3997802734375;-0.014453125;1.19999999697029;121;1 A
1.97422299501557;-0.399749755859375;-0.0145263671875;1.20999999694504;122;1 A
1.98422299499032;-0.399688720703125;-0.0145172119140625;1.2199999969198;123;1 A
1.99422299496507;-0.39984130859375;-0.014642333984375;1.22999999689455;124;1 A
2.00422299493982;-0.39971923828125;-0.014501953125;1.2399999968693;125;1 A
2.01422299491458;-0.399688720703125;-0.0144989013671875;1.24999999684405;126;1 A
2.02422299488933;-0.399810791015625;-0.014495849609375;1.25999999681881;127;1 A
2.03422299486408;-0.399749755859375;-0.01444091796875;1.26999999679356;128;1 A
2.04422299483883;-0.399749755859375;-0.0145965576171875;1.27999999676831;129;1 A
2.05422299481359;-0.39971923828125;-0.0145599365234375;1.28999999674306;130;1 A
2.06422299478834;-0.399749755859375;-0.014434814453125;1.29999999671782;131;1 A
2.07422299476309;-0.399749755859375;-0.014404296875;1.30999999669257;132;1 A
2.08422299473784;-0.39971923828125;-0.0143768310546875;1.31999999666732;133;1 A
2.0942229947126;-0.3997802734375;-0.014495849609375;1.32999999664207;134;1 A
2.10422299468735;-0.39984130859375;-0.0144195556640625;1.33999999661683;135;1 A
2.1142229946621;-0.39971923828125;-0.0145111083984375;1.34999999659158;136;1 A
2.12422299463685;-0.39971923828125;-0.0144775390625;1.35999999656633;137;1 A
2.1342229946116;-0.39971923828125;-0.0145477294921875;1.36999999654108;138;1 A
2.14422299458636;-0.399566650390625;-0.0146087646484375;1.37999999651583;139;1 A
2.15422299456111;-0.399688720703125;-0.0145782470703125;1.38999999649059;140;1 A
2.16422299453586;-0.39971923828125;-0.014691162109375;1.39999999646534;141;1 A
2.17422299451061;-0.39984130859375;-0.01461181640625;1.40999999644009;142;1 A
2.18422299448537;-0.399749755859375;-0.01466064453125;1.41999999641484;143;1 A
2.19422299446012;-0.399749755859375;-0.0145904541015625;1.4299999963896;144;1 A
2.20422299443487;-0.3997802734375;-0.0145782470703125;1.43999999636435;145;1 A
2.21422299440962;-0.3997802734375;-0.014703369140625;1.4499999963391;146;1 A
2.22422299438438;-0.399658203125;-0.01458740234375;1.45999999631385;147;1 A
2.23422299435913;-0.399658203125;-0.0146026611328125;1.46999999628861;148;1 A
2.24422299433388;-0.3997802734375;-0.0145294189453125;1.47999999626336;149;1 A
2.25422299430863;-0.39971923828125;-0.014581298828125;1.48999999623811;150;1 A
2.26422299428339;-0.399810791015625;-0.0146240234375;1.49999999621286;151;1 A
2.27422299425814;-0.399871826171875;-0.0146026611328125;1.50999999618762;152;1 A
2.28422299423289;-0.399749755859375;-0.0147003173828125;1.51999999616237;153;1 A
2.29422299420764;-0.39971923828125;-0.01468505859375;1.52999999613712;154;1 A
2.3042229941824;-0.3997802734375;-0.01474609375;1.53999999611187;155;1 A
2.31422299415715;-0.399810791015625;-0.0145965576171875;1.54999999608663;156;1 A
2.3242229941319;-0.399627685546875;-0.01444091796875;1.55999999606138;157;1 A
2.33422299410665;-0.399810791015625;-0.014471435546875;1.56999999603613;158;1 A
2.34422299408141;-0.399810791015625;-0.0144378662109375;1.57999999601088;159;1 A
2.35422299405616;-0.399810791015625;-0.0145294189453125;1.58999999598564;160;1 A
2.36422299403091;-0.399749755859375;-0.0144378662109375;1.59999999596039;161;1 A
2.37422299400566;-0.39971923828125;-0.01429443359375;1.60999999593514;162;1 A
2.38422299398042;-0.399688720703125;-0.0143280029296875;1.61999999590989;163;1 A
2.39422299395517;-0.399688720703125;-0.0144012451171875;1.62999999588465;164;1 A
2.40422299392992;-0.399749755859375;-0.0146453857421875;1.6399999958594;165;1 A
2.41422299390467;-0.3997802734375;-0.0146881103515625;1.64999999583415;166;1 A
2.42422299387943;-0.399749755859375;-0.014764404296875;1.6599999958089;167;1 A
2.43422299385418;-0.3997802734375;-0.01480712890625;1.66999999578366;168;1 A
2.44422299382893;-0.3997802734375;-0.0147369384765625;1.67999999575841;169;1 A
2.45422299380368;-0.399810791015625;-0.014776611328125;1.68999999573316;170;1 A
2.46422299377844;-0.3997802734375;-0.0147003173828125;1.69999999570791;171;1 A
2.47422299375319;-0.399688720703125;-0.0147613525390625;1.70999999568267;172;1 A
2.48422299372794;-0.39971923828125;-0.014666748046875;1.71999999565742;173;1 A
2.49422299370269;-0.399658203125;-0.0146209716796875;1.72999999563217;174;1 A
2.50422299367744;-0.39971923828125;-0.014605712890625;1.73999999560692;175;1 A
2.5142229936522;-0.39971923828125;-0.01448974609375;1.74999999558167;176;1 A
2.52422299362695;-0.3997802734375;-0.0144500732421875;1.75999999555643;177;1 A
2.5342229936017;-0.39971923828125;-0.014324951171875;1.76999999553118;178;1 A
2.54422299357645;-0.39971923828125;-0.014447021484375;1.77999999550593;179;1 A
2.55422299355121;-0.399749755859375;-0.014544677734375;1.78999999548068;180;1 A
2.56422299352596;-0.39971923828125;-0.0145172119140625;1.79999999545544;181;1 A
2.57422299350071;-0.39971923828125;-0.0146087646484375;1.80999999543019;182;1 A
2.58422299347546;-0.39971923828125;-0.014483642578125;1.81999999540494;183;1 A
2.59422299345022;-0.399749755859375;-0.014556884765625;1.82999999537969;184;1 A
2.60422299342497;-0.399749755859375;-0.0145416259765625;1.83999999535445;185;1 A
2.61422299339972;-0.399688720703125;-0.0145721435546875;1.8499999953292;186;1 A
2.62422299337447;-0.399810791015625;-0.0146392822265625;1.85999999530395;187;1 A
2.63422299334923;-0.399749755859375;-0.0145050048828125;1.8699999952787;188;1 A
2.64422299332398;-0.399749755859375;-0.0145294189453125;1.87999999525346;189;1 A
2.65422299329873;-0.399749755859375;-0.01441650390625;1.88999999522821;190;1 A
2.66422299327348;-0.399749755859375;-0.014471435546875;1.89999999520296;191;1 A
2.67422299324824;-0.39984130859375;-0.01446533203125;1.90999999517771;192;1 A
2.68422299322299;-0.399749755859375;-0.01436767578125;1.91999999515247;193;1 A
2.69422299319774;-0.39984130859375;-0.014410400390625;1.92999999512722;194;1 A
2.70422299317249;-0.399749755859375;-0.0143280029296875;1.93999999510197;195;1 A
2.71422299314725;-0.39971923828125;-0.014373779296875;1.94999999507672;196;1 A
2.724222993122;-0.399749755859375;-0.014361572265625;1.95999999505148;197;1 A
2.73422299309675;-0.39971923828125;-0.0143310546875;1.96999999502623;198;1 A
2.7442229930715;-0.399749755859375;-0.014410400390625;1.97999999500098;199;1 A
2.75422299304626;-0.39971923828125;-0.014349365234375;1.98999999497573;200;1 A
2.76422299302101;-0.3997802734375;-0.014453125;1.99999999495049;201;1 A
2.77422299299576;-0.39984130859375;-0.0143707275390625;2.00999999492524;202;1 A
2.78422299297051;-0.3997802734375;-0.014398193359375;2.01999999489999;203;1 A
2.79422299294527;-0.399810791015625;-0.0143157958984375;2.02999999487474;204;1 A
2.80422299292002;-0.3997802734375;-0.0142120361328125;2.0399999948495;205;1 A
2.81422299289477;-0.39971923828125;-0.0143524169921875;2.04999999482425;206;1 A
2.82422299286952;-0.39971923828125;-0.0143035888671875;2.059999994799;207;1 A
2.83422299284427;-0.39971923828125;-0.014349365234375;2.06999999477375;208;1 A
2.84422299281903;-0.39984130859375;-0.01424560546875;2.0799999947485;209;1 A
2.85422299279378;-0.399688720703125;-0.01427001953125;2.08999999472326;210;1 A
2.86422299276853;-0.39984130859375;-0.0143402099609375;2.09999999469801;211;1 A
2.87422299274328;-0.399749755859375;-0.0142364501953125;2.10999999467276;212;1 A
2.88422299271804;-0.399688720703125;-0.01429443359375;2.11999999464751;213;1 A
2.89422299269279;-0.399749755859375;-0.014227294921875;2.12999999462227;214;1 A
2.90422299266754;-0.399749755859375;-0.014361572265625;2.13999999459702;215;1 A
2.91422299264229;-0.399749755859375;-0.014434814453125;2.14999999457177;216;1 A
2.92422299261705;-0.399749755859375;-0.0144287109375;2.15999999454652;217;1 A
2.9342229925918;-0.39984130859375;-0.0145965576171875;2.16999999452128;218;1 A
2.94422299256655;-0.399871826171875;-0.0144378662109375;2.17999999449603;219;1 A
2.9542229925413;-0.39971923828125;-0.014447021484375;2.18999999447078;220;1 A
2.96422299251606;-0.3997802734375;-0.01436767578125;2.19999999444553;221;1 A
2.97422299249081;-0.39971923828125;-0.0143310546875;2.20999999442029;222;1 A
2.98422299246556;-0.39971923828125;-0.01439208984375;2.21999999439504;223;1 A
2.99422299244031;-0.39971923828125;-0.0142547607421875;2.22999999436979;224;1 A
3.00422299241507;-0.399749755859375;-0.014300537109375;2.23999999434454;225;1 A
3.01422299238982;-0.3997802734375;-0.0142303466796875;2.2499999943193;226;1 A
3.02422299236457;-0.399749755859375;-0.0143035888671875;2.25999999429405;227;1 A
3.03422299233932;-0.399810791015625;-0.014459228515625;2.2699999942688;228;1 A
3.04422299231408;-0.39984130859375;-0.014483642578125;2.27999999424355;229;1 A
3.05422299228883;-0.3997802734375;-0.014593505859375;2.28999999421831;230;1 A
3.06422299226358;-0.399658203125;-0.0144683837890625;2.29999999419306;231;1 A
3.07422299223833;-0.399658203125;-0.0144744873046875;2.30999999416781;232;1 A
3.08422299221309;-0.399749755859375;-0.0143798828125;2.31999999414256;233;1 A
3.09422299218784;-0.39971923828125;-0.014324951171875;2.32999999411732;234;1 A
3.10422299216259;-0.3997802734375;-0.014337158203125;2.33999999409207;235;1 A
3.11422299213734;-0.399810791015625;-0.0142364501953125;2.34999999406682;236;1 A
3.1242229921121;-0.3997802734375;-0.0143585205078125;2.35999999404157;237;1 A
3.13422299208685;-0.399749755859375;-0.0143157958984375;2.36999999401633;238;1 A
3.1442229920616;-0.3997802734375;-0.01435546875;2.37999999399108;239;1 A
3.15422299203635;-0.39984130859375;-0.01436767578125;2.38999999396583;240;1 A
3.1642229920111;-0.399688720703125;-0.0143463134765625;2.39999999394058;241;1 A
3.17422299198586;-0.3997802734375;-0.014404296875;2.40999999391533;242;1 A
3.18422299196061;-0.39984130859375;-0.0142974853515625;2.41999999389009;243;1 A
3.19422299193536;-0.3997802734375;-0.0143310546875;2.42999999386484;244;1 A
3.20422299191011;-0.399749755859375;-0.0143280029296875;2.43999999383959;245;1 A
3.21422299188487;-0.399749755859375;-0.014312744140625;2.44999999381434;246;1 A
3.22422299185962;-0.3997802734375;-0.014404296875;2.4599999937891;247;1 A
3.23422299183437;-0.399688720703125;-0.0143798828125;2.46999999376385;248;1 A
3.24422299180912;-0.399688720703125;-0.0144287109375;2.4799999937386;249;1 A
3.25422299178388;-0.39984130859375;-0.014337158203125;2.48999999371335;250;1 A
3.26422299175863;-0.399688720703125;-0.0142974853515625;2.49999999368811;251;1 A
3.27422299173338;-0.3997802734375;-0.014288330078125;2.50999999366286;252;1 A
3.28422299170813;-0.399871826171875;-0.014312744140625;2.51999999363761;253;1 A
3.29422299168289;-0.399810791015625;-0.0143768310546875;2.52999999361236;254;1 A
3.30422299165764;-0.39971923828125;-0.0143341064453125;2.53999999358712;255;1 A
3.31422299163239;-0.399688720703125;-0.014471435546875;2.54999999356187;256;1 A
3.32422299160714;-0.3997802734375;-0.01453857421875;2.55999999353662;257;1 A
3.3342229915819;-0.39971923828125;-0.0146392822265625;2.56999999351137;258;1 A
3.34422299155665;-0.399688720703125;-0.0147735595703125;2.57999999348613;259;1 A
3.3542229915314;-0.399810791015625;-0.0147064208984375;2.58999999346088;260;1 A
3.36422299150615;-0.3997802734375;-0.0146942138671875;2.59999999343563;261;1 A
3.37422299148091;-0.399749755859375;-0.0145965576171875;2.60999999341038;262;1 A
3.38422299145566;-0.39971923828125;-0.01455078125;2.61999999338514;263;1 A
3.39422299143041;-0.3997802734375;-0.0144439697265625;2.62999999335989;264;1 A
3.40422299140516;-0.39971923828125;-0.0143951416015625;2.63999999333464;265;1 A
3.41422299137992;-0.39971923828125;-0.014483642578125;2.64999999330939;266;1 A
3.42422299135467;-0.399749755859375;-0.0144561767578125;2.65999999328415;267;1 A
3.43422299132942;-0.399749755859375;-0.0145721435546875;2.6699999932589;268;1 A
3.44422299130417;-0.39971923828125;-0.0144927978515625;2.67999999323365;269;1 A
3.45422299127893;-0.399688720703125;-0.01446533203125;2.6899999932084;270;1 A
3.46422299125368;-0.39984130859375;-0.014508056640625;2.69999999318316;271;1 A
3.47422299122843;-0.399749755859375;-0.014410400390625;2.70999999315791;272;1 A
3.48422299120318;-0.399627685546875;-0.014593505859375;2.71999999313266;273;1 A
3.49422299117794;-0.399810791015625;-0.014581298828125;2.72999999310741;274;1 A
3.50422299115269;-0.399688720703125;-0.014630126953125;2.73999999308217;275;1 A
3.51422299112744;-0.399810791015625;-0.0145416259765625;2.74999999305692;276;1 A
3.52422299110219;-0.3997802734375;-0.01446533203125;2.75999999303167;277;1 A
3.53422299107694;-0.399810791015625;-0.014569091796875;2.76999999300642;278;1 A
3.5442229910517;-0.3997802734375;-0.0144866943359375;2.77999999298117;279;1 A
3.55422299102645;-0.399688720703125;-0.01453857421875;2.78999999295593;280;1 A
3.5642229910012;-0.399688720703125;-0.0144744873046875;2.79999999293068;281;1 A
3.57422299097595;-0.399688720703125;-0.0145111083984375;2.80999999290543;282;1 A
3.58422299095071;-0.39971923828125;-0.014654541015625;2.81999999288018;283;1 A
3.59422299092546;-0.39971923828125;-0.0146209716796875;2.82999999285494;284;1 A
3.60422299090021;-0.39971923828125;-0.014642333984375;2.83999999282969;285;1 A
3.61422299087496;-0.3997802734375;-0.014532470703125;2.84999999280444;286;1 A
3.62422299084972;-0.399810791015625;-0.01451416015625;2.85999999277919;287;1 A
3.63422299082447;-0.3997802734375;-0.0145660400390625;2.86999999275395;288;1 A
3.64422299079922;-0.3997802734375;-0.0145172119140625;2.8799999927287;289;1 A
3.65422299077397;-0.399658203125;-0.01453857421875;2.88999999270345;290;1 A
3.66422299074873;-0.399749755859375;-0.0145233154296875;2.8999999926782;291;1 A
3.67422299072348;-0.399688720703125;-0.01458740234375;2.90999999265296;292;1 A
3.68422299069823;-0.399749755859375;-0.0145599365234375;2.91999999262771;293;1 A
3.69422299067298;-0.399749755859375;-0.01455078125;2.92999999260246;294;1 A
3.70422299064774;-0.399749755859375;-0.01453857421875;2.93999999257721;295;1 A
3.71422299062249;-0.399749755859375;-0.0144317626953125;2.94999999255197;296;1 A
3.72422299059724;-0.399749755859375;-0.0144927978515625;2.95999999252672;297;1 A
3.73422299057199;-0.399749755859375;-0.0144989013671875;2.96999999250147;298;1 A
3.74422299054675;-0.39971923828125;-0.0146697998046875;2.97999999247622;299;1 A
3.7542229905215;-0.39971923828125;-0.01463623046875;2.98999999245098;300;1 A
3.76422299049625;-0.399749755859375;-0.0145294189453125;2.99999999242573;301;1 A
3.774222990471;-0.399749755859375;-0.0145782470703125;3.00999999240048;302;1 A
3.78422299044576;-0.399810791015625;-0.0145355224609375;3.01999999237523;303;1 A
3.79422299042051;-0.399688720703125;-0.014678955078125;3.02999999234999;304;1 A
3.80422299039526;-0.3997802734375;-0.01466064453125;3.03999999232474;305;1 A
3.81422299037001;-0.39971923828125;-0.0146331787109375;3.04999999229949;306;1 A
3.82422299034477;-0.399749755859375;-0.0146820068359375;3.05999999227424;307;1 A
3.83422299031952;-0.399627685546875;-0.014715576171875;3.069999992249;308;1 A
3.84422299029427;-0.399688720703125;-0.0149505615234375;3.07999999222375;309;1 A
3.85422299026902;-0.39984130859375;-0.0150177001953125;3.0899999921985;310;1 A
3.86422299024377;-0.399688720703125;-0.0149993896484375;3.09999999217325;311;1 A
3.87422299021853;-0.3997802734375;-0.0148651123046875;3.109999992148;312;1 A
3.88422299019328;-0.399810791015625;-0.0147613525390625;3.11999999212276;313;1 A
3.89422299016803;-0.3997802734375;-0.0148040771484375;3.12999999209751;314;1 A
3.90422299014278;-0.39971923828125;-0.0147064208984375;3.13999999207226;315;1 A
3.91422299011754;-0.399658203125;-0.0147186279296875;3.14999999204701;316;1 A
3.92422299009229;-0.39971923828125;-0.014739990234375;3.15999999202177;317;1 A
3.93422299006704;-0.39971923828125;-0.0147308349609375;3.16999999199652;318;1 A
3.94422299004179;-0.399658203125;-0.014617919921875;3.17999999197127;319;1 A
3.95422299001655;-0.399749755859375;-0.0144805908203125;3.18999999194602;320;1 A
3.9642229899913;-0.399749755859375;-0.0144500732421875;3.19999999192078;321;1 A
3.97422298996605;-0.399749755859375;-0.0143463134765625;3.20999999189553;322;1 A
3.9842229899408;-0.3997802734375;-0.0143524169921875;3.21999999187028;323;1 A
3.99422298991556;-0.3997802734375;-0.0142547607421875;3.22999999184503;324;1 A
4.00422298989031;-0.399627685546875;-0.014239501953125;3.23999999181979;325;1 A
4.01422298986506;-0.399658203125;-0.014312744140625;3.24999999179454;326;1 A
4.02422298983981;-0.3997802734375;-0.014202880859375;3.25999999176929;327;1 A
4.03422298981457;-0.399749755859375;-0.014288330078125;3.26999999174404;328;1 A
4.04422298978932;-0.39971923828125;-0.0142913818359375;3.2799999917188;329;1 A
4.05422298976407;-0.399658203125;-0.0142822265625;3.28999999169355;330;1 A
4.06422298973882;-0.399749755859375;-0.014300537109375;3.2999999916683;331;1 A
4.07422298971358;-0.39971923828125;-0.0142822265625;3.30999999164305;332;1 A
4.08422298968833;-0.399749755859375;-0.01444091796875;3.31999999161781;333;1 A
4.09422298966308;-0.3997802734375;-0.014361572265625;3.32999999159256;334;1 A
4.10422298963783;-0.399749755859375;-0.0144622802734375;3.33999999156731;335;1 A
4.11422298961259;-0.39971923828125;-0.01455078125;3.34999999154206;336;1 A
4.12422298958734;-0.399749755859375;-0.0144805908203125;3.35999999151682;337;1 A
4.13422298956209;-0.3997802734375;-0.014453125;3.36999999149157;338;1 A
4.14422298953684;-0.39984130859375;-0.0143096923828125;3.37999999146632;339;1 A
4.1542229895116;-0.399688720703125;-0.0143280029296875;3.38999999144107;340;1 A
4.16422298948635;-0.399749755859375;-0.014312744140625;3.39999999141583;341;1 A
4.1742229894611;-0.399688720703125;-0.0142822265625;3.40999999139058;342;1 A
4.18422298943585;-0.399688720703125;-0.014288330078125;3.41999999136533;343;1 A
4.1942229894106;-0.399688720703125;-0.014178466796875;3.42999999134008;344;1 A
4.20422298938536;-0.3997802734375;-0.0143035888671875;3.43999999131483;345;1 A
4.21422298936011;-0.3997802734375;-0.01429443359375;3.44999999128959;346;1 A
4.22422298933486;-0.399749755859375;-0.014373779296875;3.45999999126434;347;1 A
4.23422298930961;-0.3997802734375;-0.0143280029296875;3.46999999123909;348;1 A
4.24422298928437;-0.3997802734375;-0.0142120361328125;3.47999999121384;349;1 A
4.25422298925912;-0.3997802734375;-0.014251708984375;3.4899999911886;350;1 A
4.26422298923387;-0.39971923828125;-0.0141357421875;3.49999999116335;351;1 A
4.27422298920862;-0.399749755859375;-0.0141845703125;3.5099999911381;352;1 A
4.28422298918338;-0.39971923828125;-0.0141571044921875;3.51999999111285;353;1 A
4.29422298915813;-0.399688720703125;-0.0141937255859375;3.52999999108761;354;1 A
4.30422298913288;-0.399810791015625;-0.0142181396484375;3.53999999106236;355;1 A
4.31422298910763;-0.399810791015625;-0.01424560546875;3.54999999103711;356;1 A
4.32422298908239;-0.399688720703125;-0.01439208984375;3.55999999101186;357;1 A
4.33422298905714;-0.39971923828125;-0.0143463134765625;3.56999999098662;358;1 A
4.34422298903189;-0.3997802734375;-0.014422607421875;3.57999999096137;359;1 A
4.35422298900664;-0.3997802734375;-0.014422607421875;3.58999999093612;360;1 A
4.3642229889814;-0.399749755859375;-0.014361572265625;3.59999999091087;361;1 A
4.37422298895615;-0.3997802734375;-0.014373779296875;3.60999999088563;362;1 A
4.3842229889309;-0.3997802734375;-0.0144134521484375;3.61999999086038;363;1 A
4.39422298890565;-0.39971923828125;-0.0145172119140625;3.62999999083513;364;1 A
4.40422298888041;-0.39971923828125;-0.0144744873046875;3.63999999080988;365;1 A
4.41422298885516;-0.39971923828125;-0.0145263671875;3.64999999078464;366;1 A
4.42422298882991;-0.399749755859375;-0.0145355224609375;3.65999999075939;367;1 A
4.43422298880466;-0.399627685546875;-0.01444091796875;3.66999999073414;368;1 A
4.44422298877942;-0.399749755859375;-0.0144561767578125;3.67999999070889;369;1 A
4.45422298875417;-0.3997802734375;-0.0142974853515625;3.68999999068365;370;1 A
4.46422298872892;-0.399749755859375;-0.0143890380859375;3.6999999906584;371;1 A
4.47422298870367;-0.39984130859375;-0.0144500732421875;3.70999999063315;372;1 A
4.48422298867843;-0.3997802734375;-0.014483642578125;3.7199999906079;373;1 A
4.49422298865318;-0.3997802734375;-0.0145538330078125;3.72999999058266;374;1 A
4.50422298862793;-0.399749755859375;-0.0144622802734375;3.73999999055741;375;1 A
4.51422298860268;-0.399658203125;-0.014508056640625;3.74999999053216;376;1 A
4.52422298857743;-0.399749755859375;-0.014385986328125;3.75999999050691;377;1 A
4.53422298855219;-0.399627685546875;-0.0144561767578125;3.76999999048167;378;1 A
4.54422298852694;-0.399749755859375;-0.01451416015625;3.77999999045642;379;1 A
4.55422298850169;-0.3997802734375;-0.01444091796875;3.78999999043117;380;1 A
4.56422298847644;-0.3997802734375;-0.0145904541015625;3.79999999040592;381;1 A
4.5742229884512;-0.39971923828125;-0.0145782470703125;3.80999999038067;382;1 A
4.58422298842595;-0.3997802734375;-0.0146087646484375;3.81999999035543;383;1 A
4.5942229884007;-0.3997802734375;-0.0145660400390625;3.82999999033018;384;1 A
4.60422298837545;-0.399688720703125;-0.0144927978515625;3.83999999030493;385;1 A
4.61422298835021;-0.39971923828125;-0.0145538330078125;3.84999999027968;386;1 A
4.62422298832496;-0.3997802734375;-0.01446533203125;3.85999999025444;387;1 A
4.63422298829971;-0.3997802734375;-0.014544677734375;3.86999999022919;388;1 A
4.64422298827446;-0.3997802734375;-0.01444091796875;3.87999999020394;389;1 A
4.65422298824922;-0.3997802734375;-0.0144287109375;3.88999999017869;390;1 A
4.66422298822397;-0.399810791015625;-0.014385986328125;3.89999999015345;391;1 A
4.67422298819872;-0.399627685546875;-0.0142913818359375;3.9099999901282;392;1 A
4.68422298817347;-0.39971923828125;-0.014398193359375;3.91999999010295;393;1 A
4.69422298814823;-0.3997802734375;-0.0144073486328125;3.9299999900777;394;1 A
4.70422298812298;-0.399749755859375;-0.014453125;3.93999999005246;395;1 A
4.71422298809773;-0.39984130859375;-0.014447021484375;3.94999999002721;396;1 A
4.72422298807248;-0.3997802734375;-0.014434814453125;3.95999999000196;397;1 A
4.73422298804724;-0.399810791015625;-0.0144805908203125;3.96999998997671;398;1 A
4.74422298802199;-0.399749755859375;-0.0143646240234375;3.97999998995147;399;1 A
4.75422298799674;-0.39971923828125;-0.0144073486328125;3.98999998992622;400;1 A
4.76422298797149;-0.399688720703125;-0.0143951416015625;3.99999998990097;401;1 A
4.77422298794625;-0.399627685546875;-0.0144134521484375;4.00999998987572;402;1 A
4.784222987921;-0.399688720703125;-0.0144439697265625;4.01999998985048;403;1 A
4.79422298789575;-0.39971923828125;-0.0142913818359375;4.02999998982523;404;1 A
4.8042229878705;-0.3997802734375;-0.01429443359375;4.03999998979998;405;1 A
4.81422298784526;-0.399749755859375;-0.0141845703125;4.04999998977473;406;1 A
4.82422298782001;-0.39971923828125;-0.0142791748046875;4.05999998974949;407;1 A
4.83422298779476;-0.399749755859375;-0.0142486572265625;4.06999998972424;408;1 A
4.84422298776951;-0.39971923828125;-0.0142608642578125;4.07999998969899;409;1 A
4.85422298774427;-0.399688720703125;-0.0143829345703125;4.08999998967374;410;1 A
4.86422298771902;-0.3997802734375;-0.0144134521484375;4.0999999896485;411;1 A
4.87422298769377;-0.39971923828125;-0.0145538330078125;4.10999998962325;412;1 A
4.88422298766852;-0.399749755859375;-0.014520263671875;4.119999989598;413;1 A
4.89422298764327;-0.39971923828125;-0.0145263671875;4.12999998957275;414;1 A
4.90422298761803;-0.39984130859375;-0.014495849609375;4.1399999895475;415;1 A
4.91422298759278;-0.399810791015625;-0.014385986328125;4.14999998952226;416;1 A
4.92422298756753;-0.399749755859375;-0.014483642578125;4.15999998949701;417;1 A
4.93422298754228;-0.399688720703125;-0.0144378662109375;4.16999998947176;418;1 A
4.94422298751704;-0.39971923828125;-0.014447021484375;4.17999998944651;419;1 A
4.95422298749179;-0.39984130859375;-0.0143768310546875;4.18999998942127;420;1 A
4.96422298746654;-0.399749755859375;-0.0143218994140625;4.19999998939602;421;1 A
4.97422298744129;-0.3997802734375;-0.0143768310546875;4.20999998937077;422;1 A
4.98422298741605;-0.39984130859375;-0.0143280029296875;4.21999998934552;423;1 A
4.9942229873908;-0.399749755859375;-0.0143890380859375;4.22999998932028;424;1 A
5.00422298736555;-0.399749755859375;-0.0142822265625;4.23999998929503;425;1 A
5.0142229873403;-0.39971923828125;-0.014288330078125;4.24999998926978;426;1 A
5.02422298731506;-0.39971923828125;-0.0142913818359375;4.25999998924453;427;1 A
5.03422298728981;-0.399658203125;-0.0142730712890625;4.26999998921929;428;1 A
5.04422298726456;-0.399749755859375;-0.0144073486328125;4.27999998919404;429;1 A
5.05422298723931;-0.399871826171875;-0.0144317626953125;4.28999998916879;430;1 A
5.06422298721407;-0.399749755859375;-0.014520263671875;4.29999998914354;431;1 A
5.07422298718882;-0.399749755859375;-0.0144073486328125;4.3099999891183;432;1 A
5.08422298716357;-0.3997802734375;-0.0143035888671875;4.31999998909305;433;1 A
5.09422298713832;-0.3997802734375;-0.014373779296875;4.3299999890678;434;1 A
5.10422298711308;-0.399658203125;-0.014312744140625;4.33999998904255;435;1 A
5.11422298708783;-0.39971923828125;-0.0144134521484375;4.34999998901731;436;1 A
5.12422298706258;-0.399749755859375;-0.014495849609375;4.35999998899206;437;1 A
5.13422298703733;-0.399627685546875;-0.014483642578125;4.36999998896681;438;1 A
5.14422298701209;-0.399688720703125;-0.0144744873046875;4.37999998894156;439;1 A
5.15422298698684;-0.39984130859375;-0.0143524169921875;4.38999998891632;440;1 A
5.16422298696159;-0.3997802734375;-0.014410400390625;4.39999998889107;441;1 A
5.17422298693634;-0.39971923828125;-0.0143280029296875;4.40999998886582;442;1 A
5.1842229869111;-0.399810791015625;-0.014300537109375;4.41999998884057;443;1 A
5.19422298688585;-0.399810791015625;-0.01416015625;4.42999998881533;444;1 A
5.2042229868606;-0.399658203125;-0.01427001953125;4.43999998879008;445;1 A
5.21422298683535;-0.39971923828125;-0.01436767578125;4.44999998876483;446;1 A
5.2242229868101;-0.3997802734375;-0.0143463134765625;4.45999998873958;447;1 A
5.23422298678486;-0.3997802734375;-0.01436767578125;4.46999998871433;448;1 A
5.24422298675961;-0.399749755859375;-0.0143218994140625;4.47999998868909;449;1 A
5.25422298673436;-0.399749755859375;-0.014300537109375;4.48999998866384;450;1 A
5.26422298670911;-0.3997802734375;-0.01435546875;4.49999998863859;451;1 A
5.27422298668387;-0.399688720703125;-0.01431884765625;4.50999998861334;452;1 A
5.28422298665862;-0.399688720703125;-0.0143585205078125;4.5199999885881;453;1 A
5.29422298663337;-0.3997802734375;-0.01431884765625;4.52999998856285;454;1 A
5.30422298660812;-0.399810791015625;-0.0143707275390625;4.5399999885376;455;1 A
5.31422298658288;-0.399749755859375;-0.014422607421875;4.54999998851235;456;1 A
5.32422298655763;-0.39971923828125;-0.0143951416015625;4.55999998848711;457;1 A
5.33422298653238;-0.39984130859375;-0.0144439697265625;4.56999998846186;458;1 A
5.34422298650713;-0.399749755859375;-0.0144287109375;4.57999998843661;459;1 A
5.35422298648189;-0.399627685546875;-0.014599609375;4.58999998841136;460;1 A
5.36422298645664;-0.3997802734375;-0.0145965576171875;4.59999998838612;461;1 A
5.37422298643139;-0.39971923828125;-0.0145843505859375;4.60999998836087;462;1 A
5.38422298640614;-0.399688720703125;-0.01456298828125;4.61999998833562;463;1 A
5.3942229863809;-0.399749755859375;-0.014447021484375;4.62999998831037;464;1 A
5.40422298635565;-0.3997802734375;-0.0144989013671875;4.63999998828513;465;1 A
5.4142229863304;-0.3997802734375;-0.0145233154296875;4.64999998825988;466;1 A
5.42422298630515;-0.39971923828125;-0.0146209716796875;4.65999998823463;467;1 A
5.43422298627991;-0.399749755859375;-0.0145294189453125;4.66999998820938;468;1 A
5.44422298625466;-0.399749755859375;-0.014410400390625;4.67999998818414;469;1 A
5.45422298622941;-0.39971923828125;-0.014410400390625;4.68999998815889;470;1 A
5.46422298620416;-0.39971923828125;-0.0143341064453125;4.69999998813364;471;1 A
5.47422298617892;-0.3997802734375;-0.0144866943359375;4.70999998810839;472;1 A
5.48422298615367;-0.39984130859375;-0.014520263671875;4.71999998808315;473;1 A
5.49422298612842;-0.399688720703125;-0.014508056640625;4.7299999880579;474;1 A
5.50422298610317;-0.39984130859375;-0.0144805908203125;4.73999998803265;475;1 A
5.51422298607793;-0.399749755859375;-0.0143829345703125;4.7499999880074;476;1 A
5.52422298605268;-0.39971923828125;-0.0144256591796875;4.75999998798216;477;1 A
5.53422298602743;-0.399749755859375;-0.0144744873046875;4.76999998795691;478;1 A
5.54422298600218;-0.399749755859375;-0.014501953125;4.77999998793166;479;1 A
5.55422298597693;-0.399749755859375;-0.014508056640625;4.78999998790641;480;1 A
5.56422298595169;-0.3997802734375;-0.0144073486328125;4.79999998788116;481;1 A
5.57422298592644;-0.399810791015625;-0.0143707275390625;4.80999998785592;482;1 A
5.58422298590119;-0.399749755859375;-0.014300537109375;4.81999998783067;483;1 A
5.59422298587594;-0.399688720703125;-0.01431884765625;4.82999998780542;484;1 A
5.6042229858507;-0.39971923828125;-0.014306640625;4.83999998778017;485;1 A
5.61422298582545;-0.399749755859375;-0.014312744140625;4.84999998775493;486;1 A
5.6242229858002;-0.399688720703125;-0.0142822265625;4.85999998772968;487;1 A
5.63422298577495;-0.39971923828125;-0.0142120361328125;4.86999998770443;488;1 A
5.64422298574971;-0.39984130859375;-0.0142486572265625;4.87999998767918;489;1 A
5.65422298572446;-0.399810791015625;-0.014154052734375;4.88999998765394;490;1 A
5.66422298569921;-0.399749755859375;-0.014215087890625;4.89999998762869;491;1 A
5.67422298567396;-0.399810791015625;-0.0141571044921875;4.90999998760344;492;1 A
5.68422298564872;-0.399810791015625;-0.0141357421875;4.91999998757819;493;1 A
5.69422298562347;-0.39971923828125;-0.014239501953125;4.92999998755295;494;1 A
5.70422298559822;-0.399688720703125;-0.01419677734375;4.9399999875277;495;1 A
5.71422298557297;-0.399658203125;-0.0143310546875;4.94999998750245;496;1 A
5.72422298554773;-0.39971923828125;-0.0142669677734375;4.9599999874772;497;1 A
5.73422298552248;-0.399658203125;-0.014288330078125;4.96999998745196;498;1 A
5.74422298549723;-0.399749755859375;-0.0143402099609375;4.97999998742671;499;1 A
5.75422298547198;-0.399749755859375;-0.0143218994140625;4.98999998740146;500;1 A
