Time (s);WE(1).Potential (V);WE(1).Current (A);Corrected time (s);Index;Current range;Overload
17.7757319551206;-0.91552734375;-2.29400634765625;0;1;1 A;Current overload
17.7857319550953;-0.95062255859375;-1.60552978515625;0.00999999997475243;2;1 A;
17.7957319550701;-0.95001220703125;-1.32659912109375;0.0199999999495049;3;1 A;
17.8057319550448;-0.95001220703125;-1.1553955078125;0.0299999999242573;4;1 A;
17.8157319550196;-0.95001220703125;-1.04949951171875;0.0399999998990097;5;1 A;
17.8257319549944;-0.94970703125;-0.98236083984375;0.0499999998737621;6;1 A;
17.8357319549691;-0.94970703125;-0.93780517578125;0.0599999998485146;7;1 A;
17.8457319549439;-0.94970703125;-0.8905029296875;0.069999999823267;8;1 A;
17.8557319549186;-0.94970703125;-0.87249755859375;0.0799999997980194;9;1 A;
17.8657319548934;-0.94970703125;-0.848388671875;0.0899999997727718;10;1 A;
17.8757319548681;-0.94970703125;-0.83831787109375;0.0999999997475243;11;1 A;
17.8857319548429;-0.9503173828125;-0.82550048828125;0.109999999722277;12;1 A;
17.8957319548176;-0.95001220703125;-0.80474853515625;0.119999999697029;13;1 A;
17.9057319547924;-0.94940185546875;-0.80535888671875;0.129999999671782;14;1 A;
17.9157319547671;-0.94970703125;-0.78277587890625;0.139999999646534;15;1 A;
17.9257319547419;-0.94970703125;-0.7861328125;0.149999999621286;16;1 A;
17.9357319547166;-0.9490966796875;-0.77667236328125;0.159999999596039;17;1 A;
17.9457319546914;-0.94940185546875;-0.77056884765625;0.169999999570791;18;1 A;
17.9557319546661;-0.94970703125;-0.77880859375;0.179999999545544;19;1 A;
17.9657319546409;-0.95001220703125;-0.7696533203125;0.189999999520296;20;1 A;
17.9757319546156;-0.94970703125;-0.7806396484375;0.199999999495049;21;1 A;
17.9857319545904;-0.95001220703125;-0.77484130859375;0.209999999469801;22;1 A;
17.9957319545651;-0.95001220703125;-0.78643798828125;0.219999999444553;23;1 A;
18.0057319545399;-0.94940185546875;-0.79132080078125;0.229999999419306;24;1 A;
18.0157319545146;-0.94940185546875;-0.78155517578125;0.239999999394058;25;1 A;
18.0257319544894;-0.94970703125;-0.79864501953125;0.249999999368811;26;1 A;
18.0357319544642;-0.9503173828125;-0.7818603515625;0.259999999343563;27;1 A;
18.0457319544389;-0.94970703125;-0.7830810546875;0.269999999318316;28;1 A;
18.0557319544137;-0.94970703125;-0.782470703125;0.279999999293068;29;1 A;
18.0657319543884;-0.94970703125;-0.76934814453125;0.28999999926782;30;1 A;
18.0757319543632;-0.94970703125;-0.78094482421875;0.299999999242573;31;1 A;
18.0857319543379;-0.94940185546875;-0.775146484375;0.309999999217325;32;1 A;
18.0957319543127;-0.9490966796875;-0.78887939453125;0.319999999192078;33;1 A;
18.1057319542874;-0.95001220703125;-0.7806396484375;0.32999999916683;34;1 A;
18.1157319542622;-0.94970703125;-0.78094482421875;0.339999999141583;35;1 A;
18.1257319542369;-0.9490966796875;-0.7781982421875;0.349999999116335;36;1 A;
18.1357319542117;-0.94970703125;-0.77117919921875;0.359999999091087;37;1 A;
18.1457319541864;-0.94970703125;-0.78704833984375;0.36999999906584;38;1 A;
18.1557319541612;-0.94970703125;-0.77667236328125;0.379999999040592;39;1 A;
18.1657319541359;-0.94940185546875;-0.78125;0.389999999015345;40;1 A;
18.1757319541107;-0.94970703125;-0.78277587890625;0.399999998990097;41;1 A;
18.1857319540854;-0.94970703125;-0.77423095703125;0.40999999896485;42;1 A;
18.1957319540602;-0.95001220703125;-0.7769775390625;0.419999998939602;43;1 A;
18.2057319540349;-0.94970703125;-0.762939453125;0.429999998914354;44;1 A;
18.2157319540097;-0.95001220703125;-0.76934814453125;0.439999998889107;45;1 A;
18.2257319539845;-0.94940185546875;-0.7623291015625;0.449999998863859;46;1 A;
18.2357319539592;-0.9490966796875;-0.76812744140625;0.459999998838612;47;1 A;
18.245731953934;-0.95001220703125;-0.76873779296875;0.469999998813364;48;1 A;
18.2557319539087;-0.94940185546875;-0.76202392578125;0.479999998788116;49;1 A;
18.2657319538835;-0.9490966796875;-0.7647705078125;0.489999998762869;50;1 A;
18.2757319538582;-0.94970703125;-0.7568359375;0.499999998737621;51;1 A;
18.285731953833;-0.94940185546875;-0.7647705078125;0.509999998712374;52;1 A;
18.2957319538077;-0.94940185546875;-0.76324462890625;0.519999998687126;53;1 A;
18.3057319537825;-0.94970703125;-0.76171875;0.529999998661879;54;1 A;
18.3157319537572;-0.94970703125;-0.76873779296875;0.539999998636631;55;1 A;
18.325731953732;-0.94970703125;-0.76171875;0.549999998611383;56;1 A;
18.3357319537067;-0.9490966796875;-0.76873779296875;0.559999998586136;57;1 A;
18.3457319536815;-0.95001220703125;-0.76446533203125;0.569999998560888;58;1 A;
18.3557319536562;-0.94970703125;-0.7763671875;0.579999998535641;59;1 A;
18.365731953631;-0.94970703125;-0.7769775390625;0.589999998510393;60;1 A;
18.3757319536057;-0.95001220703125;-0.76019287109375;0.599999998485146;61;1 A;
18.3857319535805;-0.9490966796875;-0.76873779296875;0.609999998459898;62;1 A;
18.3957319535552;-0.9503173828125;-0.7574462890625;0.61999999843465;63;1 A;
18.40573195353;-0.94879150390625;-0.76507568359375;0.629999998409403;64;1 A;
18.4157319535047;-0.9490966796875;-0.76568603515625;0.639999998384155;65;1 A;
18.4257319534795;-0.94970703125;-0.76324462890625;0.649999998358908;66;1 A;
18.4357319534543;-0.9490966796875;-0.76904296875;0.65999999833366;67;1 A;
18.445731953429;-0.94970703125;-0.7525634765625;0.669999998308413;68;1 A;
18.4557319534038;-0.94940185546875;-0.7684326171875;0.679999998283165;69;1 A;
18.4657319533785;-0.94970703125;-0.7586669921875;0.689999998257917;70;1 A;
18.4757319533533;-0.94970703125;-0.767822265625;0.69999999823267;71;1 A;
18.485731953328;-0.94970703125;-0.780029296875;0.709999998207422;72;1 A;
18.4957319533028;-0.94970703125;-0.78033447265625;0.719999998182175;73;1 A;
18.5057319532775;-0.94940185546875;-0.79132080078125;0.729999998156927;74;1 A;
18.5157319532523;-0.94940185546875;-0.77972412109375;0.73999999813168;75;1 A;
18.525731953227;-0.9490966796875;-0.7861328125;0.749999998106432;76;1 A;
18.5357319532018;-0.94970703125;-0.78094482421875;0.759999998081184;77;1 A;
18.5457319531765;-0.9490966796875;-0.78155517578125;0.769999998055937;78;1 A;
18.5557319531513;-0.94970703125;-0.789794921875;0.779999998030689;79;1 A;
18.565731953126;-0.94970703125;-0.7733154296875;0.789999998005442;80;1 A;
18.5757319531008;-0.94940185546875;-0.77850341796875;0.799999997980194;81;1 A;
18.5857319530755;-0.94970703125;-0.77606201171875;0.809999997954947;82;1 A;
18.5957319530503;-0.94970703125;-0.77911376953125;0.819999997929699;83;1 A;
18.605731953025;-0.94940185546875;-0.78216552734375;0.829999997904451;84;1 A;
18.6157319529998;-0.94940185546875;-0.771484375;0.839999997879204;85;1 A;
18.6257319529745;-0.94940185546875;-0.77972412109375;0.849999997853956;86;1 A;
18.6357319529493;-0.94940185546875;-0.7672119140625;0.859999997828709;87;1 A;
18.6457319529241;-0.94940185546875;-0.771484375;0.869999997803461;88;1 A;
18.6557319528988;-0.94970703125;-0.77178955078125;0.879999997778214;89;1 A;
18.6657319528736;-0.95001220703125;-0.78094482421875;0.889999997752966;90;1 A;
18.6757319528483;-0.94940185546875;-0.7867431640625;0.899999997727718;91;1 A;
18.6857319528231;-0.9503173828125;-0.7745361328125;0.909999997702471;92;1 A;
18.6957319527978;-0.94940185546875;-0.7794189453125;0.919999997677223;93;1 A;
18.7057319527726;-0.94970703125;-0.76446533203125;0.929999997651976;94;1 A;
18.7157319527473;-0.9503173828125;-0.77423095703125;0.939999997626728;95;1 A;
18.7257319527221;-0.94970703125;-0.7769775390625;0.949999997601481;96;1 A;
18.7357319526968;-0.95001220703125;-0.7611083984375;0.959999997576233;97;1 A;
18.7457319526716;-0.95001220703125;-0.767822265625;0.969999997550985;98;1 A;
18.7557319526463;-0.95001220703125;-0.7647705078125;0.979999997525738;99;1 A;
18.7657319526211;-0.94940185546875;-0.775146484375;0.98999999750049;100;1 A;
18.7757319525958;-0.94970703125;-0.77392578125;0.999999997475243;101;1 A;
18.7857319525706;-0.94940185546875;-0.7666015625;1.00999999745;102;1 A;
18.7957319525453;-0.95001220703125;-0.7672119140625;1.01999999742475;103;1 A;
18.8057319525201;-0.95001220703125;-0.75775146484375;1.0299999973995;104;1 A;
18.8157319524948;-0.94970703125;-0.770263671875;1.03999999737425;105;1 A;
18.8257319524696;-0.94970703125;-0.76141357421875;1.049999997349;106;1 A;
18.8357319524443;-0.94970703125;-0.76141357421875;1.05999999732376;107;1 A;
18.8457319524191;-0.94940185546875;-0.765380859375;1.06999999729851;108;1 A;
18.8557319523939;-0.94940185546875;-0.76446533203125;1.07999999727326;109;1 A;
18.8657319523686;-0.9490966796875;-0.7818603515625;1.08999999724801;110;1 A;
18.8757319523434;-0.94970703125;-0.76751708984375;1.09999999722277;111;1 A;
18.8857319523181;-0.94940185546875;-0.77178955078125;1.10999999719752;112;1 A;
18.8957319522929;-0.94970703125;-0.77117919921875;1.11999999717227;113;1 A;
18.9057319522676;-0.94970703125;-0.77667236328125;1.12999999714702;114;1 A;
18.9157319522424;-0.94940185546875;-0.79132080078125;1.13999999712178;115;1 A;
18.9257319522171;-0.94970703125;-0.7696533203125;1.14999999709653;116;1 A;
18.9357319521919;-0.94970703125;-0.77728271484375;1.15999999707128;117;1 A;
18.9457319521666;-0.94940185546875;-0.76934814453125;1.16999999704603;118;1 A;
18.9557319521414;-0.94970703125;-0.77362060546875;1.17999999702079;119;1 A;
18.9657319521161;-0.94970703125;-0.78125;1.18999999699554;120;1 A;
18.9757319520909;-0.9503173828125;-0.77301025390625;1.19999999697029;121;1 A;
18.9857319520656;-0.94970703125;-0.7843017578125;1.20999999694504;122;1 A;
18.9957319520404;-0.94970703125;-0.77606201171875;1.2199999969198;123;1 A;
19.0057319520151;-0.94940185546875;-0.7861328125;1.22999999689455;124;1 A;
19.0157319519899;-0.94970703125;-0.77728271484375;1.2399999968693;125;1 A;
19.0257319519646;-0.94940185546875;-0.77301025390625;1.24999999684405;126;1 A;
19.0357319519394;-0.95001220703125;-0.78369140625;1.25999999681881;127;1 A;
19.0457319519141;-0.94970703125;-0.7733154296875;1.26999999679356;128;1 A;
19.0557319518889;-0.9490966796875;-0.78582763671875;1.27999999676831;129;1 A;
19.0657319518637;-0.95001220703125;-0.777587890625;1.28999999674306;130;1 A;
19.0757319518384;-0.94970703125;-0.77392578125;1.29999999671782;131;1 A;
19.0857319518132;-0.94970703125;-0.784912109375;1.30999999669257;132;1 A;
19.0957319517879;-0.94970703125;-0.7855224609375;1.31999999666732;133;1 A;
19.1057319517627;-0.94970703125;-0.79345703125;1.32999999664207;134;1 A;
19.1157319517374;-0.94970703125;-0.78125;1.33999999661683;135;1 A;
19.1257319517122;-0.95001220703125;-0.780029296875;1.34999999659158;136;1 A;
19.1357319516869;-0.9490966796875;-0.77117919921875;1.35999999656633;137;1 A;
19.1457319516617;-0.94970703125;-0.76446533203125;1.36999999654108;138;1 A;
19.1557319516364;-0.9503173828125;-0.771484375;1.37999999651583;139;1 A;
19.1657319516112;-0.9503173828125;-0.76446533203125;1.38999999649059;140;1 A;
19.1757319515859;-0.94970703125;-0.77972412109375;1.39999999646534;141;1 A;
19.1857319515607;-0.94970703125;-0.7720947265625;1.40999999644009;142;1 A;
19.1957319515354;-0.95001220703125;-0.77423095703125;1.41999999641484;143;1 A;
19.2057319515102;-0.94970703125;-0.7745361328125;1.4299999963896;144;1 A;
19.2157319514849;-0.94970703125;-0.7635498046875;1.43999999636435;145;1 A;
19.2257319514597;-0.94940185546875;-0.7763671875;1.4499999963391;146;1 A;
19.2357319514344;-0.9503173828125;-0.76141357421875;1.45999999631385;147;1 A;
19.2457319514092;-0.94940185546875;-0.770263671875;1.46999999628861;148;1 A;
19.255731951384;-0.94970703125;-0.7696533203125;1.47999999626336;149;1 A;
19.2657319513587;-0.94970703125;-0.76873779296875;1.48999999623811;150;1 A;
19.2757319513335;-0.94940185546875;-0.7818603515625;1.49999999621286;151;1 A;
19.2857319513082;-0.94940185546875;-0.76904296875;1.50999999618762;152;1 A;
19.295731951283;-0.95001220703125;-0.780029296875;1.51999999616237;153;1 A;
19.3057319512577;-0.9490966796875;-0.76812744140625;1.52999999613712;154;1 A;
19.3157319512325;-0.94970703125;-0.76507568359375;1.53999999611187;155;1 A;
19.3257319512072;-0.94970703125;-0.771484375;1.54999999608663;156;1 A;
19.335731951182;-0.94940185546875;-0.75836181640625;1.55999999606138;157;1 A;
19.3457319511567;-0.94970703125;-0.7720947265625;1.56999999603613;158;1 A;
19.3557319511315;-0.95001220703125;-0.75958251953125;1.57999999601088;159;1 A;
19.3657319511062;-0.94940185546875;-0.76385498046875;1.58999999598564;160;1 A;
19.375731951081;-0.95001220703125;-0.76141357421875;1.59999999596039;161;1 A;
19.3857319510557;-0.94940185546875;-0.75714111328125;1.60999999593514;162;1 A;
19.3957319510305;-0.94940185546875;-0.77484130859375;1.61999999590989;163;1 A;
19.4057319510052;-0.95001220703125;-0.76568603515625;1.62999999588465;164;1 A;
19.41573195098;-0.94940185546875;-0.77178955078125;1.6399999958594;165;1 A;
19.4257319509547;-0.94940185546875;-0.76019287109375;1.64999999583415;166;1 A;
19.4357319509295;-0.94940185546875;-0.76202392578125;1.6599999958089;167;1 A;
19.4457319509042;-0.94970703125;-0.77056884765625;1.66999999578366;168;1 A;
19.455731950879;-0.94970703125;-0.758056640625;1.67999999575841;169;1 A;
19.4657319508538;-0.94940185546875;-0.767822265625;1.68999999573316;170;1 A;
19.4757319508285;-0.95001220703125;-0.758056640625;1.69999999570791;171;1 A;
19.4857319508033;-0.94940185546875;-0.771484375;1.70999999568267;172;1 A;
19.495731950778;-0.94970703125;-0.777587890625;1.71999999565742;173;1 A;
19.5057319507528;-0.95001220703125;-0.77056884765625;1.72999999563217;174;1 A;
19.5157319507275;-0.94970703125;-0.777587890625;1.73999999560692;175;1 A;
19.5257319507023;-0.95001220703125;-0.755615234375;1.74999999558167;176;1 A;
19.535731950677;-0.94940185546875;-0.7562255859375;1.75999999555643;177;1 A;
19.5457319506518;-0.94940185546875;-0.75927734375;1.76999999553118;178;1 A;
19.5557319506265;-0.9490966796875;-0.7745361328125;1.77999999550593;179;1 A;
19.5657319506013;-0.94970703125;-0.7769775390625;1.78999999548068;180;1 A;
19.575731950576;-0.94940185546875;-0.76263427734375;1.79999999545544;181;1 A;
19.5857319505508;-0.94970703125;-0.76202392578125;1.80999999543019;182;1 A;
19.5957319505255;-0.94970703125;-0.74676513671875;1.81999999540494;183;1 A;
19.6057319505003;-0.94940185546875;-0.75347900390625;1.82999999537969;184;1 A;
19.615731950475;-0.94940185546875;-0.753173828125;1.83999999535445;185;1 A;
19.6257319504498;-0.9490966796875;-0.75775146484375;1.8499999953292;186;1 A;
19.6357319504245;-0.94970703125;-0.76019287109375;1.85999999530395;187;1 A;
19.6457319503993;-0.94970703125;-0.74981689453125;1.8699999952787;188;1 A;
19.655731950374;-0.94970703125;-0.758056640625;1.87999999525346;189;1 A;
19.6657319503488;-0.94940185546875;-0.7476806640625;1.88999999522821;190;1 A;
19.6757319503236;-0.94940185546875;-0.75286865234375;1.89999999520296;191;1 A;
19.6857319502983;-0.94940185546875;-0.76202392578125;1.90999999517771;192;1 A;
19.6957319502731;-0.95001220703125;-0.7586669921875;1.91999999515247;193;1 A;
19.7057319502478;-0.94940185546875;-0.77362060546875;1.92999999512722;194;1 A;
19.7157319502226;-0.94940185546875;-0.7598876953125;1.93999999510197;195;1 A;
19.7257319501973;-0.9490966796875;-0.76507568359375;1.94999999507672;196;1 A;
19.7357319501721;-0.94940185546875;-0.7598876953125;1.95999999505148;197;1 A;
19.7457319501468;-0.94970703125;-0.75653076171875;1.96999999502623;198;1 A;
19.7557319501216;-0.94970703125;-0.775146484375;1.97999999500098;199;1 A;
19.7657319500963;-0.95001220703125;-0.7635498046875;1.98999999497573;200;1 A;
19.7757319500711;-0.94940185546875;-0.77484130859375;1.99999999495049;201;1 A;
19.7857319500458;-0.94940185546875;-0.7666015625;2.00999999492524;202;1 A;
19.7957319500206;-0.94970703125;-0.7647705078125;2.01999999489999;203;1 A;
19.8057319499953;-0.94940185546875;-0.7733154296875;2.02999999487474;204;1 A;
19.8157319499701;-0.94970703125;-0.76080322265625;2.0399999948495;205;1 A;
19.8257319499448;-0.94940185546875;-0.77362060546875;2.04999999482425;206;1 A;
19.8357319499196;-0.94970703125;-0.76629638671875;2.059999994799;207;1 A;
19.8457319498943;-0.9503173828125;-0.772705078125;2.06999999477375;208;1 A;
19.8557319498691;-0.94970703125;-0.77239990234375;2.0799999947485;209;1 A;
19.8657319498438;-0.95001220703125;-0.77056884765625;2.08999999472326;210;1 A;
19.8757319498186;-0.94940185546875;-0.76995849609375;2.09999999469801;211;1 A;
19.8857319497934;-0.94970703125;-0.75775146484375;2.10999999467276;212;1 A;
19.8957319497681;-0.94940185546875;-0.76873779296875;2.11999999464751;213;1 A;
19.9057319497429;-0.95001220703125;-0.762939453125;2.12999999462227;214;1 A;
19.9157319497176;-0.94940185546875;-0.75836181640625;2.13999999459702;215;1 A;
19.9257319496924;-0.94970703125;-0.7550048828125;2.14999999457177;216;1 A;
19.9357319496671;-0.95001220703125;-0.7489013671875;2.15999999454652;217;1 A;
19.9457319496419;-0.94940185546875;-0.76080322265625;2.16999999452128;218;1 A;
19.9557319496166;-0.94940185546875;-0.7550048828125;2.17999999449603;219;1 A;
19.9657319495914;-0.95001220703125;-0.75653076171875;2.18999999447078;220;1 A;
19.9757319495661;-0.95001220703125;-0.75103759765625;2.19999999444553;221;1 A;
19.9857319495409;-0.94940185546875;-0.748291015625;2.20999999442029;222;1 A;
19.9957319495156;-0.94970703125;-0.753173828125;2.21999999439504;223;1 A;
20.0057319494904;-0.94970703125;-0.74249267578125;2.22999999436979;224;1 A;
20.0157319494651;-0.95001220703125;-0.75103759765625;2.23999999434454;225;1 A;
20.0257319494399;-0.94940185546875;-0.7415771484375;2.2499999943193;226;1 A;
20.0357319494146;-0.94970703125;-0.74188232421875;2.25999999429405;227;1 A;
20.0457319493894;-0.94970703125;-0.74920654296875;2.2699999942688;228;1 A;
20.0557319493641;-0.9503173828125;-0.7452392578125;2.27999999424355;229;1 A;
20.0657319493389;-0.95001220703125;-0.7537841796875;2.28999999421831;230;1 A;
20.0757319493136;-0.9503173828125;-0.74676513671875;2.29999999419306;231;1 A;
20.0857319492884;-0.9490966796875;-0.75103759765625;2.30999999416781;232;1 A;
20.0957319492632;-0.9490966796875;-0.748291015625;2.31999999414256;233;1 A;
20.1057319492379;-0.94970703125;-0.74462890625;2.32999999411732;234;1 A;
20.1157319492127;-0.94940185546875;-0.7513427734375;2.33999999409207;235;1 A;
20.1257319491874;-0.94970703125;-0.740966796875;2.34999999406682;236;1 A;
20.1357319491622;-0.9490966796875;-0.7574462890625;2.35999999404157;237;1 A;
20.1457319491369;-0.94940185546875;-0.76385498046875;2.36999999401633;238;1 A;
20.1557319491117;-0.94970703125;-0.770263671875;2.37999999399108;239;1 A;
20.1657319490864;-0.9490966796875;-0.78369140625;2.38999999396583;240;1 A;
20.1757319490612;-0.95001220703125;-0.777587890625;2.39999999394058;241;1 A;
20.1857319490359;-0.94940185546875;-0.7916259765625;2.40999999391533;242;1 A;
20.1957319490107;-0.94940185546875;-0.77606201171875;2.41999999389009;243;1 A;
20.2057319489854;-0.94940185546875;-0.78338623046875;2.42999999386484;244;1 A;
20.2157319489602;-0.94970703125;-0.77972412109375;2.43999999383959;245;1 A;
20.2257319489349;-0.94940185546875;-0.76873779296875;2.44999999381434;246;1 A;
20.2357319489097;-0.94970703125;-0.77728271484375;2.4599999937891;247;1 A;
20.2457319488844;-0.94970703125;-0.75836181640625;2.46999999376385;248;1 A;
20.2557319488592;-0.94940185546875;-0.7647705078125;2.4799999937386;249;1 A;
20.2657319488339;-0.94940185546875;-0.758056640625;2.48999999371335;250;1 A;
20.2757319488087;-0.94970703125;-0.76568603515625;2.49999999368811;251;1 A;
20.2857319487835;-0.94940185546875;-0.77239990234375;2.50999999366286;252;1 A;
20.2957319487582;-0.94940185546875;-0.7623291015625;2.51999999363761;253;1 A;
20.305731948733;-0.94940185546875;-0.77056884765625;2.52999999361236;254;1 A;
20.3157319487077;-0.95001220703125;-0.753173828125;2.53999999358712;255;1 A;
20.3257319486825;-0.94940185546875;-0.758056640625;2.54999999356187;256;1 A;
20.3357319486572;-0.94970703125;-0.7476806640625;2.55999999353662;257;1 A;
20.345731948632;-0.9503173828125;-0.74493408203125;2.56999999351137;258;1 A;
20.3557319486067;-0.94940185546875;-0.75531005859375;2.57999999348613;259;1 A;
20.3657319485815;-0.94970703125;-0.74432373046875;2.58999999346088;260;1 A;
20.3757319485562;-0.94970703125;-0.76171875;2.59999999343563;261;1 A;
20.385731948531;-0.94970703125;-0.751953125;2.60999999341038;262;1 A;
20.3957319485057;-0.94940185546875;-0.75958251953125;2.61999999338514;263;1 A;
20.4057319484805;-0.9490966796875;-0.76324462890625;2.62999999335989;264;1 A;
20.4157319484552;-0.94970703125;-0.74920654296875;2.63999999333464;265;1 A;
20.42573194843;-0.94970703125;-0.7647705078125;2.64999999330939;266;1 A;
20.4357319484047;-0.94940185546875;-0.745849609375;2.65999999328415;267;1 A;
20.4457319483795;-0.94970703125;-0.762939453125;2.6699999932589;268;1 A;
20.4557319483542;-0.9490966796875;-0.76934814453125;2.67999999323365;269;1 A;
20.465731948329;-0.94970703125;-0.75897216796875;2.6899999932084;270;1 A;
20.4757319483037;-0.94940185546875;-0.7672119140625;2.69999999318316;271;1 A;
20.4857319482785;-0.94970703125;-0.74920654296875;2.70999999315791;272;1 A;
20.4957319482533;-0.94970703125;-0.76446533203125;2.71999999313266;273;1 A;
20.505731948228;-0.94970703125;-0.76080322265625;2.72999999310741;274;1 A;
20.5157319482028;-0.94970703125;-0.76019287109375;2.73999999308217;275;1 A;
20.5257319481775;-0.94970703125;-0.7720947265625;2.74999999305692;276;1 A;
20.5357319481523;-0.94940185546875;-0.7574462890625;2.75999999303167;277;1 A;
20.545731948127;-0.94940185546875;-0.77301025390625;2.76999999300642;278;1 A;
20.5557319481018;-0.94970703125;-0.762939453125;2.77999999298117;279;1 A;
20.5657319480765;-0.94970703125;-0.7720947265625;2.78999999295593;280;1 A;
20.5757319480513;-0.9490966796875;-0.77392578125;2.79999999293068;281;1 A;
20.585731948026;-0.94940185546875;-0.77117919921875;2.80999999290543;282;1 A;
20.5957319480008;-0.94940185546875;-0.7861328125;2.81999999288018;283;1 A;
20.6057319479755;-0.95062255859375;-0.77178955078125;2.82999999285494;284;1 A;
20.6157319479503;-0.94970703125;-0.78460693359375;2.83999999282969;285;1 A;
20.625731947925;-0.94970703125;-0.7818603515625;2.84999999280444;286;1 A;
20.6357319478998;-0.94940185546875;-0.77728271484375;2.85999999277919;287;1 A;
20.6457319478745;-0.95001220703125;-0.7843017578125;2.86999999275395;288;1 A;
20.6557319478493;-0.94970703125;-0.7696533203125;2.8799999927287;289;1 A;
20.665731947824;-0.94970703125;-0.780029296875;2.88999999270345;290;1 A;
20.6757319477988;-0.94940185546875;-0.771484375;2.8999999926782;291;1 A;
20.6857319477735;-0.94970703125;-0.7763671875;2.90999999265296;292;1 A;
20.6957319477483;-0.94970703125;-0.7708740234375;2.91999999262771;293;1 A;
20.7057319477231;-0.9490966796875;-0.75897216796875;2.92999999260246;294;1 A;
20.7157319476978;-0.94940185546875;-0.7647705078125;2.93999999257721;295;1 A;
20.7257319476726;-0.94940185546875;-0.758056640625;2.94999999255197;296;1 A;
20.7357319476473;-0.95001220703125;-0.76995849609375;2.95999999252672;297;1 A;
20.7457319476221;-0.94970703125;-0.76690673828125;2.96999999250147;298;1 A;
20.7557319475968;-0.95001220703125;-0.76416015625;2.97999999247622;299;1 A;
20.7657319475716;-0.94940185546875;-0.76812744140625;2.98999999245098;300;1 A;
20.7757319475463;-0.94970703125;-0.76202392578125;2.99999999242573;301;1 A;
20.7857319475211;-0.94940185546875;-0.77239990234375;3.00999999240048;302;1 A;
20.7957319474958;-0.94970703125;-0.7696533203125;3.01999999237523;303;1 A;
20.8057319474706;-0.94970703125;-0.772705078125;3.02999999234999;304;1 A;
20.8157319474453;-0.94940185546875;-0.76873779296875;3.03999999232474;305;1 A;
20.8257319474201;-0.94970703125;-0.767822265625;3.04999999229949;306;1 A;
20.8357319473948;-0.94879150390625;-0.7757568359375;3.05999999227424;307;1 A;
20.8457319473696;-0.94970703125;-0.755615234375;3.069999992249;308;1 A;
20.8557319473443;-0.95001220703125;-0.76019287109375;3.07999999222375;309;1 A;
20.8657319473191;-0.94940185546875;-0.7574462890625;3.0899999921985;310;1 A;
20.8757319472938;-0.9490966796875;-0.76568603515625;3.09999999217325;311;1 A;
20.8857319472686;-0.94970703125;-0.767822265625;3.109999992148;312;1 A;
20.8957319472433;-0.94970703125;-0.75592041015625;3.11999999212276;313;1 A;
20.9057319472181;-0.94970703125;-0.76751708984375;3.12999999209751;314;1 A;
20.9157319471929;-0.9490966796875;-0.75653076171875;3.13999999207226;315;1 A;
20.9257319471676;-0.94970703125;-0.76324462890625;3.14999999204701;316;1 A;
20.9357319471424;-0.94970703125;-0.76019287109375;3.15999999202177;317;1 A;
20.9457319471171;-0.94970703125;-0.76141357421875;3.16999999199652;318;1 A;
20.9557319470919;-0.94940185546875;-0.77484130859375;3.17999999197127;319;1 A;
20.9657319470666;-0.94970703125;-0.760498046875;3.18999999194602;320;1 A;
20.9757319470414;-0.95001220703125;-0.77392578125;3.19999999192078;321;1 A;
20.9857319470161;-0.94940185546875;-0.77728271484375;3.20999999189553;322;1 A;
20.9957319469909;-0.9490966796875;-0.77728271484375;3.21999999187028;323;1 A;
21.0057319469656;-0.95001220703125;-0.777587890625;3.22999999184503;324;1 A;
21.0157319469404;-0.94940185546875;-0.7611083984375;3.23999999181979;325;1 A;
21.0257319469151;-0.94940185546875;-0.7733154296875;3.24999999179454;326;1 A;
21.0357319468899;-0.9490966796875;-0.7659912109375;3.25999999176929;327;1 A;
21.0457319468646;-0.94970703125;-0.77301025390625;3.26999999174404;328;1 A;
21.0557319468394;-0.94970703125;-0.767822265625;3.2799999917188;329;1 A;
21.0657319468141;-0.94970703125;-0.76324462890625;3.28999999169355;330;1 A;
21.0757319467889;-0.94970703125;-0.7696533203125;3.2999999916683;331;1 A;
21.0857319467636;-0.94940185546875;-0.76385498046875;3.30999999164305;332;1 A;
21.0957319467384;-0.94940185546875;-0.775146484375;3.31999999161781;333;1 A;
21.1057319467131;-0.94970703125;-0.7666015625;3.32999999159256;334;1 A;
21.1157319466879;-0.94940185546875;-0.77301025390625;3.33999999156731;335;1 A;
21.1257319466627;-0.9490966796875;-0.7733154296875;3.34999999154206;336;1 A;
21.1357319466374;-0.94970703125;-0.7684326171875;3.35999999151682;337;1 A;
21.1457319466122;-0.94970703125;-0.77850341796875;3.36999999149157;338;1 A;
21.1557319465869;-0.94940185546875;-0.76263427734375;3.37999999146632;339;1 A;
21.1657319465617;-0.94970703125;-0.7720947265625;3.38999999144107;340;1 A;
21.1757319465364;-0.94940185546875;-0.767822265625;3.39999999141583;341;1 A;
21.1857319465112;-0.94940185546875;-0.76263427734375;3.40999999139058;342;1 A;
21.1957319464859;-0.94970703125;-0.76324462890625;3.41999999136533;343;1 A;
21.2057319464607;-0.94940185546875;-0.748291015625;3.42999999134008;344;1 A;
21.2157319464354;-0.95001220703125;-0.7611083984375;3.43999999131483;345;1 A;
21.2257319464102;-0.94940185546875;-0.7537841796875;3.44999999128959;346;1 A;
21.2357319463849;-0.95001220703125;-0.76171875;3.45999999126434;347;1 A;
21.2457319463597;-0.95001220703125;-0.76324462890625;3.46999999123909;348;1 A;
21.2557319463344;-0.94970703125;-0.7568359375;3.47999999121384;349;1 A;
21.2657319463092;-0.94940185546875;-0.7720947265625;3.4899999911886;350;1 A;
21.2757319462839;-0.95001220703125;-0.755615234375;3.49999999116335;351;1 A;
21.2857319462587;-0.94940185546875;-0.76141357421875;3.5099999911381;352;1 A;
21.2957319462334;-0.94970703125;-0.75469970703125;3.51999999111285;353;1 A;
21.3057319462082;-0.94970703125;-0.74951171875;3.52999999108761;354;1 A;
21.315731946183;-0.95001220703125;-0.760498046875;3.53999999106236;355;1 A;
21.3257319461577;-0.94970703125;-0.755615234375;3.54999999103711;356;1 A;
21.3357319461325;-0.94970703125;-0.772705078125;3.55999999101186;357;1 A;
21.3457319461072;-0.94940185546875;-0.7586669921875;3.56999999098662;358;1 A;
21.355731946082;-0.94940185546875;-0.76385498046875;3.57999999096137;359;1 A;
21.3657319460567;-0.94940185546875;-0.77056884765625;3.58999999093612;360;1 A;
21.3757319460315;-0.9503173828125;-0.75714111328125;3.59999999091087;361;1 A;
21.3857319460062;-0.95001220703125;-0.76873779296875;3.60999999088563;362;1 A;
21.395731945981;-0.94940185546875;-0.758056640625;3.61999999086038;363;1 A;
21.4057319459557;-0.94970703125;-0.7684326171875;3.62999999083513;364;1 A;
21.4157319459305;-0.94970703125;-0.7672119140625;3.63999999080988;365;1 A;
21.4257319459052;-0.94940185546875;-0.76019287109375;3.64999999078464;366;1 A;
21.43573194588;-0.94970703125;-0.77545166015625;3.65999999075939;367;1 A;
21.4457319458547;-0.94970703125;-0.76202392578125;3.66999999073414;368;1 A;
21.4557319458295;-0.94970703125;-0.7763671875;3.67999999070889;369;1 A;
21.4657319458042;-0.94940185546875;-0.77545166015625;3.68999999068365;370;1 A;
21.475731945779;-0.95001220703125;-0.7745361328125;3.6999999906584;371;1 A;
21.4857319457537;-0.94970703125;-0.7818603515625;3.70999999063315;372;1 A;
21.4957319457285;-0.9490966796875;-0.76995849609375;3.7199999906079;373;1 A;
21.5057319457032;-0.94940185546875;-0.7855224609375;3.72999999058266;374;1 A;
21.515731945678;-0.94970703125;-0.7745361328125;3.73999999055741;375;1 A;
21.5257319456528;-0.94970703125;-0.7806396484375;3.74999999053216;376;1 A;
21.5357319456275;-0.95001220703125;-0.777587890625;3.75999999050691;377;1 A;
21.5457319456023;-0.9503173828125;-0.77545166015625;3.76999999048167;378;1 A;
21.555731945577;-0.94940185546875;-0.784912109375;3.77999999045642;379;1 A;
21.5657319455518;-0.95001220703125;-0.77606201171875;3.78999999043117;380;1 A;
21.5757319455265;-0.9503173828125;-0.7879638671875;3.79999999040592;381;1 A;
21.5857319455013;-0.94940185546875;-0.78277587890625;3.80999999038067;382;1 A;
21.595731945476;-0.94970703125;-0.78094482421875;3.81999999035543;383;1 A;
21.6057319454508;-0.94940185546875;-0.7757568359375;3.82999999033018;384;1 A;
21.6157319454255;-0.94970703125;-0.7623291015625;3.83999999030493;385;1 A;
21.6257319454003;-0.94940185546875;-0.76904296875;3.84999999027968;386;1 A;
21.635731945375;-0.94940185546875;-0.76873779296875;3.85999999025444;387;1 A;
21.6457319453498;-0.9490966796875;-0.77301025390625;3.86999999022919;388;1 A;
21.6557319453245;-0.9490966796875;-0.76751708984375;3.87999999020394;389;1 A;
21.6657319452993;-0.94970703125;-0.7696533203125;3.88999999017869;390;1 A;
21.675731945274;-0.95001220703125;-0.7745361328125;3.89999999015345;391;1 A;
21.6857319452488;-0.94970703125;-0.7684326171875;3.9099999901282;392;1 A;
21.6957319452235;-0.94940185546875;-0.7757568359375;3.91999999010295;393;1 A;
21.7057319451983;-0.94970703125;-0.76568603515625;3.9299999900777;394;1 A;
21.715731945173;-0.9490966796875;-0.77178955078125;3.93999999005246;395;1 A;
21.7257319451478;-0.94940185546875;-0.77545166015625;3.94999999002721;396;1 A;
21.7357319451226;-0.94970703125;-0.77117919921875;3.95999999000196;397;1 A;
21.7457319450973;-0.94970703125;-0.78521728515625;3.96999998997671;398;1 A;
21.7557319450721;-0.95001220703125;-0.7830810546875;3.97999998995147;399;1 A;
21.7657319450468;-0.95001220703125;-0.79925537109375;3.98999998992622;400;1 A;
21.7757319450216;-0.94940185546875;-0.797119140625;3.99999998990097;401;1 A;
21.7857319449963;-0.94970703125;-0.787353515625;4.00999998987572;402;1 A;
21.7957319449711;-0.9503173828125;-0.78826904296875;4.01999998985048;403;1 A;
21.8057319449458;-0.95001220703125;-0.77117919921875;4.02999998982523;404;1 A;
21.8157319449206;-0.94970703125;-0.78033447265625;4.03999998979998;405;1 A;
21.8257319448953;-0.9490966796875;-0.76934814453125;4.04999998977473;406;1 A;
21.8357319448701;-0.94940185546875;-0.7696533203125;4.05999998974949;407;1 A;
21.8457319448448;-0.94970703125;-0.7806396484375;4.06999998972424;408;1 A;
21.8557319448196;-0.94970703125;-0.7763671875;4.07999998969899;409;1 A;
21.8657319447943;-0.94940185546875;-0.787353515625;4.08999998967374;410;1 A;
21.8757319447691;-0.94940185546875;-0.78643798828125;4.0999999896485;411;1 A;
21.8857319447438;-0.94940185546875;-0.79376220703125;4.10999998962325;412;1 A;
21.8957319447186;-0.94970703125;-0.78643798828125;4.119999989598;413;1 A;
21.9057319446933;-0.94940185546875;-0.7794189453125;4.12999998957275;414;1 A;
21.9157319446681;-0.94970703125;-0.777587890625;4.1399999895475;415;1 A;
21.9257319446428;-0.94970703125;-0.76568603515625;4.14999998952226;416;1 A;
21.9357319446176;-0.95001220703125;-0.7757568359375;4.15999998949701;417;1 A;
21.9457319445924;-0.94940185546875;-0.77178955078125;4.16999998947176;418;1 A;
21.9557319445671;-0.94940185546875;-0.7781982421875;4.17999998944651;419;1 A;
21.9657319445419;-0.94940185546875;-0.782470703125;4.18999998942127;420;1 A;
21.9757319445166;-0.94970703125;-0.78369140625;4.19999998939602;421;1 A;
21.9857319444914;-0.94970703125;-0.7952880859375;4.20999998937077;422;1 A;
21.9957319444661;-0.94970703125;-0.78460693359375;4.21999998934552;423;1 A;
22.0057319444409;-0.94970703125;-0.78460693359375;4.22999998932028;424;1 A;
22.0157319444156;-0.94970703125;-0.77880859375;4.23999998929503;425;1 A;
22.0257319443904;-0.94940185546875;-0.77880859375;4.24999998926978;426;1 A;
22.0357319443651;-0.9490966796875;-0.784912109375;4.25999998924453;427;1 A;
22.0457319443399;-0.94970703125;-0.77880859375;4.26999998921929;428;1 A;
22.0557319443146;-0.94940185546875;-0.7891845703125;4.27999998919404;429;1 A;
22.0657319442894;-0.95001220703125;-0.77972412109375;4.28999998916879;430;1 A;
22.0757319442641;-0.94940185546875;-0.77728271484375;4.29999998914354;431;1 A;
22.0857319442389;-0.94940185546875;-0.782470703125;4.3099999891183;432;1 A;
22.0957319442136;-0.94940185546875;-0.77667236328125;4.31999998909305;433;1 A;
22.1057319441884;-0.94940185546875;-0.78460693359375;4.3299999890678;434;1 A;
22.1157319441631;-0.94970703125;-0.77484130859375;4.33999998904255;435;1 A;
22.1257319441379;-0.94970703125;-0.7794189453125;4.34999998901731;436;1 A;
22.1357319441126;-0.94970703125;-0.77362060546875;4.35999998899206;437;1 A;
22.1457319440874;-0.95001220703125;-0.7647705078125;4.36999998896681;438;1 A;
22.1557319440622;-0.94970703125;-0.7806396484375;4.37999998894156;439;1 A;
22.1657319440369;-0.95001220703125;-0.7763671875;4.38999998891632;440;1 A;
22.1757319440117;-0.94970703125;-0.7891845703125;4.39999998889107;441;1 A;
22.1857319439864;-0.95001220703125;-0.78338623046875;4.40999998886582;442;1 A;
22.1957319439612;-0.94940185546875;-0.787353515625;4.41999998884057;443;1 A;
22.2057319439359;-0.94970703125;-0.784912109375;4.42999998881533;444;1 A;
22.2157319439107;-0.95001220703125;-0.775146484375;4.43999998879008;445;1 A;
22.2257319438854;-0.95001220703125;-0.789794921875;4.44999998876483;446;1 A;
22.2357319438602;-0.94940185546875;-0.772705078125;4.45999998873958;447;1 A;
22.2457319438349;-0.95001220703125;-0.77911376953125;4.46999998871433;448;1 A;
22.2557319438097;-0.95001220703125;-0.78521728515625;4.47999998868909;449;1 A;
22.2657319437844;-0.95001220703125;-0.7763671875;4.48999998866384;450;1 A;
22.2757319437592;-0.94940185546875;-0.7855224609375;4.49999998863859;451;1 A;
22.2857319437339;-0.95001220703125;-0.78033447265625;4.50999998861334;452;1 A;
22.2957319437087;-0.94970703125;-0.78948974609375;4.5199999885881;453;1 A;
22.3057319436834;-0.94940185546875;-0.777587890625;4.52999998856285;454;1 A;
22.3157319436582;-0.95001220703125;-0.77850341796875;4.5399999885376;455;1 A;
22.3257319436329;-0.94940185546875;-0.775146484375;4.54999998851235;456;1 A;
22.3357319436077;-0.94970703125;-0.77117919921875;4.55999998848711;457;1 A;
22.3457319435825;-0.94940185546875;-0.7879638671875;4.56999998846186;458;1 A;
22.3557319435572;-0.9490966796875;-0.7830810546875;4.57999998843661;459;1 A;
22.365731943532;-0.94970703125;-0.79620361328125;4.58999998841136;460;1 A;
22.3757319435067;-0.94970703125;-0.79376220703125;4.59999998838612;461;1 A;
22.3857319434815;-0.94970703125;-0.791015625;4.60999998836087;462;1 A;
22.3957319434562;-0.94940185546875;-0.799560546875;4.61999998833562;463;1 A;
22.405731943431;-0.94970703125;-0.7958984375;4.62999998831037;464;1 A;
22.4157319434057;-0.94970703125;-0.806884765625;4.63999998828513;465;1 A;
22.4257319433805;-0.94940185546875;-0.7952880859375;4.64999998825988;466;1 A;
22.4357319433552;-0.95001220703125;-0.7965087890625;4.65999998823463;467;1 A;
22.44573194333;-0.94970703125;-0.791015625;4.66999998820938;468;1 A;
22.4557319433047;-0.9503173828125;-0.77545166015625;4.67999998818414;469;1 A;
22.4657319432795;-0.9490966796875;-0.79132080078125;4.68999998815889;470;1 A;
22.4757319432542;-0.94970703125;-0.78460693359375;4.69999998813364;471;1 A;
22.485731943229;-0.95001220703125;-0.78216552734375;4.70999998810839;472;1 A;
22.4957319432037;-0.94970703125;-0.77362060546875;4.71999998808315;473;1 A;
22.5057319431785;-0.94970703125;-0.7757568359375;4.7299999880579;474;1 A;
22.5157319431532;-0.94970703125;-0.78582763671875;4.73999998803265;475;1 A;
22.525731943128;-0.9490966796875;-0.78369140625;4.7499999880074;476;1 A;
22.5357319431027;-0.94940185546875;-0.79071044921875;4.75999998798216;477;1 A;
22.5457319430775;-0.94940185546875;-0.78277587890625;4.76999998795691;478;1 A;
22.5557319430523;-0.94940185546875;-0.7843017578125;4.77999998793166;479;1 A;
22.565731943027;-0.94970703125;-0.78887939453125;4.78999998790641;480;1 A;
22.5757319430018;-0.94970703125;-0.78521728515625;4.79999998788116;481;1 A;
22.5857319429765;-0.94970703125;-0.79010009765625;4.80999998785592;482;1 A;
22.5957319429513;-0.94940185546875;-0.78094482421875;4.81999998783067;483;1 A;
22.605731942926;-0.94940185546875;-0.79193115234375;4.82999998780542;484;1 A;
22.6157319429008;-0.94970703125;-0.789794921875;4.83999998778017;485;1 A;
22.6257319428755;-0.94970703125;-0.7891845703125;4.84999998775493;486;1 A;
22.6357319428503;-0.94970703125;-0.7928466796875;4.85999998772968;487;1 A;
22.645731942825;-0.94940185546875;-0.78216552734375;4.86999998770443;488;1 A;
22.6557319427998;-0.94970703125;-0.79376220703125;4.87999998767918;489;1 A;
22.6657319427745;-0.94970703125;-0.7867431640625;4.88999998765394;490;1 A;
22.6757319427493;-0.94940185546875;-0.78216552734375;4.89999998762869;491;1 A;
22.685731942724;-0.94940185546875;-0.7763671875;4.90999998760344;492;1 A;
22.6957319426988;-0.94970703125;-0.7666015625;4.91999998757819;493;1 A;
22.7057319426735;-0.94940185546875;-0.7781982421875;4.92999998755295;494;1 A;
22.7157319426483;-0.95001220703125;-0.777587890625;4.9399999875277;495;1 A;
22.725731942623;-0.9490966796875;-0.79498291015625;4.94999998750245;496;1 A;
22.7357319425978;-0.95001220703125;-0.792236328125;4.9599999874772;497;1 A;
22.7457319425725;-0.95001220703125;-0.78521728515625;4.96999998745196;498;1 A;
22.7557319425473;-0.94970703125;-0.79345703125;4.97999998742671;499;1 A;
22.7657319425221;-0.94940185546875;-0.7818603515625;4.98999998740146;500;1 A;
