Time (s);WE(1).Potential (V);WE(1).Current (A);Corrected time (s);Index;Current range;Overload
38.6549569024056;-0.91552734375;-2.34100341796875;0;1;1 A;Current overload
38.6649569023804;-0.98907470703125;-1.87530517578125;0.00999999997475243;2;1 A;
38.6749569023551;-1.0003662109375;-1.42974853515625;0.0199999999495049;3;1 A;
38.6849569023299;-1.0003662109375;-1.22711181640625;0.0299999999242573;4;1 A;
38.6949569023046;-0.999755859375;-1.11297607421875;0.0399999998990097;5;1 A;
38.7049569022794;-1.00006103515625;-1.02325439453125;0.0499999998737621;6;1 A;
38.7149569022541;-1.00006103515625;-0.9747314453125;0.0599999998485146;7;1 A;
38.7249569022289;-1.0003662109375;-0.924072265625;0.069999999823267;8;1 A;
38.7349569022036;-0.999755859375;-0.8978271484375;0.0799999997980194;9;1 A;
38.7449569021784;-0.99945068359375;-0.88043212890625;0.0899999997727718;10;1 A;
38.7549569021531;-0.99945068359375;-0.850830078125;0.0999999997475243;11;1 A;
38.7649569021279;-0.99945068359375;-0.85235595703125;0.109999999722277;12;1 A;
38.7749569021026;-0.99945068359375;-0.83740234375;0.119999999697029;13;1 A;
38.7849569020774;-1.00006103515625;-0.82977294921875;0.129999999671782;14;1 A;
38.7949569020521;-0.99945068359375;-0.819091796875;0.139999999646534;15;1 A;
38.8049569020269;-0.99945068359375;-0.80596923828125;0.149999999621286;16;1 A;
38.8149569020017;-0.99945068359375;-0.814208984375;0.159999999596039;17;1 A;
38.8249569019764;-0.999755859375;-0.8050537109375;0.169999999570791;18;1 A;
38.8349569019512;-0.99945068359375;-0.80718994140625;0.179999999545544;19;1 A;
38.8449569019259;-0.999755859375;-0.79986572265625;0.189999999520296;20;1 A;
38.8549569019007;-0.99945068359375;-0.79864501953125;0.199999999495049;21;1 A;
38.8649569018754;-0.999755859375;-0.80657958984375;0.209999999469801;22;1 A;
38.8749569018502;-0.99945068359375;-0.787353515625;0.219999999444553;23;1 A;
38.8849569018249;-1.00006103515625;-0.8001708984375;0.229999999419306;24;1 A;
38.8949569017997;-0.999755859375;-0.7965087890625;0.239999999394058;25;1 A;
38.9049569017744;-0.99945068359375;-0.7879638671875;0.249999999368811;26;1 A;
38.9149569017492;-0.99945068359375;-0.79986572265625;0.259999999343563;27;1 A;
38.9249569017239;-1.00006103515625;-0.792236328125;0.269999999318316;28;1 A;
38.9349569016987;-0.99945068359375;-0.80718994140625;0.279999999293068;29;1 A;
38.9449569016734;-0.999755859375;-0.78948974609375;0.28999999926782;30;1 A;
38.9549569016482;-0.99945068359375;-0.7830810546875;0.299999999242573;31;1 A;
38.9649569016229;-0.99945068359375;-0.78704833984375;0.309999999217325;32;1 A;
38.9749569015977;-0.999755859375;-0.7794189453125;0.319999999192078;33;1 A;
38.9849569015724;-0.999755859375;-0.784912109375;0.32999999916683;34;1 A;
38.9949569015472;-0.999755859375;-0.77606201171875;0.339999999141583;35;1 A;
39.004956901522;-0.99945068359375;-0.79132080078125;0.349999999116335;36;1 A;
39.0149569014967;-0.999755859375;-0.78582763671875;0.359999999091087;37;1 A;
39.0249569014715;-0.99945068359375;-0.78460693359375;0.36999999906584;38;1 A;
39.0349569014462;-0.999755859375;-0.79345703125;0.379999999040592;39;1 A;
39.044956901421;-1.00006103515625;-0.78338623046875;0.389999999015345;40;1 A;
39.0549569013957;-0.99945068359375;-0.79864501953125;0.399999998990097;41;1 A;
39.0649569013705;-0.999755859375;-0.78826904296875;0.40999999896485;42;1 A;
39.0749569013452;-1.00006103515625;-0.79132080078125;0.419999998939602;43;1 A;
39.08495690132;-0.999755859375;-0.8050537109375;0.429999998914354;44;1 A;
39.0949569012947;-0.999755859375;-0.79071044921875;0.439999998889107;45;1 A;
39.1049569012695;-0.999755859375;-0.80291748046875;0.449999998863859;46;1 A;
39.1149569012442;-0.999755859375;-0.79193115234375;0.459999998838612;47;1 A;
39.124956901219;-0.9991455078125;-0.8026123046875;0.469999998813364;48;1 A;
39.1349569011937;-0.9991455078125;-0.799560546875;0.479999998788116;49;1 A;
39.1449569011685;-0.99945068359375;-0.78857421875;0.489999998762869;50;1 A;
39.1549569011432;-1.00006103515625;-0.797119140625;0.499999998737621;51;1 A;
39.164956901118;-0.9991455078125;-0.775146484375;0.509999998712374;52;1 A;
39.1749569010927;-1.00006103515625;-0.79864501953125;0.519999998687126;53;1 A;
39.1849569010675;-0.999755859375;-0.80657958984375;0.529999998661879;54;1 A;
39.1949569010422;-0.999755859375;-0.8148193359375;0.539999998636631;55;1 A;
39.204956901017;-1.00006103515625;-0.809326171875;0.549999998611383;56;1 A;
39.2149569009918;-1.00006103515625;-0.7916259765625;0.559999998586136;57;1 A;
39.2249569009665;-0.999755859375;-0.80657958984375;0.569999998560888;58;1 A;
39.2349569009413;-1.00006103515625;-0.7977294921875;0.579999998535641;59;1 A;
39.244956900916;-1.00006103515625;-0.81512451171875;0.589999998510393;60;1 A;
39.2549569008908;-0.99945068359375;-0.809326171875;0.599999998485146;61;1 A;
39.2649569008655;-0.9991455078125;-0.7977294921875;0.609999998459898;62;1 A;
39.2749569008403;-0.999755859375;-0.80413818359375;0.61999999843465;63;1 A;
39.284956900815;-1.00067138671875;-0.79071044921875;0.629999998409403;64;1 A;
39.2949569007898;-0.99945068359375;-0.80902099609375;0.639999998384155;65;1 A;
39.3049569007645;-1.00006103515625;-0.8050537109375;0.649999998358908;66;1 A;
39.3149569007393;-0.999755859375;-0.80047607421875;0.65999999833366;67;1 A;
39.324956900714;-0.999755859375;-0.78582763671875;0.669999998308413;68;1 A;
39.3349569006888;-0.99945068359375;-0.78369140625;0.679999998283165;69;1 A;
39.3449569006635;-1.00006103515625;-0.797119140625;0.689999998257917;70;1 A;
39.3549569006383;-1.0003662109375;-0.80108642578125;0.69999999823267;71;1 A;
39.364956900613;-1.00006103515625;-0.81207275390625;0.709999998207422;72;1 A;
39.3749569005878;-1.00006103515625;-0.79559326171875;0.719999998182175;73;1 A;
39.3849569005625;-0.99945068359375;-0.789794921875;0.729999998156927;74;1 A;
39.3949569005373;-0.999755859375;-0.7879638671875;0.73999999813168;75;1 A;
39.404956900512;-1.00006103515625;-0.78033447265625;0.749999998106432;76;1 A;
39.4149569004868;-0.99945068359375;-0.7904052734375;0.759999998081184;77;1 A;
39.4249569004616;-0.999755859375;-0.77239990234375;0.769999998055937;78;1 A;
39.4349569004363;-0.9991455078125;-0.7781982421875;0.779999998030689;79;1 A;
39.4449569004111;-0.999755859375;-0.782470703125;0.789999998005442;80;1 A;
39.4549569003858;-1.0003662109375;-0.77850341796875;0.799999997980194;81;1 A;
39.4649569003606;-0.99945068359375;-0.792236328125;0.809999997954947;82;1 A;
39.4749569003353;-1.00006103515625;-0.78338623046875;0.819999997929699;83;1 A;
39.4849569003101;-0.999755859375;-0.80047607421875;0.829999997904451;84;1 A;
39.4949569002848;-0.99945068359375;-0.80413818359375;0.839999997879204;85;1 A;
39.5049569002596;-1.00006103515625;-0.79803466796875;0.849999997853956;86;1 A;
39.5149569002343;-0.999755859375;-0.804443359375;0.859999997828709;87;1 A;
39.5249569002091;-0.99945068359375;-0.792236328125;0.869999997803461;88;1 A;
39.5349569001838;-1.00006103515625;-0.806884765625;0.879999997778214;89;1 A;
39.5449569001586;-0.999755859375;-0.787353515625;0.889999997752966;90;1 A;
39.5549569001333;-1.0003662109375;-0.784912109375;0.899999997727718;91;1 A;
39.5649569001081;-0.99945068359375;-0.7733154296875;0.909999997702471;92;1 A;
39.5749569000828;-0.99945068359375;-0.76507568359375;0.919999997677223;93;1 A;
39.5849569000576;-0.999755859375;-0.78826904296875;0.929999997651976;94;1 A;
39.5949569000323;-0.999755859375;-0.79254150390625;0.939999997626728;95;1 A;
39.6049569000071;-1.00006103515625;-0.802001953125;0.949999997601481;96;1 A;
39.6149568999818;-0.999755859375;-0.792236328125;0.959999997576233;97;1 A;
39.6249568999566;-0.999755859375;-0.79010009765625;0.969999997550985;98;1 A;
39.6349568999314;-0.999755859375;-0.80047607421875;0.979999997525738;99;1 A;
39.6449568999061;-0.999755859375;-0.78521728515625;0.98999999750049;100;1 A;
39.6549568998809;-1.00006103515625;-0.7940673828125;0.999999997475243;101;1 A;
39.6649568998556;-0.999755859375;-0.78521728515625;1.00999999745;102;1 A;
39.6749568998304;-0.99945068359375;-0.79071044921875;1.01999999742475;103;1 A;
39.6849568998051;-0.999755859375;-0.7952880859375;1.0299999973995;104;1 A;
39.6949568997799;-0.99945068359375;-0.78643798828125;1.03999999737425;105;1 A;
39.7049568997546;-1.00006103515625;-0.8001708984375;1.049999997349;106;1 A;
39.7149568997294;-1.00006103515625;-0.7855224609375;1.05999999732376;107;1 A;
39.7249568997041;-0.999755859375;-0.794677734375;1.06999999729851;108;1 A;
39.7349568996789;-0.999755859375;-0.79437255859375;1.07999999727326;109;1 A;
39.7449568996536;-0.99945068359375;-0.79803466796875;1.08999999724801;110;1 A;
39.7549568996284;-0.999755859375;-0.80047607421875;1.09999999722277;111;1 A;
39.7649568996031;-1.00006103515625;-0.77850341796875;1.10999999719752;112;1 A;
39.7749568995779;-0.99945068359375;-0.79315185546875;1.11999999717227;113;1 A;
39.7849568995526;-0.999755859375;-0.78857421875;1.12999999714702;114;1 A;
39.7949568995274;-1.00006103515625;-0.7928466796875;1.13999999712178;115;1 A;
39.8049568995021;-0.999755859375;-0.7977294921875;1.14999999709653;116;1 A;
39.8149568994769;-0.99945068359375;-0.78277587890625;1.15999999707128;117;1 A;
39.8249568994516;-0.99945068359375;-0.802001953125;1.16999999704603;118;1 A;
39.8349568994264;-1.00006103515625;-0.789794921875;1.17999999702079;119;1 A;
39.8449568994012;-0.999755859375;-0.8038330078125;1.18999999699554;120;1 A;
39.8549568993759;-0.99945068359375;-0.8087158203125;1.19999999697029;121;1 A;
39.8649568993507;-0.99945068359375;-0.8026123046875;1.20999999694504;122;1 A;
39.8749568993254;-0.999755859375;-0.806884765625;1.2199999969198;123;1 A;
39.8849568993002;-0.99945068359375;-0.794677734375;1.22999999689455;124;1 A;
39.8949568992749;-0.99945068359375;-0.8184814453125;1.2399999968693;125;1 A;
39.9049568992497;-0.9991455078125;-0.80596923828125;1.24999999684405;126;1 A;
39.9149568992244;-0.99945068359375;-0.80413818359375;1.25999999681881;127;1 A;
39.9249568991992;-0.999755859375;-0.79437255859375;1.26999999679356;128;1 A;
39.9349568991739;-0.99945068359375;-0.78155517578125;1.27999999676831;129;1 A;
39.9449568991487;-0.999755859375;-0.7879638671875;1.28999999674306;130;1 A;
39.9549568991234;-0.99945068359375;-0.7861328125;1.29999999671782;131;1 A;
39.9649568990982;-0.99945068359375;-0.8050537109375;1.30999999669257;132;1 A;
39.9749568990729;-0.999755859375;-0.8056640625;1.31999999666732;133;1 A;
39.9849568990477;-0.99945068359375;-0.8123779296875;1.32999999664207;134;1 A;
39.9949568990224;-1.00006103515625;-0.80657958984375;1.33999999661683;135;1 A;
40.0049568989972;-0.99945068359375;-0.79925537109375;1.34999999659158;136;1 A;
40.0149568989719;-0.99945068359375;-0.80169677734375;1.35999999656633;137;1 A;
40.0249568989467;-0.999755859375;-0.78948974609375;1.36999999654108;138;1 A;
40.0349568989215;-0.999755859375;-0.79742431640625;1.37999999651583;139;1 A;
40.0449568988962;-0.999755859375;-0.8013916015625;1.38999999649059;140;1 A;
40.054956898871;-0.999755859375;-0.8062744140625;1.39999999646534;141;1 A;
40.0649568988457;-1.00006103515625;-0.8184814453125;1.40999999644009;142;1 A;
40.0749568988205;-1.00006103515625;-0.80352783203125;1.41999999641484;143;1 A;
40.0849568987952;-1.0003662109375;-0.79620361328125;1.4299999963896;144;1 A;
40.09495689877;-0.999755859375;-0.79010009765625;1.43999999636435;145;1 A;
40.1049568987447;-1.0003662109375;-0.78948974609375;1.4499999963391;146;1 A;
40.1149568987195;-0.999755859375;-0.79345703125;1.45999999631385;147;1 A;
40.1249568986942;-0.99945068359375;-0.7940673828125;1.46999999628861;148;1 A;
40.134956898669;-0.999755859375;-0.80047607421875;1.47999999626336;149;1 A;
40.1449568986437;-0.99945068359375;-0.79376220703125;1.48999999623811;150;1 A;
40.1549568986185;-0.999755859375;-0.80047607421875;1.49999999621286;151;1 A;
40.1649568985932;-0.99945068359375;-0.80047607421875;1.50999999618762;152;1 A;
40.174956898568;-0.9991455078125;-0.79437255859375;1.51999999616237;153;1 A;
40.1849568985427;-0.99945068359375;-0.80596923828125;1.52999999613712;154;1 A;
40.1949568985175;-1.00006103515625;-0.7965087890625;1.53999999611187;155;1 A;
40.2049568984922;-1.00006103515625;-0.80108642578125;1.54999999608663;156;1 A;
40.214956898467;-0.999755859375;-0.79559326171875;1.55999999606138;157;1 A;
40.2249568984417;-1.0003662109375;-0.79345703125;1.56999999603613;158;1 A;
40.2349568984165;-0.9991455078125;-0.7958984375;1.57999999601088;159;1 A;
40.2449568983913;-0.999755859375;-0.79437255859375;1.58999999598564;160;1 A;
40.254956898366;-0.99945068359375;-0.79925537109375;1.59999999596039;161;1 A;
40.2649568983408;-1.00006103515625;-0.79132080078125;1.60999999593514;162;1 A;
40.2749568983155;-1.00006103515625;-0.79803466796875;1.61999999590989;163;1 A;
40.2849568982903;-1.00006103515625;-0.79498291015625;1.62999999588465;164;1 A;
40.294956898265;-1.00006103515625;-0.78826904296875;1.6399999958594;165;1 A;
40.3049568982398;-0.999755859375;-0.8001708984375;1.64999999583415;166;1 A;
40.3149568982145;-0.999755859375;-0.7904052734375;1.6599999958089;167;1 A;
40.3249568981893;-0.999755859375;-0.8087158203125;1.66999999578366;168;1 A;
40.334956898164;-0.999755859375;-0.81329345703125;1.67999999575841;169;1 A;
40.3449568981388;-0.99945068359375;-0.81268310546875;1.68999999573316;170;1 A;
40.3549568981135;-0.999755859375;-0.8197021484375;1.69999999570791;171;1 A;
40.3649568980883;-0.999755859375;-0.80352783203125;1.70999999568267;172;1 A;
40.374956898063;-0.99945068359375;-0.81329345703125;1.71999999565742;173;1 A;
40.3849568980378;-0.999755859375;-0.80078125;1.72999999563217;174;1 A;
40.3949568980125;-1.00006103515625;-0.80657958984375;1.73999999560692;175;1 A;
40.4049568979873;-0.99945068359375;-0.804443359375;1.74999999558167;176;1 A;
40.414956897962;-0.999755859375;-0.79254150390625;1.75999999555643;177;1 A;
40.4249568979368;-0.99945068359375;-0.79986572265625;1.76999999553118;178;1 A;
40.4349568979115;-1.00006103515625;-0.7904052734375;1.77999999550593;179;1 A;
40.4449568978863;-1.00006103515625;-0.80413818359375;1.78999999548068;180;1 A;
40.4549568978611;-0.999755859375;-0.8062744140625;1.79999999545544;181;1 A;
40.4649568978358;-0.99945068359375;-0.81146240234375;1.80999999543019;182;1 A;
40.4749568978106;-0.99945068359375;-0.8172607421875;1.81999999540494;183;1 A;
40.4849568977853;-0.999755859375;-0.8123779296875;1.82999999537969;184;1 A;
40.4949568977601;-0.999755859375;-0.814208984375;1.83999999535445;185;1 A;
40.5049568977348;-0.99945068359375;-0.79498291015625;1.8499999953292;186;1 A;
40.5149568977096;-1.00006103515625;-0.79376220703125;1.85999999530395;187;1 A;
40.5249568976843;-0.99945068359375;-0.799560546875;1.8699999952787;188;1 A;
40.5349568976591;-1.00006103515625;-0.80902099609375;1.87999999525346;189;1 A;
40.5449568976338;-1.00006103515625;-0.8203125;1.88999999522821;190;1 A;
40.5549568976086;-1.00006103515625;-0.80352783203125;1.89999999520296;191;1 A;
40.5649568975833;-1.00006103515625;-0.81573486328125;1.90999999517771;192;1 A;
40.5749568975581;-0.999755859375;-0.80780029296875;1.91999999515247;193;1 A;
40.5849568975328;-0.999755859375;-0.80230712890625;1.92999999512722;194;1 A;
40.5949568975076;-0.999755859375;-0.80657958984375;1.93999999510197;195;1 A;
40.6049568974823;-0.999755859375;-0.79559326171875;1.94999999507672;196;1 A;
40.6149568974571;-0.99945068359375;-0.79833984375;1.95999999505148;197;1 A;
40.6249568974318;-0.999755859375;-0.7806396484375;1.96999999502623;198;1 A;
40.6349568974066;-0.9991455078125;-0.78643798828125;1.97999999500098;199;1 A;
40.6449568973813;-0.999755859375;-0.79010009765625;1.98999999497573;200;1 A;
40.6549568973561;-0.99945068359375;-0.78460693359375;1.99999999495049;201;1 A;
40.6649568973309;-0.99945068359375;-0.79742431640625;2.00999999492524;202;1 A;
40.6749568973056;-0.9991455078125;-0.79132080078125;2.01999999489999;203;1 A;
40.6849568972804;-0.999755859375;-0.80657958984375;2.02999999487474;204;1 A;
40.6949568972551;-0.999755859375;-0.80230712890625;2.0399999948495;205;1 A;
40.7049568972299;-0.999755859375;-0.7989501953125;2.04999999482425;206;1 A;
40.7149568972046;-1.00006103515625;-0.81939697265625;2.059999994799;207;1 A;
40.7249568971794;-0.99945068359375;-0.80322265625;2.06999999477375;208;1 A;
40.7349568971541;-0.999755859375;-0.80413818359375;2.0799999947485;209;1 A;
40.7449568971289;-0.999755859375;-0.7928466796875;2.08999999472326;210;1 A;
40.7549568971036;-0.99945068359375;-0.80352783203125;2.09999999469801;211;1 A;
40.7649568970784;-0.9991455078125;-0.80780029296875;2.10999999467276;212;1 A;
40.7749568970531;-1.00006103515625;-0.7958984375;2.11999999464751;213;1 A;
40.7849568970279;-1.00006103515625;-0.80352783203125;2.12999999462227;214;1 A;
40.7949568970026;-0.999755859375;-0.7891845703125;2.13999999459702;215;1 A;
40.8049568969774;-1.00006103515625;-0.79742431640625;2.14999999457177;216;1 A;
40.8149568969521;-0.999755859375;-0.78826904296875;2.15999999454652;217;1 A;
40.8249568969269;-1.00006103515625;-0.791015625;2.16999999452128;218;1 A;
40.8349568969016;-0.999755859375;-0.79193115234375;2.17999999449603;219;1 A;
40.8449568968764;-1.00006103515625;-0.7830810546875;2.18999999447078;220;1 A;
40.8549568968511;-0.999755859375;-0.7843017578125;2.19999999444553;221;1 A;
40.8649568968259;-1.00006103515625;-0.7843017578125;2.20999999442029;222;1 A;
40.8749568968007;-0.99945068359375;-0.79376220703125;2.21999999439504;223;1 A;
40.8849568967754;-0.999755859375;-0.78887939453125;2.22999999436979;224;1 A;
40.8949568967502;-0.99945068359375;-0.7928466796875;2.23999999434454;225;1 A;
40.9049568967249;-0.99945068359375;-0.80291748046875;2.2499999943193;226;1 A;
40.9149568966997;-0.9991455078125;-0.7928466796875;2.25999999429405;227;1 A;
40.9249568966744;-0.999755859375;-0.80108642578125;2.2699999942688;228;1 A;
40.9349568966492;-0.999755859375;-0.79559326171875;2.27999999424355;229;1 A;
40.9449568966239;-0.999755859375;-0.80047607421875;2.28999999421831;230;1 A;
40.9549568965987;-0.999755859375;-0.81329345703125;2.29999999419306;231;1 A;
40.9649568965734;-0.999755859375;-0.81329345703125;2.30999999416781;232;1 A;
40.9749568965482;-0.99945068359375;-0.82275390625;2.31999999414256;233;1 A;
40.9849568965229;-0.999755859375;-0.80810546875;2.32999999411732;234;1 A;
40.9949568964977;-0.999755859375;-0.81146240234375;2.33999999409207;235;1 A;
41.0049568964724;-1.00006103515625;-0.802001953125;2.34999999406682;236;1 A;
41.0149568964472;-0.999755859375;-0.789794921875;2.35999999404157;237;1 A;
41.0249568964219;-0.999755859375;-0.80841064453125;2.36999999401633;238;1 A;
41.0349568963967;-1.0003662109375;-0.79833984375;2.37999999399108;239;1 A;
41.0449568963714;-0.999755859375;-0.80810546875;2.38999999396583;240;1 A;
41.0549568963462;-0.999755859375;-0.7989501953125;2.39999999394058;241;1 A;
41.064956896321;-1.00006103515625;-0.80718994140625;2.40999999391533;242;1 A;
41.0749568962957;-1.00006103515625;-0.81512451171875;2.41999999389009;243;1 A;
41.0849568962705;-0.99945068359375;-0.799560546875;2.42999999386484;244;1 A;
41.0949568962452;-0.99945068359375;-0.80780029296875;2.43999999383959;245;1 A;
41.10495689622;-1.00006103515625;-0.7989501953125;2.44999999381434;246;1 A;
41.1149568961947;-0.999755859375;-0.80780029296875;2.4599999937891;247;1 A;
41.1249568961695;-0.99945068359375;-0.8013916015625;2.46999999376385;248;1 A;
41.1349568961442;-0.999755859375;-0.79254150390625;2.4799999937386;249;1 A;
41.144956896119;-0.99945068359375;-0.79986572265625;2.48999999371335;250;1 A;
41.1549568960937;-1.00006103515625;-0.7952880859375;2.49999999368811;251;1 A;
41.1649568960685;-0.999755859375;-0.80780029296875;2.50999999366286;252;1 A;
41.1749568960432;-0.999755859375;-0.80657958984375;2.51999999363761;253;1 A;
41.184956896018;-0.99945068359375;-0.8111572265625;2.52999999361236;254;1 A;
41.1949568959927;-0.99945068359375;-0.81268310546875;2.53999999358712;255;1 A;
41.2049568959675;-0.999755859375;-0.80322265625;2.54999999356187;256;1 A;
41.2149568959422;-0.99945068359375;-0.8135986328125;2.55999999353662;257;1 A;
41.224956895917;-0.999755859375;-0.80535888671875;2.56999999351137;258;1 A;
41.2349568958917;-1.00006103515625;-0.82244873046875;2.57999999348613;259;1 A;
41.2449568958665;-0.99945068359375;-0.83038330078125;2.58999999346088;260;1 A;
41.2549568958412;-1.00006103515625;-0.8245849609375;2.59999999343563;261;1 A;
41.264956895816;-0.999755859375;-0.8331298828125;2.60999999341038;262;1 A;
41.2749568957908;-0.99945068359375;-0.8233642578125;2.61999999338514;263;1 A;
41.2849568957655;-0.999755859375;-0.82916259765625;2.62999999335989;264;1 A;
41.2949568957403;-1.00006103515625;-0.8154296875;2.63999999333464;265;1 A;
41.304956895715;-0.999755859375;-0.8154296875;2.64999999330939;266;1 A;
41.3149568956898;-0.99945068359375;-0.82000732421875;2.65999999328415;267;1 A;
41.3249568956645;-0.9991455078125;-0.8184814453125;2.6699999932589;268;1 A;
41.3349568956393;-0.99945068359375;-0.82916259765625;2.67999999323365;269;1 A;
41.344956895614;-0.99945068359375;-0.8184814453125;2.6899999932084;270;1 A;
41.3549568955888;-0.999755859375;-0.8282470703125;2.69999999318316;271;1 A;
41.3649568955635;-0.99945068359375;-0.82550048828125;2.70999999315791;272;1 A;
41.3749568955383;-0.9991455078125;-0.82427978515625;2.71999999313266;273;1 A;
41.384956895513;-0.99945068359375;-0.8203125;2.72999999310741;274;1 A;
41.3949568954878;-1.00006103515625;-0.8111572265625;2.73999999308217;275;1 A;
41.4049568954625;-0.999755859375;-0.8154296875;2.74999999305692;276;1 A;
41.4149568954373;-1.0003662109375;-0.80291748046875;2.75999999303167;277;1 A;
41.424956895412;-0.999755859375;-0.80535888671875;2.76999999300642;278;1 A;
41.4349568953868;-0.999755859375;-0.80413818359375;2.77999999298117;279;1 A;
41.4449568953615;-0.999755859375;-0.7989501953125;2.78999999295593;280;1 A;
41.4549568953363;-0.999755859375;-0.811767578125;2.79999999293068;281;1 A;
41.464956895311;-0.999755859375;-0.8160400390625;2.80999999290543;282;1 A;
41.4749568952858;-1.00006103515625;-0.836181640625;2.81999999288018;283;1 A;
41.4849568952606;-0.99945068359375;-0.82794189453125;2.82999999285494;284;1 A;
41.4949568952353;-1.00067138671875;-0.819091796875;2.83999999282969;285;1 A;
41.5049568952101;-1.00006103515625;-0.82061767578125;2.84999999280444;286;1 A;
41.5149568951848;-1.00006103515625;-0.81573486328125;2.85999999277919;287;1 A;
41.5249568951596;-0.999755859375;-0.82977294921875;2.86999999275395;288;1 A;
41.5349568951343;-0.99945068359375;-0.82916259765625;2.8799999927287;289;1 A;
41.5449568951091;-1.00006103515625;-0.83709716796875;2.88999999270345;290;1 A;
41.5549568950838;-0.999755859375;-0.8251953125;2.8999999926782;291;1 A;
41.5649568950586;-1.00006103515625;-0.81634521484375;2.90999999265296;292;1 A;
41.5749568950333;-1.00006103515625;-0.8111572265625;2.91999999262771;293;1 A;
41.5849568950081;-1.0003662109375;-0.799560546875;2.92999999260246;294;1 A;
41.5949568949828;-1.00006103515625;-0.8160400390625;2.93999999257721;295;1 A;
41.6049568949576;-0.999755859375;-0.81207275390625;2.94999999255197;296;1 A;
41.6149568949323;-1.00006103515625;-0.814208984375;2.95999999252672;297;1 A;
41.6249568949071;-0.999755859375;-0.8233642578125;2.96999999250147;298;1 A;
41.6349568948818;-1.00006103515625;-0.8062744140625;2.97999999247622;299;1 A;
41.6449568948566;-0.999755859375;-0.810546875;2.98999999245098;300;1 A;
41.6549568948313;-0.999755859375;-0.8062744140625;2.99999999242573;301;1 A;
41.6649568948061;-0.999755859375;-0.8221435546875;3.00999999240048;302;1 A;
41.6749568947808;-0.999755859375;-0.8355712890625;3.01999999237523;303;1 A;
41.6849568947556;-0.99945068359375;-0.83160400390625;3.02999999234999;304;1 A;
41.6949568947304;-1.00006103515625;-0.84259033203125;3.03999999232474;305;1 A;
41.7049568947051;-0.99945068359375;-0.8331298828125;3.04999999229949;306;1 A;
41.7149568946799;-0.999755859375;-0.84014892578125;3.05999999227424;307;1 A;
41.7249568946546;-0.999755859375;-0.8319091796875;3.069999992249;308;1 A;
41.7349568946294;-0.999755859375;-0.8258056640625;3.07999999222375;309;1 A;
41.7449568946041;-0.99945068359375;-0.82763671875;3.0899999921985;310;1 A;
41.7549568945789;-0.99945068359375;-0.8123779296875;3.09999999217325;311;1 A;
41.7649568945536;-0.99945068359375;-0.82305908203125;3.109999992148;312;1 A;
41.7749568945284;-0.999755859375;-0.81512451171875;3.11999999212276;313;1 A;
41.7849568945031;-0.999755859375;-0.821533203125;3.12999999209751;314;1 A;
41.7949568944779;-0.99945068359375;-0.821533203125;3.13999999207226;315;1 A;
41.8049568944526;-1.00006103515625;-0.819091796875;3.14999999204701;316;1 A;
41.8149568944274;-0.999755859375;-0.82672119140625;3.15999999202177;317;1 A;
41.8249568944021;-0.99945068359375;-0.80902099609375;3.16999999199652;318;1 A;
41.8349568943769;-1.00006103515625;-0.81573486328125;3.17999999197127;319;1 A;
41.8449568943516;-0.999755859375;-0.81146240234375;3.18999999194602;320;1 A;
41.8549568943264;-0.99945068359375;-0.81329345703125;3.19999999192078;321;1 A;
41.8649568943011;-1.00006103515625;-0.81451416015625;3.20999999189553;322;1 A;
41.8749568942759;-0.999755859375;-0.80230712890625;3.21999999187028;323;1 A;
41.8849568942506;-1.0003662109375;-0.81390380859375;3.22999999184503;324;1 A;
41.8949568942254;-0.999755859375;-0.80657958984375;3.23999999181979;325;1 A;
41.9049568942002;-0.999755859375;-0.8087158203125;3.24999999179454;326;1 A;
41.9149568941749;-0.999755859375;-0.8221435546875;3.25999999176929;327;1 A;
41.9249568941497;-0.99945068359375;-0.81634521484375;3.26999999174404;328;1 A;
41.9349568941244;-0.99945068359375;-0.83221435546875;3.2799999917188;329;1 A;
41.9449568940992;-0.999755859375;-0.82000732421875;3.28999999169355;330;1 A;
41.9549568940739;-0.999755859375;-0.8233642578125;3.2999999916683;331;1 A;
41.9649568940487;-0.999755859375;-0.81878662109375;3.30999999164305;332;1 A;
41.9749568940234;-1.00006103515625;-0.810546875;3.31999999161781;333;1 A;
41.9849568939982;-0.99945068359375;-0.81634521484375;3.32999999159256;334;1 A;
41.9949568939729;-0.99945068359375;-0.81024169921875;3.33999999156731;335;1 A;
42.0049568939477;-0.999755859375;-0.82733154296875;3.34999999154206;336;1 A;
42.0149568939224;-1.00006103515625;-0.82672119140625;3.35999999151682;337;1 A;
42.0249568938972;-0.999755859375;-0.83160400390625;3.36999999149157;338;1 A;
42.0349568938719;-1.00006103515625;-0.83160400390625;3.37999999146632;339;1 A;
42.0449568938467;-0.99945068359375;-0.82733154296875;3.38999999144107;340;1 A;
42.0549568938214;-0.999755859375;-0.8331298828125;3.39999999141583;341;1 A;
42.0649568937962;-0.99945068359375;-0.8245849609375;3.40999999139058;342;1 A;
42.0749568937709;-0.99945068359375;-0.8331298828125;3.41999999136533;343;1 A;
42.0849568937457;-1.00006103515625;-0.82672119140625;3.42999999134008;344;1 A;
42.0949568937205;-0.99945068359375;-0.82244873046875;3.43999999131483;345;1 A;
42.1049568936952;-0.99945068359375;-0.8319091796875;3.44999999128959;346;1 A;
42.11495689367;-1.00006103515625;-0.82427978515625;3.45999999126434;347;1 A;
42.1249568936447;-0.999755859375;-0.8343505859375;3.46999999123909;348;1 A;
42.1349568936195;-0.99945068359375;-0.823974609375;3.47999999121384;349;1 A;
42.1449568935942;-1.00006103515625;-0.821533203125;3.4899999911886;350;1 A;
42.154956893569;-0.9991455078125;-0.823974609375;3.49999999116335;351;1 A;
42.1649568935437;-0.9991455078125;-0.82061767578125;3.5099999911381;352;1 A;
42.1749568935185;-1.00006103515625;-0.83160400390625;3.51999999111285;353;1 A;
42.1849568934932;-0.99945068359375;-0.82733154296875;3.52999999108761;354;1 A;
42.194956893468;-0.99945068359375;-0.8367919921875;3.53999999106236;355;1 A;
42.2049568934427;-0.99945068359375;-0.83648681640625;3.54999999103711;356;1 A;
42.2149568934175;-1.00067138671875;-0.8282470703125;3.55999999101186;357;1 A;
42.2249568933922;-0.999755859375;-0.8392333984375;3.56999999098662;358;1 A;
42.234956893367;-0.999755859375;-0.8258056640625;3.57999999096137;359;1 A;
42.2449568933417;-0.99945068359375;-0.83282470703125;3.58999999093612;360;1 A;
42.2549568933165;-1.00006103515625;-0.82855224609375;3.59999999091087;361;1 A;
42.2649568932912;-1.00006103515625;-0.826416015625;3.60999999088563;362;1 A;
42.274956893266;-0.99945068359375;-0.8349609375;3.61999999086038;363;1 A;
42.2849568932407;-0.9991455078125;-0.82794189453125;3.62999999083513;364;1 A;
42.2949568932155;-1.0003662109375;-0.8306884765625;3.63999999080988;365;1 A;
42.3049568931903;-1.00006103515625;-0.8221435546875;3.64999999078464;366;1 A;
42.314956893165;-0.99945068359375;-0.82763671875;3.65999999075939;367;1 A;
42.3249568931398;-1.00006103515625;-0.82244873046875;3.66999999073414;368;1 A;
42.3349568931145;-0.99945068359375;-0.81573486328125;3.67999999070889;369;1 A;
42.3449568930893;-0.999755859375;-0.82550048828125;3.68999999068365;370;1 A;
42.354956893064;-0.99945068359375;-0.821533203125;3.6999999906584;371;1 A;
42.3649568930388;-1.00006103515625;-0.823974609375;3.70999999063315;372;1 A;
42.3749568930135;-1.0003662109375;-0.81573486328125;3.7199999906079;373;1 A;
42.3849568929883;-0.999755859375;-0.82183837890625;3.72999999058266;374;1 A;
42.394956892963;-0.99945068359375;-0.82305908203125;3.73999999055741;375;1 A;
42.4049568929378;-0.999755859375;-0.81787109375;3.74999999053216;376;1 A;
42.4149568929125;-0.999755859375;-0.8221435546875;3.75999999050691;377;1 A;
42.4249568928873;-1.00006103515625;-0.81939697265625;3.76999999048167;378;1 A;
42.434956892862;-0.999755859375;-0.826416015625;3.77999999045642;379;1 A;
42.4449568928368;-0.999755859375;-0.8209228515625;3.78999999043117;380;1 A;
42.4549568928115;-0.99945068359375;-0.81634521484375;3.79999999040592;381;1 A;
42.4649568927863;-0.99945068359375;-0.810546875;3.80999999038067;382;1 A;
42.474956892761;-0.99945068359375;-0.80780029296875;3.81999999035543;383;1 A;
42.4849568927358;-0.99945068359375;-0.826416015625;3.82999999033018;384;1 A;
42.4949568927105;-0.999755859375;-0.82366943359375;3.83999999030493;385;1 A;
42.5049568926853;-0.999755859375;-0.83465576171875;3.84999999027968;386;1 A;
42.5149568926601;-1.00006103515625;-0.83831787109375;3.85999999025444;387;1 A;
42.5249568926348;-0.999755859375;-0.83221435546875;3.86999999022919;388;1 A;
42.5349568926096;-1.0003662109375;-0.84930419921875;3.87999999020394;389;1 A;
42.5449568925843;-1.00006103515625;-0.8416748046875;3.88999999017869;390;1 A;
42.5549568925591;-0.999755859375;-0.84625244140625;3.89999999015345;391;1 A;
42.5649568925338;-0.99945068359375;-0.83709716796875;3.9099999901282;392;1 A;
42.5749568925086;-0.999755859375;-0.8331298828125;3.91999999010295;393;1 A;
42.5849568924833;-0.99945068359375;-0.84320068359375;3.9299999900777;394;1 A;
42.5949568924581;-0.999755859375;-0.84014892578125;3.93999999005246;395;1 A;
42.6049568924328;-0.999755859375;-0.8526611328125;3.94999999002721;396;1 A;
42.6149568924076;-0.999755859375;-0.83648681640625;3.95999999000196;397;1 A;
42.6249568923823;-1.00006103515625;-0.84564208984375;3.96999998997671;398;1 A;
42.6349568923571;-0.99945068359375;-0.84197998046875;3.97999998995147;399;1 A;
42.6449568923318;-0.999755859375;-0.83709716796875;3.98999998992622;400;1 A;
42.6549568923066;-0.999755859375;-0.8447265625;3.99999998990097;401;1 A;
42.6649568922813;-0.999755859375;-0.83740234375;4.00999998987572;402;1 A;
42.6749568922561;-0.999755859375;-0.8575439453125;4.01999998985048;403;1 A;
42.6849568922308;-0.999755859375;-0.8477783203125;4.02999998982523;404;1 A;
42.6949568922056;-1.00006103515625;-0.84442138671875;4.03999998979998;405;1 A;
42.7049568921803;-1.00006103515625;-0.8428955078125;4.04999998977473;406;1 A;
42.7149568921551;-1.00006103515625;-0.83831787109375;4.05999998974949;407;1 A;
42.7249568921299;-0.99945068359375;-0.85968017578125;4.06999998972424;408;1 A;
42.7349568921046;-0.999755859375;-0.8575439453125;4.07999998969899;409;1 A;
42.7449568920794;-0.99945068359375;-0.869140625;4.08999998967374;410;1 A;
42.7549568920541;-1.00006103515625;-0.8551025390625;4.0999999896485;411;1 A;
42.7649568920289;-0.99945068359375;-0.8416748046875;4.10999998962325;412;1 A;
42.7749568920036;-0.999755859375;-0.8587646484375;4.119999989598;413;1 A;
42.7849568919784;-0.999755859375;-0.849609375;4.12999998957275;414;1 A;
42.7949568919531;-0.9991455078125;-0.85540771484375;4.1399999895475;415;1 A;
42.8049568919279;-0.99884033203125;-0.83953857421875;4.14999998952226;416;1 A;
42.8149568919026;-1.0003662109375;-0.83251953125;4.15999998949701;417;1 A;
42.8249568918774;-0.999755859375;-0.82916259765625;4.16999998947176;418;1 A;
42.8349568918521;-0.99945068359375;-0.82061767578125;4.17999998944651;419;1 A;
42.8449568918269;-0.99945068359375;-0.836181640625;4.18999998942127;420;1 A;
42.8549568918016;-1.0003662109375;-0.823974609375;4.19999998939602;421;1 A;
42.8649568917764;-0.99945068359375;-0.833740234375;4.20999998937077;422;1 A;
42.8749568917511;-0.99945068359375;-0.84136962890625;4.21999998934552;423;1 A;
42.8849568917259;-0.99945068359375;-0.833740234375;4.22999998932028;424;1 A;
42.8949568917006;-1.00006103515625;-0.845947265625;4.23999998929503;425;1 A;
42.9049568916754;-1.00006103515625;-0.8349609375;4.24999998926978;426;1 A;
42.9149568916501;-0.99945068359375;-0.84930419921875;4.25999998924453;427;1 A;
42.9249568916249;-0.99945068359375;-0.8441162109375;4.26999998921929;428;1 A;
42.9349568915997;-1.0003662109375;-0.8502197265625;4.27999998919404;429;1 A;
42.9449568915744;-0.999755859375;-0.85662841796875;4.28999998916879;430;1 A;
42.9549568915492;-0.999755859375;-0.84808349609375;4.29999998914354;431;1 A;
42.9649568915239;-0.99945068359375;-0.86761474609375;4.3099999891183;432;1 A;
42.9749568914987;-0.999755859375;-0.85357666015625;4.31999998909305;433;1 A;
42.9849568914734;-0.999755859375;-0.853271484375;4.3299999890678;434;1 A;
42.9949568914482;-0.999755859375;-0.86151123046875;4.33999998904255;435;1 A;
43.0049568914229;-0.999755859375;-0.8587646484375;4.34999998901731;436;1 A;
43.0149568913977;-0.999755859375;-0.869140625;4.35999998899206;437;1 A;
43.0249568913724;-0.99945068359375;-0.85723876953125;4.36999998896681;438;1 A;
43.0349568913472;-0.99945068359375;-0.8660888671875;4.37999998894156;439;1 A;
43.0449568913219;-0.999755859375;-0.8544921875;4.38999998891632;440;1 A;
43.0549568912967;-0.9991455078125;-0.86761474609375;4.39999998889107;441;1 A;
43.0649568912714;-0.99945068359375;-0.8746337890625;4.40999998886582;442;1 A;
43.0749568912462;-1.00006103515625;-0.86517333984375;4.41999998884057;443;1 A;
43.0849568912209;-0.99945068359375;-0.87738037109375;4.42999998881533;444;1 A;
43.0949568911957;-1.00006103515625;-0.85845947265625;4.43999998879008;445;1 A;
43.1049568911704;-1.00006103515625;-0.8685302734375;4.44999998876483;446;1 A;
43.1149568911452;-0.99945068359375;-0.85723876953125;4.45999998873958;447;1 A;
43.12495689112;-0.99945068359375;-0.85357666015625;4.46999998871433;448;1 A;
43.1349568910947;-0.999755859375;-0.86700439453125;4.47999998868909;449;1 A;
43.1449568910695;-1.00006103515625;-0.86212158203125;4.48999998866384;450;1 A;
43.1549568910442;-0.999755859375;-0.885009765625;4.49999998863859;451;1 A;
43.164956891019;-0.999755859375;-0.86578369140625;4.50999998861334;452;1 A;
43.1749568909937;-1.00006103515625;-0.86639404296875;4.5199999885881;453;1 A;
43.1849568909685;-1.00006103515625;-0.8746337890625;4.52999998856285;454;1 A;
43.1949568909432;-0.99945068359375;-0.86517333984375;4.5399999885376;455;1 A;
43.204956890918;-0.99945068359375;-0.885009765625;4.54999998851235;456;1 A;
43.2149568908927;-1.00006103515625;-0.8709716796875;4.55999998848711;457;1 A;
43.2249568908675;-0.99945068359375;-0.8892822265625;4.56999998846186;458;1 A;
43.2349568908422;-0.999755859375;-0.8856201171875;4.57999998843661;459;1 A;
43.244956890817;-1.00006103515625;-0.87799072265625;4.58999998841136;460;1 A;
43.2549568907917;-1.00006103515625;-0.87982177734375;4.59999998838612;461;1 A;
43.2649568907665;-0.999755859375;-0.86822509765625;4.60999998836087;462;1 A;
43.2749568907412;-0.99945068359375;-0.89569091796875;4.61999998833562;463;1 A;
43.284956890716;-0.999755859375;-0.88592529296875;4.62999998831037;464;1 A;
43.2949568906907;-0.999755859375;-0.88287353515625;4.63999998828513;465;1 A;
43.3049568906655;-0.9991455078125;-0.8807373046875;4.64999998825988;466;1 A;
43.3149568906402;-0.999755859375;-0.86669921875;4.65999998823463;467;1 A;
43.324956890615;-0.99945068359375;-0.8929443359375;4.66999998820938;468;1 A;
43.3349568905898;-0.999755859375;-0.8831787109375;4.67999998818414;469;1 A;
43.3449568905645;-1.00006103515625;-0.89324951171875;4.68999998815889;470;1 A;
43.3549568905393;-0.999755859375;-0.8868408203125;4.69999998813364;471;1 A;
43.364956890514;-0.999755859375;-0.8770751953125;4.70999998810839;472;1 A;
43.3749568904888;-1.00006103515625;-0.88470458984375;4.71999998808315;473;1 A;
43.3849568904635;-1.0003662109375;-0.87799072265625;4.7299999880579;474;1 A;
43.3949568904383;-0.99945068359375;-0.90179443359375;4.73999998803265;475;1 A;
43.404956890413;-0.99884033203125;-0.8807373046875;4.7499999880074;476;1 A;
43.4149568903878;-0.999755859375;-0.88592529296875;4.75999998798216;477;1 A;
43.4249568903625;-1.00006103515625;-0.89202880859375;4.76999998795691;478;1 A;
43.4349568903373;-0.99945068359375;-0.8892822265625;4.77999998793166;479;1 A;
43.444956890312;-0.999755859375;-0.9100341796875;4.78999998790641;480;1 A;
43.4549568902868;-0.999755859375;-0.87738037109375;4.79999998788116;481;1 A;
43.4649568902615;-0.999755859375;-0.88714599609375;4.80999998785592;482;1 A;
43.4749568902363;-0.9991455078125;-0.880126953125;4.81999998783067;483;1 A;
43.484956890211;-0.99945068359375;-0.8880615234375;4.82999998780542;484;1 A;
43.4949568901858;-0.999755859375;-0.8905029296875;4.83999998778017;485;1 A;
43.5049568901605;-1.00006103515625;-0.87066650390625;4.84999998775493;486;1 A;
43.5149568901353;-0.99945068359375;-0.89385986328125;4.85999998772968;487;1 A;
43.52495689011;-1.00006103515625;-0.87554931640625;4.86999998770443;488;1 A;
43.5349568900848;-1.00006103515625;-0.88226318359375;4.87999998767918;489;1 A;
43.5449568900596;-0.999755859375;-0.87982177734375;4.88999998765394;490;1 A;
43.5549568900343;-0.999755859375;-0.86761474609375;4.89999998762869;491;1 A;
43.5649568900091;-0.999755859375;-0.892333984375;4.90999998760344;492;1 A;
43.5749568899838;-0.999755859375;-0.87615966796875;4.91999998757819;493;1 A;
43.5849568899586;-1.00006103515625;-0.892333984375;4.92999998755295;494;1 A;
43.5949568899333;-0.99945068359375;-0.88836669921875;4.9399999875277;495;1 A;
43.6049568899081;-0.999755859375;-0.87738037109375;4.94999998750245;496;1 A;
43.6149568898828;-1.00006103515625;-0.8831787109375;4.9599999874772;497;1 A;
43.6249568898576;-1.00067138671875;-0.87005615234375;4.96999998745196;498;1 A;
43.6349568898323;-0.99945068359375;-0.89202880859375;4.97999998742671;499;1 A;
43.6449568898071;-0.999755859375;-0.87493896484375;4.98999998740146;500;1 A;
