Time (s);WE(1).Potential (V);WE(1).Current (A);Corrected time (s);Index;Current range;Overload
59.8244648489577;-0.914306640625;-2.34130859375;0;1;1 A;Current overload
59.8344648489325;-0.98785400390625;-1.98699951171875;0.00999999997475243;2;1 A;
59.8444648489073;-1.05072021484375;-1.47186279296875;0.0199999999495049;3;1 A;
59.854464848882;-1.0504150390625;-1.239013671875;0.0299999999242573;4;1 A;
59.8644648488568;-1.05010986328125;-1.1297607421875;0.0399999998990097;5;1 A;
59.8744648488315;-1.04949951171875;-1.043701171875;0.0499999998737621;6;1 A;
59.8844648488063;-1.04949951171875;-0.95977783203125;0.0599999998485146;7;1 A;
59.894464848781;-1.04949951171875;-0.94268798828125;0.069999999823267;8;1 A;
59.9044648487558;-1.0498046875;-0.89630126953125;0.0799999997980194;9;1 A;
59.9144648487305;-1.0491943359375;-0.89447021484375;0.0899999997727718;10;1 A;
59.9244648487053;-1.04949951171875;-0.875244140625;0.0999999997475243;11;1 A;
59.93446484868;-1.05010986328125;-0.8642578125;0.109999999722277;12;1 A;
59.9444648486548;-1.04949951171875;-0.869140625;0.119999999697029;13;1 A;
59.9544648486295;-1.04949951171875;-0.83221435546875;0.129999999671782;14;1 A;
59.9644648486043;-1.04949951171875;-0.84381103515625;0.139999999646534;15;1 A;
59.974464848579;-1.04949951171875;-0.8251953125;0.149999999621286;16;1 A;
59.9844648485538;-1.0498046875;-0.8184814453125;0.159999999596039;17;1 A;
59.9944648485285;-1.0491943359375;-0.831298828125;0.169999999570791;18;1 A;
60.0044648485033;-1.04949951171875;-0.80169677734375;0.179999999545544;19;1 A;
60.014464848478;-1.0491943359375;-0.82305908203125;0.189999999520296;20;1 A;
60.0244648484528;-1.04949951171875;-0.80413818359375;0.199999999495049;21;1 A;
60.0344648484275;-1.04949951171875;-0.81329345703125;0.209999999469801;22;1 A;
60.0444648484023;-1.04949951171875;-0.809326171875;0.219999999444553;23;1 A;
60.0544648483771;-1.05010986328125;-0.8087158203125;0.229999999419306;24;1 A;
60.0644648483518;-1.04949951171875;-0.81329345703125;0.239999999394058;25;1 A;
60.0744648483266;-1.0491943359375;-0.79376220703125;0.249999999368811;26;1 A;
60.0844648483013;-1.0498046875;-0.797119140625;0.259999999343563;27;1 A;
60.0944648482761;-1.04949951171875;-0.79132080078125;0.269999999318316;28;1 A;
60.1044648482508;-1.0498046875;-0.79803466796875;0.279999999293068;29;1 A;
60.1144648482256;-1.04949951171875;-0.80963134765625;0.28999999926782;30;1 A;
60.1244648482003;-1.04949951171875;-0.8001708984375;0.299999999242573;31;1 A;
60.1344648481751;-1.04949951171875;-0.8099365234375;0.309999999217325;32;1 A;
60.1444648481498;-1.0498046875;-0.79498291015625;0.319999999192078;33;1 A;
60.1544648481246;-1.04949951171875;-0.80657958984375;0.32999999916683;34;1 A;
60.1644648480993;-1.04888916015625;-0.80657958984375;0.339999999141583;35;1 A;
60.1744648480741;-1.05010986328125;-0.80413818359375;0.349999999116335;36;1 A;
60.1844648480488;-1.04949951171875;-0.80535888671875;0.359999999091087;37;1 A;
60.1944648480236;-1.04949951171875;-0.78948974609375;0.36999999906584;38;1 A;
60.2044648479983;-1.04949951171875;-0.79925537109375;0.379999999040592;39;1 A;
60.2144648479731;-1.0491943359375;-0.7867431640625;0.389999999015345;40;1 A;
60.2244648479478;-1.05010986328125;-0.79010009765625;0.399999998990097;41;1 A;
60.2344648479226;-1.0498046875;-0.797119140625;0.40999999896485;42;1 A;
60.2444648478973;-1.05010986328125;-0.7781982421875;0.419999998939602;43;1 A;
60.2544648478721;-1.0498046875;-0.79071044921875;0.429999998914354;44;1 A;
60.2644648478469;-1.0498046875;-0.77667236328125;0.439999998889107;45;1 A;
60.2744648478216;-1.04949951171875;-0.79437255859375;0.449999998863859;46;1 A;
60.2844648477964;-1.0491943359375;-0.8013916015625;0.459999998838612;47;1 A;
60.2944648477711;-1.04949951171875;-0.7904052734375;0.469999998813364;48;1 A;
60.3044648477459;-1.0498046875;-0.8087158203125;0.479999998788116;49;1 A;
60.3144648477206;-1.04949951171875;-0.7855224609375;0.489999998762869;50;1 A;
60.3244648476954;-1.0498046875;-0.80078125;0.499999998737621;51;1 A;
60.3344648476701;-1.0498046875;-0.78948974609375;0.509999998712374;52;1 A;
60.3444648476449;-1.0498046875;-0.79132080078125;0.519999998687126;53;1 A;
60.3544648476196;-1.04888916015625;-0.80291748046875;0.529999998661879;54;1 A;
60.3644648475944;-1.04949951171875;-0.787353515625;0.539999998636631;55;1 A;
60.3744648475691;-1.0498046875;-0.7916259765625;0.549999998611383;56;1 A;
60.3844648475439;-1.04949951171875;-0.78704833984375;0.559999998586136;57;1 A;
60.3944648475186;-1.04949951171875;-0.80230712890625;0.569999998560888;58;1 A;
60.4044648474934;-1.04949951171875;-0.81207275390625;0.579999998535641;59;1 A;
60.4144648474681;-1.0491943359375;-0.79742431640625;0.589999998510393;60;1 A;
60.4244648474429;-1.04949951171875;-0.810546875;0.599999998485146;61;1 A;
60.4344648474176;-1.0498046875;-0.78277587890625;0.609999998459898;62;1 A;
60.4444648473924;-1.0498046875;-0.79010009765625;0.61999999843465;63;1 A;
60.4544648473671;-1.0498046875;-0.79437255859375;0.629999998409403;64;1 A;
60.4644648473419;-1.04949951171875;-0.7904052734375;0.639999998384155;65;1 A;
60.4744648473167;-1.0491943359375;-0.80108642578125;0.649999998358908;66;1 A;
60.4844648472914;-1.0498046875;-0.792236328125;0.65999999833366;67;1 A;
60.4944648472662;-1.0491943359375;-0.80810546875;0.669999998308413;68;1 A;
60.5044648472409;-1.04949951171875;-0.7879638671875;0.679999998283165;69;1 A;
60.5144648472157;-1.0498046875;-0.79315185546875;0.689999998257917;70;1 A;
60.5244648471904;-1.04949951171875;-0.79620361328125;0.69999999823267;71;1 A;
60.5344648471652;-1.04949951171875;-0.79833984375;0.709999998207422;72;1 A;
60.5444648471399;-1.05010986328125;-0.81817626953125;0.719999998182175;73;1 A;
60.5544648471147;-1.04949951171875;-0.81146240234375;0.729999998156927;74;1 A;
60.5644648470894;-1.04949951171875;-0.81787109375;0.73999999813168;75;1 A;
60.5744648470642;-1.04949951171875;-0.80718994140625;0.749999998106432;76;1 A;
60.5844648470389;-1.0498046875;-0.814208984375;0.759999998081184;77;1 A;
60.5944648470137;-1.04949951171875;-0.8270263671875;0.769999998055937;78;1 A;
60.6044648469884;-1.0498046875;-0.81939697265625;0.779999998030689;79;1 A;
60.6144648469632;-1.04949951171875;-0.82000732421875;0.789999998005442;80;1 A;
60.6244648469379;-1.0491943359375;-0.80963134765625;0.799999997980194;81;1 A;
60.6344648469127;-1.0498046875;-0.82305908203125;0.809999997954947;82;1 A;
60.6444648468874;-1.0491943359375;-0.823974609375;0.819999997929699;83;1 A;
60.6544648468622;-1.04949951171875;-0.81298828125;0.829999997904451;84;1 A;
60.6644648468369;-1.04949951171875;-0.80780029296875;0.839999997879204;85;1 A;
60.6744648468117;-1.0498046875;-0.7867431640625;0.849999997853956;86;1 A;
60.6844648467865;-1.0491943359375;-0.7989501953125;0.859999997828709;87;1 A;
60.6944648467612;-1.0491943359375;-0.7904052734375;0.869999997803461;88;1 A;
60.704464846736;-1.04949951171875;-0.80108642578125;0.879999997778214;89;1 A;
60.7144648467107;-1.0491943359375;-0.804443359375;0.889999997752966;90;1 A;
60.7244648466855;-1.0491943359375;-0.791015625;0.899999997727718;91;1 A;
60.7344648466602;-1.0491943359375;-0.80230712890625;0.909999997702471;92;1 A;
60.744464846635;-1.04949951171875;-0.79071044921875;0.919999997677223;93;1 A;
60.7544648466097;-1.0498046875;-0.7965087890625;0.929999997651976;94;1 A;
60.7644648465845;-1.04949951171875;-0.7861328125;0.939999997626728;95;1 A;
60.7744648465592;-1.0491943359375;-0.79010009765625;0.949999997601481;96;1 A;
60.784464846534;-1.04949951171875;-0.7977294921875;0.959999997576233;97;1 A;
60.7944648465087;-1.0491943359375;-0.78399658203125;0.969999997550985;98;1 A;
60.8044648464835;-1.05010986328125;-0.799560546875;0.979999997525738;99;1 A;
60.8144648464582;-1.04888916015625;-0.7958984375;0.98999999750049;100;1 A;
60.824464846433;-1.04949951171875;-0.8001708984375;0.999999997475243;101;1 A;
60.8344648464077;-1.04949951171875;-0.8013916015625;1.00999999745;102;1 A;
60.8444648463825;-1.0491943359375;-0.780029296875;1.01999999742475;103;1 A;
60.8544648463572;-1.04888916015625;-0.79559326171875;1.0299999973995;104;1 A;
60.864464846332;-1.04949951171875;-0.77850341796875;1.03999999737425;105;1 A;
60.8744648463068;-1.04949951171875;-0.7830810546875;1.049999997349;106;1 A;
60.8844648462815;-1.04949951171875;-0.77789306640625;1.05999999732376;107;1 A;
60.8944648462563;-1.04949951171875;-0.77789306640625;1.06999999729851;108;1 A;
60.904464846231;-1.0498046875;-0.79254150390625;1.07999999727326;109;1 A;
60.9144648462058;-1.05010986328125;-0.7843017578125;1.08999999724801;110;1 A;
60.9244648461805;-1.04949951171875;-0.80078125;1.09999999722277;111;1 A;
60.9344648461553;-1.0498046875;-0.78948974609375;1.10999999719752;112;1 A;
60.94446484613;-1.0491943359375;-0.78887939453125;1.11999999717227;113;1 A;
60.9544648461048;-1.0498046875;-0.7916259765625;1.12999999714702;114;1 A;
60.9644648460795;-1.04949951171875;-0.7867431640625;1.13999999712178;115;1 A;
60.9744648460543;-1.0498046875;-0.8087158203125;1.14999999709653;116;1 A;
60.984464846029;-1.04949951171875;-0.79132080078125;1.15999999707128;117;1 A;
60.9944648460038;-1.0498046875;-0.78704833984375;1.16999999704603;118;1 A;
61.0044648459785;-1.0498046875;-0.80078125;1.17999999702079;119;1 A;
61.0144648459533;-1.0498046875;-0.79254150390625;1.18999999699554;120;1 A;
61.024464845928;-1.0498046875;-0.80169677734375;1.19999999697029;121;1 A;
61.0344648459028;-1.05010986328125;-0.794677734375;1.20999999694504;122;1 A;
61.0444648458775;-1.0498046875;-0.81634521484375;1.2199999969198;123;1 A;
61.0544648458523;-1.05010986328125;-0.81298828125;1.22999999689455;124;1 A;
61.064464845827;-1.04949951171875;-0.8154296875;1.2399999968693;125;1 A;
61.0744648458018;-1.05010986328125;-0.80535888671875;1.24999999684405;126;1 A;
61.0844648457766;-1.0504150390625;-0.7989501953125;1.25999999681881;127;1 A;
61.0944648457513;-1.0498046875;-0.80596923828125;1.26999999679356;128;1 A;
61.1044648457261;-1.04949951171875;-0.802001953125;1.27999999676831;129;1 A;
61.1144648457008;-1.0498046875;-0.81329345703125;1.28999999674306;130;1 A;
61.1244648456756;-1.0498046875;-0.8056640625;1.29999999671782;131;1 A;
61.1344648456503;-1.04949951171875;-0.8062744140625;1.30999999669257;132;1 A;
61.1444648456251;-1.0498046875;-0.8074951171875;1.31999999666732;133;1 A;
61.1544648455998;-1.0498046875;-0.811767578125;1.32999999664207;134;1 A;
61.1644648455746;-1.04949951171875;-0.82366943359375;1.33999999661683;135;1 A;
61.1744648455493;-1.05010986328125;-0.8160400390625;1.34999999659158;136;1 A;
61.1844648455241;-1.0491943359375;-0.82244873046875;1.35999999656633;137;1 A;
61.1944648454988;-1.04888916015625;-0.8245849609375;1.36999999654108;138;1 A;
61.2044648454736;-1.04888916015625;-0.81787109375;1.37999999651583;139;1 A;
61.2144648454483;-1.0498046875;-0.8319091796875;1.38999999649059;140;1 A;
61.2244648454231;-1.04949951171875;-0.82000732421875;1.39999999646534;141;1 A;
61.2344648453978;-1.05010986328125;-0.82183837890625;1.40999999644009;142;1 A;
61.2444648453726;-1.0491943359375;-0.80718994140625;1.41999999641484;143;1 A;
61.2544648453473;-1.05010986328125;-0.81512451171875;1.4299999963896;144;1 A;
61.2644648453221;-1.05010986328125;-0.826416015625;1.43999999636435;145;1 A;
61.2744648452968;-1.04949951171875;-0.804443359375;1.4499999963391;146;1 A;
61.2844648452716;-1.04949951171875;-0.810546875;1.45999999631385;147;1 A;
61.2944648452464;-1.04949951171875;-0.80352783203125;1.46999999628861;148;1 A;
61.3044648452211;-1.04949951171875;-0.8154296875;1.47999999626336;149;1 A;
61.3144648451959;-1.04949951171875;-0.81756591796875;1.48999999623811;150;1 A;
61.3244648451706;-1.0491943359375;-0.79986572265625;1.49999999621286;151;1 A;
61.3344648451454;-1.04949951171875;-0.8050537109375;1.50999999618762;152;1 A;
61.3444648451201;-1.0491943359375;-0.80322265625;1.51999999616237;153;1 A;
61.3544648450949;-1.04949951171875;-0.81451416015625;1.52999999613712;154;1 A;
61.3644648450696;-1.0498046875;-0.809326171875;1.53999999611187;155;1 A;
61.3744648450444;-1.04949951171875;-0.806884765625;1.54999999608663;156;1 A;
61.3844648450191;-1.0491943359375;-0.82183837890625;1.55999999606138;157;1 A;
61.3944648449939;-1.05010986328125;-0.82000732421875;1.56999999603613;158;1 A;
61.4044648449686;-1.0498046875;-0.83343505859375;1.57999999601088;159;1 A;
61.4144648449434;-1.0498046875;-0.8184814453125;1.58999999598564;160;1 A;
61.4244648449181;-1.0498046875;-0.80810546875;1.59999999596039;161;1 A;
61.4344648448929;-1.04888916015625;-0.7989501953125;1.60999999593514;162;1 A;
61.4444648448676;-1.0498046875;-0.8038330078125;1.61999999590989;163;1 A;
61.4544648448424;-1.05010986328125;-0.816650390625;1.62999999588465;164;1 A;
61.4644648448171;-1.04949951171875;-0.810546875;1.6399999958594;165;1 A;
61.4744648447919;-1.04949951171875;-0.82244873046875;1.64999999583415;166;1 A;
61.4844648447666;-1.04949951171875;-0.8154296875;1.6599999958089;167;1 A;
61.4944648447414;-1.05010986328125;-0.82305908203125;1.66999999578366;168;1 A;
61.5044648447162;-1.0498046875;-0.83587646484375;1.67999999575841;169;1 A;
61.5144648446909;-1.04949951171875;-0.8251953125;1.68999999573316;170;1 A;
61.5244648446657;-1.0498046875;-0.828857421875;1.69999999570791;171;1 A;
61.5344648446404;-1.05010986328125;-0.8123779296875;1.70999999568267;172;1 A;
61.5444648446152;-1.05010986328125;-0.82122802734375;1.71999999565742;173;1 A;
61.5544648445899;-1.0498046875;-0.82427978515625;1.72999999563217;174;1 A;
61.5644648445647;-1.0498046875;-0.82000732421875;1.73999999560692;175;1 A;
61.5744648445394;-1.04949951171875;-0.83251953125;1.74999999558167;176;1 A;
61.5844648445142;-1.04949951171875;-0.8184814453125;1.75999999555643;177;1 A;
61.5944648444889;-1.05010986328125;-0.823974609375;1.76999999553118;178;1 A;
61.6044648444637;-1.04949951171875;-0.81756591796875;1.77999999550593;179;1 A;
61.6144648444384;-1.0491943359375;-0.81298828125;1.78999999548068;180;1 A;
61.6244648444132;-1.0491943359375;-0.816650390625;1.79999999545544;181;1 A;
61.6344648443879;-1.0498046875;-0.8001708984375;1.80999999543019;182;1 A;
61.6444648443627;-1.04949951171875;-0.81146240234375;1.81999999540494;183;1 A;
61.6544648443374;-1.05010986328125;-0.80780029296875;1.82999999537969;184;1 A;
61.6644648443122;-1.04949951171875;-0.8099365234375;1.83999999535445;185;1 A;
61.6744648442869;-1.0498046875;-0.80841064453125;1.8499999953292;186;1 A;
61.6844648442617;-1.04888916015625;-0.79498291015625;1.85999999530395;187;1 A;
61.6944648442364;-1.04949951171875;-0.81085205078125;1.8699999952787;188;1 A;
61.7044648442112;-1.0498046875;-0.8135986328125;1.87999999525346;189;1 A;
61.714464844186;-1.04949951171875;-0.82672119140625;1.88999999522821;190;1 A;
61.7244648441607;-1.0498046875;-0.81573486328125;1.89999999520296;191;1 A;
61.7344648441355;-1.0498046875;-0.81817626953125;1.90999999517771;192;1 A;
61.7444648441102;-1.0498046875;-0.81298828125;1.91999999515247;193;1 A;
61.754464844085;-1.0498046875;-0.80535888671875;1.92999999512722;194;1 A;
61.7644648440597;-1.04949951171875;-0.82672119140625;1.93999999510197;195;1 A;
61.7744648440345;-1.04949951171875;-0.82244873046875;1.94999999507672;196;1 A;
61.7844648440092;-1.04949951171875;-0.816650390625;1.95999999505148;197;1 A;
61.794464843984;-1.0491943359375;-0.81939697265625;1.96999999502623;198;1 A;
61.8044648439587;-1.05010986328125;-0.81298828125;1.97999999500098;199;1 A;
61.8144648439335;-1.0498046875;-0.8203125;1.98999999497573;200;1 A;
61.8244648439082;-1.04949951171875;-0.80810546875;1.99999999495049;201;1 A;
61.834464843883;-1.0498046875;-0.81512451171875;2.00999999492524;202;1 A;
61.8444648438577;-1.04949951171875;-0.81207275390625;2.01999999489999;203;1 A;
61.8544648438325;-1.04949951171875;-0.816650390625;2.02999999487474;204;1 A;
61.8644648438072;-1.04949951171875;-0.81756591796875;2.0399999948495;205;1 A;
61.874464843782;-1.0498046875;-0.804443359375;2.04999999482425;206;1 A;
61.8844648437567;-1.05010986328125;-0.82275390625;2.059999994799;207;1 A;
61.8944648437315;-1.04949951171875;-0.82000732421875;2.06999999477375;208;1 A;
61.9044648437063;-1.04949951171875;-0.8306884765625;2.0799999947485;209;1 A;
61.914464843681;-1.04888916015625;-0.83770751953125;2.08999999472326;210;1 A;
61.9244648436558;-1.0498046875;-0.82916259765625;2.09999999469801;211;1 A;
61.9344648436305;-1.0491943359375;-0.83892822265625;2.10999999467276;212;1 A;
61.9444648436053;-1.04949951171875;-0.830078125;2.11999999464751;213;1 A;
61.95446484358;-1.0491943359375;-0.8367919921875;2.12999999462227;214;1 A;
61.9644648435548;-1.0491943359375;-0.83587646484375;2.13999999459702;215;1 A;
61.9744648435295;-1.04949951171875;-0.83587646484375;2.14999999457177;216;1 A;
61.9844648435043;-1.04949951171875;-0.82977294921875;2.15999999454652;217;1 A;
61.994464843479;-1.05010986328125;-0.823974609375;2.16999999452128;218;1 A;
62.0044648434538;-1.0498046875;-0.82550048828125;2.17999999449603;219;1 A;
62.0144648434285;-1.04949951171875;-0.8123779296875;2.18999999447078;220;1 A;
62.0244648434033;-1.0498046875;-0.82489013671875;2.19999999444553;221;1 A;
62.034464843378;-1.05010986328125;-0.82275390625;2.20999999442029;222;1 A;
62.0444648433528;-1.0498046875;-0.82366943359375;2.21999999439504;223;1 A;
62.0544648433275;-1.04949951171875;-0.8294677734375;2.22999999436979;224;1 A;
62.0644648433023;-1.04949951171875;-0.83038330078125;2.23999999434454;225;1 A;
62.074464843277;-1.0491943359375;-0.84320068359375;2.2499999943193;226;1 A;
62.0844648432518;-1.0498046875;-0.82305908203125;2.25999999429405;227;1 A;
62.0944648432265;-1.0491943359375;-0.81787109375;2.2699999942688;228;1 A;
62.1044648432013;-1.04949951171875;-0.823974609375;2.27999999424355;229;1 A;
62.1144648431761;-1.0498046875;-0.819091796875;2.28999999421831;230;1 A;
62.1244648431508;-1.0498046875;-0.82916259765625;2.29999999419306;231;1 A;
62.1344648431256;-1.0491943359375;-0.82000732421875;2.30999999416781;232;1 A;
62.1444648431003;-1.05010986328125;-0.836181640625;2.31999999414256;233;1 A;
62.1544648430751;-1.0491943359375;-0.8270263671875;2.32999999411732;234;1 A;
62.1644648430498;-1.04949951171875;-0.821533203125;2.33999999409207;235;1 A;
62.1744648430246;-1.04949951171875;-0.83831787109375;2.34999999406682;236;1 A;
62.1844648429993;-1.0491943359375;-0.83404541015625;2.35999999404157;237;1 A;
62.1944648429741;-1.0491943359375;-0.84259033203125;2.36999999401633;238;1 A;
62.2044648429488;-1.0498046875;-0.836181640625;2.37999999399108;239;1 A;
62.2144648429236;-1.05010986328125;-0.82977294921875;2.38999999396583;240;1 A;
62.2244648428983;-1.04949951171875;-0.83343505859375;2.39999999394058;241;1 A;
62.2344648428731;-1.04949951171875;-0.8221435546875;2.40999999391533;242;1 A;
62.2444648428478;-1.0491943359375;-0.8331298828125;2.41999999389009;243;1 A;
62.2544648428226;-1.04949951171875;-0.81451416015625;2.42999999386484;244;1 A;
62.2644648427973;-1.05010986328125;-0.8172607421875;2.43999999383959;245;1 A;
62.2744648427721;-1.0491943359375;-0.816650390625;2.44999999381434;246;1 A;
62.2844648427468;-1.0504150390625;-0.81298828125;2.4599999937891;247;1 A;
62.2944648427216;-1.04949951171875;-0.82611083984375;2.46999999376385;248;1 A;
62.3044648426963;-1.04949951171875;-0.8099365234375;2.4799999937386;249;1 A;
62.3144648426711;-1.0498046875;-0.8203125;2.48999999371335;250;1 A;
62.3244648426459;-1.0498046875;-0.8148193359375;2.49999999368811;251;1 A;
62.3344648426206;-1.0491943359375;-0.8209228515625;2.50999999366286;252;1 A;
62.3444648425954;-1.0491943359375;-0.82794189453125;2.51999999363761;253;1 A;
62.3544648425701;-1.04949951171875;-0.8160400390625;2.52999999361236;254;1 A;
62.3644648425449;-1.04888916015625;-0.831298828125;2.53999999358712;255;1 A;
62.3744648425196;-1.04949951171875;-0.81756591796875;2.54999999356187;256;1 A;
62.3844648424944;-1.04949951171875;-0.826416015625;2.55999999353662;257;1 A;
62.3944648424691;-1.04949951171875;-0.82763671875;2.56999999351137;258;1 A;
62.4044648424439;-1.0498046875;-0.82366943359375;2.57999999348613;259;1 A;
62.4144648424186;-1.04949951171875;-0.83587646484375;2.58999999346088;260;1 A;
62.4244648423934;-1.05010986328125;-0.83251953125;2.59999999343563;261;1 A;
62.4344648423681;-1.0491943359375;-0.84503173828125;2.60999999341038;262;1 A;
62.4444648423429;-1.0491943359375;-0.83343505859375;2.61999999338514;263;1 A;
62.4544648423176;-1.04949951171875;-0.8343505859375;2.62999999335989;264;1 A;
62.4644648422924;-1.04949951171875;-0.8404541015625;2.63999999333464;265;1 A;
62.4744648422671;-1.04949951171875;-0.83740234375;2.64999999330939;266;1 A;
62.4844648422419;-1.04949951171875;-0.84442138671875;2.65999999328415;267;1 A;
62.4944648422166;-1.04888916015625;-0.836181640625;2.6699999932589;268;1 A;
62.5044648421914;-1.05010986328125;-0.8441162109375;2.67999999323365;269;1 A;
62.5144648421661;-1.04949951171875;-0.8447265625;2.6899999932084;270;1 A;
62.5244648421409;-1.04949951171875;-0.848388671875;2.69999999318316;271;1 A;
62.5344648421157;-1.0491943359375;-0.8587646484375;2.70999999315791;272;1 A;
62.5444648420904;-1.0491943359375;-0.84564208984375;2.71999999313266;273;1 A;
62.5544648420652;-1.0498046875;-0.855712890625;2.72999999310741;274;1 A;
62.5644648420399;-1.05010986328125;-0.8453369140625;2.73999999308217;275;1 A;
62.5744648420147;-1.0491943359375;-0.85479736328125;2.74999999305692;276;1 A;
62.5844648419894;-1.0498046875;-0.84686279296875;2.75999999303167;277;1 A;
62.5944648419642;-1.0498046875;-0.84197998046875;2.76999999300642;278;1 A;
62.6044648419389;-1.04888916015625;-0.85205078125;2.77999999298117;279;1 A;
62.6144648419137;-1.04949951171875;-0.84564208984375;2.78999999295593;280;1 A;
62.6244648418884;-1.0498046875;-0.8563232421875;2.79999999293068;281;1 A;
62.6344648418632;-1.0498046875;-0.8465576171875;2.80999999290543;282;1 A;
62.6444648418379;-1.04949951171875;-0.84228515625;2.81999999288018;283;1 A;
62.6544648418127;-1.0491943359375;-0.85693359375;2.82999999285494;284;1 A;
62.6644648417874;-1.0498046875;-0.84564208984375;2.83999999282969;285;1 A;
62.6744648417622;-1.0498046875;-0.8526611328125;2.84999999280444;286;1 A;
62.6844648417369;-1.04949951171875;-0.84136962890625;2.85999999277919;287;1 A;
62.6944648417117;-1.0491943359375;-0.83831787109375;2.86999999275395;288;1 A;
62.7044648416864;-1.0498046875;-0.84625244140625;2.8799999927287;289;1 A;
62.7144648416612;-1.04949951171875;-0.843505859375;2.88999999270345;290;1 A;
62.7244648416359;-1.04949951171875;-0.855712890625;2.8999999926782;291;1 A;
62.7344648416107;-1.0498046875;-0.8489990234375;2.90999999265296;292;1 A;
62.7444648415855;-1.04949951171875;-0.855712890625;2.91999999262771;293;1 A;
62.7544648415602;-1.0498046875;-0.85601806640625;2.92999999260246;294;1 A;
62.764464841535;-1.04949951171875;-0.85052490234375;2.93999999257721;295;1 A;
62.7744648415097;-1.0491943359375;-0.8544921875;2.94999999255197;296;1 A;
62.7844648414845;-1.0491943359375;-0.841064453125;2.95999999252672;297;1 A;
62.7944648414592;-1.04949951171875;-0.8538818359375;2.96999999250147;298;1 A;
62.804464841434;-1.0498046875;-0.8477783203125;2.97999999247622;299;1 A;
62.8144648414087;-1.0491943359375;-0.85601806640625;2.98999999245098;300;1 A;
62.8244648413835;-1.0504150390625;-0.85479736328125;2.99999999242573;301;1 A;
62.8344648413582;-1.0491943359375;-0.8380126953125;3.00999999240048;302;1 A;
62.844464841333;-1.04888916015625;-0.859375;3.01999999237523;303;1 A;
62.8544648413077;-1.04949951171875;-0.8514404296875;3.02999999234999;304;1 A;
62.8644648412825;-1.04888916015625;-0.8599853515625;3.03999999232474;305;1 A;
62.8744648412572;-1.04949951171875;-0.855712890625;3.04999999229949;306;1 A;
62.884464841232;-1.05010986328125;-0.84991455078125;3.05999999227424;307;1 A;
62.8944648412067;-1.05010986328125;-0.86212158203125;3.069999992249;308;1 A;
62.9044648411815;-1.04949951171875;-0.86181640625;3.07999999222375;309;1 A;
62.9144648411562;-1.0498046875;-0.88165283203125;3.0899999921985;310;1 A;
62.924464841131;-1.05010986328125;-0.87432861328125;3.09999999217325;311;1 A;
62.9344648411058;-1.0491943359375;-0.88897705078125;3.109999992148;312;1 A;
62.9444648410805;-1.04949951171875;-0.8892822265625;3.11999999212276;313;1 A;
62.9544648410553;-1.0498046875;-0.87249755859375;3.12999999209751;314;1 A;
62.96446484103;-1.0498046875;-0.88287353515625;3.13999999207226;315;1 A;
62.9744648410048;-1.04888916015625;-0.86883544921875;3.14999999204701;316;1 A;
62.9844648409795;-1.05010986328125;-0.88043212890625;3.15999999202177;317;1 A;
62.9944648409543;-1.0498046875;-0.88165283203125;3.16999999199652;318;1 A;
63.004464840929;-1.0498046875;-0.8795166015625;3.17999999197127;319;1 A;
63.0144648409038;-1.04949951171875;-0.8843994140625;3.18999999194602;320;1 A;
63.0244648408785;-1.0491943359375;-0.8740234375;3.19999999192078;321;1 A;
63.0344648408533;-1.04949951171875;-0.888671875;3.20999999189553;322;1 A;
63.044464840828;-1.0498046875;-0.8770751953125;3.21999999187028;323;1 A;
63.0544648408028;-1.04949951171875;-0.8782958984375;3.22999999184503;324;1 A;
63.0644648407775;-1.04949951171875;-0.867919921875;3.23999999181979;325;1 A;
63.0744648407523;-1.04949951171875;-0.86578369140625;3.24999999179454;326;1 A;
63.084464840727;-1.048583984375;-0.88623046875;3.25999999176929;327;1 A;
63.0944648407018;-1.0498046875;-0.87554931640625;3.26999999174404;328;1 A;
63.1044648406765;-1.0491943359375;-0.88623046875;3.2799999917188;329;1 A;
63.1144648406513;-1.0498046875;-0.8697509765625;3.28999999169355;330;1 A;
63.124464840626;-1.0498046875;-0.867919921875;3.2999999916683;331;1 A;
63.1344648406008;-1.04888916015625;-0.88104248046875;3.30999999164305;332;1 A;
63.1444648405756;-1.04949951171875;-0.8770751953125;3.31999999161781;333;1 A;
63.1544648405503;-1.05010986328125;-0.89111328125;3.32999999159256;334;1 A;
63.1644648405251;-1.0491943359375;-0.8740234375;3.33999999156731;335;1 A;
63.1744648404998;-1.0498046875;-0.86883544921875;3.34999999154206;336;1 A;
63.1844648404746;-1.0498046875;-0.8685302734375;3.35999999151682;337;1 A;
63.1944648404493;-1.04949951171875;-0.87432861328125;3.36999999149157;338;1 A;
63.2044648404241;-1.0498046875;-0.8941650390625;3.37999999146632;339;1 A;
63.2144648403988;-1.04949951171875;-0.8807373046875;3.38999999144107;340;1 A;
63.2244648403736;-1.0491943359375;-0.888671875;3.39999999141583;341;1 A;
63.2344648403483;-1.0498046875;-0.8740234375;3.40999999139058;342;1 A;
63.2444648403231;-1.05010986328125;-0.87310791015625;3.41999999136533;343;1 A;
63.2544648402978;-1.05010986328125;-0.87860107421875;3.42999999134008;344;1 A;
63.2644648402726;-1.0491943359375;-0.86761474609375;3.43999999131483;345;1 A;
63.2744648402473;-1.04888916015625;-0.88134765625;3.44999999128959;346;1 A;
63.2844648402221;-1.0498046875;-0.8685302734375;3.45999999126434;347;1 A;
63.2944648401968;-1.0498046875;-0.880126953125;3.46999999123909;348;1 A;
63.3044648401716;-1.0498046875;-0.88958740234375;3.47999999121384;349;1 A;
63.3144648401463;-1.0498046875;-0.8819580078125;3.4899999911886;350;1 A;
63.3244648401211;-1.04949951171875;-0.89813232421875;3.49999999116335;351;1 A;
63.3344648400958;-1.04949951171875;-0.8782958984375;3.5099999911381;352;1 A;
63.3444648400706;-1.04949951171875;-0.89263916015625;3.51999999111285;353;1 A;
63.3544648400454;-1.0498046875;-0.887451171875;3.52999999108761;354;1 A;
63.3644648400201;-1.0498046875;-0.88623046875;3.53999999106236;355;1 A;
63.3744648399949;-1.0498046875;-0.89630126953125;3.54999999103711;356;1 A;
63.3844648399696;-1.0498046875;-0.89019775390625;3.55999999101186;357;1 A;
63.3944648399444;-1.05010986328125;-0.90789794921875;3.56999999098662;358;1 A;
63.4044648399191;-1.05010986328125;-0.89752197265625;3.57999999096137;359;1 A;
63.4144648398939;-1.05010986328125;-0.90423583984375;3.58999999093612;360;1 A;
63.4244648398686;-1.0498046875;-0.8935546875;3.59999999091087;361;1 A;
63.4344648398434;-1.0498046875;-0.89599609375;3.60999999088563;362;1 A;
63.4444648398181;-1.04949951171875;-0.92498779296875;3.61999999086038;363;1 A;
63.4544648397929;-1.04949951171875;-0.9197998046875;3.62999999083513;364;1 A;
63.4644648397676;-1.0491943359375;-0.92376708984375;3.63999999080988;365;1 A;
63.4744648397424;-1.04949951171875;-0.9051513671875;3.64999999078464;366;1 A;
63.4844648397171;-1.05010986328125;-0.904541015625;3.65999999075939;367;1 A;
63.4944648396919;-1.04888916015625;-0.9033203125;3.66999999073414;368;1 A;
63.5044648396666;-1.0491943359375;-0.89691162109375;3.67999999070889;369;1 A;
63.5144648396414;-1.04949951171875;-0.919189453125;3.68999999068365;370;1 A;
63.5244648396161;-1.0498046875;-0.9033203125;3.6999999906584;371;1 A;
63.5344648395909;-1.05010986328125;-0.91522216796875;3.70999999063315;372;1 A;
63.5444648395656;-1.0498046875;-0.9033203125;3.7199999906079;373;1 A;
63.5544648395404;-1.0498046875;-0.89996337890625;3.72999999058266;374;1 A;
63.5644648395152;-1.04949951171875;-0.90972900390625;3.73999999055741;375;1 A;
63.5744648394899;-1.0491943359375;-0.8978271484375;3.74999999053216;376;1 A;
63.5844648394647;-1.0498046875;-0.9112548828125;3.75999999050691;377;1 A;
63.5944648394394;-1.0498046875;-0.9039306640625;3.76999999048167;378;1 A;
63.6044648394142;-1.05010986328125;-0.91949462890625;3.77999999045642;379;1 A;
63.6144648393889;-1.04949951171875;-0.916748046875;3.78999999043117;380;1 A;
63.6244648393637;-1.04949951171875;-0.91033935546875;3.79999999040592;381;1 A;
63.6344648393384;-1.04949951171875;-0.93170166015625;3.80999999038067;382;1 A;
63.6444648393132;-1.04949951171875;-0.91278076171875;3.81999999035543;383;1 A;
63.6544648392879;-1.0491943359375;-0.92254638671875;3.82999999033018;384;1 A;
63.6644648392627;-1.04949951171875;-0.9259033203125;3.83999999030493;385;1 A;
63.6744648392374;-1.0504150390625;-0.9246826171875;3.84999999027968;386;1 A;
63.6844648392122;-1.0491943359375;-0.9375;3.85999999025444;387;1 A;
63.6944648391869;-1.0498046875;-0.91888427734375;3.86999999022919;388;1 A;
63.7044648391617;-1.05010986328125;-0.93414306640625;3.87999999020394;389;1 A;
63.7144648391364;-1.0491943359375;-0.92315673828125;3.88999999017869;390;1 A;
63.7244648391112;-1.04888916015625;-0.9417724609375;3.89999999015345;391;1 A;
63.7344648390859;-1.04949951171875;-0.9454345703125;3.9099999901282;392;1 A;
63.7444648390607;-1.04949951171875;-0.933837890625;3.91999999010295;393;1 A;
63.7544648390354;-1.0498046875;-0.95916748046875;3.9299999900777;394;1 A;
63.7644648390102;-1.0491943359375;-0.93475341796875;3.93999999005246;395;1 A;
63.774464838985;-1.05010986328125;-0.9375;3.94999999002721;396;1 A;
63.7844648389597;-1.05010986328125;-0.93353271484375;3.95999999000196;397;1 A;
63.7944648389345;-1.05010986328125;-0.92681884765625;3.96999998997671;398;1 A;
63.8044648389092;-1.0498046875;-0.9478759765625;3.97999998995147;399;1 A;
63.814464838884;-1.04949951171875;-0.94207763671875;3.98999998992622;400;1 A;
63.8244648388587;-1.0498046875;-0.9576416015625;3.99999998990097;401;1 A;
63.8344648388335;-1.0491943359375;-0.94879150390625;4.00999998987572;402;1 A;
63.8444648388082;-1.05010986328125;-0.94085693359375;4.01999998985048;403;1 A;
63.854464838783;-1.04949951171875;-0.94390869140625;4.02999998982523;404;1 A;
63.8644648387577;-1.04949951171875;-0.93170166015625;4.03999998979998;405;1 A;
63.8744648387325;-1.0491943359375;-0.958251953125;4.04999998977473;406;1 A;
63.8844648387072;-1.04949951171875;-0.94512939453125;4.05999998974949;407;1 A;
63.894464838682;-1.048583984375;-0.95184326171875;4.06999998972424;408;1 A;
63.9044648386567;-1.05010986328125;-0.94879150390625;4.07999998969899;409;1 A;
63.9144648386315;-1.04949951171875;-0.948486328125;4.08999998967374;410;1 A;
63.9244648386062;-1.04949951171875;-0.9661865234375;4.0999999896485;411;1 A;
63.934464838581;-1.04949951171875;-0.9637451171875;4.10999998962325;412;1 A;
63.9444648385557;-1.0491943359375;-0.989990234375;4.119999989598;413;1 A;
63.9544648385305;-1.04888916015625;-0.987548828125;4.12999998957275;414;1 A;
63.9644648385053;-1.05072021484375;-0.9912109375;4.1399999895475;415;1 A;
63.97446483848;-1.0504150390625;-0.99365234375;4.14999998952226;416;1 A;
63.9844648384548;-1.048583984375;-0.96466064453125;4.15999998949701;417;1 A;
63.9944648384295;-1.0498046875;-0.9820556640625;4.16999998947176;418;1 A;
64.0044648384043;-1.05010986328125;-0.96710205078125;4.17999998944651;419;1 A;
64.014464838379;-1.0491943359375;-0.9783935546875;4.18999998942127;420;1 A;
64.0244648383538;-1.0498046875;-0.98480224609375;4.19999998939602;421;1 A;
64.0344648383285;-1.0498046875;-0.98388671875;4.20999998937077;422;1 A;
64.0444648383033;-1.04888916015625;-0.99090576171875;4.21999998934552;423;1 A;
64.054464838278;-1.04949951171875;-0.97198486328125;4.22999998932028;424;1 A;
64.0644648382528;-1.0491943359375;-0.9857177734375;4.23999998929503;425;1 A;
64.0744648382275;-1.04949951171875;-0.97808837890625;4.24999998926978;426;1 A;
64.0844648382023;-1.0491943359375;-0.98388671875;4.25999998924453;427;1 A;
64.094464838177;-1.0498046875;-0.99517822265625;4.26999998921929;428;1 A;
64.1044648381518;-1.0491943359375;-0.982666015625;4.27999998919404;429;1 A;
64.1144648381265;-1.04949951171875;-1.00860595703125;4.28999998916879;430;1 A;
64.1244648381013;-1.0491943359375;-1.002197265625;4.29999998914354;431;1 A;
64.134464838076;-1.0498046875;-1.0211181640625;4.3099999891183;432;1 A;
64.1444648380508;-1.05010986328125;-1.019287109375;4.31999998909305;433;1 A;
64.1544648380255;-1.04949951171875;-1.01409912109375;4.3299999890678;434;1 A;
64.1644648380003;-1.04949951171875;-1.01226806640625;4.33999998904255;435;1 A;
64.1744648379751;-1.0498046875;-0.9912109375;4.34999998901731;436;1 A;
64.1844648379498;-1.0498046875;-1.01837158203125;4.35999998899206;437;1 A;
64.1944648379246;-1.0491943359375;-0.9991455078125;4.36999998896681;438;1 A;
64.2044648378993;-1.04949951171875;-1.00799560546875;4.37999998894156;439;1 A;
64.2144648378741;-1.0491943359375;-1.00860595703125;4.38999998891632;440;1 A;
64.2244648378488;-1.0498046875;-0.9942626953125;4.39999998889107;441;1 A;
64.2344648378236;-1.04949951171875;-1.019287109375;4.40999998886582;442;1 A;
64.2444648377983;-1.04888916015625;-1.00189208984375;4.41999998884057;443;1 A;
64.2544648377731;-1.05010986328125;-1.01837158203125;4.42999998881533;444;1 A;
64.2644648377478;-1.0491943359375;-1.009521484375;4.43999998879008;445;1 A;
64.2744648377226;-1.0491943359375;-1.0101318359375;4.44999998876483;446;1 A;
64.2844648376973;-1.04949951171875;-1.02874755859375;4.45999998873958;447;1 A;
64.2944648376721;-1.0491943359375;-1.0076904296875;4.46999998871433;448;1 A;
64.3044648376468;-1.04949951171875;-1.03485107421875;4.47999998868909;449;1 A;
64.3144648376216;-1.05010986328125;-1.0162353515625;4.48999998866384;450;1 A;
64.3244648375963;-1.04888916015625;-1.0211181640625;4.49999998863859;451;1 A;
64.3344648375711;-1.0491943359375;-1.03515625;4.50999998861334;452;1 A;
64.3444648375458;-1.0491943359375;-1.02264404296875;4.5199999885881;453;1 A;
64.3544648375206;-1.0504150390625;-1.04522705078125;4.52999998856285;454;1 A;
64.3644648374953;-1.0498046875;-1.02508544921875;4.5399999885376;455;1 A;
64.3744648374701;-1.0498046875;-1.04156494140625;4.54999998851235;456;1 A;
64.3844648374449;-1.04949951171875;-1.04827880859375;4.55999998848711;457;1 A;
64.3944648374196;-1.05010986328125;-1.04522705078125;4.56999998846186;458;1 A;
64.4044648373944;-1.04949951171875;-1.0552978515625;4.57999998843661;459;1 A;
64.4144648373691;-1.04949951171875;-1.026611328125;4.58999998841136;460;1 A;
64.4244648373439;-1.04949951171875;-1.05194091796875;4.59999998838612;461;1 A;
64.4344648373186;-1.05010986328125;-1.0284423828125;4.60999998836087;462;1 A;
64.4444648372934;-1.0504150390625;-1.0406494140625;4.61999998833562;463;1 A;
64.4544648372681;-1.0491943359375;-1.05621337890625;4.62999998831037;464;1 A;
64.4644648372429;-1.04949951171875;-1.051025390625;4.63999998828513;465;1 A;
64.4744648372176;-1.0498046875;-1.06719970703125;4.64999998825988;466;1 A;
64.4844648371924;-1.0498046875;-1.02935791015625;4.65999998823463;467;1 A;
64.4944648371671;-1.04949951171875;-1.05010986328125;4.66999998820938;468;1 A;
64.5044648371419;-1.05010986328125;-1.0467529296875;4.67999998818414;469;1 A;
64.5144648371166;-1.0498046875;-1.053466796875;4.68999998815889;470;1 A;
64.5244648370914;-1.0491943359375;-1.07208251953125;4.69999998813364;471;1 A;
64.5344648370661;-1.04949951171875;-1.05133056640625;4.70999998810839;472;1 A;
64.5444648370409;-1.04949951171875;-1.0882568359375;4.71999998808315;473;1 A;
64.5544648370156;-1.04949951171875;-1.05865478515625;4.7299999880579;474;1 A;
64.5644648369904;-1.0504150390625;-1.0638427734375;4.73999998803265;475;1 A;
64.5744648369651;-1.0498046875;-1.082763671875;4.7499999880074;476;1 A;
64.5844648369399;-1.0491943359375;-1.06353759765625;4.75999998798216;477;1 A;
64.5944648369147;-1.04949951171875;-1.09649658203125;4.76999998795691;478;1 A;
64.6044648368894;-1.0498046875;-1.0675048828125;4.77999998793166;479;1 A;
64.6144648368642;-1.04888916015625;-1.0858154296875;4.78999998790641;480;1 A;
64.6244648368389;-1.05010986328125;-1.07757568359375;4.79999998788116;481;1 A;
64.6344648368137;-1.0504150390625;-1.07177734375;4.80999998785592;482;1 A;
64.6444648367884;-1.0491943359375;-1.0986328125;4.81999998783067;483;1 A;
64.6544648367632;-1.04949951171875;-1.06414794921875;4.82999998780542;484;1 A;
64.6644648367379;-1.0498046875;-1.10137939453125;4.83999998778017;485;1 A;
64.6744648367127;-1.0498046875;-1.070556640625;4.84999998775493;486;1 A;
64.6844648366874;-1.04888916015625;-1.0858154296875;4.85999998772968;487;1 A;
64.6944648366622;-1.0504150390625;-1.11114501953125;4.86999998770443;488;1 A;
64.7044648366369;-1.0504150390625;-1.0882568359375;4.87999998767918;489;1 A;
64.7144648366117;-1.0504150390625;-1.12335205078125;4.88999998765394;490;1 A;
64.7244648365864;-1.04949951171875;-1.08367919921875;4.89999998762869;491;1 A;
64.7344648365612;-1.048583984375;-1.107177734375;4.90999998760344;492;1 A;
64.7444648365359;-1.0498046875;-1.09954833984375;4.91999998757819;493;1 A;
64.7544648365107;-1.04949951171875;-1.09954833984375;4.92999998755295;494;1 A;
64.7644648364854;-1.0498046875;-1.13037109375;4.9399999875277;495;1 A;
64.7744648364602;-1.0491943359375;-1.09588623046875;4.94999998750245;496;1 A;
64.7844648364349;-1.0491943359375;-1.1334228515625;4.9599999874772;497;1 A;
64.7944648364097;-1.0498046875;-1.1151123046875;4.96999998745196;498;1 A;
64.8044648363845;-1.0491943359375;-1.1358642578125;4.97999998742671;499;1 A;
64.8144648363592;-1.0491943359375;-1.1541748046875;4.98999998740146;500;1 A;
