Time (s);WE(1).Potential (V);WE(1).Current (A);Corrected time (s);Index;Current range
0.487166998770022;0.40057373046875;0.01353759765625;0;1;100 mA
0.497166998744774;0.400543212890625;0.00968017578125;0.00999999997475243;2;100 mA
0.507166998719526;0.400543212890625;0.00767822265625;0.0199999999495049;3;100 mA
0.517166998694279;0.4005126953125;0.0064178466796875;0.0299999999242573;4;100 mA
0.527166998669031;0.40045166015625;0.0055267333984375;0.0399999998990097;5;100 mA
0.537166998643784;0.400543212890625;0.0048736572265625;0.0499999998737621;6;100 mA
0.547166998618536;0.400543212890625;0.00438995361328125;0.0599999998485146;7;100 mA
0.557166998593289;0.40045166015625;0.00403594970703125;0.069999999823267;8;100 mA
0.567166998568041;0.40057373046875;0.00375091552734375;0.0799999997980194;9;100 mA
0.577166998542793;0.4005126953125;0.00346710205078125;0.0899999997727718;10;100 mA
0.587166998517546;0.400543212890625;0.0032550048828125;0.0999999997475243;11;100 mA
0.597166998492298;0.400604248046875;0.0030474853515625;0.109999999722277;12;100 mA
0.607166998467051;0.4005126953125;0.0028741455078125;0.119999999697029;13;100 mA
0.617166998441803;0.40057373046875;0.00272430419921875;0.129999999671782;14;100 mA
0.627166998416556;0.40057373046875;0.00259124755859375;0.139999999646534;15;100 mA
0.637166998391308;0.400634765625;0.0024505615234375;0.149999999621286;16;100 mA
0.64716699836606;0.40057373046875;0.0023516845703125;0.159999999596039;17;100 mA
0.657166998340813;0.400543212890625;0.00224456787109375;0.169999999570791;18;100 mA
0.667166998315565;0.4005126953125;0.002174072265625;0.179999999545544;19;100 mA
0.677166998290318;0.400634765625;0.00208404541015625;0.189999999520296;20;100 mA
0.68716699826507;0.40057373046875;0.002015380859375;0.199999999495049;21;100 mA
0.697166998239823;0.400604248046875;0.0019512939453125;0.209999999469801;22;100 mA
0.707166998214575;0.400543212890625;0.00188140869140625;0.219999999444553;23;100 mA
0.717166998189327;0.4005126953125;0.00181427001953125;0.229999999419306;24;100 mA
0.72716699816408;0.400543212890625;0.00176727294921875;0.239999999394058;25;100 mA
0.737166998138832;0.400604248046875;0.001702880859375;0.249999999368811;26;100 mA
0.747166998113585;0.4005126953125;0.00165924072265625;0.259999999343563;27;100 mA
0.757166998088337;0.4005126953125;0.0016119384765625;0.269999999318316;28;100 mA
0.76716699806309;0.40057373046875;0.0015771484375;0.279999999293068;29;100 mA
0.777166998037842;0.400634765625;0.0015338134765625;0.28999999926782;30;100 mA
0.787166998012594;0.400543212890625;0.001490478515625;0.299999999242573;31;100 mA
0.797166997987347;0.4005126953125;0.0014617919921875;0.309999999217325;32;100 mA
0.807166997962099;0.4005126953125;0.00144317626953125;0.319999999192078;33;100 mA
0.817166997936852;0.400543212890625;0.0014178466796875;0.32999999916683;34;100 mA
0.827166997911604;0.400543212890625;0.001396484375;0.339999999141583;35;100 mA
0.837166997886357;0.400604248046875;0.00135894775390625;0.349999999116335;36;100 mA
0.847166997861109;0.400482177734375;0.0013348388671875;0.359999999091087;37;100 mA
0.857166997835861;0.40057373046875;0.00130340576171875;0.36999999906584;38;100 mA
0.867166997810614;0.40057373046875;0.00130706787109375;0.379999999040592;39;100 mA
0.877166997785366;0.400543212890625;0.0012725830078125;0.389999999015345;40;100 mA
0.887166997760119;0.40057373046875;0.0012530517578125;0.399999998990097;41;100 mA
0.897166997734871;0.400543212890625;0.00122406005859375;0.40999999896485;42;100 mA
0.907166997709624;0.400604248046875;0.001199951171875;0.419999998939602;43;100 mA
0.917166997684376;0.40057373046875;0.001175537109375;0.429999998914354;44;100 mA
0.927166997659128;0.40057373046875;0.0011627197265625;0.439999998889107;45;100 mA
0.937166997633881;0.400543212890625;0.001136474609375;0.449999998863859;46;100 mA
0.947166997608633;0.4005126953125;0.00112823486328125;0.459999998838612;47;100 mA
0.957166997583386;0.40057373046875;0.0010986328125;0.469999998813364;48;100 mA
0.967166997558138;0.40057373046875;0.00108734130859375;0.479999998788116;49;100 mA
0.97716699753289;0.40057373046875;0.00106658935546875;0.489999998762869;50;100 mA
0.987166997507643;0.400543212890625;0.00104583740234375;0.499999998737621;51;100 mA
0.997166997482395;0.400543212890625;0.00103668212890625;0.509999998712374;52;100 mA
1.00716699745715;0.400604248046875;0.00101287841796875;0.519999998687126;53;100 mA
1.0171669974319;0.400604248046875;0.00100372314453125;0.529999998661879;54;100 mA
1.02716699740665;0.40057373046875;0.000999755859375;0.539999998636631;55;100 mA
1.03716699738141;0.4005126953125;0.000977478027343751;0.549999998611383;56;100 mA
1.04716699735616;0.400543212890625;0.0009808349609375;0.559999998586136;57;100 mA
1.05716699733091;0.400543212890625;0.00094451904296875;0.569999998560888;58;100 mA
1.06716699730566;0.400604248046875;0.000956115722656251;0.579999998535641;59;100 mA
1.07716699728041;0.40057373046875;0.000949707031249999;0.589999998510393;60;100 mA
1.08716699725517;0.400482177734375;0.00093231201171875;0.599999998485146;61;100 mA
1.09716699722992;0.400604248046875;0.00092437744140625;0.609999998459898;62;100 mA
1.10716699720467;0.400543212890625;0.00090911865234375;0.61999999843465;63;100 mA
1.11716699717942;0.400604248046875;0.000896301269531249;0.629999998409403;64;100 mA
1.12716699715418;0.4005126953125;0.00089141845703125;0.639999998384155;65;100 mA
1.13716699712893;0.4005126953125;0.000878295898437501;0.649999998358908;66;100 mA
1.14716699710368;0.400604248046875;0.000876770019531251;0.65999999833366;67;100 mA
1.15716699707843;0.400543212890625;0.000856933593750001;0.669999998308413;68;100 mA
1.16716699705319;0.40057373046875;0.000860595703125;0.679999998283165;69;100 mA
1.17716699702794;0.400543212890625;0.000843505859375;0.689999998257917;70;100 mA
1.18716699700269;0.4005126953125;0.000835571289062501;0.69999999823267;71;100 mA
1.19716699697744;0.400543212890625;0.00083770751953125;0.709999998207422;72;100 mA
1.2071669969522;0.400543212890625;0.00082061767578125;0.719999998182175;73;100 mA
1.21716699692695;0.4005126953125;0.000812377929687499;0.729999998156927;74;100 mA
1.2271669969017;0.400604248046875;0.0008013916015625;0.73999999813168;75;100 mA
1.23716699687645;0.40057373046875;0.00079193115234375;0.749999998106432;76;100 mA
1.24716699685121;0.400543212890625;0.00078582763671875;0.759999998081184;77;100 mA
1.25716699682596;0.400634765625;0.00077239990234375;0.769999998055937;78;100 mA
1.26716699680071;0.400543212890625;0.00077728271484375;0.779999998030689;79;100 mA
1.27716699677546;0.400543212890625;0.0007659912109375;0.789999998005442;80;100 mA
1.28716699675022;0.40057373046875;0.00076171875;0.799999997980194;81;100 mA
1.29716699672497;0.4005126953125;0.0007525634765625;0.809999997954947;82;100 mA
1.30716699669972;0.400604248046875;0.0007373046875;0.819999997929699;83;100 mA
1.31716699667447;0.400543212890625;0.000742492675781251;0.829999997904451;84;100 mA
1.32716699664923;0.4005126953125;0.0007391357421875;0.839999997879204;85;100 mA
1.33716699662398;0.40057373046875;0.000724182128906251;0.849999997853956;86;100 mA
1.34716699659873;0.400604248046875;0.00072357177734375;0.859999997828709;87;100 mA
1.35716699657348;0.400634765625;0.000705871582031251;0.869999997803461;88;100 mA
1.36716699654824;0.4005126953125;0.00070343017578125;0.879999997778214;89;100 mA
1.37716699652299;0.4005126953125;0.000704040527343749;0.889999997752966;90;100 mA
1.38716699649774;0.40057373046875;0.00069915771484375;0.899999997727718;91;100 mA
1.39716699647249;0.40057373046875;0.000693664550781251;0.909999997702471;92;100 mA
1.40716699644724;0.400604248046875;0.000695190429687501;0.919999997677223;93;100 mA
1.417166996422;0.40057373046875;0.0006884765625;0.929999997651976;94;100 mA
1.42716699639675;0.400421142578125;0.000684509277343751;0.939999997626728;95;100 mA
1.4371669963715;0.400543212890625;0.000678405761718751;0.949999997601481;96;100 mA
1.44716699634625;0.400543212890625;0.00068084716796875;0.959999997576233;97;100 mA
1.45716699632101;0.400543212890625;0.000667724609375001;0.969999997550985;98;100 mA
1.46716699629576;0.400543212890625;0.00067596435546875;0.979999997525738;99;100 mA
1.47716699627051;0.400543212890625;0.00065582275390625;0.98999999750049;100;100 mA
1.48716699624526;0.400543212890625;0.00065643310546875;0.999999997475243;101;100 mA
1.49716699622002;0.40057373046875;0.000652160644531249;1.00999999745;102;100 mA
1.50716699619477;0.4005126953125;0.00063140869140625;1.01999999742475;103;100 mA
1.51716699616952;0.400543212890625;0.0006304931640625;1.0299999973995;104;100 mA
1.52716699614427;0.4005126953125;0.000641784667968751;1.03999999737425;105;100 mA
1.53716699611903;0.4005126953125;0.0006231689453125;1.049999997349;106;100 mA
1.54716699609378;0.40057373046875;0.000625000000000001;1.05999999732376;107;100 mA
1.55716699606853;0.40057373046875;0.000609130859375;1.06999999729851;108;100 mA
1.56716699604328;0.40057373046875;0.000615234375;1.07999999727326;109;100 mA
1.57716699601804;0.400543212890625;0.0006207275390625;1.08999999724801;110;100 mA
1.58716699599279;0.400604248046875;0.000618896484375001;1.09999999722277;111;100 mA
1.59716699596754;0.400604248046875;0.0006121826171875;1.10999999719752;112;100 mA
1.60716699594229;0.400543212890625;0.000603637695312501;1.11999999717227;113;100 mA
1.61716699591705;0.400482177734375;0.0006011962890625;1.12999999714702;114;100 mA
1.6271669958918;0.400543212890625;0.00060791015625;1.13999999712178;115;100 mA
1.63716699586655;0.4005126953125;0.0005938720703125;1.14999999709653;116;100 mA
1.6471669958413;0.400604248046875;0.000606384277343749;1.15999999707128;117;100 mA
1.65716699581606;0.400604248046875;0.00058502197265625;1.16999999704603;118;100 mA
1.66716699579081;0.4005126953125;0.00058929443359375;1.17999999702079;119;100 mA
1.67716699576556;0.4005126953125;0.00058624267578125;1.18999999699554;120;100 mA
1.68716699574031;0.400634765625;0.000577697753906251;1.19999999697029;121;100 mA
1.69716699571507;0.400543212890625;0.000583801269531251;1.20999999694504;122;100 mA
1.70716699568982;0.400543212890625;0.000574340820312499;1.2199999969198;123;100 mA
1.71716699566457;0.400604248046875;0.00056915283203125;1.22999999689455;124;100 mA
1.72716699563932;0.4005126953125;0.000567016601562501;1.2399999968693;125;100 mA
1.73716699561407;0.400634765625;0.000560913085937501;1.24999999684405;126;100 mA
1.74716699558883;0.4005126953125;0.000560913085937501;1.25999999681881;127;100 mA
1.75716699556358;0.400543212890625;0.0005450439453125;1.26999999679356;128;100 mA
1.76716699553833;0.400482177734375;0.000556640625;1.27999999676831;129;100 mA
1.77716699551308;0.400543212890625;0.000547180175781251;1.28999999674306;130;100 mA
1.78716699548784;0.400634765625;0.000545349121093749;1.29999999671782;131;100 mA
1.79716699546259;0.4005126953125;0.0005419921875;1.30999999669257;132;100 mA
1.80716699543734;0.400634765625;0.000530395507812501;1.31999999666732;133;100 mA
1.81716699541209;0.400543212890625;0.000528564453124999;1.32999999664207;134;100 mA
1.82716699538685;0.400543212890625;0.00053863525390625;1.33999999661683;135;100 mA
1.8371669953616;0.40057373046875;0.0005328369140625;1.34999999659158;136;100 mA
1.84716699533635;0.40045166015625;0.000538024902343751;1.35999999656633;137;100 mA
1.8571669953111;0.400543212890625;0.000530090332031249;1.36999999654108;138;100 mA
1.86716699528586;0.400604248046875;0.000533447265625001;1.37999999651583;139;100 mA
1.87716699526061;0.400543212890625;0.0005291748046875;1.38999999649059;140;100 mA
1.88716699523536;0.400543212890625;0.00052398681640625;1.39999999646534;141;100 mA
1.89716699521011;0.400543212890625;0.000525817871093751;1.40999999644009;142;100 mA
1.90716699518487;0.400482177734375;0.000516357421875;1.41999999641484;143;100 mA
1.91716699515962;0.400604248046875;0.0005145263671875;1.4299999963896;144;100 mA
1.92716699513437;0.4005126953125;0.00051239013671875;1.43999999636435;145;100 mA
1.93716699510912;0.400543212890625;0.0005047607421875;1.4499999963391;146;100 mA
1.94716699508388;0.400482177734375;0.00050689697265625;1.45999999631385;147;100 mA
1.95716699505863;0.400543212890625;0.0005023193359375;1.46999999628861;148;100 mA
1.96716699503338;0.40057373046875;0.00050537109375;1.47999999626336;149;100 mA
1.97716699500813;0.40057373046875;0.000504150390624999;1.48999999623811;150;100 mA
1.98716699498289;0.400543212890625;0.0004962158203125;1.49999999621286;151;100 mA
1.99716699495764;0.400604248046875;0.0004864501953125;1.50999999618762;152;100 mA
2.00716699493239;0.40057373046875;0.00048675537109375;1.51999999616237;153;100 mA
2.01716699490714;0.400604248046875;0.0004864501953125;1.52999999613712;154;100 mA
2.0271669948819;0.40057373046875;0.00048675537109375;1.53999999611187;155;100 mA
2.03716699485665;0.4005126953125;0.00048065185546875;1.54999999608663;156;100 mA
2.0471669948314;0.400604248046875;0.0004833984375;1.55999999606138;157;100 mA
2.05716699480615;0.400543212890625;0.00046875;1.56999999603613;158;100 mA
2.06716699478091;0.400604248046875;0.000475158691406249;1.57999999601088;159;100 mA
2.07716699475566;0.400604248046875;0.00047607421875;1.58999999598564;160;100 mA
2.08716699473041;0.4005126953125;0.000473632812499999;1.59999999596039;161;100 mA
2.09716699470516;0.40057373046875;0.000476684570312499;1.60999999593514;162;100 mA
2.10716699467991;0.400634765625;0.00047332763671875;1.61999999590989;163;100 mA
2.11716699465467;0.400482177734375;0.00046722412109375;1.62999999588465;164;100 mA
2.12716699462942;0.400543212890625;0.00048248291015625;1.6399999958594;165;100 mA
2.13716699460417;0.400543212890625;0.000470581054687499;1.64999999583415;166;100 mA
2.14716699457892;0.40057373046875;0.00047637939453125;1.6599999958089;167;100 mA
2.15716699455368;0.400604248046875;0.000460205078125001;1.66999999578366;168;100 mA
2.16716699452843;0.40045166015625;0.000458374023437499;1.67999999575841;169;100 mA
2.17716699450318;0.40057373046875;0.000452270507812499;1.68999999573316;170;100 mA
2.18716699447793;0.4005126953125;0.000453796386718749;1.69999999570791;171;100 mA
2.19716699445269;0.40057373046875;0.00045654296875;1.70999999568267;172;100 mA
2.20716699442744;0.40057373046875;0.00044677734375;1.71999999565742;173;100 mA
2.21716699440219;0.400482177734375;0.0004486083984375;1.72999999563217;174;100 mA
2.22716699437694;0.40045166015625;0.000455627441406251;1.73999999560692;175;100 mA
2.2371669943517;0.400634765625;0.000437316894531251;1.74999999558167;176;100 mA
2.24716699432645;0.40057373046875;0.000449523925781251;1.75999999555643;177;100 mA
2.2571669943012;0.400604248046875;0.000435791015625001;1.76999999553118;178;100 mA
2.26716699427595;0.400604248046875;0.00044525146484375;1.77999999550593;179;100 mA
2.27716699425071;0.400482177734375;0.000440673828125;1.78999999548068;180;100 mA
2.28716699422546;0.40057373046875;0.00043304443359375;1.79999999545544;181;100 mA
2.29716699420021;0.400604248046875;0.000432739257812501;1.80999999543019;182;100 mA
2.30716699417496;0.400543212890625;0.0004241943359375;1.81999999540494;183;100 mA
2.31716699414972;0.400543212890625;0.0004241943359375;1.82999999537969;184;100 mA
2.32716699412447;0.400482177734375;0.000433349609375;1.83999999535445;185;100 mA
2.33716699409922;0.40057373046875;0.000432434082031249;1.8499999953292;186;100 mA
2.34716699407397;0.4005126953125;0.000437316894531251;1.85999999530395;187;100 mA
2.35716699404873;0.400543212890625;0.0004150390625;1.8699999952787;188;100 mA
2.36716699402348;0.400543212890625;0.00042724609375;1.87999999525346;189;100 mA
2.37716699399823;0.400543212890625;0.00042755126953125;1.88999999522821;190;100 mA
2.38716699397298;0.400543212890625;0.0004315185546875;1.89999999520296;191;100 mA
2.39716699394774;0.40057373046875;0.000435485839843749;1.90999999517771;192;100 mA
2.40716699392249;0.40057373046875;0.000420532226562501;1.91999999515247;193;100 mA
2.41716699389724;0.40057373046875;0.000423278808593749;1.92999999512722;194;100 mA
2.42716699387199;0.40057373046875;0.000425109863281251;1.93999999510197;195;100 mA
2.43716699384674;0.40057373046875;0.00041473388671875;1.94999999507672;196;100 mA
2.4471669938215;0.40057373046875;0.000421752929687499;1.95999999505148;197;100 mA
2.45716699379625;0.400482177734375;0.000415649414062499;1.96999999502623;198;100 mA
2.467166993771;0.400543212890625;0.000419921875;1.97999999500098;199;100 mA
2.47716699374575;0.400543212890625;0.000411376953125001;1.98999999497573;200;100 mA
2.48716699372051;0.4005126953125;0.000406799316406251;1.99999999495049;201;100 mA
2.49716699369526;0.400543212890625;0.000412597656249999;2.00999999492524;202;100 mA
2.50716699367001;0.40057373046875;0.0003948974609375;2.01999999489999;203;100 mA
2.51716699364476;0.4005126953125;0.0003985595703125;2.02999999487474;204;100 mA
2.52716699361952;0.40057373046875;0.000401916503906249;2.0399999948495;205;100 mA
2.53716699359427;0.400604248046875;0.00039215087890625;2.04999999482425;206;100 mA
2.54716699356902;0.40057373046875;0.0003948974609375;2.059999994799;207;100 mA
2.55716699354377;0.400543212890625;0.000385131835937499;2.06999999477375;208;100 mA
2.56716699351853;0.400482177734375;0.0003948974609375;2.0799999947485;209;100 mA
2.57716699349328;0.40057373046875;0.0003936767578125;2.08999999472326;210;100 mA
2.58716699346803;0.400634765625;0.0003948974609375;2.09999999469801;211;100 mA
2.59716699344278;0.4005126953125;0.000390014648437501;2.10999999467276;212;100 mA
2.60716699341754;0.400421142578125;0.00039825439453125;2.11999999464751;213;100 mA
2.61716699339229;0.400543212890625;0.000395812988281249;2.12999999462227;214;100 mA
2.62716699336704;0.400543212890625;0.00040252685546875;2.13999999459702;215;100 mA
2.63716699334179;0.400604248046875;0.000394287109374999;2.14999999457177;216;100 mA
2.64716699331655;0.400543212890625;0.00040313720703125;2.15999999454652;217;100 mA
2.6571669932913;0.4005126953125;0.000390625;2.16999999452128;218;100 mA
2.66716699326605;0.400604248046875;0.000395812988281249;2.17999999449603;219;100 mA
2.6771669932408;0.4005126953125;0.00039093017578125;2.18999999447078;220;100 mA
2.68716699321556;0.400604248046875;0.000383911132812501;2.19999999444553;221;100 mA
2.69716699319031;0.400543212890625;0.00039031982421875;2.20999999442029;222;100 mA
2.70716699316506;0.400482177734375;0.00038604736328125;2.21999999439504;223;100 mA
2.71716699313981;0.40057373046875;0.0003802490234375;2.22999999436979;224;100 mA
2.72716699311457;0.400543212890625;0.000388488769531251;2.23999999434454;225;100 mA
2.73716699308932;0.40057373046875;0.000385437011718751;2.2499999943193;226;100 mA
2.74716699306407;0.40045166015625;0.0003924560546875;2.25999999429405;227;100 mA
2.75716699303882;0.40057373046875;0.00037994384765625;2.2699999942688;228;100 mA
2.76716699301357;0.400634765625;0.000377502441406249;2.27999999424355;229;100 mA
2.77716699298833;0.400482177734375;0.00037567138671875;2.28999999421831;230;100 mA
2.78716699296308;0.40057373046875;0.000371398925781249;2.29999999419306;231;100 mA
2.79716699293783;0.40057373046875;0.00036895751953125;2.30999999416781;232;100 mA
2.80716699291258;0.40057373046875;0.000359191894531249;2.31999999414256;233;100 mA
2.81716699288734;0.40057373046875;0.00036651611328125;2.32999999411732;234;100 mA
2.82716699286209;0.400482177734375;0.000379028320312499;2.33999999409207;235;100 mA
2.83716699283684;0.400543212890625;0.00036651611328125;2.34999999406682;236;100 mA
2.84716699281159;0.4005126953125;0.000372314453125;2.35999999404157;237;100 mA
2.85716699278635;0.400543212890625;0.00036773681640625;2.36999999401633;238;100 mA
2.8671669927611;0.400604248046875;0.0003753662109375;2.37999999399108;239;100 mA
2.87716699273585;0.400543212890625;0.0003741455078125;2.38999999396583;240;100 mA
2.8871669927106;0.4005126953125;0.00037078857421875;2.39999999394058;241;100 mA
2.89716699268536;0.400604248046875;0.00037078857421875;2.40999999391533;242;100 mA
2.90716699266011;0.40057373046875;0.0003619384765625;2.41999999389009;243;100 mA
2.91716699263486;0.400634765625;0.00036468505859375;2.42999999386484;244;100 mA
2.92716699260961;0.4005126953125;0.00037200927734375;2.43999999383959;245;100 mA
2.93716699258437;0.4005126953125;0.00036163330078125;2.44999999381434;246;100 mA
2.94716699255912;0.400543212890625;0.00036956787109375;2.4599999937891;247;100 mA
2.95716699253387;0.400604248046875;0.000354614257812499;2.46999999376385;248;100 mA
2.96716699250862;0.400634765625;0.000360717773437499;2.4799999937386;249;100 mA
2.97716699248338;0.4005126953125;0.00035736083984375;2.48999999371335;250;100 mA
2.98716699245813;0.400543212890625;0.000354614257812499;2.49999999368811;251;100 mA
2.99716699243288;0.4005126953125;0.000359191894531249;2.50999999366286;252;100 mA
3.00716699240763;0.400634765625;0.000347290039062501;2.51999999363761;253;100 mA
3.01716699238239;0.400543212890625;0.00035125732421875;2.52999999361236;254;100 mA
3.02716699235714;0.400604248046875;0.0003460693359375;2.53999999358712;255;100 mA
3.03716699233189;0.400543212890625;0.000338134765625001;2.54999999356187;256;100 mA
3.04716699230664;0.4005126953125;0.0003509521484375;2.55999999353662;257;100 mA
3.0571669922814;0.400634765625;0.00033416748046875;2.56999999351137;258;100 mA
3.06716699225615;0.4005126953125;0.000348815917968751;2.57999999348613;259;100 mA
3.0771669922309;0.400482177734375;0.000347290039062501;2.58999999346088;260;100 mA
3.08716699220565;0.400543212890625;0.000344238281250001;2.59999999343563;261;100 mA
3.09716699218041;0.400543212890625;0.00035125732421875;2.60999999341038;262;100 mA
3.10716699215516;0.400634765625;0.00033905029296875;2.61999999338514;263;100 mA
3.11716699212991;0.40057373046875;0.000344238281250001;2.62999999335989;264;100 mA
3.12716699210466;0.400604248046875;0.000347900390625;2.63999999333464;265;100 mA
3.13716699207941;0.400543212890625;0.00034820556640625;2.64999999330939;266;100 mA
3.14716699205417;0.40057373046875;0.000347900390625;2.65999999328415;267;100 mA
3.15716699202892;0.400604248046875;0.00033416748046875;2.6699999932589;268;100 mA
3.16716699200367;0.400604248046875;0.000339660644531251;2.67999999323365;269;100 mA
3.17716699197842;0.400543212890625;0.000340576171875;2.6899999932084;270;100 mA
3.18716699195318;0.4005126953125;0.000345764160156251;2.69999999318316;271;100 mA
3.19716699192793;0.400604248046875;0.00034820556640625;2.70999999315791;272;100 mA
3.20716699190268;0.400634765625;0.00033843994140625;2.71999999313266;273;100 mA
3.21716699187743;0.4005126953125;0.000336303710937499;2.72999999310741;274;100 mA
3.22716699185219;0.4005126953125;0.000340881347656249;2.73999999308217;275;100 mA
3.23716699182694;0.400543212890625;0.00033447265625;2.74999999305692;276;100 mA
3.24716699180169;0.400634765625;0.000336608886718751;2.75999999303167;277;100 mA
3.25716699177644;0.4005126953125;0.000327453613281251;2.76999999300642;278;100 mA
3.2671669917512;0.400543212890625;0.000332031250000001;2.77999999298117;279;100 mA
3.27716699172595;0.400543212890625;0.000328979492187501;2.78999999295593;280;100 mA
3.2871669917007;0.40057373046875;0.000322570800781249;2.79999999293068;281;100 mA
3.29716699167545;0.400665283203125;0.00032501220703125;2.80999999290543;282;100 mA
3.30716699165021;0.400482177734375;0.000324096679687499;2.81999999288018;283;100 mA
3.31716699162496;0.400543212890625;0.000322265625;2.82999999285494;284;100 mA
3.32716699159971;0.400482177734375;0.000330505371093751;2.83999999282969;285;100 mA
3.33716699157446;0.40057373046875;0.00032379150390625;2.84999999280444;286;100 mA
3.34716699154922;0.40057373046875;0.000328979492187501;2.85999999277919;287;100 mA
3.35716699152397;0.40057373046875;0.00031890869140625;2.86999999275395;288;100 mA
3.36716699149872;0.4005126953125;0.000325927734375001;2.8799999927287;289;100 mA
3.37716699147347;0.400543212890625;0.000325927734375001;2.88999999270345;290;100 mA
3.38716699144823;0.4005126953125;0.0003277587890625;2.8999999926782;291;100 mA
3.39716699142298;0.40057373046875;0.000322265625;2.90999999265296;292;100 mA
3.40716699139773;0.400543212890625;0.000316162109375;2.91999999262771;293;100 mA
3.41716699137248;0.4005126953125;0.00032073974609375;2.92999999260246;294;100 mA
3.42716699134724;0.400543212890625;0.00033294677734375;2.93999999257721;295;100 mA
3.43716699132199;0.400543212890625;0.00032623291015625;2.94999999255197;296;100 mA
3.44716699129674;0.400543212890625;0.000328674316406249;2.95999999252672;297;100 mA
3.45716699127149;0.4005126953125;0.000319824218750001;2.96999999250147;298;100 mA
3.46716699124624;0.4005126953125;0.00032501220703125;2.97999999247622;299;100 mA
3.477166991221;0.400604248046875;0.00032196044921875;2.98999999245098;300;100 mA
3.48716699119575;0.400604248046875;0.0003192138671875;2.99999999242573;301;100 mA
3.4971669911705;0.4005126953125;0.00031707763671875;3.00999999240048;302;100 mA
3.50716699114525;0.4005126953125;0.000311889648437499;3.01999999237523;303;100 mA
3.51716699112001;0.400543212890625;0.000312194824218751;3.02999999234999;304;100 mA
3.52716699109476;0.40057373046875;0.0003192138671875;3.03999999232474;305;100 mA
3.53716699106951;0.4005126953125;0.000306396484375;3.04999999229949;306;100 mA
3.54716699104426;0.40045166015625;0.000317993164062499;3.05999999227424;307;100 mA
3.55716699101902;0.40057373046875;0.000309143066406251;3.069999992249;308;100 mA
3.56716699099377;0.400543212890625;0.000311279296875;3.07999999222375;309;100 mA
3.57716699096852;0.400604248046875;0.000308837890624999;3.0899999921985;310;100 mA
3.58716699094327;0.400543212890625;0.00030792236328125;3.09999999217325;311;100 mA
3.59716699091803;0.400543212890625;0.000313415527343749;3.109999992148;312;100 mA
3.60716699089278;0.4005126953125;0.00030487060546875;3.11999999212276;313;100 mA
3.61716699086753;0.400543212890625;0.00030487060546875;3.12999999209751;314;100 mA
3.62716699084228;0.400604248046875;0.0003082275390625;3.13999999207226;315;100 mA
3.63716699081704;0.400665283203125;0.00030059814453125;3.14999999204701;316;100 mA
3.64716699079179;0.40045166015625;0.000311279296875;3.15999999202177;317;100 mA
3.65716699076654;0.400604248046875;0.000295410156250001;3.16999999199652;318;100 mA
3.66716699074129;0.40057373046875;0.000310363769531249;3.17999999197127;319;100 mA
3.67716699071605;0.4005126953125;0.0003094482421875;3.18999999194602;320;100 mA
3.6871669906908;0.400543212890625;0.000312194824218751;3.19999999192078;321;100 mA
3.69716699066555;0.400604248046875;0.000310668945312501;3.20999999189553;322;100 mA
3.7071669906403;0.400543212890625;0.0003009033203125;3.21999999187028;323;100 mA
3.71716699061506;0.40057373046875;0.00030487060546875;3.22999999184503;324;100 mA
3.72716699058981;0.40057373046875;0.000304260253906249;3.23999999181979;325;100 mA
3.73716699056456;0.40057373046875;0.00030029296875;3.24999999179454;326;100 mA
3.74716699053931;0.400634765625;0.00030364990234375;3.25999999176929;327;100 mA
3.75716699051407;0.400604248046875;0.00029144287109375;3.26999999174404;328;100 mA
3.76716699048882;0.40057373046875;0.00030029296875;3.2799999917188;329;100 mA
3.77716699046357;0.4005126953125;0.00030029296875;3.28999999169355;330;100 mA
3.78716699043832;0.4005126953125;0.00029754638671875;3.2999999916683;331;100 mA
3.79716699041307;0.40057373046875;0.00030029296875;3.30999999164305;332;100 mA
3.80716699038783;0.400543212890625;0.00029754638671875;3.31999999161781;333;100 mA
3.81716699036258;0.400543212890625;0.000290832519531251;3.32999999159256;334;100 mA
3.82716699033733;0.400543212890625;0.000301513671875001;3.33999999156731;335;100 mA
3.83716699031208;0.400482177734375;0.00029296875;3.34999999154206;336;100 mA
3.84716699028684;0.400543212890625;0.000298156738281249;3.35999999151682;337;100 mA
3.85716699026159;0.400482177734375;0.000289306640625001;3.36999999149157;338;100 mA
3.86716699023634;0.400604248046875;0.000289306640625001;3.37999999146632;339;100 mA
3.87716699021109;0.40045166015625;0.00029449462890625;3.38999999144107;340;100 mA
3.88716699018585;0.400482177734375;0.0002880859375;3.39999999141583;341;100 mA
3.8971669901606;0.40057373046875;0.00029144287109375;3.40999999139058;342;100 mA
3.90716699013535;0.400604248046875;0.0002911376953125;3.41999999136533;343;100 mA
3.9171669901101;0.400543212890625;0.0002911376953125;3.42999999134008;344;100 mA
3.92716699008486;0.40057373046875;0.000296936035156251;3.43999999131483;345;100 mA
3.93716699005961;0.40057373046875;0.000292053222656249;3.44999999128959;346;100 mA
3.94716699003436;0.40057373046875;0.00030181884765625;3.45999999126434;347;100 mA
3.95716699000911;0.400604248046875;0.000287475585937499;3.46999999123909;348;100 mA
3.96716698998387;0.400543212890625;0.00029296875;3.47999999121384;349;100 mA
3.97716698995862;0.400543212890625;0.00028656005859375;3.4899999911886;350;100 mA
3.98716698993337;0.400634765625;0.00028411865234375;3.49999999116335;351;100 mA
3.99716698990812;0.40057373046875;0.00029022216796875;3.5099999911381;352;100 mA
4.00716698988288;0.400634765625;0.00028411865234375;3.51999999111285;353;100 mA
4.01716698985763;0.400482177734375;0.0002838134765625;3.52999999108761;354;100 mA
4.02716698983238;0.400543212890625;0.00029296875;3.53999999106236;355;100 mA
4.03716698980713;0.40057373046875;0.000284423828124999;3.54999999103711;356;100 mA
4.04716698978189;0.40057373046875;0.00028961181640625;3.55999999101186;357;100 mA
4.05716698975664;0.400604248046875;0.000278625488281251;3.56999999098662;358;100 mA
4.06716698973139;0.400543212890625;0.00028350830078125;3.57999999096137;359;100 mA
4.07716698970614;0.400482177734375;0.000281677246093751;3.58999999093612;360;100 mA
4.0871669896809;0.40057373046875;0.000281372070312499;3.59999999091087;361;100 mA
4.09716698965565;0.400604248046875;0.000284729003906251;3.60999999088563;362;100 mA
4.1071669896304;0.400543212890625;0.000278625488281251;3.61999999086038;363;100 mA
4.11716698960515;0.40057373046875;0.00027496337890625;3.62999999083513;364;100 mA
4.12716698957991;0.400543212890625;0.000280151367187501;3.63999999080988;365;100 mA
4.13716698955466;0.400604248046875;0.00027801513671875;3.64999999078464;366;100 mA
4.14716698952941;0.40057373046875;0.00028350830078125;3.65999999075939;367;100 mA
4.15716698950416;0.40045166015625;0.0002789306640625;3.66999999073414;368;100 mA
4.16716698947891;0.400543212890625;0.000287475585937499;3.67999999070889;369;100 mA
4.17716698945367;0.4005126953125;0.0002838134765625;3.68999999068365;370;100 mA
4.18716698942842;0.400634765625;0.000283203125000001;3.6999999906584;371;100 mA
4.19716698940317;0.400604248046875;0.000282897949218749;3.70999999063315;372;100 mA
4.20716698937792;0.400543212890625;0.000275268554687499;3.7199999906079;373;100 mA
4.21716698935268;0.400634765625;0.000273742675781249;3.72999999058266;374;100 mA
4.22716698932743;0.400543212890625;0.00027496337890625;3.73999999055741;375;100 mA
4.23716698930218;0.400543212890625;0.00027618408203125;3.74999999053216;376;100 mA
4.24716698927693;0.400543212890625;0.000279846191406249;3.75999999050691;377;100 mA
4.25716698925169;0.4005126953125;0.00026885986328125;3.76999999048167;378;100 mA
4.26716698922644;0.40057373046875;0.00028045654296875;3.77999999045642;379;100 mA
4.27716698920119;0.400634765625;0.00028045654296875;3.78999999043117;380;100 mA
4.28716698917594;0.40057373046875;0.000281982421875;3.79999999040592;381;100 mA
4.2971669891507;0.400604248046875;0.00027587890625;3.80999999038067;382;100 mA
4.30716698912545;0.40057373046875;0.0002655029296875;3.81999999035543;383;100 mA
4.3171669891002;0.40057373046875;0.00026824951171875;3.82999999033018;384;100 mA
4.32716698907495;0.400634765625;0.00027313232421875;3.83999999030493;385;100 mA
4.33716698904971;0.400543212890625;0.00026702880859375;3.84999999027968;386;100 mA
4.34716698902446;0.40057373046875;0.000269165039062499;3.85999999025444;387;100 mA
4.35716698899921;0.40057373046875;0.000260009765624999;3.86999999022919;388;100 mA
4.36716698897396;0.400665283203125;0.00026214599609375;3.87999999020394;389;100 mA
4.37716698894872;0.400634765625;0.000262451171875;3.88999999017869;390;100 mA
4.38716698892347;0.4005126953125;0.000263061523437499;3.89999999015345;391;100 mA
4.39716698889822;0.4005126953125;0.00027191162109375;3.9099999901282;392;100 mA
4.40716698887297;0.400543212890625;0.00026885986328125;3.91999999010295;393;100 mA
4.41716698884773;0.400543212890625;0.0002667236328125;3.9299999900777;394;100 mA
4.42716698882248;0.400604248046875;0.00027008056640625;3.93999999005246;395;100 mA
4.43716698879723;0.400543212890625;0.00026580810546875;3.94999999002721;396;100 mA
4.44716698877198;0.4005126953125;0.000267639160156249;3.95999999000196;397;100 mA
4.45716698874674;0.40057373046875;0.000262451171875;3.96999998997671;398;100 mA
4.46716698872149;0.40057373046875;0.00026214599609375;3.97999998995147;399;100 mA
4.47716698869624;0.400543212890625;0.000263061523437499;3.98999998992622;400;100 mA
4.48716698867099;0.4005126953125;0.00025787353515625;3.99999998990097;401;100 mA
4.49716698864574;0.400604248046875;0.00025970458984375;4.00999998987572;402;100 mA
4.5071669886205;0.40057373046875;0.000255432128906249;4.01999998985048;403;100 mA
4.51716698859525;0.400604248046875;0.00026214599609375;4.02999998982523;404;100 mA
4.52716698857;0.40057373046875;0.00026702880859375;4.03999998979998;405;100 mA
4.53716698854475;0.400543212890625;0.00026092529296875;4.04999998977473;406;100 mA
4.54716698851951;0.4005126953125;0.000263061523437499;4.05999998974949;407;100 mA
4.55716698849426;0.400604248046875;0.00025482177734375;4.06999998972424;408;100 mA
4.56716698846901;0.400634765625;0.00026092529296875;4.07999998969899;409;100 mA
4.57716698844376;0.4005126953125;0.000260314941406251;4.08999998967374;410;100 mA
4.58716698841852;0.400634765625;0.000256958007812499;4.0999999896485;411;100 mA
4.59716698839327;0.400543212890625;0.000255126953125;4.10999998962325;412;100 mA
4.60716698836802;0.400543212890625;0.00024993896484375;4.119999989598;413;100 mA
4.61716698834277;0.40069580078125;0.000254211425781251;4.12999998957275;414;100 mA
4.62716698831753;0.400543212890625;0.00025970458984375;4.1399999895475;415;100 mA
4.63716698829228;0.400604248046875;0.0002606201171875;4.14999998952226;416;100 mA
4.64716698826703;0.400482177734375;0.000261535644531249;4.15999998949701;417;100 mA
4.65716698824178;0.400604248046875;0.0002490234375;4.16999998947176;418;100 mA
4.66716698821654;0.400634765625;0.00026275634765625;4.17999998944651;419;100 mA
4.67716698819129;0.4005126953125;0.000258483886718749;4.18999998942127;420;100 mA
4.68716698816604;0.400604248046875;0.000258789062500001;4.19999998939602;421;100 mA
4.69716698814079;0.400543212890625;0.000262451171875;4.20999998937077;422;100 mA
4.70716698811555;0.4005126953125;0.000256958007812499;4.21999998934552;423;100 mA
4.7171669880903;0.400543212890625;0.000251159667968751;4.22999998932028;424;100 mA
4.72716698806505;0.400482177734375;0.0002593994140625;4.23999998929503;425;100 mA
4.7371669880398;0.4005126953125;0.00025787353515625;4.24999998926978;426;100 mA
4.74716698801456;0.400604248046875;0.000263366699218751;4.25999998924453;427;100 mA
4.75716698798931;0.400604248046875;0.000255126953125;4.26999998921929;428;100 mA
4.76716698796406;0.400543212890625;0.00026214599609375;4.27999998919404;429;100 mA
4.77716698793881;0.40057373046875;0.0002581787109375;4.28999998916879;430;100 mA
4.78716698791357;0.400543212890625;0.000252685546875001;4.29999998914354;431;100 mA
4.79716698788832;0.400665283203125;0.00025054931640625;4.3099999891183;432;100 mA
4.80716698786307;0.40057373046875;0.00025054931640625;4.31999998909305;433;100 mA
4.81716698783782;0.4005126953125;0.00024993896484375;4.3299999890678;434;100 mA
4.82716698781257;0.4005126953125;0.000252380371093749;4.33999998904255;435;100 mA
4.83716698778733;0.4005126953125;0.0002471923828125;4.34999998901731;436;100 mA
4.84716698776208;0.40057373046875;0.000249328613281249;4.35999998899206;437;100 mA
4.85716698773683;0.40057373046875;0.000242919921875;4.36999998896681;438;100 mA
4.86716698771158;0.400543212890625;0.000252380371093749;4.37999998894156;439;100 mA
4.87716698768634;0.4005126953125;0.000257568359375;4.38999998891632;440;100 mA
4.88716698766109;0.400543212890625;0.000255432128906249;4.39999998889107;441;100 mA
4.89716698763584;0.40057373046875;0.000249633789062501;4.40999998886582;442;100 mA
4.90716698761059;0.400604248046875;0.00025177001953125;4.41999998884057;443;100 mA
4.91716698758535;0.4005126953125;0.000247802734374999;4.42999998881533;444;100 mA
4.9271669875601;0.400543212890625;0.000254211425781251;4.43999998879008;445;100 mA
4.93716698753485;0.400604248046875;0.000249328613281249;4.44999998876483;446;100 mA
4.9471669875096;0.400482177734375;0.00025909423828125;4.45999998873958;447;100 mA
4.95716698748436;0.40057373046875;0.000241699218749999;4.46999998871433;448;100 mA
4.96716698745911;0.400543212890625;0.0002490234375;4.47999998868909;449;100 mA
4.97716698743386;0.400543212890625;0.000250244140625;4.48999998866384;450;100 mA
4.98716698740861;0.400665283203125;0.000248107910156251;4.49999998863859;451;100 mA
4.99716698738337;0.400543212890625;0.00025299072265625;4.50999998861334;452;100 mA
5.00716698735812;0.400482177734375;0.0002520751953125;4.5199999885881;453;100 mA
5.01716698733287;0.400482177734375;0.00024993896484375;4.52999998856285;454;100 mA
5.02716698730762;0.4005126953125;0.000250854492187499;4.5399999885376;455;100 mA
5.03716698728238;0.400665283203125;0.000244140625;4.54999998851235;456;100 mA
5.04716698725713;0.40057373046875;0.000249633789062501;4.55999998848711;457;100 mA
5.05716698723188;0.40057373046875;0.000238647460937499;4.56999998846186;458;100 mA
5.06716698720663;0.400543212890625;0.00024261474609375;4.57999998843661;459;100 mA
5.07716698718139;0.4005126953125;0.00024444580078125;4.58999998841136;460;100 mA
5.08716698715614;0.400634765625;0.0002398681640625;4.59999998838612;461;100 mA
5.09716698713089;0.400543212890625;0.000244750976562499;4.60999998836087;462;100 mA
5.10716698710564;0.4005126953125;0.00024078369140625;4.61999998833562;463;100 mA
5.1171669870804;0.400543212890625;0.00024261474609375;4.62999998831037;464;100 mA
5.12716698705515;0.4005126953125;0.000252380371093749;4.63999998828513;465;100 mA
5.1371669870299;0.40057373046875;0.0002423095703125;4.64999998825988;466;100 mA
5.14716698700465;0.400604248046875;0.000252685546875001;4.65999998823463;467;100 mA
5.15716698697941;0.4005126953125;0.000242004394531251;4.66999998820938;468;100 mA
5.16716698695416;0.40057373046875;0.000246582031250001;4.67999998818414;469;100 mA
5.17716698692891;0.400604248046875;0.000246276855468749;4.68999998815889;470;100 mA
5.18716698690366;0.40057373046875;0.00024993896484375;4.69999998813364;471;100 mA
5.19716698687841;0.4005126953125;0.00024749755859375;4.70999998810839;472;100 mA
5.20716698685317;0.40057373046875;0.000238647460937499;4.71999998808315;473;100 mA
5.21716698682792;0.400634765625;0.000243530273437501;4.7299999880579;474;100 mA
5.22716698680267;0.400634765625;0.000244140625;4.73999998803265;475;100 mA
5.23716698677742;0.400482177734375;0.000244750976562499;4.7499999880074;476;100 mA
5.24716698675218;0.40057373046875;0.00024993896484375;4.75999998798216;477;100 mA
5.25716698672693;0.40057373046875;0.00023651123046875;4.76999998795691;478;100 mA
5.26716698670168;0.400604248046875;0.00023956298828125;4.77999998793166;479;100 mA
5.27716698667643;0.400634765625;0.0002423095703125;4.78999998790641;480;100 mA
5.28716698665119;0.400543212890625;0.000237426757812501;4.79999998788116;481;100 mA
5.29716698662594;0.40057373046875;0.00023773193359375;4.80999998785592;482;100 mA
5.30716698660069;0.4005126953125;0.000230712890625;4.81999998783067;483;100 mA
5.31716698657544;0.400604248046875;0.000235900878906251;4.82999998780542;484;100 mA
5.3271669865502;0.400634765625;0.000237426757812501;4.83999998778017;485;100 mA
5.33716698652495;0.4005126953125;0.000238952636718751;4.84999998775493;486;100 mA
5.3471669864997;0.4005126953125;0.0002410888671875;4.85999998772968;487;100 mA
5.35716698647445;0.40057373046875;0.000232849121093751;4.86999998770443;488;100 mA
5.36716698644921;0.4005126953125;0.0002484130859375;4.87999998767918;489;100 mA
5.37716698642396;0.400604248046875;0.000238647460937499;4.88999998765394;490;100 mA
5.38716698639871;0.400604248046875;0.000237121582031249;4.89999998762869;491;100 mA
5.39716698637346;0.400543212890625;0.000237426757812501;4.90999998760344;492;100 mA
5.40716698634822;0.400543212890625;0.000235900878906251;4.91999998757819;493;100 mA
5.41716698632297;0.40057373046875;0.00023834228515625;4.92999998755295;494;100 mA
5.42716698629772;0.40057373046875;0.000242919921875;4.9399999875277;495;100 mA
5.43716698627247;0.4005126953125;0.00023651123046875;4.94999998750245;496;100 mA
5.44716698624723;0.400543212890625;0.000243225097656249;4.9599999874772;497;100 mA
5.45716698622198;0.400604248046875;0.000238037109375;4.96999998745196;498;100 mA
5.46716698619673;0.40057373046875;0.000242004394531251;4.97999998742671;499;100 mA
5.47716698617148;0.400482177734375;0.00023773193359375;4.98999998740146;500;100 mA
5.48716698614624;0.400543212890625;0.000242004394531251;4.99999998737621;501;100 mA
5.49716698612099;0.400543212890625;0.00023681640625;5.00999998735097;502;100 mA
5.50716698609574;0.40057373046875;0.000237121582031249;5.01999998732572;503;100 mA
5.51716698607049;0.40057373046875;0.0002349853515625;5.02999998730047;504;100 mA
5.52716698604524;0.4005126953125;0.000233154296875;5.03999998727522;505;100 mA
5.53716698602;0.40057373046875;0.000228271484375001;5.04999998724998;506;100 mA
5.54716698599475;0.40057373046875;0.00023681640625;5.05999998722473;507;100 mA
5.5571669859695;0.400604248046875;0.00022705078125;5.06999998719948;508;100 mA
5.56716698594425;0.400604248046875;0.000238037109375;5.07999998717423;509;100 mA
5.57716698591901;0.4005126953125;0.000232543945312499;5.08999998714899;510;100 mA
5.58716698589376;0.400543212890625;0.00023193359375;5.09999998712374;511;100 mA
5.59716698586851;0.40057373046875;0.00023345947265625;5.10999998709849;512;100 mA
5.60716698584326;0.40057373046875;0.000232849121093751;5.11999998707324;513;100 mA
5.61716698581802;0.40057373046875;0.0002301025390625;5.129999987048;514;100 mA
5.62716698579277;0.400543212890625;0.0002337646484375;5.13999998702275;515;100 mA
5.63716698576752;0.400543212890625;0.00023162841796875;5.1499999869975;516;100 mA
5.64716698574227;0.40057373046875;0.00023956298828125;5.15999998697225;517;100 mA
5.65716698571703;0.400543212890625;0.00022857666015625;5.169999986947;518;100 mA
5.66716698569178;0.400604248046875;0.000232543945312499;5.17999998692176;519;100 mA
5.67716698566653;0.400482177734375;0.000233154296875;5.18999998689651;520;100 mA
5.68716698564128;0.400482177734375;0.00023345947265625;5.19999998687126;521;100 mA
5.69716698561604;0.400604248046875;0.00023529052734375;5.20999998684601;522;100 mA
5.70716698559079;0.40057373046875;0.0002362060546875;5.21999998682077;523;100 mA
5.71716698556554;0.400543212890625;0.00023773193359375;5.22999998679552;524;100 mA
5.72716698554029;0.400543212890625;0.000237426757812501;5.23999998677027;525;100 mA
5.73716698551505;0.400543212890625;0.0002410888671875;5.24999998674502;526;100 mA
5.7471669854898;0.400665283203125;0.00023529052734375;5.25999998671978;527;100 mA
5.75716698546455;0.4005126953125;0.00022705078125;5.26999998669453;528;100 mA
5.7671669854393;0.400543212890625;0.000227966308593749;5.27999998666928;529;100 mA
5.77716698541406;0.40057373046875;0.000225830078125;5.28999998664403;530;100 mA
5.78716698538881;0.400482177734375;0.000225830078125;5.29999998661879;531;100 mA
5.79716698536356;0.40057373046875;0.00022705078125;5.30999998659354;532;100 mA
5.80716698533831;0.400543212890625;0.00022247314453125;5.31999998656829;533;100 mA
5.81716698531307;0.4005126953125;0.00022308349609375;5.32999998654304;534;100 mA
5.82716698528782;0.40057373046875;0.000228271484375001;5.3399999865178;535;100 mA
5.83716698526257;0.400665283203125;0.0002239990234375;5.34999998649255;536;100 mA
5.84716698523732;0.40057373046875;0.000235595703124999;5.3599999864673;537;100 mA
5.85716698521207;0.400543212890625;0.000223693847656251;5.36999998644205;538;100 mA
5.86716698518683;0.400482177734375;0.00023040771484375;5.37999998641681;539;100 mA
5.87716698516158;0.40057373046875;0.00022857666015625;5.38999998639156;540;100 mA
5.88716698513633;0.400604248046875;0.000226745605468751;5.39999998636631;541;100 mA
5.89716698511108;0.400543212890625;0.000229797363281251;5.40999998634106;542;100 mA
5.90716698508584;0.40057373046875;0.0002239990234375;5.41999998631582;543;100 mA
5.91716698506059;0.40057373046875;0.00022430419921875;5.42999998629057;544;100 mA
5.92716698503534;0.40057373046875;0.0002239990234375;5.43999998626532;545;100 mA
5.93716698501009;0.400665283203125;0.00022613525390625;5.44999998624007;546;100 mA
5.94716698498485;0.40045166015625;0.00023468017578125;5.45999998621483;547;100 mA
5.9571669849596;0.400604248046875;0.00021942138671875;5.46999998618958;548;100 mA
5.96716698493435;0.4005126953125;0.000230712890625;5.47999998616433;549;100 mA
5.9771669849091;0.400543212890625;0.00022705078125;5.48999998613908;550;100 mA
5.98716698488386;0.400543212890625;0.000221862792968749;5.49999998611383;551;100 mA
5.99716698485861;0.400543212890625;0.000226745605468751;5.50999998608859;552;100 mA
6.00716698483336;0.400543212890625;0.000218811035156249;5.51999998606334;553;100 mA
6.01716698480811;0.400604248046875;0.000214538574218751;5.52999998603809;554;100 mA
6.02716698478287;0.400543212890625;0.00022125244140625;5.53999998601284;555;100 mA
6.03716698475762;0.400604248046875;0.00021697998046875;5.5499999859876;556;100 mA
6.04716698473237;0.4005126953125;0.000222167968750001;5.55999998596235;557;100 mA
6.05716698470712;0.400604248046875;0.00021392822265625;5.5699999859371;558;100 mA
6.06716698468188;0.400634765625;0.000221862792968749;5.57999998591185;559;100 mA
6.07716698465663;0.40057373046875;0.000217590332031251;5.58999998588661;560;100 mA
6.08716698463138;0.40057373046875;0.00022003173828125;5.59999998586136;561;100 mA
6.09716698460613;0.400634765625;0.000222167968750001;5.60999998583611;562;100 mA
6.10716698458089;0.400543212890625;0.000221862792968749;5.61999998581086;563;100 mA
6.11716698455564;0.40057373046875;0.00022308349609375;5.62999998578562;564;100 mA
6.12716698453039;0.400543212890625;0.000220947265625;5.63999998576037;565;100 mA
6.13716698450514;0.40057373046875;0.0002178955078125;5.64999998573512;566;100 mA
6.1471669844799;0.40057373046875;0.000228271484375001;5.65999998570987;567;100 mA
6.15716698445465;0.40057373046875;0.000217590332031251;5.66999998568463;568;100 mA
6.1671669844294;0.400604248046875;0.00021942138671875;5.67999998565938;569;100 mA
6.17716698440415;0.400604248046875;0.0002215576171875;5.68999998563413;570;100 mA
6.1871669843789;0.4005126953125;0.00022308349609375;5.69999998560888;571;100 mA
6.19716698435366;0.400634765625;0.0002215576171875;5.70999998558364;572;100 mA
6.20716698432841;0.400604248046875;0.000220642089843751;5.71999998555839;573;100 mA
6.21716698430316;0.400604248046875;0.00021514892578125;5.72999998553314;574;100 mA
6.22716698427791;0.400634765625;0.00021636962890625;5.73999998550789;575;100 mA
6.23716698425267;0.4005126953125;0.0002166748046875;5.74999998548265;576;100 mA
6.24716698422742;0.400604248046875;0.000221862792968749;5.7599999854574;577;100 mA
6.25716698420217;0.400604248046875;0.000209960937500001;5.76999998543215;578;100 mA
6.26716698417692;0.400543212890625;0.00021331787109375;5.7799999854069;579;100 mA
6.27716698415168;0.400604248046875;0.00021331787109375;5.78999998538166;580;100 mA
6.28716698412643;0.4005126953125;0.000211181640624999;5.79999998535641;581;100 mA
6.29716698410118;0.400543212890625;0.00021697998046875;5.80999998533116;582;100 mA
6.30716698407593;0.400634765625;0.00021636962890625;5.81999998530591;583;100 mA
6.31716698405069;0.40057373046875;0.00021026611328125;5.82999998528066;584;100 mA
6.32716698402544;0.400604248046875;0.000213623046875;5.83999998525542;585;100 mA
6.33716698400019;0.4005126953125;0.00021240234375;5.84999998523017;586;100 mA
6.34716698397494;0.400543212890625;0.0002227783203125;5.85999998520492;587;100 mA
6.3571669839497;0.40057373046875;0.00021484375;5.86999998517967;588;100 mA
6.36716698392445;0.400604248046875;0.00022003173828125;5.87999998515443;589;100 mA
6.3771669838992;0.400665283203125;0.00021484375;5.88999998512918;590;100 mA
6.38716698387395;0.400604248046875;0.000217590332031251;5.89999998510393;591;100 mA
6.39716698384871;0.4005126953125;0.000223693847656251;5.90999998507868;592;100 mA
6.40716698382346;0.40057373046875;0.000215759277343749;5.91999998505344;593;100 mA
6.41716698379821;0.400604248046875;0.00021942138671875;5.92999998502819;594;100 mA
6.42716698377296;0.4005126953125;0.000221862792968749;5.93999998500294;595;100 mA
6.43716698374772;0.40057373046875;0.00021697998046875;5.94999998497769;596;100 mA
6.44716698372247;0.4005126953125;0.00022308349609375;5.95999998495245;597;100 mA
6.45716698369722;0.40057373046875;0.000215759277343749;5.9699999849272;598;100 mA
6.46716698367197;0.400634765625;0.0002178955078125;5.97999998490195;599;100 mA
6.47716698364673;0.400482177734375;0.00021636962890625;5.9899999848767;600;100 mA
6.48716698362148;0.400604248046875;0.00021331787109375;5.99999998485146;601;100 mA
6.49716698359623;0.400604248046875;0.000215759277343749;6.00999998482621;602;100 mA
6.50716698357098;0.40057373046875;0.000206298828125;6.01999998480096;603;100 mA
6.51716698354574;0.4005126953125;0.000209960937500001;6.02999998477571;604;100 mA
6.52716698352049;0.400604248046875;0.000209960937500001;6.03999998475047;605;100 mA
6.53716698349524;0.400543212890625;0.0002117919921875;6.04999998472522;606;100 mA
6.54716698346999;0.400634765625;0.00021820068359375;6.05999998469997;607;100 mA
6.55716698344474;0.400543212890625;0.00020721435546875;6.06999998467472;608;100 mA
6.5671669834195;0.40057373046875;0.00021820068359375;6.07999998464948;609;100 mA
6.57716698339425;0.400543212890625;0.0002117919921875;6.08999998462423;610;100 mA
6.587166983369;0.400604248046875;0.000213012695312501;6.09999998459898;611;100 mA
6.59716698334375;0.400604248046875;0.0002154541015625;6.10999998457373;612;100 mA
6.60716698331851;0.400543212890625;0.0002105712890625;6.11999998454849;613;100 mA
6.61716698329326;0.40057373046875;0.0002117919921875;6.12999998452324;614;100 mA
6.62716698326801;0.40057373046875;0.000213012695312501;6.13999998449799;615;100 mA
6.63716698324276;0.400543212890625;0.00021026611328125;6.14999998447274;616;100 mA
6.64716698321752;0.400634765625;0.0002178955078125;6.1599999844475;617;100 mA
6.65716698319227;0.4005126953125;0.00020904541015625;6.16999998442225;618;100 mA
6.66716698316702;0.4005126953125;0.000218505859375;6.179999984397;619;100 mA
6.67716698314177;0.400604248046875;0.000209960937500001;6.18999998437175;620;100 mA
6.68716698311653;0.40057373046875;0.000214538574218751;6.1999999843465;621;100 mA
6.69716698309128;0.40057373046875;0.0002178955078125;6.20999998432126;622;100 mA
6.70716698306603;0.4005126953125;0.000213012695312501;6.21999998429601;623;100 mA
6.71716698304078;0.40057373046875;0.00021514892578125;6.22999998427076;624;100 mA
6.72716698301554;0.400634765625;0.00021026611328125;6.23999998424551;625;100 mA
6.73716698299029;0.400543212890625;0.00020782470703125;6.24999998422027;626;100 mA
6.74716698296504;0.40057373046875;0.00021087646484375;6.25999998419502;627;100 mA
6.75716698293979;0.400482177734375;0.00020721435546875;6.26999998416977;628;100 mA
6.76716698291455;0.4005126953125;0.0002117919921875;6.27999998414452;629;100 mA
6.7771669828893;0.400543212890625;0.0002093505859375;6.28999998411928;630;100 mA
6.78716698286405;0.40057373046875;0.000208129882812499;6.29999998409403;631;100 mA
6.7971669828388;0.4005126953125;0.000211181640624999;6.30999998406878;632;100 mA
6.80716698281356;0.400543212890625;0.000206909179687501;6.31999998404353;633;100 mA
6.81716698278831;0.400543212890625;0.000206909179687501;6.32999998401829;634;100 mA
6.82716698276306;0.40057373046875;0.000208740234375;6.33999998399304;635;100 mA
6.83716698273781;0.40057373046875;0.00021026611328125;6.34999998396779;636;100 mA
6.84716698271257;0.4005126953125;0.000212707519531249;6.35999998394254;637;100 mA
6.85716698268732;0.400604248046875;0.000200805664062501;6.3699999839173;638;100 mA
6.86716698266207;0.400604248046875;0.00020416259765625;6.37999998389205;639;100 mA
6.87716698263682;0.400543212890625;0.00020782470703125;6.3899999838668;640;100 mA
6.88716698261157;0.400604248046875;0.00020904541015625;6.39999998384155;641;100 mA
6.89716698258633;0.4005126953125;0.000211181640624999;6.40999998381631;642;100 mA
6.90716698256108;0.40057373046875;0.00021240234375;6.41999998379106;643;100 mA
6.91716698253583;0.40057373046875;0.000211181640624999;6.42999998376581;644;100 mA
6.92716698251058;0.400604248046875;0.00021484375;6.43999998374056;645;100 mA
6.93716698248534;0.4005126953125;0.000213012695312501;6.44999998371532;646;100 mA
6.94716698246009;0.400482177734375;0.0002154541015625;6.45999998369007;647;100 mA
6.95716698243484;0.400604248046875;0.000203552246093749;6.46999998366482;648;100 mA
6.96716698240959;0.400604248046875;0.000212707519531249;6.47999998363957;649;100 mA
6.97716698238435;0.400543212890625;0.000205383300781251;6.48999998361433;650;100 mA
6.9871669823591;0.400482177734375;0.00020904541015625;6.49999998358908;651;100 mA
6.99716698233385;0.40057373046875;0.0002117919921875;6.50999998356383;652;100 mA
7.0071669823086;0.400634765625;0.00021514892578125;6.51999998353858;653;100 mA
7.01716698228336;0.400665283203125;0.00020782470703125;6.52999998351333;654;100 mA
7.02716698225811;0.400543212890625;0.000214538574218751;6.53999998348809;655;100 mA
7.03716698223286;0.400604248046875;0.000205078124999999;6.54999998346284;656;100 mA
7.04716698220761;0.40057373046875;0.0002154541015625;6.55999998343759;657;100 mA
7.05716698218237;0.40057373046875;0.000205383300781251;6.56999998341234;658;100 mA
7.06716698215712;0.400543212890625;0.000211181640624999;6.5799999833871;659;100 mA
7.07716698213187;0.400543212890625;0.00020904541015625;6.58999998336185;660;100 mA
7.08716698210662;0.400543212890625;0.00020782470703125;6.5999999833366;661;100 mA
7.09716698208138;0.40057373046875;0.00020721435546875;6.60999998331135;662;100 mA
7.10716698205613;0.40057373046875;0.000206298828125;6.61999998328611;663;100 mA
7.11716698203088;0.400543212890625;0.00020416259765625;6.62999998326086;664;100 mA
7.12716698200563;0.400543212890625;0.00020416259765625;6.63999998323561;665;100 mA
7.13716698198039;0.4005126953125;0.00020263671875;6.64999998321036;666;100 mA
7.14716698195514;0.40057373046875;0.00021514892578125;6.65999998318512;667;100 mA
7.15716698192989;0.400543212890625;0.0001995849609375;6.66999998315987;668;100 mA
7.16716698190464;0.4005126953125;0.00021484375;6.67999998313462;669;100 mA
7.1771669818794;0.4005126953125;0.0002105712890625;6.68999998310937;670;100 mA
7.18716698185415;0.4005126953125;0.000211486816406251;6.69999998308413;671;100 mA
7.1971669818289;0.400604248046875;0.00021026611328125;6.70999998305888;672;100 mA
7.20716698180365;0.400543212890625;0.00020172119140625;6.71999998303363;673;100 mA
7.2171669817784;0.4005126953125;0.000205078124999999;6.72999998300838;674;100 mA
7.22716698175316;0.40057373046875;0.00020172119140625;6.73999998298314;675;100 mA
7.23716698172791;0.400543212890625;0.000203552246093749;6.74999998295789;676;100 mA
7.24716698170266;0.400604248046875;0.000206909179687501;6.75999998293264;677;100 mA
7.25716698167741;0.400543212890625;0.00020172119140625;6.76999998290739;678;100 mA
7.26716698165217;0.4005126953125;0.0002117919921875;6.77999998288215;679;100 mA
7.27716698162692;0.400543212890625;0.00020172119140625;6.7899999828569;680;100 mA
7.28716698160167;0.400482177734375;0.000205383300781251;6.79999998283165;681;100 mA
7.29716698157642;0.4005126953125;0.00021087646484375;6.8099999828064;682;100 mA
7.30716698155118;0.40057373046875;0.000198974609374999;6.81999998278116;683;100 mA
7.31716698152593;0.40057373046875;0.00020172119140625;6.82999998275591;684;100 mA
7.32716698150068;0.40057373046875;0.000197448730468749;6.83999998273066;685;100 mA
7.33716698147543;0.400543212890625;0.0002001953125;6.84999998270541;686;100 mA
7.34716698145019;0.400604248046875;0.000199279785156251;6.85999998268016;687;100 mA
7.35716698142494;0.40057373046875;0.0001934814453125;6.86999998265492;688;100 mA
7.36716698139969;0.4005126953125;0.000197753906250001;6.87999998262967;689;100 mA
7.37716698137444;0.400604248046875;0.000203552246093749;6.88999998260442;690;100 mA
7.3871669813492;0.400604248046875;0.000202331542968751;6.89999998257917;691;100 mA
7.39716698132395;0.400543212890625;0.00020294189453125;6.90999998255393;692;100 mA
7.4071669812987;0.40057373046875;0.000200805664062501;6.91999998252868;693;100 mA
7.41716698127345;0.400543212890625;0.000205383300781251;6.92999998250343;694;100 mA
7.42716698124821;0.400604248046875;0.0002032470703125;6.93999998247818;695;100 mA
7.43716698122296;0.40057373046875;0.00020599365234375;6.94999998245294;696;100 mA
7.44716698119771;0.400543212890625;0.00020721435546875;6.95999998242769;697;100 mA
7.45716698117246;0.400543212890625;0.000200500488281249;6.96999998240244;698;100 mA
7.46716698114722;0.400543212890625;0.0002001953125;6.97999998237719;699;100 mA
7.47716698112197;0.400604248046875;0.00019683837890625;6.98999998235195;700;100 mA
7.48716698109672;0.400543212890625;0.0001995849609375;6.9999999823267;701;100 mA
7.49716698107147;0.400543212890625;0.00020294189453125;7.00999998230145;702;100 mA
7.50716698104623;0.400543212890625;0.000200805664062501;7.0199999822762;703;100 mA
7.51716698102098;0.4005126953125;0.00020263671875;7.02999998225096;704;100 mA
7.52716698099573;0.400604248046875;0.000200500488281249;7.03999998222571;705;100 mA
7.53716698097048;0.400604248046875;0.0002032470703125;7.04999998220046;706;100 mA
7.54716698094524;0.400604248046875;0.00020477294921875;7.05999998217521;707;100 mA
7.55716698091999;0.4005126953125;0.00019683837890625;7.06999998214997;708;100 mA
7.56716698089474;0.400543212890625;0.00019989013671875;7.07999998212472;709;100 mA
7.57716698086949;0.40057373046875;0.00019256591796875;7.08999998209947;710;100 mA
7.58716698084424;0.400543212890625;0.00019683837890625;7.09999998207422;711;100 mA
7.597166980819;0.400543212890625;0.0001971435546875;7.10999998204898;712;100 mA
7.60716698079375;0.400543212890625;0.000193176269531251;7.11999998202373;713;100 mA
7.6171669807685;0.400604248046875;0.00019561767578125;7.12999998199848;714;100 mA
7.62716698074325;0.4005126953125;0.00020172119140625;7.13999998197323;715;100 mA
7.63716698071801;0.400482177734375;0.000196533203125;7.14999998194799;716;100 mA
7.64716698069276;0.40057373046875;0.00020172119140625;7.15999998192274;717;100 mA
7.65716698066751;0.400543212890625;0.000200500488281249;7.16999998189749;718;100 mA
7.66716698064226;0.40057373046875;0.000202331542968751;7.17999998187224;719;100 mA
7.67716698061702;0.400665283203125;0.00020172119140625;7.189999981847;720;100 mA
7.68716698059177;0.400543212890625;0.0002001953125;7.19999998182175;721;100 mA
7.69716698056652;0.40057373046875;0.00020263671875;7.2099999817965;722;100 mA
7.70716698054127;0.400543212890625;0.00019989013671875;7.21999998177125;723;100 mA
7.71716698051603;0.400543212890625;0.000197448730468749;7.229999981746;724;100 mA
7.72716698049078;0.400665283203125;0.000198974609374999;7.23999998172076;725;100 mA
7.73716698046553;0.400543212890625;0.0001983642578125;7.24999998169551;726;100 mA
7.74716698044028;0.40057373046875;0.000205078124999999;7.25999998167026;727;100 mA
7.75716698041504;0.40057373046875;0.00019500732421875;7.26999998164501;728;100 mA
7.76716698038979;0.400604248046875;0.000200500488281249;7.27999998161977;729;100 mA
7.77716698036454;0.400634765625;0.00019989013671875;7.28999998159452;730;100 mA
7.78716698033929;0.4005126953125;0.000194396972656249;7.29999998156927;731;100 mA
7.79716698031405;0.400604248046875;0.0001995849609375;7.30999998154402;732;100 mA
7.8071669802888;0.40057373046875;0.000194091796875;7.31999998151878;733;100 mA
7.81716698026355;0.4005126953125;0.000202331542968751;7.32999998149353;734;100 mA
7.8271669802383;0.400634765625;0.000190124511718751;7.33999998146828;735;100 mA
7.83716698021306;0.40057373046875;0.000192871093749999;7.34999998144303;736;100 mA
7.84716698018781;0.40057373046875;0.000196533203125;7.35999998141779;737;100 mA
7.85716698016256;0.400604248046875;0.000188293457031249;7.36999998139254;738;100 mA
7.86716698013731;0.40045166015625;0.0002001953125;7.37999998136729;739;100 mA
7.87716698011207;0.400543212890625;0.000198974609374999;7.38999998134204;740;100 mA
7.88716698008682;0.400543212890625;0.00019561767578125;7.3999999813168;741;100 mA
7.89716698006157;0.4005126953125;0.00020172119140625;7.40999998129155;742;100 mA
7.90716698003632;0.4005126953125;0.0001983642578125;7.4199999812663;743;100 mA
7.91716698001107;0.400482177734375;0.000200500488281249;7.42999998124105;744;100 mA
7.92716697998583;0.4005126953125;0.000195922851562499;7.43999998121581;745;100 mA
7.93716697996058;0.400604248046875;0.000194396972656249;7.44999998119056;746;100 mA
7.94716697993533;0.400543212890625;0.000196533203125;7.45999998116531;747;100 mA
7.95716697991008;0.400604248046875;0.0001904296875;7.46999998114006;748;100 mA
7.96716697988484;0.400543212890625;0.00019683837890625;7.47999998111482;749;100 mA
7.97716697985959;0.4005126953125;0.000195922851562499;7.48999998108957;750;100 mA
7.98716697983434;0.400604248046875;0.00019561767578125;7.49999998106432;751;100 mA
7.99716697980909;0.400543212890625;0.00019805908203125;7.50999998103907;752;100 mA
8.00716697978385;0.400604248046875;0.000199279785156251;7.51999998101383;753;100 mA
8.0171669797586;0.400604248046875;0.00020416259765625;7.52999998098858;754;100 mA
8.02716697973335;0.4005126953125;0.0001934814453125;7.53999998096333;755;100 mA
8.0371669797081;0.4005126953125;0.0001953125;7.54999998093808;756;100 mA
8.04716697968286;0.40057373046875;0.0001953125;7.55999998091283;757;100 mA
8.05716697965761;0.400482177734375;0.0001922607421875;7.56999998088759;758;100 mA
8.06716697963236;0.400604248046875;0.00019378662109375;7.57999998086234;759;100 mA
8.07716697960711;0.400543212890625;0.00018798828125;7.58999998083709;760;100 mA
8.08716697958187;0.400543212890625;0.00018646240234375;7.59999998081184;761;100 mA
8.09716697955662;0.400604248046875;0.0001953125;7.6099999807866;762;100 mA
8.10716697953137;0.400543212890625;0.000191650390625001;7.61999998076135;763;100 mA
8.11716697950612;0.4005126953125;0.00019683837890625;7.6299999807361;764;100 mA
8.12716697948088;0.400543212890625;0.0001934814453125;7.63999998071085;765;100 mA
8.13716697945563;0.4005126953125;0.0001934814453125;7.64999998068561;766;100 mA
8.14716697943038;0.4005126953125;0.00020111083984375;7.65999998066036;767;100 mA
8.15716697940513;0.400482177734375;0.0001934814453125;7.66999998063511;768;100 mA
8.16716697937989;0.400634765625;0.00019989013671875;7.67999998060986;769;100 mA
8.17716697935464;0.40057373046875;0.00019866943359375;7.68999998058462;770;100 mA
8.18716697932939;0.400604248046875;0.00019500732421875;7.69999998055937;771;100 mA
8.19716697930414;0.400543212890625;0.0001953125;7.70999998053412;772;100 mA
8.2071669792789;0.400604248046875;0.00018768310546875;7.71999998050887;773;100 mA
8.21716697925365;0.40057373046875;0.000190124511718751;7.72999998048363;774;100 mA
8.2271669792284;0.400726318359375;0.000190124511718751;7.73999998045838;775;100 mA
8.23716697920315;0.400604248046875;0.0001922607421875;7.74999998043313;776;100 mA
8.2471669791779;0.400604248046875;0.000200500488281249;7.75999998040788;777;100 mA
8.25716697915266;0.400543212890625;0.00019378662109375;7.76999998038264;778;100 mA
8.26716697912741;0.4005126953125;0.00019866943359375;7.77999998035739;779;100 mA
8.27716697910216;0.40057373046875;0.000194396972656249;7.78999998033214;780;100 mA
8.28716697907691;0.400543212890625;0.0001922607421875;7.79999998030689;781;100 mA
8.29716697905167;0.400543212890625;0.000194396972656249;7.80999998028165;782;100 mA
8.30716697902642;0.40057373046875;0.00019073486328125;7.8199999802564;783;100 mA
8.31716697900117;0.400543212890625;0.0001934814453125;7.82999998023115;784;100 mA
8.32716697897592;0.400665283203125;0.0001849365234375;7.8399999802059;785;100 mA
8.33716697895068;0.4005126953125;0.000185546875000001;7.84999998018066;786;100 mA
8.34716697892543;0.400543212890625;0.00019256591796875;7.85999998015541;787;100 mA
8.35716697890018;0.400604248046875;0.0001873779296875;7.86999998013016;788;100 mA
8.36716697887493;0.400543212890625;0.0001971435546875;7.87999998010491;789;100 mA
8.37716697884969;0.400604248046875;0.00019378662109375;7.88999998007966;790;100 mA
8.38716697882444;0.4005126953125;0.000197753906250001;7.89999998005442;791;100 mA
8.39716697879919;0.400543212890625;0.000194702148437501;7.90999998002917;792;100 mA
8.40716697877394;0.400543212890625;0.00019073486328125;7.91999998000392;793;100 mA
8.4171669787487;0.400543212890625;0.0001953125;7.92999997997867;794;100 mA
8.42716697872345;0.400604248046875;0.000191345214843749;7.93999997995343;795;100 mA
8.4371669786982;0.400543212890625;0.000190124511718751;7.94999997992818;796;100 mA
8.44716697867295;0.4005126953125;0.000194702148437501;7.95999997990293;797;100 mA
8.45716697864771;0.400543212890625;0.000186767578124999;7.96999997987768;798;100 mA
8.46716697862246;0.40057373046875;0.000194396972656249;7.97999997985244;799;100 mA
8.47716697859721;0.4005126953125;0.000192871093749999;7.98999997982719;800;100 mA
8.48716697857196;0.400543212890625;0.000190124511718751;7.99999997980194;801;100 mA
8.49716697854672;0.40057373046875;0.0001934814453125;8.00999997977669;802;100 mA
8.50716697852147;0.40057373046875;0.00018951416015625;8.01999997975145;803;100 mA
8.51716697849622;0.400634765625;0.00019256591796875;8.0299999797262;804;100 mA
8.52716697847097;0.4005126953125;0.00018951416015625;8.03999997970095;805;100 mA
8.53716697844573;0.400482177734375;0.000188598632812501;8.0499999796757;806;100 mA
8.54716697842048;0.40057373046875;0.000191345214843749;8.05999997965046;807;100 mA
8.55716697839523;0.40057373046875;0.00018585205078125;8.06999997962521;808;100 mA
8.56716697836998;0.40057373046875;0.000189208984375;8.07999997959996;809;100 mA
8.57716697834474;0.4005126953125;0.000184020996093751;8.08999997957471;810;100 mA
8.58716697831949;0.400543212890625;0.000188293457031249;8.09999997954947;811;100 mA
8.59716697829424;0.400604248046875;0.00019561767578125;8.10999997952422;812;100 mA
8.60716697826899;0.40057373046875;0.00018798828125;8.11999997949897;813;100 mA
8.61716697824374;0.400543212890625;0.000194396972656249;8.12999997947372;814;100 mA
8.6271669782185;0.400543212890625;0.0001953125;8.13999997944848;815;100 mA
8.63716697819325;0.400543212890625;0.000189819335937499;8.14999997942323;816;100 mA
8.647166978168;0.400543212890625;0.000194091796875;8.15999997939798;817;100 mA
8.65716697814275;0.400604248046875;0.00018768310546875;8.16999997937273;818;100 mA
8.66716697811751;0.4005126953125;0.0001934814453125;8.17999997934749;819;100 mA
8.67716697809226;0.4005126953125;0.000185241699218749;8.18999997932224;820;100 mA
8.68716697806701;0.400604248046875;0.000187072753906251;8.19999997929699;821;100 mA
8.69716697804176;0.40057373046875;0.000194702148437501;8.20999997927174;822;100 mA
8.70716697801652;0.40057373046875;0.0001861572265625;8.2199999792465;823;100 mA
8.71716697799127;0.40057373046875;0.00019256591796875;8.22999997922125;824;100 mA
8.72716697796602;0.400604248046875;0.0001904296875;8.239999979196;825;100 mA
8.73716697794077;0.4005126953125;0.000191345214843749;8.24999997917075;826;100 mA
8.74716697791553;0.400543212890625;0.00019500732421875;8.2599999791455;827;100 mA
8.75716697789028;0.400543212890625;0.00018646240234375;8.26999997912026;828;100 mA
8.76716697786503;0.400482177734375;0.00019256591796875;8.27999997909501;829;100 mA
8.77716697783978;0.400604248046875;0.00018798828125;8.28999997906976;830;100 mA
8.78716697781454;0.400604248046875;0.000179443359375001;8.29999997904451;831;100 mA
8.79716697778929;0.40057373046875;0.0001849365234375;8.30999997901927;832;100 mA
8.80716697776404;0.40057373046875;0.0001800537109375;8.31999997899402;833;100 mA
8.81716697773879;0.400482177734375;0.000185546875000001;8.32999997896877;834;100 mA
8.82716697771355;0.40057373046875;0.000181884765625;8.33999997894352;835;100 mA
8.8371669776883;0.400604248046875;0.0001873779296875;8.34999997891828;836;100 mA
8.84716697766305;0.400634765625;0.00019195556640625;8.35999997889303;837;100 mA
8.8571669776378;0.400543212890625;0.000188598632812501;8.36999997886778;838;100 mA
8.86716697761256;0.4005126953125;0.000191345214843749;8.37999997884253;839;100 mA
8.87716697758731;0.400604248046875;0.000187072753906251;8.38999997881729;840;100 mA
8.88716697756206;0.4005126953125;0.000188598632812501;8.39999997879204;841;100 mA
8.89716697753681;0.40057373046875;0.000191650390625001;8.40999997876679;842;100 mA
8.90716697751157;0.4005126953125;0.000186767578124999;8.41999997874154;843;100 mA
8.91716697748632;0.4005126953125;0.00019256591796875;8.4299999787163;844;100 mA
8.92716697746107;0.400604248046875;0.00018341064453125;8.43999997869105;845;100 mA
8.93716697743582;0.400665283203125;0.000181884765625;8.4499999786658;846;100 mA
8.94716697741057;0.400543212890625;0.00018951416015625;8.45999997864055;847;100 mA
8.95716697738533;0.4005126953125;0.000188598632812501;8.46999997861531;848;100 mA
8.96716697736008;0.40057373046875;0.00018798828125;8.47999997859006;849;100 mA
8.97716697733483;0.400604248046875;0.00018646240234375;8.48999997856481;850;100 mA
8.98716697730958;0.400604248046875;0.000186767578124999;8.49999997853956;851;100 mA
8.99716697728434;0.4005126953125;0.0001922607421875;8.50999997851432;852;100 mA
9.00716697725909;0.40057373046875;0.000184326171875;8.51999997848907;853;100 mA
9.01716697723384;0.40057373046875;0.000190124511718751;8.52999997846382;854;100 mA
9.02716697720859;0.40057373046875;0.000179443359375001;8.53999997843857;855;100 mA
9.03716697718335;0.400604248046875;0.00017669677734375;8.54999997841333;856;100 mA
9.0471669771581;0.4005126953125;0.000188598632812501;8.55999997838808;857;100 mA
9.05716697713285;0.400543212890625;0.000177612304687499;8.56999997836283;858;100 mA
9.0671669771076;0.400665283203125;0.000187072753906251;8.57999997833758;859;100 mA
9.07716697708236;0.40057373046875;0.00018157958984375;8.58999997831233;860;100 mA
9.08716697705711;0.40057373046875;0.00018585205078125;8.59999997828709;861;100 mA
9.09716697703186;0.40057373046875;0.000186767578124999;8.60999997826184;862;100 mA
9.10716697700661;0.40057373046875;0.000182189941406249;8.61999997823659;863;100 mA
9.11716697698137;0.40057373046875;0.00018646240234375;8.62999997821134;864;100 mA
9.12716697695612;0.400604248046875;0.000183715820312499;8.6399999781861;865;100 mA
9.13716697693087;0.4005126953125;0.00018585205078125;8.64999997816085;866;100 mA
9.14716697690562;0.400543212890625;0.000187072753906251;8.6599999781356;867;100 mA
9.15716697688038;0.40057373046875;0.00018280029296875;8.66999997811035;868;100 mA
9.16716697685513;0.400604248046875;0.00018798828125;8.67999997808511;869;100 mA
9.17716697682988;0.400665283203125;0.0001812744140625;8.68999997805986;870;100 mA
9.18716697680463;0.400482177734375;0.000186767578124999;8.69999997803461;871;100 mA
9.19716697677939;0.400604248046875;0.00018768310546875;8.70999997800936;872;100 mA
9.20716697675414;0.400543212890625;0.000180664062499999;8.71999997798412;873;100 mA
9.21716697672889;0.40057373046875;0.000186767578124999;8.72999997795887;874;100 mA
9.22716697670364;0.40057373046875;0.000182189941406249;8.73999997793362;875;100 mA
9.2371669766784;0.4005126953125;0.00017822265625;8.74999997790837;876;100 mA
9.24716697665315;0.400543212890625;0.0001861572265625;8.75999997788313;877;100 mA
9.2571669766279;0.4005126953125;0.000176086425781249;8.76999997785788;878;100 mA
9.26716697660265;0.40057373046875;0.000179443359375001;8.77999997783263;879;100 mA
9.2771669765774;0.400543212890625;0.00018035888671875;8.78999997780738;880;100 mA
9.28716697655216;0.400543212890625;0.00017547607421875;8.79999997778214;881;100 mA
9.29716697652691;0.400604248046875;0.00018463134765625;8.80999997775689;882;100 mA
9.30716697650166;0.40057373046875;0.00018280029296875;8.81999997773164;883;100 mA
9.31716697647641;0.40057373046875;0.000185241699218749;8.82999997770639;884;100 mA
9.32716697645117;0.400604248046875;0.000177001953125;8.83999997768115;885;100 mA
9.33716697642592;0.40057373046875;0.00017242431640625;8.8499999776559;886;100 mA
9.34716697640067;0.40057373046875;0.0001873779296875;8.85999997763065;887;100 mA
9.35716697637542;0.400634765625;0.00017547607421875;8.8699999776054;888;100 mA
9.36716697635018;0.4005126953125;0.00018280029296875;8.87999997758016;889;100 mA
9.37716697632493;0.4005126953125;0.000182495117187501;8.88999997755491;890;100 mA
9.38716697629968;0.400543212890625;0.000179443359375001;8.89999997752966;891;100 mA
9.39716697627443;0.400543212890625;0.00018280029296875;8.90999997750441;892;100 mA
9.40716697624919;0.400604248046875;0.000174865722656251;8.91999997747916;893;100 mA
9.41716697622394;0.400543212890625;0.00018646240234375;8.92999997745392;894;100 mA
9.42716697619869;0.40057373046875;0.00017852783203125;8.93999997742867;895;100 mA
9.43716697617344;0.40057373046875;0.0001800537109375;8.94999997740342;896;100 mA
9.4471669761482;0.40057373046875;0.00018585205078125;8.95999997737817;897;100 mA
9.45716697612295;0.400634765625;0.000176086425781249;8.96999997735293;898;100 mA
9.4671669760977;0.4005126953125;0.0001861572265625;8.97999997732768;899;100 mA
9.47716697607245;0.400604248046875;0.0001800537109375;8.98999997730243;900;100 mA
9.48716697604721;0.40057373046875;0.000180969238281251;8.99999997727718;901;100 mA
9.49716697602196;0.40057373046875;0.000182189941406249;9.00999997725194;902;100 mA
9.50716697599671;0.400543212890625;0.00017822265625;9.01999997722669;903;100 mA
9.51716697597146;0.400543212890625;0.00018280029296875;9.02999997720144;904;100 mA
9.52716697594622;0.40057373046875;0.00018035888671875;9.03999997717619;905;100 mA
9.53716697592097;0.400604248046875;0.00017974853515625;9.04999997715095;906;100 mA
9.54716697589572;0.400543212890625;0.00018585205078125;9.0599999771257;907;100 mA
9.55716697587047;0.40045166015625;0.00017669677734375;9.06999997710045;908;100 mA
9.56716697584523;0.4005126953125;0.000185241699218749;9.0799999770752;909;100 mA
9.57716697581998;0.4005126953125;0.00017730712890625;9.08999997704996;910;100 mA
9.58716697579473;0.400604248046875;0.0001788330078125;9.09999997702471;911;100 mA
9.59716697576948;0.40057373046875;0.00018341064453125;9.10999997699946;912;100 mA
9.60716697574424;0.400482177734375;0.00017425537109375;9.11999997697421;913;100 mA
9.61716697571899;0.400543212890625;0.00018310546875;9.12999997694897;914;100 mA
9.62716697569374;0.40057373046875;0.000177001953125;9.13999997692372;915;100 mA
9.63716697566849;0.400543212890625;0.000176086425781249;9.14999997689847;916;100 mA
9.64716697564324;0.40057373046875;0.000180664062499999;9.15999997687322;917;100 mA
9.657166975618;0.4005126953125;0.000174865722656251;9.16999997684798;918;100 mA
9.66716697559275;0.400604248046875;0.000182189941406249;9.17999997682273;919;100 mA
9.6771669755675;0.400604248046875;0.00017730712890625;9.18999997679748;920;100 mA
9.68716697554225;0.40057373046875;0.00018157958984375;9.19999997677223;921;100 mA
9.69716697551701;0.400543212890625;0.0001812744140625;9.20999997674699;922;100 mA
9.70716697549176;0.4005126953125;0.00017242431640625;9.21999997672174;923;100 mA
9.71716697546651;0.400604248046875;0.000179443359375001;9.22999997669649;924;100 mA
9.72716697544126;0.40057373046875;0.00017547607421875;9.23999997667124;925;100 mA
9.73716697541602;0.400482177734375;0.000176086425781249;9.249999976646;926;100 mA
9.74716697539077;0.4005126953125;0.0001812744140625;9.25999997662075;927;100 mA
9.75716697536552;0.40045166015625;0.000173339843750001;9.2699999765955;928;100 mA
9.76716697534027;0.400543212890625;0.00018157958984375;9.27999997657025;929;100 mA
9.77716697531503;0.400665283203125;0.00017974853515625;9.289999976545;930;100 mA
9.78716697528978;0.400543212890625;0.000177917480468751;9.29999997651976;931;100 mA
9.79716697526453;0.400543212890625;0.000181884765625;9.30999997649451;932;100 mA
9.80716697523928;0.4005126953125;0.000176086425781249;9.31999997646926;933;100 mA
9.81716697521404;0.400604248046875;0.000181884765625;9.32999997644401;934;100 mA
9.82716697518879;0.400634765625;0.0001800537109375;9.33999997641877;935;100 mA
9.83716697516354;0.400543212890625;0.000174560546874999;9.34999997639352;936;100 mA
9.84716697513829;0.400543212890625;0.00018157958984375;9.35999997636827;937;100 mA
9.85716697511305;0.4005126953125;0.000168457031249999;9.36999997634302;938;100 mA
9.8671669750878;0.400604248046875;0.000172119140625;9.37999997631778;939;100 mA
9.87716697506255;0.400604248046875;0.000171813964843751;9.38999997629253;940;100 mA
9.8871669750373;0.400543212890625;0.00017120361328125;9.39999997626728;941;100 mA
9.89716697501206;0.4005126953125;0.00017852783203125;9.40999997624203;942;100 mA
9.90716697498681;0.400543212890625;0.000174560546874999;9.41999997621679;943;100 mA
9.91716697496156;0.40057373046875;0.000177001953125;9.42999997619154;944;100 mA
9.92716697493631;0.40057373046875;0.00017974853515625;9.43999997616629;945;100 mA
9.93716697491107;0.400604248046875;0.00017425537109375;9.44999997614104;946;100 mA
9.94716697488582;0.40057373046875;0.00017852783203125;9.4599999761158;947;100 mA
9.95716697486057;0.40057373046875;0.0001708984375;9.46999997609055;948;100 mA
9.96716697483532;0.400543212890625;0.000179138183593749;9.4799999760653;949;100 mA
9.97716697481007;0.40057373046875;0.000170288085937501;9.48999997604005;950;100 mA
9.98716697478483;0.4005126953125;0.0001788330078125;9.49999997601481;951;100 mA
9.99716697475958;0.400543212890625;0.000180664062499999;9.50999997598956;952;100 mA
10.0071669747343;0.400543212890625;0.00017120361328125;9.51999997596431;953;100 mA
10.0171669747091;0.400482177734375;0.000183715820312499;9.52999997593906;954;100 mA
10.0271669746838;0.4005126953125;0.00017730712890625;9.53999997591382;955;100 mA
10.0371669746586;0.400604248046875;0.00017242431640625;9.54999997588857;956;100 mA
10.0471669746333;0.4005126953125;0.000185546875000001;9.55999997586332;957;100 mA
10.0571669746081;0.400543212890625;0.00017425537109375;9.56999997583807;958;100 mA
10.0671669745828;0.40057373046875;0.000182495117187501;9.57999997581283;959;100 mA
10.0771669745576;0.4005126953125;0.0001812744140625;9.58999997578758;960;100 mA
10.0871669745324;0.400604248046875;0.00017120361328125;9.59999997576233;961;100 mA
10.0971669745071;0.400543212890625;0.000177612304687499;9.60999997573708;962;100 mA
10.1071669744819;0.400543212890625;0.000171813964843751;9.61999997571183;963;100 mA
10.1171669744566;0.400604248046875;0.00017822265625;9.62999997568659;964;100 mA
10.1271669744314;0.40057373046875;0.00017578125;9.63999997566134;965;100 mA
10.1371669744061;0.400543212890625;0.00017669677734375;9.64999997563609;966;100 mA
10.1471669743809;0.400634765625;0.00018157958984375;9.65999997561084;967;100 mA
10.1571669743556;0.40045166015625;0.00017364501953125;9.6699999755856;968;100 mA
10.1671669743304;0.400543212890625;0.00018157958984375;9.67999997556035;969;100 mA
10.1771669743051;0.400543212890625;0.000174865722656251;9.6899999755351;970;100 mA
10.1871669742799;0.400634765625;0.000168762207031251;9.69999997550985;971;100 mA
10.1971669742546;0.400543212890625;0.00017578125;9.70999997548461;972;100 mA
10.2071669742294;0.40057373046875;0.000166015625;9.71999997545936;973;100 mA
10.2171669742041;0.400543212890625;0.000174865722656251;9.72999997543411;974;100 mA
10.2271669741789;0.400604248046875;0.000173339843750001;9.73999997540886;975;100 mA
10.2371669741536;0.400543212890625;0.0001708984375;9.74999997538362;976;100 mA
10.2471669741284;0.400604248046875;0.00017822265625;9.75999997535837;977;100 mA
10.2571669741031;0.400482177734375;0.0001727294921875;9.76999997533312;978;100 mA
10.2671669740779;0.4005126953125;0.00017852783203125;9.77999997530787;979;100 mA
10.2771669740526;0.4005126953125;0.00017242431640625;9.78999997528263;980;100 mA
10.2871669740274;0.400543212890625;0.00017364501953125;9.79999997525738;981;100 mA
10.2971669740022;0.4005126953125;0.000177612304687499;9.80999997523213;982;100 mA
10.3071669739769;0.400543212890625;0.000168762207031251;9.81999997520688;983;100 mA
10.3171669739517;0.40057373046875;0.000174560546874999;9.82999997518164;984;100 mA
10.3271669739264;0.40057373046875;0.000171508789062499;9.83999997515639;985;100 mA
10.3371669739012;0.400543212890625;0.000166931152343749;9.84999997513114;986;100 mA
10.3471669738759;0.400543212890625;0.000179138183593749;9.85999997510589;987;100 mA
10.3571669738507;0.400543212890625;0.000165405273437499;9.86999997508065;988;100 mA
10.3671669738254;0.400482177734375;0.00017822265625;9.8799999750554;989;100 mA
10.3771669738002;0.40057373046875;0.00017242431640625;9.88999997503015;990;100 mA
10.3871669737749;0.400482177734375;0.000170288085937501;9.8999999750049;991;100 mA
10.3971669737497;0.400543212890625;0.0001739501953125;9.90999997497966;992;100 mA
10.4071669737244;0.400482177734375;0.00016754150390625;9.91999997495441;993;100 mA
10.4171669736992;0.40057373046875;0.000171813964843751;9.92999997492916;994;100 mA
10.4271669736739;0.40057373046875;0.000169677734375;9.93999997490391;995;100 mA
10.4371669736487;0.400543212890625;0.000162658691406251;9.94999997487866;996;100 mA
10.4471669736234;0.40057373046875;0.000171813964843751;9.95999997485342;997;100 mA
10.4571669735982;0.400604248046875;0.000159606933593751;9.96999997482817;998;100 mA
10.4671669735729;0.400543212890625;0.000173339843750001;9.97999997480292;999;100 mA
10.4771669735477;0.4005126953125;0.00016754150390625;9.98999997477767;1000;100 mA
