Time (s);WE(1).Potential (V);WE(1).Current (A);Corrected time (s);Index;Current range
11.0293499721536;0.301666259765625;-0.0014068603515625;0;1;100 mA
11.0393499721283;0.300262451171875;-0.000603637695312501;0.00999999997475243;2;100 mA
11.0493499721031;0.30047607421875;-0.00046875;0.0199999999495049;3;100 mA
11.0593499720778;0.30047607421875;-0.0003741455078125;0.0299999999242573;4;100 mA
11.0693499720526;0.300506591796875;-0.000299682617187499;0.0399999998990097;5;100 mA
11.0793499720273;0.300537109375;-0.00026275634765625;0.0499999998737621;6;100 mA
11.0893499720021;0.300537109375;-0.000215759277343749;0.0599999998485146;7;100 mA
11.0993499719768;0.30047607421875;-0.000194396972656249;0.069999999823267;8;100 mA
11.1093499719516;0.300506591796875;-0.000167236328125001;0.0799999997980194;9;100 mA
11.1193499719263;0.300445556640625;-0.000147399902343751;0.0899999997727718;10;100 mA
11.1293499719011;0.300506591796875;-0.000130615234375001;0.0999999997475243;11;100 mA
11.1393499718758;0.300537109375;-0.00010986328125;0.109999999722277;12;100 mA
11.1493499718506;0.300506591796875;-0.000106201171875001;0.119999999697029;13;100 mA
11.1593499718253;0.300537109375;-8.60595703124995E-05;0.129999999671782;14;100 mA
11.1693499718001;0.300537109375;-8.30078124999995E-05;0.139999999646534;15;100 mA
11.1793499717749;0.300506591796875;-7.35473632812497E-05;0.149999999621286;16;100 mA
11.1893499717496;0.300506591796875;-5.73730468750006E-05;0.159999999596039;17;100 mA
11.1993499717244;0.300537109375;-6.22558593750003E-05;0.169999999570791;18;100 mA
11.2093499716991;0.300445556640625;-4.85229492187503E-05;0.179999999545544;19;100 mA
11.2193499716739;0.300567626953125;-4.425048828125E-05;0.189999999520296;20;100 mA
11.2293499716486;0.300506591796875;-4.119873046875E-05;0.199999999495049;21;100 mA
11.2393499716234;0.300506591796875;-2.41088867187503E-05;0.209999999469801;22;100 mA
11.2493499715981;0.30047607421875;-2.77709960937497E-05;0.219999999444553;23;100 mA
11.2593499715729;0.30047607421875;-2.288818359375E-05;0.229999999419306;24;100 mA
11.2693499715476;0.30059814453125;-1.80053710937503E-05;0.239999999394058;25;100 mA
11.2793499715224;0.300445556640625;-1.40380859374997E-05;0.249999999368811;26;100 mA
11.2893499714971;0.300445556640625;-5.49316406250056E-06;0.259999999343563;27;100 mA
11.2993499714719;0.300506591796875;-8.54492187500055E-06;0.269999999318316;28;100 mA
11.3093499714466;0.300537109375;-8.23974609374944E-06;0.279999999293068;29;100 mA
11.3193499714214;0.300567626953125;3.0517578125E-06;0.28999999926782;30;100 mA
11.3293499713961;0.300506591796875;-1.52587890625E-06;0.299999999242573;31;100 mA
11.3393499713709;0.30047607421875;1.28173828124994E-05;0.309999999217325;32;100 mA
11.3493499713456;0.300506591796875;2.74658203125028E-06;0.319999999192078;33;100 mA
11.3593499713204;0.300445556640625;1.55639648437497E-05;0.32999999916683;34;100 mA
11.3693499712952;0.300537109375;1.983642578125E-05;0.339999999141583;35;100 mA
11.3793499712699;0.300567626953125;1.068115234375E-05;0.349999999116335;36;100 mA
11.3893499712447;0.30047607421875;2.86865234375003E-05;0.359999999091087;37;100 mA
11.3993499712194;0.300567626953125;1.8310546875E-05;0.36999999906584;38;100 mA
11.4093499711942;0.300506591796875;2.74658203125E-05;0.379999999040592;39;100 mA
11.4193499711689;0.300567626953125;2.71606445312503E-05;0.389999999015345;40;100 mA
11.4293499711437;0.300537109375;2.34985351562494E-05;0.399999998990097;41;100 mA
11.4393499711184;0.300506591796875;3.11279296874994E-05;0.40999999896485;42;100 mA
11.4493499710932;0.30059814453125;2.593994140625E-05;0.419999998939602;43;100 mA
11.4593499710679;0.300537109375;3.41796874999994E-05;0.429999998914354;44;100 mA
11.4693499710427;0.30047607421875;3.509521484375E-05;0.439999998889107;45;100 mA
11.4793499710174;0.30047607421875;3.29589843750006E-05;0.449999998863859;46;100 mA
11.4893499709922;0.300537109375;4.36401367187506E-05;0.459999998838612;47;100 mA
11.4993499709669;0.300567626953125;3.72314453124995E-05;0.469999998813364;48;100 mA
11.5093499709417;0.300537109375;4.33349609374994E-05;0.479999998788116;49;100 mA
11.5193499709164;0.30047607421875;4.66918945312506E-05;0.489999998762869;50;100 mA
11.5293499708912;0.300506591796875;3.72314453124995E-05;0.499999998737621;51;100 mA
11.5393499708659;0.30047607421875;4.82177734375006E-05;0.509999998712374;52;100 mA
11.5493499708407;0.300567626953125;4.15039062499997E-05;0.519999998687126;53;100 mA
11.5593499708154;0.300537109375;4.79125976562494E-05;0.529999998661879;54;100 mA
11.5693499707902;0.30047607421875;4.69970703125003E-05;0.539999998636631;55;100 mA
11.579349970765;0.300506591796875;4.48608398437495E-05;0.549999998611383;56;100 mA
11.5893499707397;0.300537109375;5.58471679687506E-05;0.559999998586136;57;100 mA
11.5993499707145;0.300537109375;4.85229492187503E-05;0.569999998560888;58;100 mA
11.6093499706892;0.300537109375;5.645751953125E-05;0.579999998535641;59;100 mA
11.619349970664;0.300537109375;5.46264648437503E-05;0.589999998510393;60;100 mA
11.6293499706387;0.300567626953125;5.43212890625006E-05;0.599999998485146;61;100 mA
11.6393499706135;0.300506591796875;6.40869140625E-05;0.609999998459898;62;100 mA
11.6493499705882;0.300567626953125;5.12695312500006E-05;0.61999999843465;63;100 mA
11.659349970563;0.30047607421875;5.950927734375E-05;0.629999998409403;64;100 mA
11.6693499705377;0.300506591796875;6.256103515625E-05;0.639999998384155;65;100 mA
11.6793499705125;0.300506591796875;5.645751953125E-05;0.649999998358908;66;100 mA
11.6893499704872;0.300537109375;6.68334960937503E-05;0.65999999833366;67;100 mA
11.699349970462;0.30047607421875;6.31713867187495E-05;0.669999998308413;68;100 mA
11.7093499704367;0.300506591796875;6.01196289062495E-05;0.679999998283165;69;100 mA
11.7193499704115;0.3004150390625;7.23266601562494E-05;0.689999998257917;70;100 mA
11.7293499703862;0.300537109375;6.103515625E-05;0.69999999823267;71;100 mA
11.739349970361;0.300537109375;7.11059570312506E-05;0.709999998207422;72;100 mA
11.7493499703357;0.300506591796875;6.43920898437497E-05;0.719999998182175;73;100 mA
11.7593499703105;0.300537109375;6.65283203125006E-05;0.729999998156927;74;100 mA
11.7693499702852;0.300537109375;6.80541992187506E-05;0.73999999813168;75;100 mA
11.77934997026;0.300537109375;6.31713867187495E-05;0.749999998106432;76;100 mA
11.7893499702348;0.300506591796875;7.41577148437506E-05;0.759999998081184;77;100 mA
11.7993499702095;0.30047607421875;6.65283203125006E-05;0.769999998055937;78;100 mA
11.8093499701843;0.3004150390625;7.04956054687497E-05;0.779999998030689;79;100 mA
11.819349970159;0.300506591796875;7.26318359375006E-05;0.789999998005442;80;100 mA
11.8293499701338;0.300537109375;6.65283203125006E-05;0.799999997980194;81;100 mA
11.8393499701085;0.30059814453125;7.41577148437506E-05;0.809999997954947;82;100 mA
11.8493499700833;0.300537109375;7.01904296875E-05;0.819999997929699;83;100 mA
11.859349970058;0.3004150390625;7.44628906250003E-05;0.829999997904451;84;100 mA
11.8693499700328;0.300537109375;7.50732421874997E-05;0.839999997879204;85;100 mA
11.8793499700075;0.300506591796875;7.14111328125003E-05;0.849999997853956;86;100 mA
11.8893499699823;0.300506591796875;7.41577148437506E-05;0.859999997828709;87;100 mA
11.899349969957;0.300537109375;7.11059570312506E-05;0.869999997803461;88;100 mA
11.9093499699318;0.30047607421875;7.59887695312503E-05;0.879999997778214;89;100 mA
11.9193499699065;0.300567626953125;7.62939453125E-05;0.889999997752966;90;100 mA
11.9293499698813;0.30047607421875;6.80541992187506E-05;0.899999997727718;91;100 mA
11.939349969856;0.300506591796875;7.90405273437503E-05;0.909999997702471;92;100 mA
11.9493499698308;0.300506591796875;7.38525390624995E-05;0.919999997677223;93;100 mA
11.9593499698055;0.300537109375;7.65991210937497E-05;0.929999997651976;94;100 mA
11.9693499697803;0.300537109375;7.90405273437503E-05;0.939999997626728;95;100 mA
11.979349969755;0.300506591796875;7.72094726562506E-05;0.949999997601481;96;100 mA
11.9893499697298;0.300506591796875;8.48388671875006E-05;0.959999997576233;97;100 mA
11.9993499697046;0.30047607421875;7.59887695312503E-05;0.969999997550985;98;100 mA
12.0093499696793;0.300537109375;8.087158203125E-05;0.979999997525738;99;100 mA
12.0193499696541;0.300537109375;8.33129882812506E-05;0.98999999750049;100;100 mA
12.0293499696288;0.300537109375;7.41577148437506E-05;0.999999997475243;101;100 mA
12.0393499696036;0.300384521484375;8.33129882812506E-05;1.00999999745;102;100 mA
12.0493499695783;0.30059814453125;7.781982421875E-05;1.01999999742475;103;100 mA
12.0593499695531;0.300537109375;8.30078124999995E-05;1.0299999973995;104;100 mA
12.0693499695278;0.300506591796875;8.33129882812506E-05;1.03999999737425;105;100 mA
12.0793499695026;0.300506591796875;7.75146484375003E-05;1.049999997349;106;100 mA
12.0893499694773;0.300506591796875;8.81958007812503E-05;1.05999999732376;107;100 mA
12.0993499694521;0.300537109375;8.087158203125E-05;1.06999999729851;108;100 mA
12.1093499694268;0.300537109375;8.45336914062494E-05;1.07999999727326;109;100 mA
12.1193499694016;0.30047607421875;8.48388671875006E-05;1.08999999724801;110;100 mA
12.1293499693763;0.300567626953125;7.69042968749994E-05;1.09999999722277;111;100 mA
12.1393499693511;0.300506591796875;8.75854492187494E-05;1.10999999719752;112;100 mA
12.1493499693258;0.300445556640625;7.65991210937497E-05;1.11999999717227;113;100 mA
12.1593499693006;0.30059814453125;7.96508789062497E-05;1.12999999714702;114;100 mA
12.1693499692753;0.30047607421875;8.85009765625E-05;1.13999999712178;115;100 mA
12.1793499692501;0.30047607421875;8.14819335937495E-05;1.14999999709653;116;100 mA
12.1893499692248;0.300567626953125;9.002685546875E-05;1.15999999707128;117;100 mA
12.1993499691996;0.300506591796875;8.087158203125E-05;1.16999999704603;118;100 mA
12.2093499691744;0.30047607421875;8.36181640625003E-05;1.17999999702079;119;100 mA
12.2193499691491;0.300445556640625;9.18579101562497E-05;1.18999999699554;120;100 mA
12.2293499691239;0.30047607421875;8.45336914062494E-05;1.19999999697029;121;100 mA
12.2393499690986;0.30059814453125;9.18579101562497E-05;1.20999999694504;122;100 mA
12.2493499690734;0.300506591796875;8.30078124999995E-05;1.2199999969198;123;100 mA
12.2593499690481;0.300567626953125;8.11767578124997E-05;1.22999999689455;124;100 mA
12.2693499690229;0.300445556640625;8.57543945312497E-05;1.2399999968693;125;100 mA
12.2793499689976;0.300506591796875;8.17871093750006E-05;1.24999999684405;126;100 mA
12.2893499689724;0.300537109375;9.1552734375E-05;1.25999999681881;127;100 mA
12.2993499689471;0.300445556640625;8.72802734374997E-05;1.26999999679356;128;100 mA
12.3093499689219;0.300506591796875;8.63647460937506E-05;1.27999999676831;129;100 mA
12.3193499688966;0.300506591796875;9.002685546875E-05;1.28999999674306;130;100 mA
12.3293499688714;0.30047607421875;8.66699218750003E-05;1.29999999671782;131;100 mA
12.3393499688461;0.300537109375;9.82666015624995E-05;1.30999999669257;132;100 mA
12.3493499688209;0.300506591796875;8.45336914062494E-05;1.31999999666732;133;100 mA
12.3593499687956;0.300567626953125;8.72802734374997E-05;1.32999999664207;134;100 mA
12.3693499687704;0.300506591796875;8.81958007812503E-05;1.33999999661683;135;100 mA
12.3793499687451;0.300506591796875;8.27026367187497E-05;1.34999999659158;136;100 mA
12.3893499687199;0.300537109375;9.1552734375E-05;1.35999999656633;137;100 mA
12.3993499686947;0.300506591796875;8.392333984375E-05;1.36999999654108;138;100 mA
12.4093499686694;0.30047607421875;8.72802734374997E-05;1.37999999651583;139;100 mA
12.4193499686442;0.300506591796875;9.36889648437495E-05;1.38999999649059;140;100 mA
12.4293499686189;0.300537109375;8.48388671875006E-05;1.39999999646534;141;100 mA
12.4393499685937;0.300537109375;9.46044921875E-05;1.40999999644009;142;100 mA
12.4493499685684;0.300506591796875;8.88061523437497E-05;1.41999999641484;143;100 mA
12.4593499685432;0.30047607421875;9.307861328125E-05;1.4299999963896;144;100 mA
12.4693499685179;0.300506591796875;9.46044921875E-05;1.43999999636435;145;100 mA
12.4793499684927;0.300506591796875;8.72802734374997E-05;1.4499999963391;146;100 mA
12.4893499684674;0.30047607421875;9.82666015624995E-05;1.45999999631385;147;100 mA
12.4993499684422;0.300506591796875;8.66699218750003E-05;1.46999999628861;148;100 mA
12.5093499684169;0.300506591796875;8.75854492187494E-05;1.47999999626336;149;100 mA
12.5193499683917;0.300537109375;9.24682617187506E-05;1.48999999623811;150;100 mA
12.5293499683664;0.300537109375;8.51440429687503E-05;1.49999999621286;151;100 mA
12.5393499683412;0.300445556640625;9.49096679687497E-05;1.50999999618762;152;100 mA
12.5493499683159;0.30047607421875;8.697509765625E-05;1.51999999616237;153;100 mA
12.5593499682907;0.30047607421875;9.27734375000003E-05;1.52999999613712;154;100 mA
12.5693499682654;0.300567626953125;9.21630859374994E-05;1.53999999611187;155;100 mA
12.5793499682402;0.300567626953125;9.002685546875E-05;1.54999999608663;156;100 mA
12.5893499682149;0.300445556640625;9.82666015624995E-05;1.55999999606138;157;100 mA
12.5993499681897;0.300537109375;9.24682617187506E-05;1.56999999603613;158;100 mA
12.6093499681645;0.300506591796875;9.03320312499997E-05;1.57999999601088;159;100 mA
12.6193499681392;0.300506591796875;9.33837890624997E-05;1.58999999598564;160;100 mA
12.629349968114;0.300506591796875;8.66699218750003E-05;1.59999999596039;161;100 mA
12.6393499680887;0.300445556640625;9.42993164062503E-05;1.60999999593514;162;100 mA
12.6493499680635;0.300567626953125;8.75854492187494E-05;1.61999999590989;163;100 mA
12.6593499680382;0.300628662109375;9.12475585937503E-05;1.62999999588465;164;100 mA
12.669349968013;0.30047607421875;9.64355468749997E-05;1.6399999958594;165;100 mA
12.6793499679877;0.30047607421875;9.67407226562495E-05;1.64999999583415;166;100 mA
12.6893499679625;0.30047607421875;0.00010345458984375;1.6599999958089;167;100 mA
12.6993499679372;0.300506591796875;9.21630859374994E-05;1.66999999578366;168;100 mA
12.709349967912;0.300506591796875;9.765625E-05;1.67999999575841;169;100 mA
12.7193499678867;0.30047607421875;9.918212890625E-05;1.68999999573316;170;100 mA
12.7293499678615;0.30047607421875;9.36889648437495E-05;1.69999999570791;171;100 mA
12.7393499678362;0.300537109375;0.000100097656250001;1.70999999568267;172;100 mA
12.749349967811;0.300537109375;9.1552734375E-05;1.71999999565742;173;100 mA
12.7593499677857;0.300537109375;9.12475585937503E-05;1.72999999563217;174;100 mA
12.7693499677605;0.300445556640625;9.58251953125003E-05;1.73999999560692;175;100 mA
12.7793499677352;0.30047607421875;9.24682617187506E-05;1.74999999558167;176;100 mA
12.78934996771;0.300537109375;0.000104370117187499;1.75999999555643;177;100 mA
12.7993499676847;0.300537109375;9.307861328125E-05;1.76999999553118;178;100 mA
12.8093499676595;0.300506591796875;9.52148437499994E-05;1.77999999550593;179;100 mA
12.8193499676343;0.300506591796875;0.000100097656250001;1.78999999548068;180;100 mA
12.829349967609;0.300506591796875;9.39941406250006E-05;1.79999999545544;181;100 mA
12.8393499675838;0.300537109375;0.0001007080078125;1.80999999543019;182;100 mA
12.8493499675585;0.300506591796875;9.765625E-05;1.81999999540494;183;100 mA
12.8593499675333;0.30047607421875;9.49096679687497E-05;1.82999999537969;184;100 mA
12.869349967508;0.300445556640625;9.67407226562495E-05;1.83999999535445;185;100 mA
12.8793499674828;0.300445556640625;9.06372070312495E-05;1.8499999953292;186;100 mA
12.8893499674575;0.300537109375;9.67407226562495E-05;1.85999999530395;187;100 mA
12.8993499674323;0.300506591796875;9.33837890624997E-05;1.8699999952787;188;100 mA
12.909349967407;0.300445556640625;9.88769531250003E-05;1.87999999525346;189;100 mA
12.9193499673818;0.30047607421875;0.000104370117187499;1.88999999522821;190;100 mA
12.9293499673565;0.300537109375;9.39941406250006E-05;1.89999999520296;191;100 mA
12.9393499673313;0.30059814453125;0.000106201171875001;1.90999999517771;192;100 mA
12.949349967306;0.300506591796875;9.918212890625E-05;1.91999999515247;193;100 mA
12.9593499672808;0.30047607421875;9.64355468749997E-05;1.92999999512722;194;100 mA
12.9693499672555;0.300567626953125;9.82666015624995E-05;1.93999999510197;195;100 mA
12.9793499672303;0.300445556640625;9.64355468749997E-05;1.94999999507672;196;100 mA
12.989349967205;0.300506591796875;0.000100097656250001;1.95999999505148;197;100 mA
12.9993499671798;0.300506591796875;9.307861328125E-05;1.96999999502623;198;100 mA
13.0093499671545;0.300445556640625;9.33837890624997E-05;1.97999999500098;199;100 mA
13.0193499671293;0.300537109375;9.88769531250003E-05;1.98999999497573;200;100 mA
13.0293499671041;0.30047607421875;9.64355468749997E-05;1.99999999495049;201;100 mA
13.0393499670788;0.300506591796875;0.00010528564453125;2.00999999492524;202;100 mA
13.0493499670536;0.300506591796875;9.97924804687494E-05;2.01999999489999;203;100 mA
13.0593499670283;0.300445556640625;9.79614257812497E-05;2.02999999487474;204;100 mA
13.0693499670031;0.300537109375;0.0001025390625;2.0399999948495;205;100 mA
13.0793499669778;0.300537109375;0.00010040283203125;2.04999999482425;206;100 mA
13.0893499669526;0.300445556640625;0.00010650634765625;2.059999994799;207;100 mA
13.0993499669273;0.30047607421875;0.00010040283203125;2.06999999477375;208;100 mA
13.1093499669021;0.300537109375;9.55200195312506E-05;2.0799999947485;209;100 mA
13.1193499668768;0.300506591796875;0.000101318359374999;2.08999999472326;210;100 mA
13.1293499668516;0.3006591796875;9.09423828125006E-05;2.09999999469801;211;100 mA
13.1393499668263;0.300384521484375;0.0001025390625;2.10999999467276;212;100 mA
13.1493499668011;0.30047607421875;0.000100097656250001;2.11999999464751;213;100 mA
13.1593499667758;0.300537109375;9.82666015624995E-05;2.12999999462227;214;100 mA
13.1693499667506;0.300506591796875;0.000103149414062501;2.13999999459702;215;100 mA
13.1793499667253;0.300537109375;9.52148437499994E-05;2.14999999457177;216;100 mA
13.1893499667001;0.30047607421875;0.000107421874999999;2.15999999454652;217;100 mA
13.1993499666748;0.300506591796875;9.613037109375E-05;2.16999999452128;218;100 mA
13.2093499666496;0.30047607421875;0.000100097656250001;2.17999999449603;219;100 mA
13.2193499666243;0.300445556640625;0.000102844238281249;2.18999999447078;220;100 mA
13.2293499665991;0.300537109375;9.24682617187506E-05;2.19999999444553;221;100 mA
13.2393499665739;0.30047607421875;0.00010406494140625;2.20999999442029;222;100 mA
13.2493499665486;0.30047607421875;9.52148437499994E-05;2.21999999439504;223;100 mA
13.2593499665234;0.30059814453125;9.49096679687497E-05;2.22999999436979;224;100 mA
13.2693499664981;0.30047607421875;0.00010498046875;2.23999999434454;225;100 mA
13.2793499664729;0.300537109375;0.0001007080078125;2.2499999943193;226;100 mA
13.2893499664476;0.30047607421875;0.000108947753906249;2.25999999429405;227;100 mA
13.2993499664224;0.300506591796875;0.000100097656250001;2.2699999942688;228;100 mA
13.3093499663971;0.300567626953125;9.79614257812497E-05;2.27999999424355;229;100 mA
13.3193499663719;0.30047607421875;0.00010528564453125;2.28999999421831;230;100 mA
13.3293499663466;0.300537109375;9.82666015624995E-05;2.29999999419306;231;100 mA
13.3393499663214;0.300506591796875;0.00010711669921875;2.30999999416781;232;100 mA
13.3493499662961;0.30047607421875;0.00010101318359375;2.31999999414256;233;100 mA
13.3593499662709;0.300628662109375;9.70458984375006E-05;2.32999999411732;234;100 mA
13.3693499662456;0.300506591796875;0.000102844238281249;2.33999999409207;235;100 mA
13.3793499662204;0.300537109375;9.918212890625E-05;2.34999999406682;236;100 mA
13.3893499661951;0.300537109375;0.00010955810546875;2.35999999404157;237;100 mA
13.3993499661699;0.3004150390625;0.000104675292968751;2.36999999401633;238;100 mA
13.4093499661446;0.300537109375;0.000101623535156251;2.37999999399108;239;100 mA
13.4193499661194;0.30047607421875;0.000103759765625;2.38999999396583;240;100 mA
13.4293499660942;0.300445556640625;0.00010040283203125;2.39999999394058;241;100 mA
13.4393499660689;0.30047607421875;0.0001129150390625;2.40999999391533;242;100 mA
13.4493499660437;0.300537109375;0.000101623535156251;2.41999999389009;243;100 mA
13.4593499660184;0.30047607421875;0.0001019287109375;2.42999999386484;244;100 mA
13.4693499659932;0.30047607421875;0.000105895996093749;2.43999999383959;245;100 mA
13.4793499659679;0.30047607421875;9.765625E-05;2.44999999381434;246;100 mA
13.4893499659427;0.300537109375;0.00010650634765625;2.4599999937891;247;100 mA
13.4993499659174;0.300537109375;0.0001019287109375;2.46999999376385;248;100 mA
13.5093499658922;0.301116943359375;0.000106201171875001;2.4799999937386;249;100 mA
13.5193499658669;0.300506591796875;0.00010833740234375;2.48999999371335;250;100 mA
13.5293499658417;0.300506591796875;0.000103759765625;2.49999999368811;251;100 mA
13.5393499658164;0.300567626953125;0.0001116943359375;2.50999999366286;252;100 mA
13.5493499657912;0.300506591796875;0.00010406494140625;2.51999999363761;253;100 mA
13.5593499657659;0.30047607421875;0.000101623535156251;2.52999999361236;254;100 mA
13.5693499657407;0.300537109375;0.00010650634765625;2.53999999358712;255;100 mA
13.5793499657154;0.300506591796875;0.00010101318359375;2.54999999356187;256;100 mA
13.5893499656902;0.300506591796875;0.00010986328125;2.55999999353662;257;100 mA
13.5993499656649;0.300506591796875;0.000102844238281249;2.56999999351137;258;100 mA
13.6093499656397;0.300445556640625;0.000104675292968751;2.57999999348613;259;100 mA
13.6193499656144;0.300537109375;0.000108642578125;2.58999999346088;260;100 mA
13.6293499655892;0.3006591796875;0.000110473632812499;2.59999999343563;261;100 mA
13.639349965564;0.300537109375;0.00011016845703125;2.60999999341038;262;100 mA
13.6493499655387;0.30047607421875;0.00010498046875;2.61999999338514;263;100 mA
13.6593499655135;0.30047607421875;0.000106201171875001;2.62999999335989;264;100 mA
13.6693499654882;0.300567626953125;0.0001055908203125;2.63999999333464;265;100 mA
13.679349965463;0.300537109375;0.000101623535156251;2.64999999330939;266;100 mA
13.6893499654377;0.300506591796875;0.00010986328125;2.65999999328415;267;100 mA
13.6993499654125;0.300506591796875;0.0001025390625;2.6699999932589;268;100 mA
13.7093499653872;0.30047607421875;0.000103149414062501;2.67999999323365;269;100 mA
13.719349965362;0.30047607421875;0.000104370117187499;2.6899999932084;270;100 mA
13.7293499653367;0.300567626953125;9.97924804687494E-05;2.69999999318316;271;100 mA
13.7393499653115;0.3004150390625;0.000115051269531249;2.70999999315791;272;100 mA
13.7493499652862;0.300537109375;0.00011474609375;2.71999999313266;273;100 mA
13.759349965261;0.300537109375;0.000108642578125;2.72999999310741;274;100 mA
13.7693499652357;0.30047607421875;0.000111999511718749;2.73999999308217;275;100 mA
13.7793499652105;0.300567626953125;0.000103149414062501;2.74999999305692;276;100 mA
13.7893499651852;0.300445556640625;0.0001116943359375;2.75999999303167;277;100 mA
13.79934996516;0.300445556640625;0.0001068115234375;2.76999999300642;278;100 mA
13.8093499651347;0.300506591796875;0.000103759765625;2.77999999298117;279;100 mA
13.8193499651095;0.300537109375;0.000108947753906249;2.78999999295593;280;100 mA
13.8293499650842;0.300567626953125;0.000102844238281249;2.79999999293068;281;100 mA
13.839349965059;0.300506591796875;0.00010955810546875;2.80999999290543;282;100 mA
13.8493499650338;0.30047607421875;0.000106201171875001;2.81999999288018;283;100 mA
13.8593499650085;0.300506591796875;0.000104675292968751;2.82999999285494;284;100 mA
13.8693499649833;0.300445556640625;0.00011871337890625;2.83999999282969;285;100 mA
13.879349964958;0.30047607421875;0.000109252929687501;2.84999999280444;286;100 mA
13.8893499649328;0.30047607421875;0.00011474609375;2.85999999277919;287;100 mA
13.8993499649075;0.300506591796875;0.000105895996093749;2.86999999275395;288;100 mA
13.9093499648823;0.300537109375;0.000103759765625;2.8799999927287;289;100 mA
13.919349964857;0.30047607421875;0.0001116943359375;2.88999999270345;290;100 mA
13.9293499648318;0.30047607421875;0.000106201171875001;2.8999999926782;291;100 mA
13.9393499648065;0.300537109375;0.00011016845703125;2.90999999265296;292;100 mA
13.9493499647813;0.300506591796875;0.000104675292968751;2.91999999262771;293;100 mA
13.959349964756;0.300537109375;0.00010040283203125;2.92999999260246;294;100 mA
13.9693499647308;0.30047607421875;0.000104370117187499;2.93999999257721;295;100 mA
13.9793499647055;0.300445556640625;0.00010711669921875;2.94999999255197;296;100 mA
13.9893499646803;0.300445556640625;0.00012237548828125;2.95999999252672;297;100 mA
13.999349964655;0.300506591796875;0.000107421874999999;2.96999999250147;298;100 mA
14.0093499646298;0.300506591796875;0.00010833740234375;2.97999999247622;299;100 mA
14.0193499646045;0.300445556640625;0.0001141357421875;2.98999999245098;300;100 mA
14.0293499645793;0.300445556640625;0.000104370117187499;2.99999999242573;301;100 mA
14.039349964554;0.30047607421875;0.000111999511718749;3.00999999240048;302;100 mA
14.0493499645288;0.30059814453125;0.000104370117187499;3.01999999237523;303;100 mA
14.0593499645036;0.300506591796875;0.000104370117187499;3.02999999234999;304;100 mA
14.0693499644783;0.300506591796875;0.000107727050781251;3.03999999232474;305;100 mA
14.0793499644531;0.300445556640625;0.0001055908203125;3.04999999229949;306;100 mA
14.0893499644278;0.300506591796875;0.0001141357421875;3.05999999227424;307;100 mA
14.0993499644026;0.300537109375;0.000107727050781251;3.069999992249;308;100 mA
14.1093499643773;0.300506591796875;0.00011871337890625;3.07999999222375;309;100 mA
14.1193499643521;0.300506591796875;0.0001116943359375;3.0899999921985;310;100 mA
14.1293499643268;0.300506591796875;0.000101623535156251;3.09999999217325;311;100 mA
14.1393499643016;0.30047607421875;0.000112304687500001;3.109999992148;312;100 mA
14.1493499642763;0.300506591796875;0.000103149414062501;3.11999999212276;313;100 mA
14.1593499642511;0.30047607421875;0.00010833740234375;3.12999999209751;314;100 mA
14.1693499642258;0.300537109375;0.000106201171875001;3.13999999207226;315;100 mA
14.1793499642006;0.30047607421875;0.0001019287109375;3.14999999204701;316;100 mA
14.1893499641753;0.30047607421875;0.00010955810546875;3.15999999202177;317;100 mA
14.1993499641501;0.300506591796875;0.00010498046875;3.16999999199652;318;100 mA
14.2093499641248;0.30047607421875;0.000104675292968751;3.17999999197127;319;100 mA
14.2193499640996;0.30047607421875;0.00010833740234375;3.18999999194602;320;100 mA
14.2293499640743;0.300445556640625;0.00011627197265625;3.19999999192078;321;100 mA
14.2393499640491;0.300506591796875;0.0001171875;3.20999999189553;322;100 mA
14.2493499640238;0.30047607421875;0.0001068115234375;3.21999999187028;323;100 mA
14.2593499639986;0.300445556640625;0.000105895996093749;3.22999999184503;324;100 mA
14.2693499639734;0.300537109375;0.00010711669921875;3.23999999181979;325;100 mA
14.2793499639481;0.300506591796875;0.000108642578125;3.24999999179454;326;100 mA
14.2893499639229;0.30047607421875;0.000112304687500001;3.25999999176929;327;100 mA
14.2993499638976;0.300445556640625;0.00010833740234375;3.26999999174404;328;100 mA
14.3093499638724;0.300506591796875;0.00010345458984375;3.2799999917188;329;100 mA
14.3193499638471;0.300506591796875;0.00010528564453125;3.28999999169355;330;100 mA
14.3293499638219;0.30059814453125;0.000101623535156251;3.2999999916683;331;100 mA
14.3393499637966;0.300506591796875;0.0001129150390625;3.30999999164305;332;100 mA
14.3493499637714;0.3004150390625;0.0001190185546875;3.31999999161781;333;100 mA
14.3593499637461;0.300506591796875;0.00010498046875;3.32999999159256;334;100 mA
14.3693499637209;0.300537109375;0.00011138916015625;3.33999999156731;335;100 mA
14.3793499636956;0.300506591796875;0.000107421874999999;3.34999999154206;336;100 mA
14.3893499636704;0.30047607421875;0.000112304687500001;3.35999999151682;337;100 mA
14.3993499636451;0.300506591796875;0.000107727050781251;3.36999999149157;338;100 mA
14.4093499636199;0.300567626953125;0.00010040283203125;3.37999999146632;339;100 mA
14.4193499635946;0.300537109375;0.0001129150390625;3.38999999144107;340;100 mA
14.4293499635694;0.300537109375;0.00010406494140625;3.39999999141583;341;100 mA
14.4393499635441;0.30047607421875;0.000116882324218751;3.40999999139058;342;100 mA
14.4493499635189;0.300445556640625;0.000108947753906249;3.41999999136533;343;100 mA
14.4593499634937;0.300537109375;0.00010833740234375;3.42999999134008;344;100 mA
14.4693499634684;0.300323486328125;0.0001251220703125;3.43999999131483;345;100 mA
14.4793499634432;0.300537109375;0.000104370117187499;3.44999999128959;346;100 mA
14.4893499634179;0.300445556640625;0.000115356445312501;3.45999999126434;347;100 mA
14.4993499633927;0.30047607421875;0.00010986328125;3.46999999123909;348;100 mA
14.5093499633674;0.30059814453125;0.000105895996093749;3.47999999121384;349;100 mA
14.5193499633422;0.300506591796875;0.00010986328125;3.4899999911886;350;100 mA
14.5293499633169;0.30047607421875;0.000103759765625;3.49999999116335;351;100 mA
14.5393499632917;0.300567626953125;0.000115966796875;3.5099999911381;352;100 mA
14.5493499632664;0.300506591796875;0.00010528564453125;3.51999999111285;353;100 mA
14.5593499632412;0.30059814453125;0.0001055908203125;3.52999999108761;354;100 mA
14.5693499632159;0.300506591796875;0.00010986328125;3.53999999106236;355;100 mA
14.5793499631907;0.300445556640625;0.00011016845703125;3.54999999103711;356;100 mA
14.5893499631654;0.300384521484375;0.00012969970703125;3.55999999101186;357;100 mA
14.5993499631402;0.30047607421875;0.000111999511718749;3.56999999098662;358;100 mA
14.6093499631149;0.300567626953125;0.000108947753906249;3.57999999096137;359;100 mA
14.6193499630897;0.300506591796875;0.000110778808593751;3.58999999093612;360;100 mA
14.6293499630644;0.300445556640625;0.00010955810546875;3.59999999091087;361;100 mA
14.6393499630392;0.300567626953125;0.000112304687500001;3.60999999088563;362;100 mA
14.6493499630139;0.300506591796875;0.000107727050781251;3.61999999086038;363;100 mA
14.6593499629887;0.300537109375;0.000107421874999999;3.62999999083513;364;100 mA
14.6693499629635;0.300537109375;0.000108947753906249;3.63999999080988;365;100 mA
14.6793499629382;0.30047607421875;0.0001025390625;3.64999999078464;366;100 mA
14.689349962913;0.300506591796875;0.000115051269531249;3.65999999075939;367;100 mA
14.6993499628877;0.30059814453125;0.0001129150390625;3.66999999073414;368;100 mA
14.7093499628625;0.3004150390625;0.000116882324218751;3.67999999070889;369;100 mA
14.7193499628372;0.300506591796875;0.000111999511718749;3.68999999068365;370;100 mA
14.729349962812;0.300537109375;0.000108642578125;3.6999999906584;371;100 mA
14.7393499627867;0.300537109375;0.00011566162109375;3.70999999063315;372;100 mA
14.7493499627615;0.30047607421875;0.000110778808593751;3.7199999906079;373;100 mA
14.7593499627362;0.30047607421875;0.00010833740234375;3.72999999058266;374;100 mA
14.769349962711;0.300537109375;0.000110473632812499;3.73999999055741;375;100 mA
14.7793499626857;0.300445556640625;0.000106201171875001;3.74999999053216;376;100 mA
14.7893499626605;0.300537109375;0.00011138916015625;3.75999999050691;377;100 mA
14.7993499626352;0.300567626953125;0.00010711669921875;3.76999999048167;378;100 mA
14.80934996261;0.300445556640625;0.0001080322265625;3.77999999045642;379;100 mA
14.8193499625847;0.300445556640625;0.00011260986328125;3.78999999043117;380;100 mA
14.8293499625595;0.3004150390625;0.000112304687500001;3.79999999040592;381;100 mA
14.8393499625342;0.30047607421875;0.00011749267578125;3.80999999038067;382;100 mA
14.849349962509;0.300506591796875;0.000108947753906249;3.81999999035543;383;100 mA
14.8593499624837;0.300445556640625;0.00010833740234375;3.82999999033018;384;100 mA
14.8693499624585;0.300506591796875;0.00011016845703125;3.83999999030493;385;100 mA
14.8793499624333;0.300506591796875;0.00010498046875;3.84999999027968;386;100 mA
14.889349962408;0.300506591796875;0.0001116943359375;3.85999999025444;387;100 mA
14.8993499623828;0.30047607421875;0.000111083984375;3.86999999022919;388;100 mA
14.9093499623575;0.30047607421875;0.0001055908203125;3.87999999020394;389;100 mA
14.9193499623323;0.30047607421875;0.00011138916015625;3.88999999017869;390;100 mA
14.929349962307;0.300537109375;0.00010986328125;3.89999999015345;391;100 mA
14.9393499622818;0.300506591796875;0.00011932373046875;3.9099999901282;392;100 mA
14.9493499622565;0.300445556640625;0.00011474609375;3.91999999010295;393;100 mA
14.9593499622313;0.300506591796875;0.00011016845703125;3.9299999900777;394;100 mA
14.969349962206;0.300537109375;0.00011260986328125;3.93999999005246;395;100 mA
14.9793499621808;0.300506591796875;0.00010711669921875;3.94999999002721;396;100 mA
14.9893499621555;0.30047607421875;0.000115356445312501;3.95999999000196;397;100 mA
14.9993499621303;0.300445556640625;0.000110778808593751;3.96999998997671;398;100 mA
15.009349962105;0.30029296875;0.000100097656250001;3.97999998995147;399;100 mA
15.0193499620798;0.300506591796875;0.000111999511718749;3.98999998992622;400;100 mA
15.0293499620545;0.300537109375;0.000105895996093749;3.99999998990097;401;100 mA
15.0393499620293;0.300445556640625;0.0001129150390625;4.00999998987572;402;100 mA
15.049349962004;0.300445556640625;0.000111083984375;4.01999998985048;403;100 mA
15.0593499619788;0.300537109375;0.00011444091796875;4.02999998982523;404;100 mA
15.0693499619535;0.300445556640625;0.000118408203125001;4.03999998979998;405;100 mA
15.0793499619283;0.300537109375;0.0001080322265625;4.04999998977473;406;100 mA
15.0893499619031;0.30047607421875;0.00011749267578125;4.05999998974949;407;100 mA
15.0993499618778;0.3004150390625;0.000112304687500001;4.06999998972424;408;100 mA
15.1093499618526;0.300537109375;0.000110473632812499;4.07999998969899;409;100 mA
15.1193499618273;0.300537109375;0.0001080322265625;4.08999998967374;410;100 mA
15.1293499618021;0.300506591796875;0.0001007080078125;4.0999999896485;411;100 mA
15.1393499617768;0.300567626953125;0.000110778808593751;4.10999998962325;412;100 mA
15.1493499617516;0.30047607421875;0.000111999511718749;4.119999989598;413;100 mA
15.1593499617263;0.300506591796875;0.00010528564453125;4.12999998957275;414;100 mA
15.1693499617011;0.300445556640625;0.00011260986328125;4.1399999895475;415;100 mA
15.1793499616758;0.3004150390625;0.000111083984375;4.14999998952226;416;100 mA
15.1893499616506;0.300445556640625;0.000119628906249999;4.15999998949701;417;100 mA
15.1993499616253;0.300506591796875;0.000112304687500001;4.16999998947176;418;100 mA
15.2093499616001;0.300567626953125;0.0001116943359375;4.17999998944651;419;100 mA
15.2193499615748;0.300506591796875;0.000115356445312501;4.18999998942127;420;100 mA
15.2293499615496;0.3004150390625;0.00011260986328125;4.19999998939602;421;100 mA
15.2393499615243;0.300506591796875;0.000111999511718749;4.20999998937077;422;100 mA
15.2493499614991;0.300506591796875;0.00010955810546875;4.21999998934552;423;100 mA
15.2593499614738;0.30047607421875;0.000107421874999999;4.22999998932028;424;100 mA
15.2693499614486;0.300537109375;0.000109252929687501;4.23999998929503;425;100 mA
15.2793499614233;0.30047607421875;0.0001080322265625;4.24999998926978;426;100 mA
15.2893499613981;0.300506591796875;0.00011566162109375;4.25999998924453;427;100 mA
15.2993499613729;0.300567626953125;0.00011138916015625;4.26999998921929;428;100 mA
15.3093499613476;0.300445556640625;0.00011138916015625;4.27999998919404;429;100 mA
15.3193499613224;0.30047607421875;0.000115356445312501;4.28999998916879;430;100 mA
15.3293499612971;0.30047607421875;0.000111083984375;4.29999998914354;431;100 mA
15.3393499612719;0.30047607421875;0.0001171875;4.3099999891183;432;100 mA
15.3493499612466;0.30047607421875;0.000112304687500001;4.31999998909305;433;100 mA
15.3593499612214;0.300445556640625;0.000109252929687501;4.3299999890678;434;100 mA
15.3693499611961;0.300537109375;0.000102844238281249;4.33999998904255;435;100 mA
15.3793499611709;0.300506591796875;0.000104675292968751;4.34999998901731;436;100 mA
15.3893499611456;0.300506591796875;0.00011322021484375;4.35999998899206;437;100 mA
15.3993499611204;0.300506591796875;0.0001116943359375;4.36999998896681;438;100 mA
15.4093499610951;0.30047607421875;0.000107421874999999;4.37999998894156;439;100 mA
15.4193499610699;0.300567626953125;0.000110778808593751;4.38999998891632;440;100 mA
15.4293499610446;0.30047607421875;0.000105895996093749;4.39999998889107;441;100 mA
15.4393499610194;0.300537109375;0.000115356445312501;4.40999998886582;442;100 mA
15.4493499609941;0.3004150390625;0.000116577148437499;4.41999998884057;443;100 mA
15.4593499609689;0.30047607421875;0.00011138916015625;4.42999998881533;444;100 mA
15.4693499609436;0.300537109375;0.00011322021484375;4.43999998879008;445;100 mA
15.4793499609184;0.30059814453125;0.000108947753906249;4.44999998876483;446;100 mA
15.4893499608932;0.300537109375;0.0001019287109375;4.45999998873958;447;100 mA
15.4993499608679;0.30047607421875;0.000111083984375;4.46999998871433;448;100 mA
15.5093499608427;0.300445556640625;0.000109252929687501;4.47999998868909;449;100 mA
15.5193499608174;0.300506591796875;0.000112304687500001;4.48999998866384;450;100 mA
15.5293499607922;0.300537109375;0.000107421874999999;4.49999998863859;451;100 mA
15.5393499607669;0.30047607421875;0.0001141357421875;4.50999998861334;452;100 mA
15.5493499607417;0.30047607421875;0.000112304687500001;4.5199999885881;453;100 mA
15.5593499607164;0.30047607421875;0.0001141357421875;4.52999998856285;454;100 mA
15.5693499606912;0.300567626953125;0.00011474609375;4.5399999885376;455;100 mA
15.5793499606659;0.300567626953125;0.000107421874999999;4.54999998851235;456;100 mA
15.5893499606407;0.300506591796875;0.00011474609375;4.55999998848711;457;100 mA
15.5993499606154;0.300537109375;0.0001129150390625;4.56999998846186;458;100 mA
15.6093499605902;0.300506591796875;0.00010528564453125;4.57999998843661;459;100 mA
15.6193499605649;0.300506591796875;0.0001068115234375;4.58999998841136;460;100 mA
15.6293499605397;0.300506591796875;0.00010711669921875;4.59999998838612;461;100 mA
15.6393499605144;0.3004150390625;0.000113525390624999;4.60999998836087;462;100 mA
15.6493499604892;0.30047607421875;0.000111083984375;4.61999998833562;463;100 mA
15.6593499604639;0.300506591796875;0.00011260986328125;4.62999998831037;464;100 mA
15.6693499604387;0.300445556640625;0.000108642578125;4.63999998828513;465;100 mA
15.6793499604134;0.300506591796875;0.00010711669921875;4.64999998825988;466;100 mA
15.6893499603882;0.300537109375;0.0001141357421875;4.65999998823463;467;100 mA
15.699349960363;0.300445556640625;0.0001116943359375;4.66999998820938;468;100 mA
15.7093499603377;0.300506591796875;0.000110473632812499;4.67999998818414;469;100 mA
15.7193499603125;0.30047607421875;0.000112304687500001;4.68999998815889;470;100 mA
15.7293499602872;0.300567626953125;9.918212890625E-05;4.69999998813364;471;100 mA
15.739349960262;0.300445556640625;0.000110473632812499;4.70999998810839;472;100 mA
15.7493499602367;0.30047607421875;0.000108642578125;4.71999998808315;473;100 mA
15.7593499602115;0.30059814453125;0.00010833740234375;4.7299999880579;474;100 mA
15.7693499601862;0.300537109375;0.0001129150390625;4.73999998803265;475;100 mA
15.779349960161;0.30047607421875;0.00011474609375;4.7499999880074;476;100 mA
15.7893499601357;0.300537109375;0.000110473632812499;4.75999998798216;477;100 mA
15.7993499601105;0.300445556640625;0.000113830566406251;4.76999998795691;478;100 mA
15.8093499600852;0.300506591796875;0.00011474609375;4.77999998793166;479;100 mA
15.81934996006;0.300537109375;0.0001116943359375;4.78999998790641;480;100 mA
15.8293499600347;0.3004150390625;0.00011016845703125;4.79999998788116;481;100 mA
15.8393499600095;0.300567626953125;0.000116577148437499;4.80999998785592;482;100 mA
15.8493499599842;0.3004150390625;0.000101318359374999;4.81999998783067;483;100 mA
15.859349959959;0.300506591796875;0.000104675292968751;4.82999998780542;484;100 mA
15.8693499599337;0.300445556640625;0.0001116943359375;4.83999998778017;485;100 mA
15.8793499599085;0.300537109375;0.000105895996093749;4.84999998775493;486;100 mA
15.8893499598832;0.300506591796875;0.0001171875;4.85999998772968;487;100 mA
15.899349959858;0.300537109375;0.00011566162109375;4.86999998770443;488;100 mA
15.9093499598328;0.30059814453125;0.00010223388671875;4.87999998767918;489;100 mA
15.9193499598075;0.300506591796875;0.000111999511718749;4.88999998765394;490;100 mA
15.9293499597823;0.300537109375;0.000115356445312501;4.89999998762869;491;100 mA
15.939349959757;0.300567626953125;0.00011566162109375;4.90999998760344;492;100 mA
15.9493499597318;0.300537109375;0.000108642578125;4.91999998757819;493;100 mA
15.9593499597065;0.300537109375;0.000111999511718749;4.92999998755295;494;100 mA
15.9693499596813;0.300537109375;0.000107727050781251;4.9399999875277;495;100 mA
15.979349959656;0.300506591796875;0.000104370117187499;4.94999998750245;496;100 mA
15.9893499596308;0.30059814453125;0.00011322021484375;4.9599999874772;497;100 mA
15.9993499596055;0.300506591796875;0.000113830566406251;4.96999998745196;498;100 mA
16.0093499595803;0.300445556640625;0.00011016845703125;4.97999998742671;499;100 mA
16.019349959555;0.30047607421875;0.00011474609375;4.98999998740146;500;100 mA
16.0293499595298;0.300537109375;0.0001007080078125;4.99999998737621;501;100 mA
16.0393499595045;0.30047607421875;0.00011566162109375;5.00999998735097;502;100 mA
16.0493499594793;0.300567626953125;0.000115051269531249;5.01999998732572;503;100 mA
16.059349959454;0.30047607421875;0.000113830566406251;5.02999998730047;504;100 mA
16.0693499594288;0.300567626953125;0.000115356445312501;5.03999998727522;505;100 mA
16.0793499594035;0.30047607421875;0.00010955810546875;5.04999998724998;506;100 mA
16.0893499593783;0.3006591796875;0.000102844238281249;5.05999998722473;507;100 mA
16.099349959353;0.300506591796875;0.00010955810546875;5.06999998719948;508;100 mA
16.1093499593278;0.30029296875;0.000108642578125;5.07999998717423;509;100 mA
16.1193499593026;0.300537109375;0.00010955810546875;5.08999998714899;510;100 mA
16.1293499592773;0.300537109375;0.00010955810546875;5.09999998712374;511;100 mA
16.1393499592521;0.300506591796875;0.000116882324218751;5.10999998709849;512;100 mA
16.1493499592268;0.300567626953125;0.000104675292968751;5.11999998707324;513;100 mA
16.1593499592016;0.30047607421875;0.0001116943359375;5.129999987048;514;100 mA
16.1693499591763;0.300506591796875;0.000118408203125001;5.13999998702275;515;100 mA
16.1793499591511;0.300567626953125;0.00011260986328125;5.1499999869975;516;100 mA
16.1893499591258;0.30047607421875;0.0001171875;5.15999998697225;517;100 mA
16.1993499591006;0.300506591796875;0.00011260986328125;5.169999986947;518;100 mA
16.2093499590753;0.30059814453125;0.000104370117187499;5.17999998692176;519;100 mA
16.2193499590501;0.300567626953125;0.00011016845703125;5.18999998689651;520;100 mA
16.2293499590248;0.300445556640625;0.00010650634765625;5.19999998687126;521;100 mA
16.2393499589996;0.300445556640625;0.00011749267578125;5.20999998684601;522;100 mA
16.2493499589743;0.300506591796875;0.000111999511718749;5.21999998682077;523;100 mA
16.2593499589491;0.300567626953125;0.00011260986328125;5.22999998679552;524;100 mA
16.2693499589238;0.3006591796875;0.000104675292968751;5.23999998677027;525;100 mA
16.2793499588986;0.300537109375;0.000111999511718749;5.24999998674502;526;100 mA
16.2893499588733;0.300567626953125;0.00012176513671875;5.25999998671978;527;100 mA
16.2993499588481;0.300445556640625;0.0001141357421875;5.26999998669453;528;100 mA
16.3093499588228;0.300628662109375;0.0001129150390625;5.27999998666928;529;100 mA
16.3193499587976;0.300567626953125;0.000113830566406251;5.28999998664403;530;100 mA
16.3293499587724;0.300567626953125;0.000104370117187499;5.29999998661879;531;100 mA
16.3393499587471;0.300506591796875;0.000113830566406251;5.30999998659354;532;100 mA
16.3493499587219;0.3004150390625;0.00011138916015625;5.31999998656829;533;100 mA
16.3593499586966;0.300567626953125;0.000110473632812499;5.32999998654304;534;100 mA
16.3693499586714;0.30047607421875;0.00011444091796875;5.3399999865178;535;100 mA
16.3793499586461;0.300506591796875;0.0001116943359375;5.34999998649255;536;100 mA
16.3893499586209;0.30059814453125;0.000108947753906249;5.3599999864673;537;100 mA
16.3993499585956;0.30047607421875;0.00011627197265625;5.36999998644205;538;100 mA
16.4093499585704;0.300506591796875;0.00012054443359375;5.37999998641681;539;100 mA
16.4193499585451;0.300445556640625;0.00011566162109375;5.38999998639156;540;100 mA
16.4293499585199;0.300445556640625;0.000113525390624999;5.39999998636631;541;100 mA
16.4393499584946;0.300567626953125;0.000120849609375;5.40999998634106;542;100 mA
16.4493499584694;0.300567626953125;0.00010345458984375;5.41999998631582;543;100 mA
16.4593499584441;0.300537109375;0.000112304687500001;5.42999998629057;544;100 mA
16.4693499584189;0.300506591796875;0.0001080322265625;5.43999998626532;545;100 mA
16.4793499583936;0.3004150390625;0.000111083984375;5.44999998624007;546;100 mA
16.4893499583684;0.300567626953125;0.000115356445312501;5.45999998621483;547;100 mA
16.4993499583431;0.300506591796875;0.000110778808593751;5.46999998618958;548;100 mA
16.5093499583179;0.30059814453125;0.000103149414062501;5.47999998616433;549;100 mA
16.5193499582927;0.300506591796875;0.00011474609375;5.48999998613908;550;100 mA
16.5293499582674;0.30047607421875;0.000113525390624999;5.49999998611383;551;100 mA
16.5393499582422;0.300567626953125;0.0001171875;5.50999998608859;552;100 mA
16.5493499582169;0.300537109375;0.00011444091796875;5.51999998606334;553;100 mA
16.5593499581917;0.3004150390625;0.000115051269531249;5.52999998603809;554;100 mA
16.5693499581664;0.300628662109375;0.00010711669921875;5.53999998601284;555;100 mA
16.5793499581412;0.300537109375;0.0001116943359375;5.5499999859876;556;100 mA
16.5893499581159;0.300567626953125;0.0001116943359375;5.55999998596235;557;100 mA
16.5993499580907;0.30047607421875;0.00011322021484375;5.5699999859371;558;100 mA
16.6093499580654;0.300506591796875;0.000105895996093749;5.57999998591185;559;100 mA
16.6193499580402;0.300506591796875;0.00011138916015625;5.58999998588661;560;100 mA
16.6293499580149;0.30059814453125;9.88769531250003E-05;5.59999998586136;561;100 mA
16.6393499579897;0.300537109375;0.00011566162109375;5.60999998583611;562;100 mA
16.6493499579644;0.300445556640625;0.0001177978515625;5.61999998581086;563;100 mA
16.6593499579392;0.300384521484375;0.00011474609375;5.62999998578562;564;100 mA
16.6693499579139;0.300537109375;0.000112304687500001;5.63999998576037;565;100 mA
16.6793499578887;0.300506591796875;0.000108947753906249;5.64999998573512;566;100 mA
16.6893499578634;0.300628662109375;0.00010833740234375;5.65999998570987;567;100 mA
16.6993499578382;0.300537109375;0.0001068115234375;5.66999998568463;568;100 mA
16.7093499578129;0.300506591796875;0.0001055908203125;5.67999998565938;569;100 mA
16.7193499577877;0.300567626953125;0.000107421874999999;5.68999998563413;570;100 mA
16.7293499577625;0.300537109375;0.0001080322265625;5.69999998560888;571;100 mA
16.7393499577372;0.300506591796875;0.000115051269531249;5.70999998558364;572;100 mA
16.749349957712;0.30059814453125;0.000102844238281249;5.71999998555839;573;100 mA
16.7593499576867;0.300445556640625;0.00011260986328125;5.72999998553314;574;100 mA
16.7693499576615;0.300567626953125;0.00012054443359375;5.73999998550789;575;100 mA
16.7793499576362;0.300537109375;0.00011016845703125;5.74999998548265;576;100 mA
16.789349957611;0.300445556640625;0.000115356445312501;5.7599999854574;577;100 mA
16.7993499575857;0.300537109375;0.0001129150390625;5.76999998543215;578;100 mA
16.8093499575605;0.30059814453125;0.00010528564453125;5.7799999854069;579;100 mA
16.8193499575352;0.300537109375;0.000108642578125;5.78999998538166;580;100 mA
16.82934995751;0.300537109375;0.000101623535156251;5.79999998535641;581;100 mA
16.8393499574847;0.300445556640625;0.00011322021484375;5.80999998533116;582;100 mA
16.8493499574595;0.300506591796875;0.000108947753906249;5.81999998530591;583;100 mA
16.8593499574342;0.300567626953125;0.000108642578125;5.82999998528066;584;100 mA
16.869349957409;0.300628662109375;0.00010498046875;5.83999998525542;585;100 mA
16.8793499573837;0.300567626953125;0.000107727050781251;5.84999998523017;586;100 mA
16.8893499573585;0.300384521484375;0.000124206542968749;5.85999998520492;587;100 mA
16.8993499573332;0.300506591796875;0.000112304687500001;5.86999998517967;588;100 mA
16.909349957308;0.30059814453125;0.00011627197265625;5.87999998515443;589;100 mA
16.9193499572827;0.300445556640625;0.000113830566406251;5.88999998512918;590;100 mA
16.9293499572575;0.30059814453125;0.000101318359374999;5.89999998510393;591;100 mA
16.9393499572323;0.30047607421875;0.0001171875;5.90999998507868;592;100 mA
16.949349957207;0.300567626953125;0.0001068115234375;5.91999998505344;593;100 mA
16.9593499571818;0.300567626953125;0.000113525390624999;5.92999998502819;594;100 mA
16.9693499571565;0.30047607421875;0.0001141357421875;5.93999998500294;595;100 mA
16.9793499571313;0.300537109375;0.00011260986328125;5.94999998497769;596;100 mA
16.989349957106;0.3006591796875;0.000108642578125;5.95999998495245;597;100 mA
16.9993499570808;0.30047607421875;0.00011474609375;5.9699999849272;598;100 mA
17.0093499570555;0.300506591796875;0.00011627197265625;5.97999998490195;599;100 mA
17.0193499570303;0.30047607421875;0.000113525390624999;5.9899999848767;600;100 mA
17.029349957005;0.300537109375;0.000111083984375;5.99999998485146;601;100 mA
17.0393499569798;0.300567626953125;0.000118103027343749;6.00999998482621;602;100 mA
17.0493499569545;0.300567626953125;0.00010711669921875;6.01999998480096;603;100 mA
17.0593499569293;0.300537109375;0.00011016845703125;6.02999998477571;604;100 mA
17.069349956904;0.300567626953125;0.000104675292968751;6.03999998475047;605;100 mA
17.0793499568788;0.300506591796875;0.00011138916015625;6.04999998472522;606;100 mA
17.0893499568535;0.3006591796875;0.00011474609375;6.05999998469997;607;100 mA
17.0993499568283;0.300506591796875;0.00011138916015625;6.06999998467472;608;100 mA
17.109349956803;0.300537109375;0.00010711669921875;6.07999998464948;609;100 mA
17.1193499567778;0.300537109375;0.000110778808593751;6.08999998462423;610;100 mA
17.1293499567525;0.300445556640625;0.00011474609375;6.09999998459898;611;100 mA
17.1393499567273;0.300537109375;0.00011749267578125;6.10999998457373;612;100 mA
17.1493499567021;0.300567626953125;0.00010833740234375;6.11999998454849;613;100 mA
17.1593499566768;0.300506591796875;0.00010955810546875;6.12999998452324;614;100 mA
17.1693499566516;0.300537109375;0.000116882324218751;6.13999998449799;615;100 mA
17.1793499566263;0.30047607421875;0.00010955810546875;6.14999998447274;616;100 mA
17.1893499566011;0.300567626953125;0.000110778808593751;6.1599999844475;617;100 mA
17.1993499565758;0.300445556640625;0.00011322021484375;6.16999998442225;618;100 mA
17.2093499565506;0.300506591796875;0.00011260986328125;6.179999984397;619;100 mA
17.2193499565253;0.300537109375;0.00011138916015625;6.18999998437175;620;100 mA
17.2293499565001;0.300537109375;0.00010711669921875;6.1999999843465;621;100 mA
17.2393499564748;0.300567626953125;0.00011474609375;6.20999998432126;622;100 mA
17.2493499564496;0.30047607421875;0.000116577148437499;6.21999998429601;623;100 mA
17.2593499564243;0.30047607421875;0.00010986328125;6.22999998427076;624;100 mA
17.2693499563991;0.300567626953125;0.000112304687500001;6.23999998424551;625;100 mA
17.2793499563738;0.300537109375;0.0001068115234375;6.24999998422027;626;100 mA
17.2893499563486;0.30059814453125;0.00011566162109375;6.25999998419502;627;100 mA
17.2993499563233;0.300537109375;0.00011260986328125;6.26999998416977;628;100 mA
17.3093499562981;0.30059814453125;0.0001116943359375;6.27999998414452;629;100 mA
17.3193499562728;0.30059814453125;0.0001116943359375;6.28999998411928;630;100 mA
17.3293499562476;0.300506591796875;0.00010345458984375;6.29999998409403;631;100 mA
17.3393499562223;0.30047607421875;0.000115966796875;6.30999998406878;632;100 mA
17.3493499561971;0.300537109375;0.00010955810546875;6.31999998404353;633;100 mA
17.3593499561719;0.300537109375;0.000110473632812499;6.32999998401829;634;100 mA
17.3693499561466;0.300537109375;0.0001190185546875;6.33999998399304;635;100 mA
17.3793499561214;0.300567626953125;0.000112304687500001;6.34999998396779;636;100 mA
17.3893499560961;0.300445556640625;0.000113525390624999;6.35999998394254;637;100 mA
17.3993499560709;0.30047607421875;0.00011322021484375;6.3699999839173;638;100 mA
17.4093499560456;0.300506591796875;0.00010986328125;6.37999998389205;639;100 mA
17.4193499560204;0.300567626953125;0.000115051269531249;6.3899999838668;640;100 mA
17.4293499559951;0.30059814453125;0.000101623535156251;6.39999998384155;641;100 mA
17.4393499559699;0.300537109375;0.00011260986328125;6.40999998381631;642;100 mA
17.4493499559446;0.300445556640625;0.000110473632812499;6.41999998379106;643;100 mA
17.4593499559194;0.300567626953125;0.00011627197265625;6.42999998376581;644;100 mA
17.4693499558941;0.30059814453125;0.000110778808593751;6.43999998374056;645;100 mA
17.4793499558689;0.300537109375;0.0001080322265625;6.44999998371532;646;100 mA
17.4893499558436;0.3004150390625;0.00011871337890625;6.45999998369007;647;100 mA
17.4993499558184;0.300537109375;0.000110778808593751;6.46999998366482;648;100 mA
17.5093499557931;0.300506591796875;0.000115356445312501;6.47999998363957;649;100 mA
17.5193499557679;0.30047607421875;0.00011260986328125;6.48999998361433;650;100 mA
17.5293499557426;0.300506591796875;0.0001141357421875;6.49999998358908;651;100 mA
17.5393499557174;0.300506591796875;0.000110473632812499;6.50999998356383;652;100 mA
17.5493499556922;0.300567626953125;0.0001055908203125;6.51999998353858;653;100 mA
17.5593499556669;0.300567626953125;0.000110778808593751;6.52999998351333;654;100 mA
17.5693499556417;0.300445556640625;0.000113830566406251;6.53999998348809;655;100 mA
17.5793499556164;0.30047607421875;0.000111083984375;6.54999998346284;656;100 mA
17.5893499555912;0.300628662109375;0.00011871337890625;6.55999998343759;657;100 mA
17.5993499555659;0.300506591796875;0.000112304687500001;6.56999998341234;658;100 mA
17.6093499555407;0.30047607421875;0.000113830566406251;6.5799999833871;659;100 mA
17.6193499555154;0.300445556640625;0.000116577148437499;6.58999998336185;660;100 mA
17.6293499554902;0.30047607421875;0.000110473632812499;6.5999999833366;661;100 mA
17.6393499554649;0.300537109375;0.000115966796875;6.60999998331135;662;100 mA
17.6493499554397;0.300506591796875;0.000115051269531249;6.61999998328611;663;100 mA
17.6593499554144;0.300506591796875;0.00010955810546875;6.62999998326086;664;100 mA
17.6693499553892;0.300506591796875;0.000110473632812499;6.63999998323561;665;100 mA
17.6793499553639;0.30047607421875;0.000105895996093749;6.64999998321036;666;100 mA
17.6893499553387;0.300567626953125;0.0001129150390625;6.65999998318512;667;100 mA
17.6993499553134;0.300506591796875;0.0001129150390625;6.66999998315987;668;100 mA
17.7093499552882;0.300537109375;0.0001129150390625;6.67999998313462;669;100 mA
17.7193499552629;0.300506591796875;0.00011474609375;6.68999998310937;670;100 mA
17.7293499552377;0.3004150390625;0.000112304687500001;6.69999998308413;671;100 mA
17.7393499552124;0.300537109375;0.000115051269531249;6.70999998305888;672;100 mA
17.7493499551872;0.300506591796875;0.00010986328125;6.71999998303363;673;100 mA
17.759349955162;0.300567626953125;0.00010955810546875;6.72999998300838;674;100 mA
17.7693499551367;0.30047607421875;0.0001171875;6.73999998298314;675;100 mA
17.7793499551115;0.300506591796875;0.000104370117187499;6.74999998295789;676;100 mA
17.7893499550862;0.300567626953125;0.00011322021484375;6.75999998293264;677;100 mA
17.799349955061;0.30047607421875;0.000108947753906249;6.76999998290739;678;100 mA
17.8093499550357;0.30047607421875;0.00011322021484375;6.77999998288215;679;100 mA
17.8193499550105;0.300506591796875;0.000115356445312501;6.7899999828569;680;100 mA
17.8293499549852;0.300537109375;0.00011138916015625;6.79999998283165;681;100 mA
17.83934995496;0.300537109375;0.000119934082031251;6.8099999828064;682;100 mA
17.8493499549347;0.3004150390625;0.000115356445312501;6.81999998278116;683;100 mA
17.8593499549095;0.30047607421875;0.00011566162109375;6.82999998275591;684;100 mA
17.8693499548842;0.300537109375;0.000115051269531249;6.83999998273066;685;100 mA
17.879349954859;0.300445556640625;0.00011138916015625;6.84999998270541;686;100 mA
17.8893499548337;0.30047607421875;0.0001190185546875;6.85999998268016;687;100 mA
17.8993499548085;0.300445556640625;0.000111083984375;6.86999998265492;688;100 mA
17.9093499547832;0.300567626953125;0.00011260986328125;6.87999998262967;689;100 mA
17.919349954758;0.300537109375;0.000111999511718749;6.88999998260442;690;100 mA
17.9293499547327;0.300506591796875;0.0001080322265625;6.89999998257917;691;100 mA
17.9393499547075;0.300506591796875;0.000115356445312501;6.90999998255393;692;100 mA
17.9493499546822;0.300567626953125;0.00011566162109375;6.91999998252868;693;100 mA
17.959349954657;0.30047607421875;0.000115356445312501;6.92999998250343;694;100 mA
17.9693499546318;0.300537109375;0.000118103027343749;6.93999998247818;695;100 mA
17.9793499546065;0.300506591796875;0.00011322021484375;6.94999998245294;696;100 mA
17.9893499545813;0.30047607421875;0.00011322021484375;6.95999998242769;697;100 mA
17.999349954556;0.300567626953125;0.00011016845703125;6.96999998240244;698;100 mA
18.0093499545308;0.300506591796875;0.000118408203125001;6.97999998237719;699;100 mA
18.0193499545055;0.300567626953125;0.00011138916015625;6.98999998235195;700;100 mA
18.0293499544803;0.3004150390625;0.0001068115234375;6.9999999823267;701;100 mA
18.039349954455;0.300537109375;0.000115966796875;7.00999998230145;702;100 mA
18.0493499544298;0.300567626953125;0.000110473632812499;7.0199999822762;703;100 mA
18.0593499544045;0.300506591796875;0.000111083984375;7.02999998225096;704;100 mA
18.0693499543793;0.30047607421875;0.00011627197265625;7.03999998222571;705;100 mA
18.079349954354;0.300506591796875;0.00010955810546875;7.04999998220046;706;100 mA
18.0893499543288;0.300445556640625;0.0001177978515625;7.05999998217521;707;100 mA
18.0993499543035;0.300537109375;0.0001116943359375;7.06999998214997;708;100 mA
18.1093499542783;0.300537109375;0.00011322021484375;7.07999998212472;709;100 mA
18.119349954253;0.30047607421875;0.00011444091796875;7.08999998209947;710;100 mA
18.1293499542278;0.3004150390625;0.0001129150390625;7.09999998207422;711;100 mA
18.1393499542025;0.300506591796875;0.000116882324218751;7.10999998204898;712;100 mA
18.1493499541773;0.300628662109375;0.000110473632812499;7.11999998202373;713;100 mA
18.159349954152;0.30047607421875;0.00010955810546875;7.12999998199848;714;100 mA
18.1693499541268;0.30047607421875;0.00011627197265625;7.13999998197323;715;100 mA
18.1793499541016;0.30047607421875;0.00010986328125;7.14999998194799;716;100 mA
18.1893499540763;0.300445556640625;0.0001239013671875;7.15999998192274;717;100 mA
18.1993499540511;0.300537109375;0.00011260986328125;7.16999998189749;718;100 mA
18.2093499540258;0.30047607421875;0.000113830566406251;7.17999998187224;719;100 mA
18.2193499540006;0.30047607421875;0.000115051269531249;7.189999981847;720;100 mA
18.2293499539753;0.300506591796875;0.000109252929687501;7.19999998182175;721;100 mA
18.2393499539501;0.300537109375;0.0001190185546875;7.2099999817965;722;100 mA
18.2493499539248;0.30047607421875;0.00011749267578125;7.21999998177125;723;100 mA
18.2593499538996;0.30047607421875;0.00011474609375;7.229999981746;724;100 mA
18.2693499538743;0.300445556640625;0.000116882324218751;7.23999998172076;725;100 mA
18.2793499538491;0.300506591796875;0.000109252929687501;7.24999998169551;726;100 mA
18.2893499538238;0.300567626953125;0.000113830566406251;7.25999998167026;727;100 mA
18.2993499537986;0.30047607421875;0.000108947753906249;7.26999998164501;728;100 mA
18.3093499537733;0.30035400390625;0.000123291015625;7.27999998161977;729;100 mA
18.3193499537481;0.300506591796875;0.000115966796875;7.28999998159452;730;100 mA
18.3293499537228;0.300506591796875;0.0001116943359375;7.29999998156927;731;100 mA
18.3393499536976;0.300506591796875;0.000120849609375;7.30999998154402;732;100 mA
18.3493499536723;0.30047607421875;0.000112304687500001;7.31999998151878;733;100 mA
18.3593499536471;0.300506591796875;0.0001116943359375;7.32999998149353;734;100 mA
18.3693499536218;0.30035400390625;0.000126037597656251;7.33999998146828;735;100 mA
18.3793499535966;0.300506591796875;0.000108947753906249;7.34999998144303;736;100 mA
18.3893499535714;0.300567626953125;0.000116577148437499;7.35999998141779;737;100 mA
18.3993499535461;0.300506591796875;0.0001129150390625;7.36999998139254;738;100 mA
18.4093499535209;0.300506591796875;0.000115966796875;7.37999998136729;739;100 mA
18.4193499534956;0.300567626953125;0.000116577148437499;7.38999998134204;740;100 mA
18.4293499534704;0.30047607421875;0.000113525390624999;7.3999999813168;741;100 mA
18.4393499534451;0.300506591796875;0.00011566162109375;7.40999998129155;742;100 mA
18.4493499534199;0.300506591796875;0.00010955810546875;7.4199999812663;743;100 mA
18.4593499533946;0.300537109375;0.000111999511718749;7.42999998124105;744;100 mA
18.4693499533694;0.300567626953125;0.000112304687500001;7.43999998121581;745;100 mA
18.4793499533441;0.300506591796875;0.000107421874999999;7.44999998119056;746;100 mA
18.4893499533189;0.300384521484375;0.00012542724609375;7.45999998116531;747;100 mA
18.4993499532936;0.30047607421875;0.000108947753906249;7.46999998114006;748;100 mA
18.5093499532684;0.300537109375;0.0001141357421875;7.47999998111482;749;100 mA
18.5193499532431;0.300537109375;0.000115051269531249;7.48999998108957;750;100 mA
18.5293499532179;0.300506591796875;0.00010406494140625;7.49999998106432;751;100 mA
18.5393499531926;0.300506591796875;0.00011566162109375;7.50999998103907;752;100 mA
18.5493499531674;0.300445556640625;0.0001202392578125;7.51999998101383;753;100 mA
18.5593499531421;0.30047607421875;0.0001129150390625;7.52999998098858;754;100 mA
18.5693499531169;0.300567626953125;0.0001116943359375;7.53999998096333;755;100 mA
18.5793499530917;0.300445556640625;0.00011260986328125;7.54999998093808;756;100 mA
18.5893499530664;0.300506591796875;0.000115051269531249;7.55999998091283;757;100 mA
18.5993499530412;0.300506591796875;0.0001141357421875;7.56999998088759;758;100 mA
18.6093499530159;0.3004150390625;0.000119934082031251;7.57999998086234;759;100 mA
18.6193499529907;0.30059814453125;0.000113525390624999;7.58999998083709;760;100 mA
18.6293499529654;0.300506591796875;0.000109252929687501;7.59999998081184;761;100 mA
18.6393499529402;0.30047607421875;0.000116577148437499;7.6099999807866;762;100 mA
18.6493499529149;0.300537109375;0.00011322021484375;7.61999998076135;763;100 mA
18.6593499528897;0.30047607421875;0.000110473632812499;7.6299999807361;764;100 mA
18.6693499528644;0.300445556640625;0.000121154785156249;7.63999998071085;765;100 mA
18.6793499528392;0.30047607421875;0.000113525390624999;7.64999998068561;766;100 mA
18.6893499528139;0.30047607421875;0.00011444091796875;7.65999998066036;767;100 mA
18.6993499527887;0.300537109375;0.00010955810546875;7.66999998063511;768;100 mA
18.7093499527634;0.30047607421875;0.000108947753906249;7.67999998060986;769;100 mA
18.7193499527382;0.300445556640625;0.000113525390624999;7.68999998058462;770;100 mA
18.7293499527129;0.300445556640625;0.00011322021484375;7.69999998055937;771;100 mA
18.7393499526877;0.300567626953125;0.00011627197265625;7.70999998053412;772;100 mA
18.7493499526624;0.300537109375;0.0001129150390625;7.71999998050887;773;100 mA
18.7593499526372;0.30047607421875;0.0001080322265625;7.72999998048363;774;100 mA
18.7693499526119;0.300445556640625;0.000115356445312501;7.73999998045838;775;100 mA
18.7793499525867;0.300506591796875;0.000109252929687501;7.74999998043313;776;100 mA
18.7893499525615;0.3004150390625;0.000128784179687499;7.75999998040788;777;100 mA
18.7993499525362;0.300537109375;0.000116577148437499;7.76999998038264;778;100 mA
18.809349952511;0.300506591796875;0.000110778808593751;7.77999998035739;779;100 mA
18.8193499524857;0.30047607421875;0.00011871337890625;7.78999998033214;780;100 mA
18.8293499524605;0.300537109375;0.000103759765625;7.79999998030689;781;100 mA
18.8393499524352;0.300567626953125;0.000115356445312501;7.80999998028165;782;100 mA
18.84934995241;0.3004150390625;0.000120849609375;7.8199999802564;783;100 mA
18.8593499523847;0.300506591796875;0.000109252929687501;7.82999998023115;784;100 mA
18.8693499523595;0.30047607421875;0.000115966796875;7.8399999802059;785;100 mA
18.8793499523342;0.30047607421875;0.000109252929687501;7.84999998018066;786;100 mA
18.889349952309;0.30059814453125;0.00011444091796875;7.85999998015541;787;100 mA
18.8993499522837;0.30047607421875;0.00010498046875;7.86999998013016;788;100 mA
18.9093499522585;0.300445556640625;0.000119628906249999;7.87999998010491;789;100 mA
18.9193499522332;0.30047607421875;0.000115966796875;7.88999998007966;790;100 mA
18.929349952208;0.30059814453125;0.0001068115234375;7.89999998005442;791;100 mA
18.9393499521827;0.300506591796875;0.00011932373046875;7.90999998002917;792;100 mA
18.9493499521575;0.300567626953125;0.00010528564453125;7.91999998000392;793;100 mA
18.9593499521322;0.300537109375;0.00011260986328125;7.92999997997867;794;100 mA
18.969349952107;0.300445556640625;0.00012237548828125;7.93999997995343;795;100 mA
18.9793499520817;0.30047607421875;0.000108947753906249;7.94999997992818;796;100 mA
18.9893499520565;0.300445556640625;0.0001177978515625;7.95999997990293;797;100 mA
18.9993499520313;0.300506591796875;0.00011016845703125;7.96999997987768;798;100 mA
19.009349952006;0.300567626953125;0.000113830566406251;7.97999997985244;799;100 mA
19.0193499519808;0.300567626953125;0.000115356445312501;7.98999997982719;800;100 mA
19.0293499519555;0.300445556640625;0.000118103027343749;7.99999997980194;801;100 mA
19.0393499519303;0.300506591796875;0.0001177978515625;8.00999997977669;802;100 mA
19.049349951905;0.30047607421875;0.0001080322265625;8.01999997975145;803;100 mA
19.0593499518798;0.300537109375;0.000112304687500001;8.0299999797262;804;100 mA
19.0693499518545;0.300323486328125;0.000110778808593751;8.03999997970095;805;100 mA
19.0793499518293;0.30047607421875;0.00010833740234375;8.0499999796757;806;100 mA
19.089349951804;0.300445556640625;0.00012054443359375;8.05999997965046;807;100 mA
19.0993499517788;0.300506591796875;0.00010955810546875;8.06999997962521;808;100 mA
19.1093499517535;0.300506591796875;0.000113830566406251;8.07999997959996;809;100 mA
19.1193499517283;0.300567626953125;0.00011474609375;8.08999997957471;810;100 mA
19.129349951703;0.3004150390625;0.00010650634765625;8.09999997954947;811;100 mA
19.1393499516778;0.300537109375;0.000115051269531249;8.10999997952422;812;100 mA
19.1493499516525;0.300445556640625;0.00011871337890625;8.11999997949897;813;100 mA
19.1593499516273;0.30047607421875;0.0001171875;8.12999997947372;814;100 mA
19.169349951602;0.300567626953125;0.000112304687500001;8.13999997944848;815;100 mA
19.1793499515768;0.30047607421875;0.000109252929687501;8.14999997942323;816;100 mA
19.1893499515515;0.300537109375;0.000111999511718749;8.15999997939798;817;100 mA
19.1993499515263;0.300537109375;0.00010955810546875;8.16999997937273;818;100 mA
19.2093499515011;0.300445556640625;0.000115051269531249;8.17999997934749;819;100 mA
19.2193499514758;0.30047607421875;0.000116882324218751;8.18999997932224;820;100 mA
19.2293499514506;0.3004150390625;0.00010650634765625;8.19999997929699;821;100 mA
19.2393499514253;0.300445556640625;0.00011444091796875;8.20999997927174;822;100 mA
19.2493499514001;0.300567626953125;0.00011474609375;8.2199999792465;823;100 mA
19.2593499513748;0.300445556640625;0.00010223388671875;8.22999997922125;824;100 mA
19.2693499513496;0.30047607421875;0.00012054443359375;8.239999979196;825;100 mA
19.2793499513243;0.300445556640625;0.000107727050781251;8.24999997917075;826;100 mA
19.2893499512991;0.300537109375;0.000110473632812499;8.2599999791455;827;100 mA
19.2993499512738;0.300537109375;0.000111999511718749;8.26999997912026;828;100 mA
19.3093499512486;0.300506591796875;0.0001055908203125;8.27999997909501;829;100 mA
19.3193499512233;0.300537109375;0.00011474609375;8.28999997906976;830;100 mA
19.3293499511981;0.300445556640625;0.000106201171875001;8.29999997904451;831;100 mA
19.3393499511728;0.300506591796875;0.00011444091796875;8.30999997901927;832;100 mA
19.3493499511476;0.300506591796875;0.00011016845703125;8.31999997899402;833;100 mA
19.3593499511223;0.300445556640625;0.0001129150390625;8.32999997896877;834;100 mA
19.3693499510971;0.300628662109375;0.000116577148437499;8.33999997894352;835;100 mA
19.3793499510718;0.300567626953125;0.00010101318359375;8.34999997891828;836;100 mA
19.3893499510466;0.3004150390625;0.00012359619140625;8.35999997889303;837;100 mA
19.3993499510213;0.300567626953125;0.000108642578125;8.36999997886778;838;100 mA
19.4093499509961;0.30047607421875;0.000109252929687501;8.37999997884253;839;100 mA
19.4193499509709;0.300506591796875;0.0001129150390625;8.38999997881729;840;100 mA
19.4293499509456;0.300506591796875;9.765625E-05;8.39999997879204;841;100 mA
19.4393499509204;0.30047607421875;0.00011444091796875;8.40999997876679;842;100 mA
19.4493499508951;0.300445556640625;0.000110778808593751;8.41999997874154;843;100 mA
19.4593499508699;0.30047607421875;0.000110473632812499;8.4299999787163;844;100 mA
19.4693499508446;0.300445556640625;0.000113525390624999;8.43999997869105;845;100 mA
19.4793499508194;0.300537109375;0.0001068115234375;8.4499999786658;846;100 mA
19.4893499507941;0.3004150390625;0.000121459960937501;8.45999997864055;847;100 mA
19.4993499507689;0.300506591796875;0.000103149414062501;8.46999997861531;848;100 mA
19.5093499507436;0.300445556640625;0.000113830566406251;8.47999997859006;849;100 mA
19.5193499507184;0.300537109375;0.00011444091796875;8.48999997856481;850;100 mA
19.5293499506931;0.300506591796875;0.000101318359374999;8.49999997853956;851;100 mA
19.5393499506679;0.300506591796875;0.00011749267578125;8.50999997851432;852;100 mA
19.5493499506426;0.300506591796875;0.00010833740234375;8.51999997848907;853;100 mA
19.5593499506174;0.30047607421875;0.0001116943359375;8.52999997846382;854;100 mA
19.5693499505921;0.30047607421875;0.00011322021484375;8.53999997843857;855;100 mA
19.5793499505669;0.300506591796875;0.000105895996093749;8.54999997841333;856;100 mA
19.5893499505416;0.30047607421875;0.00011749267578125;8.55999997838808;857;100 mA
19.5993499505164;0.30047607421875;0.000110778808593751;8.56999997836283;858;100 mA
19.6093499504912;0.30047607421875;0.00011260986328125;8.57999997833758;859;100 mA
19.6193499504659;0.30047607421875;0.00010711669921875;8.58999997831233;860;100 mA
19.6293499504407;0.300445556640625;0.000108947753906249;8.59999997828709;861;100 mA
19.6393499504154;0.300506591796875;0.00011474609375;8.60999997826184;862;100 mA
19.6493499503902;0.300537109375;0.000110778808593751;8.61999997823659;863;100 mA
19.6593499503649;0.30059814453125;0.000111999511718749;8.62999997821134;864;100 mA
19.6693499503397;0.300628662109375;0.0001055908203125;8.6399999781861;865;100 mA
19.6793499503144;0.3004150390625;0.000109252929687501;8.64999997816085;866;100 mA
19.6893499502892;0.30047607421875;0.000115966796875;8.6599999781356;867;100 mA
19.6993499502639;0.300537109375;0.000107727050781251;8.66999997811035;868;100 mA
19.7093499502387;0.300537109375;0.0001116943359375;8.67999997808511;869;100 mA
19.7193499502134;0.30047607421875;0.00011322021484375;8.68999997805986;870;100 mA
19.7293499501882;0.300445556640625;0.00011016845703125;8.69999997803461;871;100 mA
19.7393499501629;0.30047607421875;0.0001080322265625;8.70999997800936;872;100 mA
19.7493499501377;0.300445556640625;0.0001171875;8.71999997798412;873;100 mA
19.7593499501124;0.300506591796875;0.000115966796875;8.72999997795887;874;100 mA
19.7693499500872;0.300537109375;0.00011322021484375;8.73999997793362;875;100 mA
19.7793499500619;0.30047607421875;0.00010955810546875;8.74999997790837;876;100 mA
19.7893499500367;0.30059814453125;0.0001141357421875;8.75999997788313;877;100 mA
19.7993499500114;0.30047607421875;0.00011322021484375;8.76999997785788;878;100 mA
19.8093499499862;0.30047607421875;0.00010833740234375;8.77999997783263;879;100 mA
19.819349949961;0.30047607421875;0.000113525390624999;8.78999997780738;880;100 mA
19.8293499499357;0.300445556640625;0.000107727050781251;8.79999997778214;881;100 mA
19.8393499499105;0.300567626953125;0.000115051269531249;8.80999997775689;882;100 mA
19.8493499498852;0.300445556640625;0.000118103027343749;8.81999997773164;883;100 mA
19.85934994986;0.30047607421875;0.000101318359374999;8.82999997770639;884;100 mA
19.8693499498347;0.300506591796875;0.000113525390624999;8.83999997768115;885;100 mA
19.8793499498095;0.30047607421875;0.00010955810546875;8.8499999776559;886;100 mA
19.8893499497842;0.300537109375;0.00011474609375;8.85999997763065;887;100 mA
19.899349949759;0.300506591796875;0.000111999511718749;8.8699999776054;888;100 mA
19.9093499497337;0.300506591796875;0.0001019287109375;8.87999997758016;889;100 mA
19.9193499497085;0.30047607421875;0.000113830566406251;8.88999997755491;890;100 mA
19.9293499496832;0.300567626953125;9.918212890625E-05;8.89999997752966;891;100 mA
19.939349949658;0.300537109375;0.0001171875;8.90999997750441;892;100 mA
19.9493499496327;0.300445556640625;0.00011474609375;8.91999997747916;893;100 mA
19.9593499496075;0.300506591796875;0.000109252929687501;8.92999997745392;894;100 mA
19.9693499495822;0.300384521484375;0.00012054443359375;8.93999997742867;895;100 mA
19.979349949557;0.300567626953125;9.46044921875E-05;8.94999997740342;896;100 mA
19.9893499495317;0.3004150390625;0.000118408203125001;8.95999997737817;897;100 mA
19.9993499495065;0.30047607421875;0.0001129150390625;8.96999997735293;898;100 mA
20.0093499494812;0.30047607421875;0.0001055908203125;8.97999997732768;899;100 mA
20.019349949456;0.30047607421875;0.00011260986328125;8.98999997730243;900;100 mA
20.0293499494308;0.300537109375;0.0001019287109375;8.99999997727718;901;100 mA
20.0393499494055;0.30047607421875;0.00011566162109375;9.00999997725194;902;100 mA
20.0493499493803;0.300445556640625;0.000108642578125;9.01999997722669;903;100 mA
20.059349949355;0.300537109375;0.00010833740234375;9.02999997720144;904;100 mA
20.0693499493298;0.30047607421875;0.00011749267578125;9.03999997717619;905;100 mA
20.0793499493045;0.30047607421875;0.000109252929687501;9.04999997715095;906;100 mA
20.0893499492793;0.30035400390625;0.000120849609375;9.0599999771257;907;100 mA
20.099349949254;0.300537109375;0.00010406494140625;9.06999997710045;908;100 mA
20.1093499492288;0.30047607421875;0.000112304687500001;9.0799999770752;909;100 mA
20.1193499492035;0.300537109375;0.000115356445312501;9.08999997704996;910;100 mA
20.1293499491783;0.30047607421875;0.000107421874999999;9.09999997702471;911;100 mA
20.139349949153;0.3004150390625;0.0001171875;9.10999997699946;912;100 mA
20.1493499491278;0.300537109375;0.000111083984375;9.11999997697421;913;100 mA
20.1593499491025;0.300567626953125;0.0001129150390625;9.12999997694897;914;100 mA
20.1693499490773;0.300506591796875;0.000111083984375;9.13999997692372;915;100 mA
20.179349949052;0.300537109375;0.0001080322265625;9.14999997689847;916;100 mA
20.1893499490268;0.3004150390625;0.00011444091796875;9.15999997687322;917;100 mA
20.1993499490015;0.300537109375;0.000110778808593751;9.16999997684798;918;100 mA
20.2093499489763;0.300506591796875;0.000113525390624999;9.17999997682273;919;100 mA
20.219349948951;0.30047607421875;0.00010406494140625;9.18999997679748;920;100 mA
20.2293499489258;0.300506591796875;0.00010711669921875;9.19999997677223;921;100 mA
20.2393499489006;0.300506591796875;0.000121459960937501;9.20999997674699;922;100 mA
20.2493499488753;0.300537109375;0.000116577148437499;9.21999997672174;923;100 mA
20.2593499488501;0.300506591796875;0.00011566162109375;9.22999997669649;924;100 mA
20.2693499488248;0.300537109375;0.00011444091796875;9.23999997667124;925;100 mA
20.2793499487996;0.30059814453125;0.00010955810546875;9.249999976646;926;100 mA
20.2893499487743;0.300537109375;0.000108947753906249;9.25999997662075;927;100 mA
20.2993499487491;0.300506591796875;0.000115051269531249;9.2699999765955;928;100 mA
20.3093499487238;0.300506591796875;0.000108947753906249;9.27999997657025;929;100 mA
20.3193499486986;0.3004150390625;0.0001129150390625;9.289999976545;930;100 mA
20.3293499486733;0.30047607421875;0.000115051269531249;9.29999997651976;931;100 mA
20.3393499486481;0.30059814453125;0.00010650634765625;9.30999997649451;932;100 mA
20.3493499486228;0.300567626953125;0.00011016845703125;9.31999997646926;933;100 mA
20.3593499485976;0.300537109375;0.00011444091796875;9.32999997644401;934;100 mA
20.3693499485723;0.300506591796875;0.00011474609375;9.33999997641877;935;100 mA
20.3793499485471;0.300445556640625;0.00011138916015625;9.34999997639352;936;100 mA
20.3893499485218;0.300537109375;0.000116882324218751;9.35999997636827;937;100 mA
20.3993499484966;0.300445556640625;0.00011260986328125;9.36999997634302;938;100 mA
20.4093499484713;0.300567626953125;0.0001025390625;9.37999997631778;939;100 mA
20.4193499484461;0.300506591796875;0.00011627197265625;9.38999997629253;940;100 mA
20.4293499484208;0.300537109375;0.00010528564453125;9.39999997626728;941;100 mA
20.4393499483956;0.300506591796875;0.000115356445312501;9.40999997624203;942;100 mA
20.4493499483704;0.3004150390625;0.0001190185546875;9.41999997621679;943;100 mA
20.4593499483451;0.30047607421875;0.00010711669921875;9.42999997619154;944;100 mA
20.4693499483199;0.300537109375;0.00010833740234375;9.43999997616629;945;100 mA
20.4793499482946;0.30047607421875;0.000109252929687501;9.44999997614104;946;100 mA
20.4893499482694;0.300567626953125;0.0001116943359375;9.4599999761158;947;100 mA
20.4993499482441;0.30047607421875;0.00011627197265625;9.46999997609055;948;100 mA
20.5093499482189;0.300537109375;0.00010986328125;9.4799999760653;949;100 mA
20.5193499481936;0.300537109375;0.000115966796875;9.48999997604005;950;100 mA
20.5293499481684;0.300537109375;0.0001007080078125;9.49999997601481;951;100 mA
20.5393499481431;0.300537109375;0.000116882324218751;9.50999997598956;952;100 mA
20.5493499481179;0.300445556640625;0.0001141357421875;9.51999997596431;953;100 mA
20.5593499480926;0.300567626953125;0.000110473632812499;9.52999997593906;954;100 mA
20.5693499480674;0.300445556640625;0.00011627197265625;9.53999997591382;955;100 mA
20.5793499480421;0.30047607421875;0.000104675292968751;9.54999997588857;956;100 mA
20.5893499480169;0.300537109375;0.000111083984375;9.55999997586332;957;100 mA
20.5993499479916;0.3004150390625;0.0001141357421875;9.56999997583807;958;100 mA
20.6093499479664;0.30059814453125;0.00011016845703125;9.57999997581283;959;100 mA
20.6193499479411;0.300537109375;0.000112304687500001;9.58999997578758;960;100 mA
20.6293499479159;0.300567626953125;0.0001068115234375;9.59999997576233;961;100 mA
20.6393499478907;0.300506591796875;0.0001171875;9.60999997573708;962;100 mA
20.6493499478654;0.300537109375;0.000106201171875001;9.61999997571183;963;100 mA
20.6593499478402;0.300506591796875;0.000110778808593751;9.62999997568659;964;100 mA
20.6693499478149;0.30059814453125;0.000111083984375;9.63999997566134;965;100 mA
20.6793499477897;0.30047607421875;0.0001055908203125;9.64999997563609;966;100 mA
20.6893499477644;0.300445556640625;0.00011932373046875;9.65999997561084;967;100 mA
20.6993499477392;0.300506591796875;0.000110473632812499;9.6699999755856;968;100 mA
20.7093499477139;0.300567626953125;0.000101623535156251;9.67999997556035;969;100 mA
20.7193499476887;0.300537109375;0.0001129150390625;9.6899999755351;970;100 mA
20.7293499476634;0.300506591796875;0.000110778808593751;9.69999997550985;971;100 mA
20.7393499476382;0.30047607421875;0.000115051269531249;9.70999997548461;972;100 mA
20.7493499476129;0.300537109375;0.000115356445312501;9.71999997545936;973;100 mA
20.7593499475877;0.300506591796875;0.000111999511718749;9.72999997543411;974;100 mA
20.7693499475624;0.300567626953125;0.000111999511718749;9.73999997540886;975;100 mA
20.7793499475372;0.300537109375;0.0001055908203125;9.74999997538362;976;100 mA
20.7893499475119;0.30047607421875;0.000105895996093749;9.75999997535837;977;100 mA
20.7993499474867;0.300537109375;0.000107727050781251;9.76999997533312;978;100 mA
20.8093499474614;0.3004150390625;0.000108947753906249;9.77999997530787;979;100 mA
20.8193499474362;0.300506591796875;0.00010986328125;9.78999997528263;980;100 mA
20.8293499474109;0.300567626953125;0.00010223388671875;9.79999997525738;981;100 mA
20.8393499473857;0.30047607421875;0.0001177978515625;9.80999997523213;982;100 mA
20.8493499473605;0.300506591796875;0.00011474609375;9.81999997520688;983;100 mA
20.8593499473352;0.300537109375;0.000109252929687501;9.82999997518164;984;100 mA
20.86934994731;0.30047607421875;0.00011566162109375;9.83999997515639;985;100 mA
20.8793499472847;0.300506591796875;0.00010833740234375;9.84999997513114;986;100 mA
20.8893499472595;0.300567626953125;0.000108947753906249;9.85999997510589;987;100 mA
20.8993499472342;0.300506591796875;0.000107727050781251;9.86999997508065;988;100 mA
20.909349947209;0.30047607421875;0.00010528564453125;9.8799999750554;989;100 mA
20.9193499471837;0.30047607421875;0.00011322021484375;9.88999997503015;990;100 mA
20.9293499471585;0.300445556640625;0.00010833740234375;9.8999999750049;991;100 mA
20.9393499471332;0.300537109375;0.0001141357421875;9.90999997497966;992;100 mA
20.949349947108;0.30059814453125;0.000110473632812499;9.91999997495441;993;100 mA
20.9593499470827;0.30047607421875;0.00011444091796875;9.92999997492916;994;100 mA
20.9693499470575;0.300445556640625;0.000119934082031251;9.93999997490391;995;100 mA
20.9793499470322;0.300506591796875;0.000109252929687501;9.94999997487866;996;100 mA
20.989349947007;0.300537109375;0.000115966796875;9.95999997485342;997;100 mA
20.9993499469817;0.300445556640625;0.000116882324218751;9.96999997482817;998;100 mA
21.0093499469565;0.300537109375;0.000102844238281249;9.97999997480292;999;100 mA
21.0193499469312;0.300537109375;0.000116882324218751;9.98999997477767;1000;100 mA
