Time (s);WE(1).Potential (V);WE(1).Current (A);Corrected time (s);Index;Current range
21.6246139454031;0.199310302734375;-0.0012847900390625;0;1;100 mA
21.6346139453779;0.20025634765625;-0.00067657470703125;0.00999999997475243;2;100 mA
21.6446139453526;0.200439453125;-0.0005450439453125;0.0199999999495049;3;100 mA
21.6546139453274;0.200469970703125;-0.00045623779296875;0.0299999999242573;4;100 mA
21.6646139453021;0.2005615234375;-0.000383605957031249;0.0399999998990097;5;100 mA
21.6746139452769;0.200531005859375;-0.000332031250000001;0.0499999998737621;6;100 mA
21.6846139452516;0.2005615234375;-0.00029632568359375;0.0599999998485146;7;100 mA
21.6946139452264;0.200531005859375;-0.000263366699218751;0.069999999823267;8;100 mA
21.7046139452011;0.20050048828125;-0.000237121582031249;0.0799999997980194;9;100 mA
21.7146139451759;0.20050048828125;-0.000208129882812499;0.0899999997727718;10;100 mA
21.7246139451506;0.200531005859375;-0.00019989013671875;0.0999999997475243;11;100 mA
21.7346139451254;0.2005615234375;-0.00018341064453125;0.109999999722277;12;100 mA
21.7446139451001;0.200592041015625;-0.000166015625;0.119999999697029;13;100 mA
21.7546139450749;0.20050048828125;-0.00016326904296875;0.129999999671782;14;100 mA
21.7646139450496;0.2005615234375;-0.0001422119140625;0.139999999646534;15;100 mA
21.7746139450244;0.200439453125;-0.00012847900390625;0.149999999621286;16;100 mA
21.7846139449991;0.2005615234375;-0.000127563476562501;0.159999999596039;17;100 mA
21.7946139449739;0.20050048828125;-0.0001116943359375;0.169999999570791;18;100 mA
21.8046139449486;0.20050048828125;-0.000107421874999999;0.179999999545544;19;100 mA
21.8146139449234;0.2005615234375;-0.000100097656250001;0.189999999520296;20;100 mA
21.8246139448981;0.20050048828125;-9.307861328125E-05;0.199999999495049;21;100 mA
21.8346139448729;0.200469970703125;-9.03320312499997E-05;0.209999999469801;22;100 mA
21.8446139448477;0.200531005859375;-8.02612304687506E-05;0.219999999444553;23;100 mA
21.8546139448224;0.200531005859375;-8.51440429687503E-05;0.229999999419306;24;100 mA
21.8646139447972;0.20050048828125;-7.20214843749997E-05;0.239999999394058;25;100 mA
21.8746139447719;0.20050048828125;-6.95800781250006E-05;0.249999999368811;26;100 mA
21.8846139447467;0.20050048828125;-6.83593750000003E-05;0.259999999343563;27;100 mA
21.8946139447214;0.200531005859375;-5.24902343749995E-05;0.269999999318316;28;100 mA
21.9046139446962;0.20050048828125;-5.61523437500003E-05;0.279999999293068;29;100 mA
21.9146139446709;0.200531005859375;-5.00488281250003E-05;0.28999999926782;30;100 mA
21.9246139446457;0.20050048828125;-5.00488281250003E-05;0.299999999242573;31;100 mA
21.9346139446204;0.200408935546875;-4.76074218749997E-05;0.309999999217325;32;100 mA
21.9446139445952;0.200531005859375;-3.99780273437497E-05;0.319999999192078;33;100 mA
21.9546139445699;0.20050048828125;-4.21142578125006E-05;0.32999999916683;34;100 mA
21.9646139445447;0.200531005859375;-3.78417968750003E-05;0.339999999141583;35;100 mA
21.9746139445194;0.20050048828125;-3.38745117187497E-05;0.349999999116335;36;100 mA
21.9846139444942;0.200469970703125;-3.93676757812503E-05;0.359999999091087;37;100 mA
21.9946139444689;0.2005615234375;-2.71606445312503E-05;0.36999999906584;38;100 mA
22.0046139444437;0.200531005859375;-2.74658203125E-05;0.379999999040592;39;100 mA
22.0146139444184;0.200439453125;-1.983642578125E-05;0.389999999015345;40;100 mA
22.0246139443932;0.200531005859375;-2.25830078125003E-05;0.399999998990097;41;100 mA
22.0346139443679;0.200531005859375;-2.899169921875E-05;0.40999999896485;42;100 mA
22.0446139443427;0.200531005859375;-1.55639648437497E-05;0.419999998939602;43;100 mA
22.0546139443175;0.2005615234375;-2.77709960937497E-05;0.429999998914354;44;100 mA
22.0646139442922;0.200439453125;-1.52587890625E-05;0.439999998889107;45;100 mA
22.074613944267;0.20050048828125;-1.19018554687503E-05;0.449999998863859;46;100 mA
22.0846139442417;0.20050048828125;-1.373291015625E-05;0.459999998838612;47;100 mA
22.0946139442165;0.200531005859375;-8.85009765625028E-06;0.469999998813364;48;100 mA
22.1046139441912;0.2005615234375;-9.76562499999945E-06;0.479999998788116;49;100 mA
22.114613944166;0.200439453125;-5.79833984375028E-06;0.489999998762869;50;100 mA
22.1246139441407;0.2005615234375;-8.54492187500055E-06;0.499999998737621;51;100 mA
22.1346139441155;0.20062255859375;-8.54492187500055E-06;0.509999998712374;52;100 mA
22.1446139440902;0.200439453125;4.57763671875E-06;0.519999998687126;53;100 mA
22.154613944065;0.200469970703125;-8.54492187500055E-06;0.529999998661879;54;100 mA
22.1646139440397;0.20050048828125;0;0.539999998636631;55;100 mA
22.1746139440145;0.20050048828125;0;0.549999998611383;56;100 mA
22.1846139439892;0.200531005859375;-4.88281249999972E-06;0.559999998586136;57;100 mA
22.194613943964;0.200469970703125;4.27246093750028E-06;0.569999998560888;58;100 mA
22.2046139439387;0.2005615234375;3.96728515625055E-06;0.579999998535641;59;100 mA
22.2146139439135;0.200469970703125;6.40869140624972E-06;0.589999998510393;60;100 mA
22.2246139438882;0.200531005859375;2.74658203125028E-06;0.599999998485146;61;100 mA
22.234613943863;0.2005615234375;2.44140625000056E-06;0.609999998459898;62;100 mA
22.2446139438377;0.2005615234375;7.32421875000028E-06;0.61999999843465;63;100 mA
22.2546139438125;0.2005615234375;3.66210937499945E-06;0.629999998409403;64;100 mA
22.2646139437873;0.200408935546875;1.52587890625E-05;0.639999998384155;65;100 mA
22.274613943762;0.200531005859375;9.46044921874972E-06;0.649999998358908;66;100 mA
22.2846139437368;0.200531005859375;1.03759765625003E-05;0.65999999833366;67;100 mA
22.2946139437115;0.200408935546875;1.46484375000006E-05;0.669999998308413;68;100 mA
22.3046139436863;0.2005615234375;1.40380859374997E-05;0.679999998283165;69;100 mA
22.314613943661;0.2005615234375;1.25122070312497E-05;0.689999998257917;70;100 mA
22.3246139436358;0.200439453125;1.58691406249994E-05;0.69999999823267;71;100 mA
22.3346139436105;0.200531005859375;1.068115234375E-05;0.709999998207422;72;100 mA
22.3446139435853;0.20050048828125;1.8310546875E-05;0.719999998182175;73;100 mA
22.35461394356;0.200531005859375;1.03759765625003E-05;0.729999998156927;74;100 mA
22.3646139435348;0.2005615234375;1.46484375000006E-05;0.73999999813168;75;100 mA
22.3746139435095;0.200408935546875;1.89208984374994E-05;0.749999998106432;76;100 mA
22.3846139434843;0.200469970703125;1.89208984374994E-05;0.759999998081184;77;100 mA
22.394613943459;0.200469970703125;2.53295898437506E-05;0.769999998055937;78;100 mA
22.4046139434338;0.200531005859375;2.16674804687497E-05;0.779999998030689;79;100 mA
22.4146139434085;0.20050048828125;2.593994140625E-05;0.789999998005442;80;100 mA
22.4246139433833;0.200439453125;2.74658203125E-05;0.799999997980194;81;100 mA
22.434613943358;0.200531005859375;1.52587890625E-05;0.809999997954947;82;100 mA
22.4446139433328;0.200469970703125;2.53295898437506E-05;0.819999997929699;83;100 mA
22.4546139433075;0.2005615234375;1.373291015625E-05;0.829999997904451;84;100 mA
22.4646139432823;0.2005615234375;2.16674804687497E-05;0.839999997879204;85;100 mA
22.4746139432571;0.200408935546875;2.62451171874997E-05;0.849999997853956;86;100 mA
22.4846139432318;0.20050048828125;1.95312500000003E-05;0.859999997828709;87;100 mA
22.4946139432066;0.2005615234375;2.899169921875E-05;0.869999997803461;88;100 mA
22.5046139431813;0.200469970703125;3.17382812500003E-05;0.879999997778214;89;100 mA
22.5146139431561;0.200469970703125;3.17382812500003E-05;0.889999997752966;90;100 mA
22.5246139431308;0.200531005859375;3.0517578125E-05;0.899999997727718;91;100 mA
22.5346139431056;0.200531005859375;2.50244140624994E-05;0.909999997702471;92;100 mA
22.5446139430803;0.2005615234375;3.35693359375E-05;0.919999997677223;93;100 mA
22.5546139430551;0.20050048828125;2.288818359375E-05;0.929999997651976;94;100 mA
22.5646139430298;0.200469970703125;2.77709960937497E-05;0.939999997626728;95;100 mA
22.5746139430046;0.200469970703125;2.83813476562506E-05;0.949999997601481;96;100 mA
22.5846139429793;0.20050048828125;2.50244140624994E-05;0.959999997576233;97;100 mA
22.5946139429541;0.2005615234375;3.54003906249997E-05;0.969999997550985;98;100 mA
22.6046139429288;0.20050048828125;3.26538085937494E-05;0.979999997525738;99;100 mA
22.6146139429036;0.200469970703125;3.84521484374997E-05;0.98999999750049;100;100 mA
22.6246139428783;0.200439453125;3.11279296874994E-05;0.999999997475243;101;100 mA
22.6346139428531;0.20050048828125;3.14331054687506E-05;1.00999999745;102;100 mA
22.6446139428278;0.20050048828125;3.84521484374997E-05;1.01999999742475;103;100 mA
22.6546139428026;0.20050048828125;2.53295898437506E-05;1.0299999973995;104;100 mA
22.6646139427774;0.200469970703125;3.26538085937494E-05;1.03999999737425;105;100 mA
22.6746139427521;0.200531005859375;3.14331054687506E-05;1.049999997349;106;100 mA
22.6846139427269;0.200469970703125;3.44848632812506E-05;1.05999999732376;107;100 mA
22.6946139427016;0.200592041015625;3.78417968750003E-05;1.06999999729851;108;100 mA
22.7046139426764;0.200469970703125;3.69262695312497E-05;1.07999999727326;109;100 mA
22.7146139426511;0.200469970703125;3.99780273437497E-05;1.08999999724801;110;100 mA
22.7246139426259;0.200592041015625;3.57055664062494E-05;1.09999999722277;111;100 mA
22.7346139426006;0.200408935546875;3.509521484375E-05;1.10999999719752;112;100 mA
22.7446139425754;0.200531005859375;4.30297851562497E-05;1.11999999717227;113;100 mA
22.7546139425501;0.20050048828125;3.02124023437503E-05;1.12999999714702;114;100 mA
22.7646139425249;0.2005615234375;3.44848632812506E-05;1.13999999712178;115;100 mA
22.7746139424996;0.200469970703125;3.90625000000006E-05;1.14999999709653;116;100 mA
22.7846139424744;0.200469970703125;3.60107421875006E-05;1.15999999707128;117;100 mA
22.7946139424491;0.200531005859375;3.84521484374997E-05;1.16999999704603;118;100 mA
22.8046139424239;0.200469970703125;3.662109375E-05;1.17999999702079;119;100 mA
22.8146139423986;0.200439453125;3.99780273437497E-05;1.18999999699554;120;100 mA
22.8246139423734;0.200531005859375;4.21142578125006E-05;1.19999999697029;121;100 mA
22.8346139423481;0.200469970703125;3.63159179687503E-05;1.20999999694504;122;100 mA
22.8446139423229;0.20050048828125;4.48608398437495E-05;1.2199999969198;123;100 mA
22.8546139422976;0.20050048828125;3.41796874999994E-05;1.22999999689455;124;100 mA
22.8646139422724;0.200439453125;4.60815429687497E-05;1.2399999968693;125;100 mA
22.8746139422472;0.20050048828125;4.33349609374994E-05;1.24999999684405;126;100 mA
22.8846139422219;0.200439453125;3.69262695312497E-05;1.25999999681881;127;100 mA
22.8946139421967;0.200469970703125;4.8828125E-05;1.26999999679356;128;100 mA
22.9046139421714;0.20050048828125;4.33349609374994E-05;1.27999999676831;129;100 mA
22.9146139421462;0.200469970703125;4.425048828125E-05;1.28999999674306;130;100 mA
22.9246139421209;0.20050048828125;4.54711914062503E-05;1.29999999671782;131;100 mA
22.9346139420957;0.200439453125;4.119873046875E-05;1.30999999669257;132;100 mA
22.9446139420704;0.200469970703125;4.76074218749997E-05;1.31999999666732;133;100 mA
22.9546139420452;0.200592041015625;4.08935546875003E-05;1.32999999664207;134;100 mA
22.9646139420199;0.200469970703125;4.2724609375E-05;1.33999999661683;135;100 mA
22.9746139419947;0.200439453125;4.2724609375E-05;1.34999999659158;136;100 mA
22.9846139419694;0.200439453125;4.18090820312494E-05;1.35999999656633;137;100 mA
22.9946139419442;0.200531005859375;4.85229492187503E-05;1.36999999654108;138;100 mA
23.0046139419189;0.200531005859375;4.76074218749997E-05;1.37999999651583;139;100 mA
23.0146139418937;0.200439453125;4.8828125E-05;1.38999999649059;140;100 mA
23.0246139418684;0.200531005859375;3.99780273437497E-05;1.39999999646534;141;100 mA
23.0346139418432;0.200531005859375;3.93676757812503E-05;1.40999999644009;142;100 mA
23.0446139418179;0.200469970703125;4.66918945312506E-05;1.41999999641484;143;100 mA
23.0546139417927;0.200531005859375;3.93676757812503E-05;1.4299999963896;144;100 mA
23.0646139417674;0.20037841796875;4.54711914062503E-05;1.43999999636435;145;100 mA
23.0746139417422;0.200531005859375;4.63867187499994E-05;1.4499999963391;146;100 mA
23.084613941717;0.2005615234375;4.57763671875E-05;1.45999999631385;147;100 mA
23.0946139416917;0.200531005859375;5.035400390625E-05;1.46999999628861;148;100 mA
23.1046139416665;0.200439453125;5.12695312500006E-05;1.47999999626336;149;100 mA
23.1146139416412;0.200439453125;5.340576171875E-05;1.48999999623811;150;100 mA
23.124613941616;0.200439453125;4.8828125E-05;1.49999999621286;151;100 mA
23.1346139415907;0.2005615234375;4.63867187499994E-05;1.50999999618762;152;100 mA
23.1446139415655;0.2005615234375;4.97436523437506E-05;1.51999999616237;153;100 mA
23.1546139415402;0.20050048828125;4.119873046875E-05;1.52999999613712;154;100 mA
23.164613941515;0.20050048828125;4.60815429687497E-05;1.53999999611187;155;100 mA
23.1746139414897;0.200469970703125;5.035400390625E-05;1.54999999608663;156;100 mA
23.1846139414645;0.2005615234375;4.45556640624997E-05;1.55999999606138;157;100 mA
23.1946139414392;0.200469970703125;5.31005859375003E-05;1.56999999603613;158;100 mA
23.204613941414;0.200439453125;5.31005859375003E-05;1.57999999601088;159;100 mA
23.2146139413887;0.20050048828125;5.18798828125E-05;1.58999999598564;160;100 mA
23.2246139413635;0.200469970703125;5.82885742187497E-05;1.59999999596039;161;100 mA
23.2346139413382;0.200531005859375;4.48608398437495E-05;1.60999999593514;162;100 mA
23.244613941313;0.200531005859375;5.31005859375003E-05;1.61999999590989;163;100 mA
23.2546139412877;0.20050048828125;5.06591796874997E-05;1.62999999588465;164;100 mA
23.2646139412625;0.20050048828125;5.00488281250003E-05;1.6399999958594;165;100 mA
23.2746139412372;0.200531005859375;5.12695312500006E-05;1.64999999583415;166;100 mA
23.284613941212;0.200531005859375;4.69970703125003E-05;1.6599999958089;167;100 mA
23.2946139411868;0.20050048828125;5.52368164062497E-05;1.66999999578366;168;100 mA
23.3046139411615;0.20037841796875;5.4931640625E-05;1.67999999575841;169;100 mA
23.3146139411363;0.200531005859375;5.4931640625E-05;1.68999999573316;170;100 mA
23.324613941111;0.200531005859375;5.43212890625006E-05;1.69999999570791;171;100 mA
23.3346139410858;0.200469970703125;4.79125976562494E-05;1.70999999568267;172;100 mA
23.3446139410605;0.20050048828125;5.58471679687506E-05;1.71999999565742;173;100 mA
23.3546139410353;0.20050048828125;5.27954101562506E-05;1.72999999563217;174;100 mA
23.36461394101;0.200653076171875;5.21850585937497E-05;1.73999999560692;175;100 mA
23.3746139409848;0.200469970703125;5.40161132812494E-05;1.74999999558167;176;100 mA
23.3846139409595;0.200531005859375;4.730224609375E-05;1.75999999555643;177;100 mA
23.3946139409343;0.20050048828125;5.40161132812494E-05;1.76999999553118;178;100 mA
23.404613940909;0.200469970703125;5.55419921874994E-05;1.77999999550593;179;100 mA
23.4146139408838;0.20050048828125;5.40161132812494E-05;1.78999999548068;180;100 mA
23.4246139408585;0.200469970703125;5.27954101562506E-05;1.79999999545544;181;100 mA
23.4346139408333;0.20050048828125;4.63867187499994E-05;1.80999999543019;182;100 mA
23.444613940808;0.2005615234375;6.01196289062495E-05;1.81999999540494;183;100 mA
23.4546139407828;0.20050048828125;4.91333007812497E-05;1.82999999537969;184;100 mA
23.4646139407575;0.20050048828125;5.43212890625006E-05;1.83999999535445;185;100 mA
23.4746139407323;0.20050048828125;5.645751953125E-05;1.8499999953292;186;100 mA
23.484613940707;0.200469970703125;5.27954101562506E-05;1.85999999530395;187;100 mA
23.4946139406818;0.200531005859375;6.13403320312497E-05;1.8699999952787;188;100 mA
23.5046139406566;0.20050048828125;5.88989257812506E-05;1.87999999525346;189;100 mA
23.5146139406313;0.200439453125;5.340576171875E-05;1.88999999522821;190;100 mA
23.5246139406061;0.200408935546875;5.79833984375E-05;1.89999999520296;191;100 mA
23.5346139405808;0.20050048828125;5.12695312500006E-05;1.90999999517771;192;100 mA
23.5446139405556;0.20062255859375;5.92041015625003E-05;1.91999999515247;193;100 mA
23.5546139405303;0.200469970703125;5.035400390625E-05;1.92999999512722;194;100 mA
23.5646139405051;0.200347900390625;5.76782226562503E-05;1.93999999510197;195;100 mA
23.5746139404798;0.200469970703125;5.67626953124997E-05;1.94999999507672;196;100 mA
23.5846139404546;0.200469970703125;5.67626953124997E-05;1.95999999505148;197;100 mA
23.5946139404293;0.20050048828125;6.256103515625E-05;1.96999999502623;198;100 mA
23.6046139404041;0.200469970703125;6.37817382812503E-05;1.97999999500098;199;100 mA
23.6146139403788;0.200469970703125;5.85937499999994E-05;1.98999999497573;200;100 mA
23.6246139403536;0.2005615234375;5.76782226562503E-05;1.99999999495049;201;100 mA
23.6346139403283;0.200531005859375;5.4931640625E-05;2.00999999492524;202;100 mA
23.6446139403031;0.20050048828125;5.950927734375E-05;2.01999999489999;203;100 mA
23.6546139402778;0.200531005859375;5.12695312500006E-05;2.02999999487474;204;100 mA
23.6646139402526;0.20050048828125;5.4931640625E-05;2.0399999948495;205;100 mA
23.6746139402273;0.20050048828125;5.85937499999994E-05;2.04999999482425;206;100 mA
23.6846139402021;0.20050048828125;5.88989257812506E-05;2.059999994799;207;100 mA
23.6946139401769;0.200439453125;6.16455078124994E-05;2.06999999477375;208;100 mA
23.7046139401516;0.200469970703125;5.98144531249997E-05;2.0799999947485;209;100 mA
23.7146139401264;0.200439453125;5.98144531249997E-05;2.08999999472326;210;100 mA
23.7246139401011;0.2005615234375;6.01196289062495E-05;2.09999999469801;211;100 mA
23.7346139400759;0.20050048828125;5.82885742187497E-05;2.10999999467276;212;100 mA
23.7446139400506;0.200531005859375;6.22558593750003E-05;2.11999999464751;213;100 mA
23.7546139400254;0.2005615234375;5.035400390625E-05;2.12999999462227;214;100 mA
23.7646139400001;0.200531005859375;5.98144531249997E-05;2.13999999459702;215;100 mA
23.7746139399749;0.20050048828125;5.79833984375E-05;2.14999999457177;216;100 mA
23.7846139399496;0.20050048828125;5.645751953125E-05;2.15999999454652;217;100 mA
23.7946139399244;0.200469970703125;6.07299804687503E-05;2.16999999452128;218;100 mA
23.8046139398991;0.200439453125;6.40869140625E-05;2.17999999449603;219;100 mA
23.8146139398739;0.200531005859375;5.85937499999994E-05;2.18999999447078;220;100 mA
23.8246139398486;0.200531005859375;6.07299804687503E-05;2.19999999444553;221;100 mA
23.8346139398234;0.200592041015625;5.58471679687506E-05;2.20999999442029;222;100 mA
23.8446139397981;0.200439453125;6.77490234374995E-05;2.21999999439504;223;100 mA
23.8546139397729;0.2005615234375;5.76782226562503E-05;2.22999999436979;224;100 mA
23.8646139397476;0.200531005859375;6.103515625E-05;2.23999999434454;225;100 mA
23.8746139397224;0.20050048828125;5.79833984375E-05;2.2499999943193;226;100 mA
23.8846139396971;0.200531005859375;5.76782226562503E-05;2.25999999429405;227;100 mA
23.8946139396719;0.20050048828125;6.13403320312497E-05;2.2699999942688;228;100 mA
23.9046139396467;0.200408935546875;6.53076171875003E-05;2.27999999424355;229;100 mA
23.9146139396214;0.20050048828125;6.28662109374997E-05;2.28999999421831;230;100 mA
23.9246139395962;0.200408935546875;6.40869140625E-05;2.29999999419306;231;100 mA
23.9346139395709;0.200653076171875;5.31005859375003E-05;2.30999999416781;232;100 mA
23.9446139395457;0.200469970703125;6.561279296875E-05;2.31999999414256;233;100 mA
23.9546139395204;0.2005615234375;5.88989257812506E-05;2.32999999411732;234;100 mA
23.9646139394952;0.200531005859375;6.22558593750003E-05;2.33999999409207;235;100 mA
23.9746139394699;0.200408935546875;6.22558593750003E-05;2.34999999406682;236;100 mA
23.9846139394447;0.2005615234375;5.645751953125E-05;2.35999999404157;237;100 mA
23.9946139394194;0.200592041015625;6.28662109374997E-05;2.36999999401633;238;100 mA
24.0046139393942;0.20050048828125;6.13403320312497E-05;2.37999999399108;239;100 mA
24.0146139393689;0.20050048828125;6.16455078124994E-05;2.38999999396583;240;100 mA
24.0246139393437;0.200469970703125;6.256103515625E-05;2.39999999394058;241;100 mA
24.0346139393184;0.200531005859375;5.76782226562503E-05;2.40999999391533;242;100 mA
24.0446139392932;0.2005615234375;6.83593750000003E-05;2.41999999389009;243;100 mA
24.0546139392679;0.200469970703125;6.13403320312497E-05;2.42999999386484;244;100 mA
24.0646139392427;0.200469970703125;6.46972656249994E-05;2.43999999383959;245;100 mA
24.0746139392174;0.20050048828125;6.62231445312494E-05;2.44999999381434;246;100 mA
24.0846139391922;0.2005615234375;6.01196289062495E-05;2.4599999937891;247;100 mA
24.0946139391669;0.200531005859375;6.95800781250006E-05;2.46999999376385;248;100 mA
24.1046139391417;0.200469970703125;6.46972656249994E-05;2.4799999937386;249;100 mA
24.1146139391165;0.20050048828125;5.82885742187497E-05;2.48999999371335;250;100 mA
24.1246139390912;0.200469970703125;6.22558593750003E-05;2.49999999368811;251;100 mA
24.134613939066;0.200469970703125;5.76782226562503E-05;2.50999999366286;252;100 mA
24.1446139390407;0.200531005859375;6.62231445312494E-05;2.51999999363761;253;100 mA
24.1546139390155;0.200439453125;5.88989257812506E-05;2.52999999361236;254;100 mA
24.1646139389902;0.2005615234375;6.22558593750003E-05;2.53999999358712;255;100 mA
24.174613938965;0.2005615234375;6.43920898437497E-05;2.54999999356187;256;100 mA
24.1846139389397;0.20050048828125;6.256103515625E-05;2.55999999353662;257;100 mA
24.1946139389145;0.20050048828125;7.04956054687497E-05;2.56999999351137;258;100 mA
24.2046139388892;0.200439453125;6.62231445312494E-05;2.57999999348613;259;100 mA
24.214613938864;0.2005615234375;6.62231445312494E-05;2.58999999346088;260;100 mA
24.2246139388387;0.2005615234375;6.65283203125006E-05;2.59999999343563;261;100 mA
24.2346139388135;0.20050048828125;6.01196289062495E-05;2.60999999341038;262;100 mA
24.2446139387882;0.20050048828125;6.43920898437497E-05;2.61999999338514;263;100 mA
24.254613938763;0.200439453125;5.950927734375E-05;2.62999999335989;264;100 mA
24.2646139387377;0.20050048828125;6.31713867187495E-05;2.63999999333464;265;100 mA
24.2746139387125;0.20062255859375;6.46972656249994E-05;2.64999999330939;266;100 mA
24.2846139386872;0.200469970703125;6.28662109374997E-05;2.65999999328415;267;100 mA
24.294613938662;0.200531005859375;7.20214843749997E-05;2.6699999932589;268;100 mA
24.3046139386367;0.200439453125;6.89697265624997E-05;2.67999999323365;269;100 mA
24.3146139386115;0.200592041015625;6.43920898437497E-05;2.6899999932084;270;100 mA
24.3246139385863;0.200531005859375;6.83593750000003E-05;2.69999999318316;271;100 mA
24.334613938561;0.200469970703125;6.59179687499997E-05;2.70999999315791;272;100 mA
24.3446139385358;0.200469970703125;6.80541992187506E-05;2.71999999313266;273;100 mA
24.3546139385105;0.200531005859375;6.43920898437497E-05;2.72999999310741;274;100 mA
24.3646139384853;0.200531005859375;6.31713867187495E-05;2.73999999308217;275;100 mA
24.37461393846;0.200531005859375;6.13403320312497E-05;2.74999999305692;276;100 mA
24.3846139384348;0.200469970703125;6.13403320312497E-05;2.75999999303167;277;100 mA
24.3946139384095;0.20050048828125;6.43920898437497E-05;2.76999999300642;278;100 mA
24.4046139383843;0.200469970703125;6.95800781250006E-05;2.77999999298117;279;100 mA
24.414613938359;0.200531005859375;6.34765625000006E-05;2.78999999295593;280;100 mA
24.4246139383338;0.2005615234375;6.65283203125006E-05;2.79999999293068;281;100 mA
24.4346139383085;0.2005615234375;6.77490234374995E-05;2.80999999290543;282;100 mA
24.4446139382833;0.20050048828125;7.41577148437506E-05;2.81999999288018;283;100 mA
24.454613938258;0.200531005859375;6.92749023437494E-05;2.82999999285494;284;100 mA
24.4646139382328;0.200531005859375;6.62231445312494E-05;2.83999999282969;285;100 mA
24.4746139382075;0.200531005859375;6.65283203125006E-05;2.84999999280444;286;100 mA
24.4846139381823;0.200469970703125;6.256103515625E-05;2.85999999277919;287;100 mA
24.494613938157;0.200469970703125;6.74438476562497E-05;2.86999999275395;288;100 mA
24.5046139381318;0.200439453125;6.866455078125E-05;2.8799999927287;289;100 mA
24.5146139381065;0.200531005859375;6.37817382812503E-05;2.88999999270345;290;100 mA
24.5246139380813;0.200469970703125;6.62231445312494E-05;2.8999999926782;291;100 mA
24.5346139380561;0.200531005859375;6.46972656249994E-05;2.90999999265296;292;100 mA
24.5446139380308;0.200469970703125;6.98852539062503E-05;2.91999999262771;293;100 mA
24.5546139380056;0.2005615234375;6.43920898437497E-05;2.92999999260246;294;100 mA
24.5646139379803;0.2005615234375;6.92749023437494E-05;2.93999999257721;295;100 mA
24.5746139379551;0.200469970703125;7.04956054687497E-05;2.94999999255197;296;100 mA
24.5846139379298;0.200531005859375;6.77490234374995E-05;2.95999999252672;297;100 mA
24.5946139379046;0.200592041015625;7.04956054687497E-05;2.96999999250147;298;100 mA
24.6046139378793;0.200469970703125;6.92749023437494E-05;2.97999999247622;299;100 mA
24.6146139378541;0.200531005859375;6.40869140625E-05;2.98999999245098;300;100 mA
24.6246139378288;0.200439453125;6.7138671875E-05;2.99999999242573;301;100 mA
24.6346139378036;0.200469970703125;6.07299804687503E-05;3.00999999240048;302;100 mA
24.6446139377783;0.2005615234375;7.171630859375E-05;3.01999999237523;303;100 mA
24.6546139377531;0.20050048828125;6.46972656249994E-05;3.02999999234999;304;100 mA
24.6646139377278;0.200531005859375;6.62231445312494E-05;3.03999999232474;305;100 mA
24.6746139377026;0.2005615234375;7.26318359375006E-05;3.04999999229949;306;100 mA
24.6846139376773;0.200531005859375;6.74438476562497E-05;3.05999999227424;307;100 mA
24.6946139376521;0.20062255859375;7.32421875E-05;3.069999992249;308;100 mA
24.7046139376268;0.200439453125;6.92749023437494E-05;3.07999999222375;309;100 mA
24.7146139376016;0.200439453125;6.68334960937503E-05;3.0899999921985;310;100 mA
24.7246139375764;0.2005615234375;6.7138671875E-05;3.09999999217325;311;100 mA
24.7346139375511;0.200531005859375;6.43920898437497E-05;3.109999992148;312;100 mA
24.7446139375259;0.200531005859375;6.89697265624997E-05;3.11999999212276;313;100 mA
24.7546139375006;0.200531005859375;6.34765625000006E-05;3.12999999209751;314;100 mA
24.7646139374754;0.200469970703125;7.29370117187503E-05;3.13999999207226;315;100 mA
24.7746139374501;0.20050048828125;7.14111328125003E-05;3.14999999204701;316;100 mA
24.7846139374249;0.20050048828125;6.866455078125E-05;3.15999999202177;317;100 mA
24.7946139373996;0.200531005859375;7.781982421875E-05;3.16999999199652;318;100 mA
24.8046139373744;0.20050048828125;7.23266601562494E-05;3.17999999197127;319;100 mA
24.8146139373491;0.20050048828125;6.92749023437494E-05;3.18999999194602;320;100 mA
24.8246139373239;0.2005615234375;6.866455078125E-05;3.19999999192078;321;100 mA
24.8346139372986;0.200469970703125;6.98852539062503E-05;3.20999999189553;322;100 mA
24.8446139372734;0.2005615234375;7.29370117187503E-05;3.21999999187028;323;100 mA
24.8546139372481;0.200531005859375;6.256103515625E-05;3.22999999184503;324;100 mA
24.8646139372229;0.200531005859375;6.16455078124994E-05;3.23999999181979;325;100 mA
24.8746139371976;0.20050048828125;6.46972656249994E-05;3.24999999179454;326;100 mA
24.8846139371724;0.200531005859375;6.80541992187506E-05;3.25999999176929;327;100 mA
24.8946139371471;0.200531005859375;7.32421875E-05;3.26999999174404;328;100 mA
24.9046139371219;0.200469970703125;7.35473632812497E-05;3.2799999917188;329;100 mA
24.9146139370966;0.200469970703125;7.08007812499995E-05;3.28999999169355;330;100 mA
24.9246139370714;0.200531005859375;7.38525390624995E-05;3.2999999916683;331;100 mA
24.9346139370462;0.2005615234375;7.11059570312506E-05;3.30999999164305;332;100 mA
24.9446139370209;0.200531005859375;7.476806640625E-05;3.31999999161781;333;100 mA
24.9546139369957;0.200469970703125;6.83593750000003E-05;3.32999999159256;334;100 mA
24.9646139369704;0.2005615234375;6.92749023437494E-05;3.33999999156731;335;100 mA
24.9746139369452;0.20050048828125;6.89697265624997E-05;3.34999999154206;336;100 mA
24.9846139369199;0.200531005859375;6.866455078125E-05;3.35999999151682;337;100 mA
24.9946139368947;0.20050048828125;6.95800781250006E-05;3.36999999149157;338;100 mA
25.0046139368694;0.200408935546875;7.69042968749994E-05;3.37999999146632;339;100 mA
25.0146139368442;0.20050048828125;7.44628906250003E-05;3.38999999144107;340;100 mA
25.0246139368189;0.200531005859375;7.14111328125003E-05;3.39999999141583;341;100 mA
25.0346139367937;0.2005615234375;7.26318359375006E-05;3.40999999139058;342;100 mA
25.0446139367684;0.200531005859375;7.72094726562506E-05;3.41999999136533;343;100 mA
25.0546139367432;0.200469970703125;7.26318359375006E-05;3.42999999134008;344;100 mA
25.0646139367179;0.200531005859375;6.89697265624997E-05;3.43999999131483;345;100 mA
25.0746139366927;0.200531005859375;7.35473632812497E-05;3.44999999128959;346;100 mA
25.0846139366674;0.200531005859375;6.77490234374995E-05;3.45999999126434;347;100 mA
25.0946139366422;0.200531005859375;7.44628906250003E-05;3.46999999123909;348;100 mA
25.1046139366169;0.200439453125;7.32421875E-05;3.47999999121384;349;100 mA
25.1146139365917;0.200592041015625;6.95800781250006E-05;3.4899999911886;350;100 mA
25.1246139365664;0.20050048828125;7.23266601562494E-05;3.49999999116335;351;100 mA
25.1346139365412;0.200469970703125;7.11059570312506E-05;3.5099999911381;352;100 mA
25.144613936516;0.200531005859375;7.90405273437503E-05;3.51999999111285;353;100 mA
25.1546139364907;0.20050048828125;7.35473632812497E-05;3.52999999108761;354;100 mA
25.1646139364655;0.2005615234375;7.35473632812497E-05;3.53999999106236;355;100 mA
25.1746139364402;0.2005615234375;7.38525390624995E-05;3.54999999103711;356;100 mA
25.184613936415;0.200439453125;7.29370117187503E-05;3.55999999101186;357;100 mA
25.1946139363897;0.200531005859375;7.9345703125E-05;3.56999999098662;358;100 mA
25.2046139363645;0.200439453125;7.53784179687495E-05;3.57999999096137;359;100 mA
25.2146139363392;0.200469970703125;6.83593750000003E-05;3.58999999093612;360;100 mA
25.224613936314;0.2005615234375;7.476806640625E-05;3.59999999091087;361;100 mA
25.2346139362887;0.20050048828125;6.53076171875003E-05;3.60999999088563;362;100 mA
25.2446139362635;0.200531005859375;7.72094726562506E-05;3.61999999086038;363;100 mA
25.2546139362382;0.2005615234375;7.44628906250003E-05;3.62999999083513;364;100 mA
25.264613936213;0.200531005859375;7.20214843749997E-05;3.63999999080988;365;100 mA
25.2746139361877;0.200531005859375;7.90405273437503E-05;3.64999999078464;366;100 mA
25.2846139361625;0.200469970703125;7.41577148437506E-05;3.65999999075939;367;100 mA
25.2946139361372;0.200592041015625;7.99560546874994E-05;3.66999999073414;368;100 mA
25.304613936112;0.200408935546875;7.65991210937497E-05;3.67999999070889;369;100 mA
25.3146139360867;0.200439453125;7.171630859375E-05;3.68999999068365;370;100 mA
25.3246139360615;0.2005615234375;7.14111328125003E-05;3.6999999906584;371;100 mA
25.3346139360362;0.200439453125;6.83593750000003E-05;3.70999999063315;372;100 mA
25.344613936011;0.20050048828125;7.41577148437506E-05;3.7199999906079;373;100 mA
25.3546139359858;0.200531005859375;6.92749023437494E-05;3.72999999058266;374;100 mA
25.3646139359605;0.20050048828125;7.35473632812497E-05;3.73999999055741;375;100 mA
25.3746139359353;0.20050048828125;7.62939453125E-05;3.74999999053216;376;100 mA
25.38461393591;0.20050048828125;7.08007812499995E-05;3.75999999050691;377;100 mA
25.3946139358848;0.200469970703125;7.84301757812495E-05;3.76999999048167;378;100 mA
25.4046139358595;0.20050048828125;7.781982421875E-05;3.77999999045642;379;100 mA
25.4146139358343;0.2005615234375;7.476806640625E-05;3.78999999043117;380;100 mA
25.424613935809;0.200469970703125;7.35473632812497E-05;3.79999999040592;381;100 mA
25.4346139357838;0.200592041015625;7.171630859375E-05;3.80999999038067;382;100 mA
25.4446139357585;0.200469970703125;7.84301757812495E-05;3.81999999035543;383;100 mA
25.4546139357333;0.2005615234375;6.74438476562497E-05;3.82999999033018;384;100 mA
25.464613935708;0.20050048828125;6.98852539062503E-05;3.83999999030493;385;100 mA
25.4746139356828;0.20050048828125;7.171630859375E-05;3.84999999027968;386;100 mA
25.4846139356575;0.200592041015625;7.08007812499995E-05;3.85999999025444;387;100 mA
25.4946139356323;0.200592041015625;7.781982421875E-05;3.86999999022919;388;100 mA
25.504613935607;0.200469970703125;7.75146484375003E-05;3.87999999020394;389;100 mA
25.5146139355818;0.200531005859375;7.35473632812497E-05;3.88999999017869;390;100 mA
25.5246139355565;0.200408935546875;7.75146484375003E-05;3.89999999015345;391;100 mA
25.5346139355313;0.200592041015625;7.26318359375006E-05;3.9099999901282;392;100 mA
25.544613935506;0.20050048828125;8.14819335937495E-05;3.91999999010295;393;100 mA
25.5546139354808;0.200469970703125;7.53784179687495E-05;3.9299999900777;394;100 mA
25.5646139354556;0.200469970703125;7.23266601562494E-05;3.93999999005246;395;100 mA
25.5746139354303;0.200531005859375;7.171630859375E-05;3.94999999002721;396;100 mA
25.5846139354051;0.2005615234375;6.7138671875E-05;3.95999999000196;397;100 mA
25.5946139353798;0.200592041015625;7.32421875E-05;3.96999998997671;398;100 mA
25.6046139353546;0.200408935546875;7.53784179687495E-05;3.97999998995147;399;100 mA
25.6146139353293;0.200531005859375;7.32421875E-05;3.98999998992622;400;100 mA
25.6246139353041;0.200469970703125;7.75146484375003E-05;3.99999998990097;401;100 mA
25.6346139352788;0.200531005859375;7.171630859375E-05;4.00999998987572;402;100 mA
25.6446139352536;0.20050048828125;8.23974609375E-05;4.01999998985048;403;100 mA
25.6546139352283;0.200469970703125;6.89697265624997E-05;4.02999998982523;404;100 mA
25.6646139352031;0.200469970703125;7.32421875E-05;4.03999998979998;405;100 mA
25.6746139351778;0.200531005859375;7.23266601562494E-05;4.04999998977473;406;100 mA
25.6846139351526;0.20050048828125;7.38525390624995E-05;4.05999998974949;407;100 mA
25.6946139351273;0.2005615234375;7.81249999999997E-05;4.06999998972424;408;100 mA
25.7046139351021;0.200408935546875;7.44628906250003E-05;4.07999998969899;409;100 mA
25.7146139350768;0.200531005859375;7.11059570312506E-05;4.08999998967374;410;100 mA
25.7246139350516;0.2005615234375;7.44628906250003E-05;4.0999999896485;411;100 mA
25.7346139350263;0.2005615234375;7.44628906250003E-05;4.10999998962325;412;100 mA
25.7446139350011;0.200592041015625;7.81249999999997E-05;4.119999989598;413;100 mA
25.7546139349759;0.200469970703125;6.80541992187506E-05;4.12999998957275;414;100 mA
25.7646139349506;0.200469970703125;7.59887695312503E-05;4.1399999895475;415;100 mA
25.7746139349254;0.2005615234375;7.50732421874997E-05;4.14999998952226;416;100 mA
25.7846139349001;0.200469970703125;7.04956054687497E-05;4.15999998949701;417;100 mA
25.7946139348749;0.200439453125;8.02612304687506E-05;4.16999998947176;418;100 mA
25.8046139348496;0.200439453125;7.32421875E-05;4.17999998944651;419;100 mA
25.8146139348244;0.200592041015625;6.83593750000003E-05;4.18999998942127;420;100 mA
25.8246139347991;0.2005615234375;7.11059570312506E-05;4.19999998939602;421;100 mA
25.8346139347739;0.200531005859375;6.92749023437494E-05;4.20999998937077;422;100 mA
25.8446139347486;0.200469970703125;8.05664062500003E-05;4.21999998934552;423;100 mA
25.8546139347234;0.20050048828125;7.44628906250003E-05;4.22999998932028;424;100 mA
25.8646139346981;0.200531005859375;7.65991210937497E-05;4.23999998929503;425;100 mA
25.8746139346729;0.2005615234375;7.38525390624995E-05;4.24999998926978;426;100 mA
25.8846139346476;0.20050048828125;7.32421875E-05;4.25999998924453;427;100 mA
25.8946139346224;0.200469970703125;7.84301757812495E-05;4.26999998921929;428;100 mA
25.9046139345971;0.200469970703125;7.20214843749997E-05;4.27999998919404;429;100 mA
25.9146139345719;0.2005615234375;7.08007812499995E-05;4.28999998916879;430;100 mA
25.9246139345466;0.20050048828125;7.44628906250003E-05;4.29999998914354;431;100 mA
25.9346139345214;0.200592041015625;6.80541992187506E-05;4.3099999891183;432;100 mA
25.9446139344961;0.200469970703125;7.44628906250003E-05;4.31999998909305;433;100 mA
25.9546139344709;0.20050048828125;6.7138671875E-05;4.3299999890678;434;100 mA
25.9646139344457;0.200592041015625;7.32421875E-05;4.33999998904255;435;100 mA
25.9746139344204;0.200531005859375;7.44628906250003E-05;4.34999998901731;436;100 mA
25.9846139343952;0.200531005859375;7.08007812499995E-05;4.35999998899206;437;100 mA
25.9946139343699;0.200531005859375;7.87353515625006E-05;4.36999998896681;438;100 mA
26.0046139343447;0.200531005859375;7.41577148437506E-05;4.37999998894156;439;100 mA
26.0146139343194;0.200531005859375;7.44628906250003E-05;4.38999998891632;440;100 mA
26.0246139342942;0.200408935546875;7.69042968749994E-05;4.39999998889107;441;100 mA
26.0346139342689;0.2005615234375;7.32421875E-05;4.40999998886582;442;100 mA
26.0446139342437;0.20050048828125;7.781982421875E-05;4.41999998884057;443;100 mA
26.0546139342184;0.200469970703125;6.866455078125E-05;4.42999998881533;444;100 mA
26.0646139341932;0.2005615234375;7.01904296875E-05;4.43999998879008;445;100 mA
26.0746139341679;0.20050048828125;7.171630859375E-05;4.44999998876483;446;100 mA
26.0846139341427;0.200469970703125;7.20214843749997E-05;4.45999998873958;447;100 mA
26.0946139341174;0.20050048828125;7.69042968749994E-05;4.46999998871433;448;100 mA
26.1046139340922;0.200531005859375;7.69042968749994E-05;4.47999998868909;449;100 mA
26.1146139340669;0.20050048828125;7.14111328125003E-05;4.48999998866384;450;100 mA
26.1246139340417;0.200469970703125;7.32421875E-05;4.49999998863859;451;100 mA
26.1346139340164;0.200408935546875;7.23266601562494E-05;4.50999998861334;452;100 mA
26.1446139339912;0.200469970703125;8.05664062500003E-05;4.5199999885881;453;100 mA
26.1546139339659;0.20050048828125;7.56835937500006E-05;4.52999998856285;454;100 mA
26.1646139339407;0.200469970703125;7.44628906250003E-05;4.5399999885376;455;100 mA
26.1746139339155;0.200531005859375;6.59179687499997E-05;4.54999998851235;456;100 mA
26.1846139338902;0.200439453125;7.01904296875E-05;4.55999998848711;457;100 mA
26.194613933865;0.200531005859375;7.87353515625006E-05;4.56999998846186;458;100 mA
26.2046139338397;0.200592041015625;7.32421875E-05;4.57999998843661;459;100 mA
26.2146139338145;0.20050048828125;7.53784179687495E-05;4.58999998841136;460;100 mA
26.2246139337892;0.200531005859375;7.62939453125E-05;4.59999998838612;461;100 mA
26.234613933764;0.20050048828125;6.98852539062503E-05;4.60999998836087;462;100 mA
26.2446139337387;0.20050048828125;8.14819335937495E-05;4.61999998833562;463;100 mA
26.2546139337135;0.200531005859375;6.89697265624997E-05;4.62999998831037;464;100 mA
26.2646139336882;0.20050048828125;7.476806640625E-05;4.63999998828513;465;100 mA
26.274613933663;0.2005615234375;7.32421875E-05;4.64999998825988;466;100 mA
26.2846139336377;0.200469970703125;7.26318359375006E-05;4.65999998823463;467;100 mA
26.2946139336125;0.2005615234375;7.75146484375003E-05;4.66999998820938;468;100 mA
26.3046139335872;0.20050048828125;7.23266601562494E-05;4.67999998818414;469;100 mA
26.314613933562;0.200469970703125;7.20214843749997E-05;4.68999998815889;470;100 mA
26.3246139335367;0.20050048828125;7.476806640625E-05;4.69999998813364;471;100 mA
26.3346139335115;0.2005615234375;7.41577148437506E-05;4.70999998810839;472;100 mA
26.3446139334862;0.200439453125;8.087158203125E-05;4.71999998808315;473;100 mA
26.354613933461;0.200531005859375;7.29370117187503E-05;4.7299999880579;474;100 mA
26.3646139334357;0.200469970703125;7.50732421874997E-05;4.73999998803265;475;100 mA
26.3746139334105;0.20050048828125;7.32421875E-05;4.7499999880074;476;100 mA
26.3846139333853;0.20050048828125;7.26318359375006E-05;4.75999998798216;477;100 mA
26.39461393336;0.200469970703125;7.9345703125E-05;4.76999998795691;478;100 mA
26.4046139333348;0.200439453125;7.41577148437506E-05;4.77999998793166;479;100 mA
26.4146139333095;0.200531005859375;7.14111328125003E-05;4.78999998790641;480;100 mA
26.4246139332843;0.200439453125;7.20214843749997E-05;4.79999998788116;481;100 mA
26.434613933259;0.200531005859375;7.35473632812497E-05;4.80999998785592;482;100 mA
26.4446139332338;0.2005615234375;7.62939453125E-05;4.81999998783067;483;100 mA
26.4546139332085;0.20050048828125;7.23266601562494E-05;4.82999998780542;484;100 mA
26.4646139331833;0.200531005859375;7.69042968749994E-05;4.83999998778017;485;100 mA
26.474613933158;0.20050048828125;7.41577148437506E-05;4.84999998775493;486;100 mA
26.4846139331328;0.2005615234375;7.11059570312506E-05;4.85999998772968;487;100 mA
26.4946139331075;0.20050048828125;7.87353515625006E-05;4.86999998770443;488;100 mA
26.5046139330823;0.200408935546875;7.32421875E-05;4.87999998767918;489;100 mA
26.514613933057;0.200531005859375;7.26318359375006E-05;4.88999998765394;490;100 mA
26.5246139330318;0.20050048828125;7.62939453125E-05;4.89999998762869;491;100 mA
26.5346139330065;0.2005615234375;7.01904296875E-05;4.90999998760344;492;100 mA
26.5446139329813;0.200469970703125;7.56835937500006E-05;4.91999998757819;493;100 mA
26.554613932956;0.20050048828125;7.14111328125003E-05;4.92999998755295;494;100 mA
26.5646139329308;0.20062255859375;7.32421875E-05;4.9399999875277;495;100 mA
26.5746139329055;0.2005615234375;7.59887695312503E-05;4.94999998750245;496;100 mA
26.5846139328803;0.200531005859375;7.69042968749994E-05;4.9599999874772;497;100 mA
26.5946139328551;0.2005615234375;7.96508789062497E-05;4.96999998745196;498;100 mA
26.6046139328298;0.200469970703125;7.72094726562506E-05;4.97999998742671;499;100 mA
26.6146139328046;0.200592041015625;7.20214843749997E-05;4.98999998740146;500;100 mA
26.6246139327793;0.20050048828125;7.26318359375006E-05;4.99999998737621;501;100 mA
26.6346139327541;0.20050048828125;7.14111328125003E-05;5.00999998735097;502;100 mA
26.6446139327288;0.200469970703125;7.81249999999997E-05;5.01999998732572;503;100 mA
26.6546139327036;0.200469970703125;7.41577148437506E-05;5.02999998730047;504;100 mA
26.6646139326783;0.200531005859375;7.38525390624995E-05;5.03999998727522;505;100 mA
26.6746139326531;0.20062255859375;7.35473632812497E-05;5.04999998724998;506;100 mA
26.6846139326278;0.200469970703125;7.38525390624995E-05;5.05999998722473;507;100 mA
26.6946139326026;0.200469970703125;8.392333984375E-05;5.06999998719948;508;100 mA
26.7046139325773;0.200531005859375;7.99560546874994E-05;5.07999998717423;509;100 mA
26.7146139325521;0.2005615234375;7.56835937500006E-05;5.08999998714899;510;100 mA
26.7246139325268;0.200531005859375;7.69042968749994E-05;5.09999998712374;511;100 mA
26.7346139325016;0.200439453125;7.476806640625E-05;5.10999998709849;512;100 mA
26.7446139324763;0.20050048828125;8.05664062500003E-05;5.11999998707324;513;100 mA
26.7546139324511;0.20050048828125;6.77490234374995E-05;5.129999987048;514;100 mA
26.7646139324258;0.20050048828125;7.72094726562506E-05;5.13999998702275;515;100 mA
26.7746139324006;0.20050048828125;7.56835937500006E-05;5.1499999869975;516;100 mA
26.7846139323754;0.200469970703125;7.32421875E-05;5.15999998697225;517;100 mA
26.7946139323501;0.200408935546875;8.02612304687506E-05;5.169999986947;518;100 mA
26.8046139323249;0.2005615234375;7.81249999999997E-05;5.17999998692176;519;100 mA
26.8146139322996;0.200531005859375;7.50732421874997E-05;5.18999998689651;520;100 mA
26.8246139322744;0.2005615234375;7.72094726562506E-05;5.19999998687126;521;100 mA
26.8346139322491;0.200469970703125;7.476806640625E-05;5.20999998684601;522;100 mA
26.8446139322239;0.200531005859375;8.23974609375E-05;5.21999998682077;523;100 mA
26.8546139321986;0.200531005859375;7.26318359375006E-05;5.22999998679552;524;100 mA
26.8646139321734;0.200531005859375;7.32421875E-05;5.23999998677027;525;100 mA
26.8746139321481;0.200439453125;7.69042968749994E-05;5.24999998674502;526;100 mA
26.8846139321229;0.200469970703125;7.476806640625E-05;5.25999998671978;527;100 mA
26.8946139320976;0.20050048828125;7.75146484375003E-05;5.26999998669453;528;100 mA
26.9046139320724;0.20050048828125;7.35473632812497E-05;5.27999998666928;529;100 mA
26.9146139320471;0.2005615234375;7.53784179687495E-05;5.28999998664403;530;100 mA
26.9246139320219;0.200469970703125;7.81249999999997E-05;5.29999998661879;531;100 mA
26.9346139319966;0.200469970703125;7.476806640625E-05;5.30999998659354;532;100 mA
26.9446139319714;0.200439453125;8.57543945312497E-05;5.31999998656829;533;100 mA
26.9546139319461;0.2005615234375;7.20214843749997E-05;5.32999998654304;534;100 mA
26.9646139319209;0.20050048828125;7.41577148437506E-05;5.3399999865178;535;100 mA
26.9746139318956;0.20037841796875;8.02612304687506E-05;5.34999998649255;536;100 mA
26.9846139318704;0.20050048828125;7.59887695312503E-05;5.3599999864673;537;100 mA
26.9946139318452;0.200531005859375;8.02612304687506E-05;5.36999998644205;538;100 mA
27.0046139318199;0.200439453125;7.96508789062497E-05;5.37999998641681;539;100 mA
27.0146139317947;0.2005615234375;7.53784179687495E-05;5.38999998639156;540;100 mA
27.0246139317694;0.200469970703125;7.50732421874997E-05;5.39999998636631;541;100 mA
27.0346139317442;0.200531005859375;7.29370117187503E-05;5.40999998634106;542;100 mA
27.0446139317189;0.2005615234375;8.11767578124997E-05;5.41999998631582;543;100 mA
27.0546139316937;0.200469970703125;7.75146484375003E-05;5.42999998629057;544;100 mA
27.0646139316684;0.2005615234375;8.02612304687506E-05;5.43999998626532;545;100 mA
27.0746139316432;0.200439453125;7.96508789062497E-05;5.44999998624007;546;100 mA
27.0846139316179;0.200592041015625;7.41577148437506E-05;5.45999998621483;547;100 mA
27.0946139315927;0.200531005859375;8.17871093750006E-05;5.46999998618958;548;100 mA
27.1046139315674;0.20050048828125;7.29370117187503E-05;5.47999998616433;549;100 mA
27.1146139315422;0.200531005859375;7.41577148437506E-05;5.48999998613908;550;100 mA
27.1246139315169;0.200469970703125;7.87353515625006E-05;5.49999998611383;551;100 mA
27.1346139314917;0.200531005859375;7.41577148437506E-05;5.50999998608859;552;100 mA
27.1446139314664;0.200592041015625;8.05664062500003E-05;5.51999998606334;553;100 mA
27.1546139314412;0.200439453125;7.69042968749994E-05;5.52999998603809;554;100 mA
27.1646139314159;0.20050048828125;7.69042968749994E-05;5.53999998601284;555;100 mA
27.1746139313907;0.2005615234375;7.90405273437503E-05;5.5499999859876;556;100 mA
27.1846139313654;0.200469970703125;8.11767578124997E-05;5.55999998596235;557;100 mA
27.1946139313402;0.200592041015625;8.392333984375E-05;5.5699999859371;558;100 mA
27.204613931315;0.200531005859375;7.476806640625E-05;5.57999998591185;559;100 mA
27.2146139312897;0.200469970703125;7.56835937500006E-05;5.58999998588661;560;100 mA
27.2246139312645;0.200531005859375;7.62939453125E-05;5.59999998586136;561;100 mA
27.2346139312392;0.2005615234375;7.44628906250003E-05;5.60999998583611;562;100 mA
27.244613931214;0.200531005859375;8.30078124999995E-05;5.61999998581086;563;100 mA
27.2546139311887;0.20050048828125;7.20214843749997E-05;5.62999998578562;564;100 mA
27.2646139311635;0.200439453125;7.62939453125E-05;5.63999998576037;565;100 mA
27.2746139311382;0.20050048828125;7.65991210937497E-05;5.64999998573512;566;100 mA
27.284613931113;0.2005615234375;7.56835937500006E-05;5.65999998570987;567;100 mA
27.2946139310877;0.200531005859375;8.27026367187497E-05;5.66999998568463;568;100 mA
27.3046139310625;0.200469970703125;8.23974609375E-05;5.67999998565938;569;100 mA
27.3146139310372;0.20050048828125;7.99560546874994E-05;5.68999998563413;570;100 mA
27.324613931012;0.200592041015625;7.9345703125E-05;5.69999998560888;571;100 mA
27.3346139309867;0.2005615234375;7.44628906250003E-05;5.70999998558364;572;100 mA
27.3446139309615;0.200469970703125;8.02612304687506E-05;5.71999998555839;573;100 mA
27.3546139309362;0.2005615234375;7.171630859375E-05;5.72999998553314;574;100 mA
27.364613930911;0.200531005859375;7.781982421875E-05;5.73999998550789;575;100 mA
27.3746139308857;0.2005615234375;7.69042968749994E-05;5.74999998548265;576;100 mA
27.3846139308605;0.2005615234375;7.23266601562494E-05;5.7599999854574;577;100 mA
27.3946139308352;0.200439453125;8.14819335937495E-05;5.76999998543215;578;100 mA
27.40461393081;0.200531005859375;7.53784179687495E-05;5.7799999854069;579;100 mA
27.4146139307848;0.20062255859375;7.84301757812495E-05;5.78999998538166;580;100 mA
27.4246139307595;0.200531005859375;8.20922851562503E-05;5.79999998535641;581;100 mA
27.4346139307343;0.200531005859375;7.90405273437503E-05;5.80999998533116;582;100 mA
27.444613930709;0.20050048828125;8.27026367187497E-05;5.81999998530591;583;100 mA
27.4546139306838;0.200469970703125;7.53784179687495E-05;5.82999998528066;584;100 mA
27.4646139306585;0.200592041015625;7.62939453125E-05;5.83999998525542;585;100 mA
27.4746139306333;0.200531005859375;7.41577148437506E-05;5.84999998523017;586;100 mA
27.484613930608;0.200531005859375;7.72094726562506E-05;5.85999998520492;587;100 mA
27.4946139305828;0.200408935546875;7.72094726562506E-05;5.86999998517967;588;100 mA
27.5046139305575;0.200531005859375;7.75146484375003E-05;5.87999998515443;589;100 mA
27.5146139305323;0.2005615234375;7.781982421875E-05;5.88999998512918;590;100 mA
27.524613930507;0.20050048828125;7.99560546874994E-05;5.89999998510393;591;100 mA
27.5346139304818;0.200469970703125;7.476806640625E-05;5.90999998507868;592;100 mA
27.5446139304565;0.20050048828125;8.392333984375E-05;5.91999998505344;593;100 mA
27.5546139304313;0.20050048828125;7.62939453125E-05;5.92999998502819;594;100 mA
27.564613930406;0.200531005859375;8.05664062500003E-05;5.93999998500294;595;100 mA
27.5746139303808;0.200531005859375;7.90405273437503E-05;5.94999998497769;596;100 mA
27.5846139303555;0.200531005859375;7.50732421874997E-05;5.95999998495245;597;100 mA
27.5946139303303;0.200531005859375;7.99560546874994E-05;5.9699999849272;598;100 mA
27.604613930305;0.200469970703125;7.20214843749997E-05;5.97999998490195;599;100 mA
27.6146139302798;0.2005615234375;7.65991210937497E-05;5.9899999848767;600;100 mA
27.6246139302546;0.200469970703125;7.81249999999997E-05;5.99999998485146;601;100 mA
27.6346139302293;0.20050048828125;7.56835937500006E-05;6.00999998482621;602;100 mA
27.6446139302041;0.200469970703125;8.60595703124995E-05;6.01999998480096;603;100 mA
27.6546139301788;0.200592041015625;7.56835937500006E-05;6.02999998477571;604;100 mA
27.6646139301536;0.200531005859375;8.087158203125E-05;6.03999998475047;605;100 mA
27.6746139301283;0.20050048828125;8.087158203125E-05;6.04999998472522;606;100 mA
27.6846139301031;0.200531005859375;7.59887695312503E-05;6.05999998469997;607;100 mA
27.6946139300778;0.20062255859375;8.20922851562503E-05;6.06999998467472;608;100 mA
27.7046139300526;0.2005615234375;7.81249999999997E-05;6.07999998464948;609;100 mA
27.7146139300273;0.200531005859375;7.72094726562506E-05;6.08999998462423;610;100 mA
27.7246139300021;0.200469970703125;8.20922851562503E-05;6.09999998459898;611;100 mA
27.7346139299768;0.200469970703125;7.26318359375006E-05;6.10999998457373;612;100 mA
27.7446139299516;0.2005615234375;8.05664062500003E-05;6.11999998454849;613;100 mA
27.7546139299263;0.2005615234375;7.90405273437503E-05;6.12999998452324;614;100 mA
27.7646139299011;0.200531005859375;8.20922851562503E-05;6.13999998449799;615;100 mA
27.7746139298758;0.20050048828125;7.84301757812495E-05;6.14999998447274;616;100 mA
27.7846139298506;0.200439453125;8.02612304687506E-05;6.1599999844475;617;100 mA
27.7946139298253;0.2005615234375;8.33129882812506E-05;6.16999998442225;618;100 mA
27.8046139298001;0.200531005859375;7.75146484375003E-05;6.179999984397;619;100 mA
27.8146139297749;0.200439453125;8.14819335937495E-05;6.18999998437175;620;100 mA
27.8246139297496;0.200531005859375;8.02612304687506E-05;6.1999999843465;621;100 mA
27.8346139297244;0.200531005859375;7.50732421874997E-05;6.20999998432126;622;100 mA
27.8446139296991;0.20050048828125;8.48388671875006E-05;6.21999998429601;623;100 mA
27.8546139296739;0.200531005859375;7.44628906250003E-05;6.22999998427076;624;100 mA
27.8646139296486;0.200469970703125;7.81249999999997E-05;6.23999998424551;625;100 mA
27.8746139296234;0.200469970703125;7.56835937500006E-05;6.24999998422027;626;100 mA
27.8846139295981;0.200592041015625;7.59887695312503E-05;6.25999998419502;627;100 mA
27.8946139295729;0.20050048828125;8.11767578124997E-05;6.26999998416977;628;100 mA
27.9046139295476;0.20050048828125;7.75146484375003E-05;6.27999998414452;629;100 mA
27.9146139295224;0.200531005859375;8.17871093750006E-05;6.28999998411928;630;100 mA
27.9246139294971;0.200531005859375;7.9345703125E-05;6.29999998409403;631;100 mA
27.9346139294719;0.2005615234375;7.84301757812495E-05;6.30999998406878;632;100 mA
27.9446139294466;0.200531005859375;8.17871093750006E-05;6.31999998404353;633;100 mA
27.9546139294214;0.200531005859375;7.38525390624995E-05;6.32999998401829;634;100 mA
27.9646139293961;0.20050048828125;7.781982421875E-05;6.33999998399304;635;100 mA
27.9746139293709;0.200469970703125;7.56835937500006E-05;6.34999998396779;636;100 mA
27.9846139293456;0.20050048828125;7.41577148437506E-05;6.35999998394254;637;100 mA
27.9946139293204;0.200439453125;8.36181640625003E-05;6.3699999839173;638;100 mA
28.0046139292951;0.200439453125;8.14819335937495E-05;6.37999998389205;639;100 mA
28.0146139292699;0.200592041015625;7.81249999999997E-05;6.3899999838668;640;100 mA
28.0246139292447;0.20050048828125;8.087158203125E-05;6.39999998384155;641;100 mA
28.0346139292194;0.200592041015625;8.11767578124997E-05;6.40999998381631;642;100 mA
28.0446139291942;0.20050048828125;8.63647460937506E-05;6.41999998379106;643;100 mA
28.0546139291689;0.200408935546875;7.84301757812495E-05;6.42999998376581;644;100 mA
28.0646139291437;0.200531005859375;7.781982421875E-05;6.43999998374056;645;100 mA
28.0746139291184;0.20050048828125;7.84301757812495E-05;6.44999998371532;646;100 mA
28.0846139290932;0.2005615234375;7.38525390624995E-05;6.45999998369007;647;100 mA
28.0946139290679;0.200469970703125;7.75146484375003E-05;6.46999998366482;648;100 mA
28.1046139290427;0.200469970703125;7.69042968749994E-05;6.47999998363957;649;100 mA
28.1146139290174;0.200531005859375;7.81249999999997E-05;6.48999998361433;650;100 mA
28.1246139289922;0.2005615234375;8.20922851562503E-05;6.49999998358908;651;100 mA
28.1346139289669;0.200469970703125;7.72094726562506E-05;6.50999998356383;652;100 mA
28.1446139289417;0.20050048828125;8.17871093750006E-05;6.51999998353858;653;100 mA
28.1546139289164;0.200469970703125;7.99560546874994E-05;6.52999998351333;654;100 mA
28.1646139288912;0.200592041015625;8.087158203125E-05;6.53999998348809;655;100 mA
28.1746139288659;0.20050048828125;8.697509765625E-05;6.54999998346284;656;100 mA
28.1846139288407;0.200469970703125;7.84301757812495E-05;6.55999998343759;657;100 mA
28.1946139288154;0.200531005859375;8.14819335937495E-05;6.56999998341234;658;100 mA
28.2046139287902;0.2005615234375;7.75146484375003E-05;6.5799999833871;659;100 mA
28.2146139287649;0.200531005859375;7.81249999999997E-05;6.58999998336185;660;100 mA
28.2246139287397;0.200531005859375;7.87353515625006E-05;6.5999999833366;661;100 mA
28.2346139287145;0.200408935546875;7.72094726562506E-05;6.60999998331135;662;100 mA
28.2446139286892;0.20050048828125;8.697509765625E-05;6.61999998328611;663;100 mA
28.254613928664;0.2005615234375;7.35473632812497E-05;6.62999998326086;664;100 mA
28.2646139286387;0.20050048828125;7.99560546874994E-05;6.63999998323561;665;100 mA
28.2746139286135;0.200469970703125;8.14819335937495E-05;6.64999998321036;666;100 mA
28.2846139285882;0.200531005859375;7.84301757812495E-05;6.65999998318512;667;100 mA
28.294613928563;0.20050048828125;8.48388671875006E-05;6.66999998315987;668;100 mA
28.3046139285377;0.200592041015625;7.99560546874994E-05;6.67999998313462;669;100 mA
28.3146139285125;0.200531005859375;7.72094726562506E-05;6.68999998310937;670;100 mA
28.3246139284872;0.20050048828125;8.02612304687506E-05;6.69999998308413;671;100 mA
28.334613928462;0.20050048828125;7.50732421874997E-05;6.70999998305888;672;100 mA
28.3446139284367;0.20050048828125;8.51440429687503E-05;6.71999998303363;673;100 mA
28.3546139284115;0.2005615234375;7.38525390624995E-05;6.72999998300838;674;100 mA
28.3646139283862;0.20037841796875;8.14819335937495E-05;6.73999998298314;675;100 mA
28.374613928361;0.200469970703125;7.96508789062497E-05;6.74999998295789;676;100 mA
28.3846139283357;0.200469970703125;8.17871093750006E-05;6.75999998293264;677;100 mA
28.3946139283105;0.20050048828125;8.97216796875003E-05;6.76999998290739;678;100 mA
28.4046139282852;0.2005615234375;8.17871093750006E-05;6.77999998288215;679;100 mA
28.41461392826;0.200531005859375;8.27026367187497E-05;6.7899999828569;680;100 mA
28.4246139282347;0.200531005859375;7.84301757812495E-05;6.79999998283165;681;100 mA
28.4346139282095;0.20050048828125;7.476806640625E-05;6.8099999828064;682;100 mA
28.4446139281843;0.20050048828125;8.30078124999995E-05;6.81999998278116;683;100 mA
28.454613928159;0.200531005859375;7.476806640625E-05;6.82999998275591;684;100 mA
28.4646139281338;0.200531005859375;7.96508789062497E-05;6.83999998273066;685;100 mA
28.4746139281085;0.200469970703125;7.99560546874994E-05;6.84999998270541;686;100 mA
28.4846139280833;0.20050048828125;8.14819335937495E-05;6.85999998268016;687;100 mA
28.494613928058;0.20050048828125;8.33129882812506E-05;6.86999998265492;688;100 mA
28.5046139280328;0.200592041015625;7.75146484375003E-05;6.87999998262967;689;100 mA
28.5146139280075;0.200469970703125;8.45336914062494E-05;6.88999998260442;690;100 mA
28.5246139279823;0.200469970703125;8.20922851562503E-05;6.89999998257917;691;100 mA
28.534613927957;0.20050048828125;7.84301757812495E-05;6.90999998255393;692;100 mA
28.5446139279318;0.200531005859375;8.36181640625003E-05;6.91999998252868;693;100 mA
28.5546139279065;0.200531005859375;7.476806640625E-05;6.92999998250343;694;100 mA
28.5646139278813;0.2005615234375;7.75146484375003E-05;6.93999998247818;695;100 mA
28.574613927856;0.20050048828125;8.17871093750006E-05;6.94999998245294;696;100 mA
28.5846139278308;0.200592041015625;7.62939453125E-05;6.95999998242769;697;100 mA
28.5946139278055;0.2005615234375;8.33129882812506E-05;6.96999998240244;698;100 mA
28.6046139277803;0.200592041015625;8.17871093750006E-05;6.97999998237719;699;100 mA
28.614613927755;0.20050048828125;7.84301757812495E-05;6.98999998235195;700;100 mA
28.6246139277298;0.20050048828125;8.27026367187497E-05;6.9999999823267;701;100 mA
28.6346139277045;0.200469970703125;8.30078124999995E-05;7.00999998230145;702;100 mA
28.6446139276793;0.2005615234375;8.51440429687503E-05;7.0199999822762;703;100 mA
28.6546139276541;0.200439453125;7.75146484375003E-05;7.02999998225096;704;100 mA
28.6646139276288;0.200531005859375;8.51440429687503E-05;7.03999998222571;705;100 mA
28.6746139276036;0.200531005859375;8.05664062500003E-05;7.04999998220046;706;100 mA
28.6846139275783;0.200469970703125;7.84301757812495E-05;7.05999998217521;707;100 mA
28.6946139275531;0.2005615234375;8.27026367187497E-05;7.06999998214997;708;100 mA
28.7046139275278;0.200531005859375;7.781982421875E-05;7.07999998212472;709;100 mA
28.7146139275026;0.20050048828125;8.02612304687506E-05;7.08999998209947;710;100 mA
28.7246139274773;0.2005615234375;8.20922851562503E-05;7.09999998207422;711;100 mA
28.7346139274521;0.2005615234375;7.72094726562506E-05;7.10999998204898;712;100 mA
28.7446139274268;0.200469970703125;8.544921875E-05;7.11999998202373;713;100 mA
28.7546139274016;0.20050048828125;8.11767578124997E-05;7.12999998199848;714;100 mA
28.7646139273763;0.200439453125;8.17871093750006E-05;7.13999998197323;715;100 mA
28.7746139273511;0.200531005859375;8.23974609375E-05;7.14999998194799;716;100 mA
28.7846139273258;0.20050048828125;7.9345703125E-05;7.15999998192274;717;100 mA
28.7946139273006;0.200469970703125;8.20922851562503E-05;7.16999998189749;718;100 mA
28.8046139272753;0.200531005859375;7.84301757812495E-05;7.17999998187224;719;100 mA
28.8146139272501;0.20050048828125;8.11767578124997E-05;7.189999981847;720;100 mA
28.8246139272248;0.2005615234375;7.87353515625006E-05;7.19999998182175;721;100 mA
28.8346139271996;0.2005615234375;7.9345703125E-05;7.2099999817965;722;100 mA
28.8446139271744;0.20050048828125;8.60595703124995E-05;7.21999998177125;723;100 mA
28.8546139271491;0.200531005859375;7.72094726562506E-05;7.229999981746;724;100 mA
28.8646139271239;0.200469970703125;8.11767578124997E-05;7.23999998172076;725;100 mA
28.8746139270986;0.2005615234375;8.42285156249997E-05;7.24999998169551;726;100 mA
28.8846139270734;0.200592041015625;7.59887695312503E-05;7.25999998167026;727;100 mA
28.8946139270481;0.20050048828125;8.63647460937506E-05;7.26999998164501;728;100 mA
28.9046139270229;0.200592041015625;7.87353515625006E-05;7.27999998161977;729;100 mA
28.9146139269976;0.200531005859375;7.69042968749994E-05;7.28999998159452;730;100 mA
28.9246139269724;0.200531005859375;7.75146484375003E-05;7.29999998156927;731;100 mA
28.9346139269471;0.20050048828125;7.476806640625E-05;7.30999998154402;732;100 mA
28.9446139269219;0.20050048828125;8.02612304687506E-05;7.31999998151878;733;100 mA
28.9546139268966;0.200592041015625;7.75146484375003E-05;7.32999998149353;734;100 mA
28.9646139268714;0.2005615234375;7.99560546874994E-05;7.33999998146828;735;100 mA
28.9746139268461;0.20050048828125;7.9345703125E-05;7.34999998144303;736;100 mA
28.9846139268209;0.200531005859375;7.65991210937497E-05;7.35999998141779;737;100 mA
28.9946139267956;0.20050048828125;8.57543945312497E-05;7.36999998139254;738;100 mA
29.0046139267704;0.2005615234375;7.9345703125E-05;7.37999998136729;739;100 mA
29.0146139267451;0.2005615234375;8.30078124999995E-05;7.38999998134204;740;100 mA
29.0246139267199;0.20050048828125;7.90405273437503E-05;7.3999999813168;741;100 mA
29.0346139266946;0.200592041015625;7.59887695312503E-05;7.40999998129155;742;100 mA
29.0446139266694;0.200531005859375;7.84301757812495E-05;7.4199999812663;743;100 mA
29.0546139266442;0.200531005859375;7.72094726562506E-05;7.42999998124105;744;100 mA
29.0646139266189;0.200592041015625;7.9345703125E-05;7.43999998121581;745;100 mA
29.0746139265937;0.200469970703125;7.69042968749994E-05;7.44999998119056;746;100 mA
29.0846139265684;0.200408935546875;7.81249999999997E-05;7.45999998116531;747;100 mA
29.0946139265432;0.20050048828125;8.697509765625E-05;7.46999998114006;748;100 mA
29.1046139265179;0.200592041015625;7.72094726562506E-05;7.47999998111482;749;100 mA
29.1146139264927;0.200469970703125;8.23974609375E-05;7.48999998108957;750;100 mA
29.1246139264674;0.20050048828125;8.392333984375E-05;7.49999998106432;751;100 mA
29.1346139264422;0.20050048828125;7.87353515625006E-05;7.50999998103907;752;100 mA
29.1446139264169;0.20050048828125;8.63647460937506E-05;7.51999998101383;753;100 mA
29.1546139263917;0.200531005859375;7.44628906250003E-05;7.52999998098858;754;100 mA
29.1646139263664;0.200531005859375;7.87353515625006E-05;7.53999998096333;755;100 mA
29.1746139263412;0.20050048828125;7.44628906250003E-05;7.54999998093808;756;100 mA
29.1846139263159;0.200469970703125;7.14111328125003E-05;7.55999998091283;757;100 mA
29.1946139262907;0.2005615234375;8.02612304687506E-05;7.56999998088759;758;100 mA
29.2046139262654;0.20062255859375;8.05664062500003E-05;7.57999998086234;759;100 mA
29.2146139262402;0.20050048828125;8.33129882812506E-05;7.58999998083709;760;100 mA
29.2246139262149;0.200531005859375;8.05664062500003E-05;7.59999998081184;761;100 mA
29.2346139261897;0.200531005859375;7.75146484375003E-05;7.6099999807866;762;100 mA
29.2446139261644;0.20050048828125;8.48388671875006E-05;7.61999998076135;763;100 mA
29.2546139261392;0.200531005859375;7.69042968749994E-05;7.6299999807361;764;100 mA
29.264613926114;0.200439453125;7.96508789062497E-05;7.63999998071085;765;100 mA
29.2746139260887;0.200531005859375;7.96508789062497E-05;7.64999998068561;766;100 mA
29.2846139260635;0.2005615234375;7.41577148437506E-05;7.65999998066036;767;100 mA
29.2946139260382;0.200531005859375;8.27026367187497E-05;7.66999998063511;768;100 mA
29.304613926013;0.2005615234375;7.75146484375003E-05;7.67999998060986;769;100 mA
29.3146139259877;0.200531005859375;7.62939453125E-05;7.68999998058462;770;100 mA
29.3246139259625;0.200531005859375;8.02612304687506E-05;7.69999998055937;771;100 mA
29.3346139259372;0.20062255859375;7.53784179687495E-05;7.70999998053412;772;100 mA
29.344613925912;0.20050048828125;8.30078124999995E-05;7.71999998050887;773;100 mA
29.3546139258867;0.200592041015625;7.476806640625E-05;7.72999998048363;774;100 mA
29.3646139258615;0.200439453125;7.96508789062497E-05;7.73999998045838;775;100 mA
29.3746139258362;0.200592041015625;7.781982421875E-05;7.74999998043313;776;100 mA
29.384613925811;0.200531005859375;7.53784179687495E-05;7.75999998040788;777;100 mA
29.3946139257857;0.20050048828125;8.544921875E-05;7.76999998038264;778;100 mA
29.4046139257605;0.200592041015625;7.62939453125E-05;7.77999998035739;779;100 mA
29.4146139257352;0.200469970703125;7.65991210937497E-05;7.78999998033214;780;100 mA
29.42461392571;0.200469970703125;7.96508789062497E-05;7.79999998030689;781;100 mA
29.4346139256847;0.2005615234375;7.53784179687495E-05;7.80999998028165;782;100 mA
29.4446139256595;0.200469970703125;8.33129882812506E-05;7.8199999802564;783;100 mA
29.4546139256342;0.20050048828125;7.65991210937497E-05;7.82999998023115;784;100 mA
29.464613925609;0.200531005859375;7.99560546874994E-05;7.8399999802059;785;100 mA
29.4746139255838;0.200531005859375;8.17871093750006E-05;7.84999998018066;786;100 mA
29.4846139255585;0.200531005859375;7.50732421874997E-05;7.85999998015541;787;100 mA
29.4946139255333;0.200439453125;8.57543945312497E-05;7.86999998013016;788;100 mA
29.504613925508;0.200592041015625;7.72094726562506E-05;7.87999998010491;789;100 mA
29.5146139254828;0.2005615234375;8.02612304687506E-05;7.88999998007966;790;100 mA
29.5246139254575;0.200531005859375;7.69042968749994E-05;7.89999998005442;791;100 mA
29.5346139254323;0.200531005859375;7.171630859375E-05;7.90999998002917;792;100 mA
29.544613925407;0.200439453125;7.99560546874994E-05;7.91999998000392;793;100 mA
29.5546139253818;0.200469970703125;7.62939453125E-05;7.92999997997867;794;100 mA
29.5646139253565;0.2005615234375;7.87353515625006E-05;7.93999997995343;795;100 mA
29.5746139253313;0.200531005859375;8.087158203125E-05;7.94999997992818;796;100 mA
29.584613925306;0.20050048828125;7.65991210937497E-05;7.95999997990293;797;100 mA
29.5946139252808;0.200531005859375;8.48388671875006E-05;7.96999997987768;798;100 mA
29.6046139252555;0.200531005859375;7.781982421875E-05;7.97999997985244;799;100 mA
29.6146139252303;0.200439453125;8.11767578124997E-05;7.98999997982719;800;100 mA
29.624613925205;0.20050048828125;8.05664062500003E-05;7.99999997980194;801;100 mA
29.6346139251798;0.200531005859375;7.56835937500006E-05;8.00999997977669;802;100 mA
29.6446139251545;0.200531005859375;7.9345703125E-05;8.01999997975145;803;100 mA
29.6546139251293;0.20050048828125;7.32421875E-05;8.0299999797262;804;100 mA
29.664613925104;0.2005615234375;7.72094726562506E-05;8.03999997970095;805;100 mA
29.6746139250788;0.20050048828125;7.96508789062497E-05;8.0499999796757;806;100 mA
29.6846139250536;0.200531005859375;7.44628906250003E-05;8.05999997965046;807;100 mA
29.6946139250283;0.200531005859375;8.544921875E-05;8.06999997962521;808;100 mA
29.7046139250031;0.200531005859375;7.87353515625006E-05;8.07999997959996;809;100 mA
29.7146139249778;0.200439453125;8.17871093750006E-05;8.08999997957471;810;100 mA
29.7246139249526;0.20050048828125;8.11767578124997E-05;8.09999997954947;811;100 mA
29.7346139249273;0.20050048828125;7.72094726562506E-05;8.10999997952422;812;100 mA
29.7446139249021;0.200531005859375;8.57543945312497E-05;8.11999997949897;813;100 mA
29.7546139248768;0.20050048828125;7.32421875E-05;8.12999997947372;814;100 mA
29.7646139248516;0.200531005859375;7.59887695312503E-05;8.13999997944848;815;100 mA
29.7746139248263;0.200531005859375;7.90405273437503E-05;8.14999997942323;816;100 mA
29.7846139248011;0.200469970703125;7.44628906250003E-05;8.15999997939798;817;100 mA
29.7946139247758;0.200531005859375;7.90405273437503E-05;8.16999997937273;818;100 mA
29.8046139247506;0.200653076171875;7.29370117187503E-05;8.17999997934749;819;100 mA
29.8146139247253;0.20050048828125;8.17871093750006E-05;8.18999997932224;820;100 mA
29.8246139247001;0.200531005859375;8.30078124999995E-05;8.19999997929699;821;100 mA
29.8346139246748;0.200592041015625;7.50732421874997E-05;8.20999997927174;822;100 mA
29.8446139246496;0.200439453125;8.51440429687503E-05;8.2199999792465;823;100 mA
29.8546139246243;0.2005615234375;7.62939453125E-05;8.22999997922125;824;100 mA
29.8646139245991;0.20050048828125;7.72094726562506E-05;8.239999979196;825;100 mA
29.8746139245739;0.200592041015625;7.81249999999997E-05;8.24999997917075;826;100 mA
29.8846139245486;0.200439453125;7.01904296875E-05;8.2599999791455;827;100 mA
29.8946139245234;0.200531005859375;8.14819335937495E-05;8.26999997912026;828;100 mA
29.9046139244981;0.20062255859375;7.26318359375006E-05;8.27999997909501;829;100 mA
29.9146139244729;0.200408935546875;7.99560546874994E-05;8.28999997906976;830;100 mA
29.9246139244476;0.20050048828125;7.69042968749994E-05;8.29999997904451;831;100 mA
29.9346139244224;0.2005615234375;7.69042968749994E-05;8.30999997901927;832;100 mA
29.9446139243971;0.20050048828125;8.48388671875006E-05;8.31999997899402;833;100 mA
29.9546139243719;0.20050048828125;7.62939453125E-05;8.32999997896877;834;100 mA
29.9646139243466;0.2005615234375;8.14819335937495E-05;8.33999997894352;835;100 mA
29.9746139243214;0.20050048828125;8.14819335937495E-05;8.34999997891828;836;100 mA
29.9846139242961;0.200531005859375;7.56835937500006E-05;8.35999997889303;837;100 mA
29.9946139242709;0.20050048828125;8.697509765625E-05;8.36999997886778;838;100 mA
30.0046139242456;0.2005615234375;7.04956054687497E-05;8.37999997884253;839;100 mA
30.0146139242204;0.200408935546875;7.65991210937497E-05;8.38999997881729;840;100 mA
30.0246139241951;0.200531005859375;7.75146484375003E-05;8.39999997879204;841;100 mA
30.0346139241699;0.2005615234375;7.53784179687495E-05;8.40999997876679;842;100 mA
30.0446139241446;0.20050048828125;8.544921875E-05;8.41999997874154;843;100 mA
30.0546139241194;0.200439453125;7.90405273437503E-05;8.4299999787163;844;100 mA
30.0646139240941;0.200531005859375;8.17871093750006E-05;8.43999997869105;845;100 mA
30.0746139240689;0.20050048828125;7.87353515625006E-05;8.4499999786658;846;100 mA
30.0846139240437;0.200592041015625;7.53784179687495E-05;8.45999997864055;847;100 mA
30.0946139240184;0.20050048828125;8.23974609375E-05;8.46999997861531;848;100 mA
30.1046139239932;0.20050048828125;7.75146484375003E-05;8.47999997859006;849;100 mA
30.1146139239679;0.200439453125;8.36181640625003E-05;8.48999997856481;850;100 mA
30.1246139239427;0.200531005859375;8.11767578124997E-05;8.49999997853956;851;100 mA
30.1346139239174;0.200469970703125;7.781982421875E-05;8.50999997851432;852;100 mA
30.1446139238922;0.2005615234375;8.087158203125E-05;8.51999997848907;853;100 mA
30.1546139238669;0.200469970703125;7.56835937500006E-05;8.52999997846382;854;100 mA
30.1646139238417;0.200531005859375;7.96508789062497E-05;8.53999997843857;855;100 mA
30.1746139238164;0.200592041015625;8.27026367187497E-05;8.54999997841333;856;100 mA
30.1846139237912;0.200531005859375;7.90405273437503E-05;8.55999997838808;857;100 mA
30.1946139237659;0.200531005859375;8.544921875E-05;8.56999997836283;858;100 mA
30.2046139237407;0.200531005859375;7.87353515625006E-05;8.57999997833758;859;100 mA
30.2146139237154;0.2005615234375;7.9345703125E-05;8.58999997831233;860;100 mA
30.2246139236902;0.200439453125;8.11767578124997E-05;8.59999997828709;861;100 mA
30.2346139236649;0.200439453125;7.75146484375003E-05;8.60999997826184;862;100 mA
30.2446139236397;0.200531005859375;8.697509765625E-05;8.61999997823659;863;100 mA
30.2546139236144;0.2005615234375;7.65991210937497E-05;8.62999997821134;864;100 mA
30.2646139235892;0.200531005859375;7.87353515625006E-05;8.6399999781861;865;100 mA
30.2746139235639;0.2005615234375;8.02612304687506E-05;8.64999997816085;866;100 mA
30.2846139235387;0.200469970703125;7.75146484375003E-05;8.6599999781356;867;100 mA
30.2946139235135;0.200531005859375;8.88061523437497E-05;8.66999997811035;868;100 mA
30.3046139234882;0.200531005859375;8.30078124999995E-05;8.67999997808511;869;100 mA
30.314613923463;0.20050048828125;8.45336914062494E-05;8.68999997805986;870;100 mA
30.3246139234377;0.2005615234375;8.14819335937495E-05;8.69999997803461;871;100 mA
30.3346139234125;0.20050048828125;7.81249999999997E-05;8.70999997800936;872;100 mA
30.3446139233872;0.200469970703125;8.57543945312497E-05;8.71999997798412;873;100 mA
30.354613923362;0.200531005859375;7.84301757812495E-05;8.72999997795887;874;100 mA
30.3646139233367;0.20050048828125;7.87353515625006E-05;8.73999997793362;875;100 mA
30.3746139233115;0.2005615234375;8.17871093750006E-05;8.74999997790837;876;100 mA
30.3846139232862;0.200531005859375;7.35473632812497E-05;8.75999997788313;877;100 mA
30.394613923261;0.20050048828125;8.697509765625E-05;8.76999997785788;878;100 mA
30.4046139232357;0.2005615234375;7.90405273437503E-05;8.77999997783263;879;100 mA
30.4146139232105;0.20050048828125;8.51440429687503E-05;8.78999997780738;880;100 mA
30.4246139231852;0.200531005859375;8.66699218750003E-05;8.79999997778214;881;100 mA
30.43461392316;0.200531005859375;7.62939453125E-05;8.80999997775689;882;100 mA
30.4446139231347;0.200531005859375;8.392333984375E-05;8.81999997773164;883;100 mA
30.4546139231095;0.2005615234375;8.02612304687506E-05;8.82999997770639;884;100 mA
30.4646139230842;0.200531005859375;8.20922851562503E-05;8.83999997768115;885;100 mA
30.474613923059;0.200469970703125;8.48388671875006E-05;8.8499999776559;886;100 mA
30.4846139230337;0.20050048828125;7.62939453125E-05;8.85999997763065;887;100 mA
30.4946139230085;0.200469970703125;8.66699218750003E-05;8.8699999776054;888;100 mA
30.5046139229833;0.200592041015625;7.72094726562506E-05;8.87999997758016;889;100 mA
30.514613922958;0.20050048828125;7.96508789062497E-05;8.88999997755491;890;100 mA
30.5246139229328;0.200469970703125;8.27026367187497E-05;8.89999997752966;891;100 mA
30.5346139229075;0.20050048828125;8.14819335937495E-05;8.90999997750441;892;100 mA
30.5446139228823;0.200469970703125;8.72802734374997E-05;8.91999997747916;893;100 mA
30.554613922857;0.20050048828125;8.05664062500003E-05;8.92999997745392;894;100 mA
30.5646139228318;0.2005615234375;8.02612304687506E-05;8.93999997742867;895;100 mA
30.5746139228065;0.20037841796875;8.57543945312497E-05;8.94999997740342;896;100 mA
30.5846139227813;0.20050048828125;8.02612304687506E-05;8.95999997737817;897;100 mA
30.594613922756;0.200531005859375;8.81958007812503E-05;8.96999997735293;898;100 mA
30.6046139227308;0.2005615234375;8.05664062500003E-05;8.97999997732768;899;100 mA
30.6146139227055;0.200469970703125;8.42285156249997E-05;8.98999997730243;900;100 mA
30.6246139226803;0.20050048828125;8.14819335937495E-05;8.99999997727718;901;100 mA
30.634613922655;0.20050048828125;8.087158203125E-05;9.00999997725194;902;100 mA
30.6446139226298;0.200531005859375;8.78906250000006E-05;9.01999997722669;903;100 mA
30.6546139226045;0.200469970703125;7.90405273437503E-05;9.02999997720144;904;100 mA
30.6646139225793;0.200531005859375;8.23974609375E-05;9.03999997717619;905;100 mA
30.674613922554;0.20050048828125;8.51440429687503E-05;9.04999997715095;906;100 mA
30.6846139225288;0.20050048828125;8.27026367187497E-05;9.0599999771257;907;100 mA
30.6946139225035;0.200531005859375;8.72802734374997E-05;9.06999997710045;908;100 mA
30.7046139224783;0.200439453125;8.11767578124997E-05;9.0799999770752;909;100 mA
30.7146139224531;0.20050048828125;8.33129882812506E-05;9.08999997704996;910;100 mA
30.7246139224278;0.20050048828125;8.36181640625003E-05;9.09999997702471;911;100 mA
30.7346139224026;0.20050048828125;8.30078124999995E-05;9.10999997699946;912;100 mA
30.7446139223773;0.200592041015625;8.23974609375E-05;9.11999997697421;913;100 mA
30.7546139223521;0.20050048828125;8.42285156249997E-05;9.12999997694897;914;100 mA
30.7646139223268;0.200439453125;8.392333984375E-05;9.13999997692372;915;100 mA
30.7746139223016;0.20050048828125;8.697509765625E-05;9.14999997689847;916;100 mA
30.7846139222763;0.20050048828125;8.14819335937495E-05;9.15999997687322;917;100 mA
30.7946139222511;0.2005615234375;8.97216796875003E-05;9.16999997684798;918;100 mA
30.8046139222258;0.20050048828125;8.30078124999995E-05;9.17999997682273;919;100 mA
30.8146139222006;0.200469970703125;8.27026367187497E-05;9.18999997679748;920;100 mA
30.8246139221753;0.200531005859375;7.96508789062497E-05;9.19999997677223;921;100 mA
30.8346139221501;0.200469970703125;7.69042968749994E-05;9.20999997674699;922;100 mA
30.8446139221248;0.20050048828125;8.45336914062494E-05;9.21999997672174;923;100 mA
30.8546139220996;0.200531005859375;7.84301757812495E-05;9.22999997669649;924;100 mA
30.8646139220743;0.20050048828125;8.17871093750006E-05;9.23999997667124;925;100 mA
30.8746139220491;0.20050048828125;8.57543945312497E-05;9.249999976646;926;100 mA
30.8846139220238;0.20050048828125;7.781982421875E-05;9.25999997662075;927;100 mA
30.8946139219986;0.20050048828125;8.81958007812503E-05;9.2699999765955;928;100 mA
30.9046139219734;0.200469970703125;8.14819335937495E-05;9.27999997657025;929;100 mA
30.9146139219481;0.200439453125;8.60595703124995E-05;9.289999976545;930;100 mA
30.9246139219229;0.200592041015625;8.57543945312497E-05;9.29999997651976;931;100 mA
30.9346139218976;0.2005615234375;7.84301757812495E-05;9.30999997649451;932;100 mA
30.9446139218724;0.20050048828125;8.75854492187494E-05;9.31999997646926;933;100 mA
30.9546139218471;0.200531005859375;7.99560546874994E-05;9.32999997644401;934;100 mA
30.9646139218219;0.200439453125;7.96508789062497E-05;9.33999997641877;935;100 mA
30.9746139217966;0.200531005859375;8.30078124999995E-05;9.34999997639352;936;100 mA
30.9846139217714;0.200439453125;7.99560546874994E-05;9.35999997636827;937;100 mA
30.9946139217461;0.200469970703125;8.75854492187494E-05;9.36999997634302;938;100 mA
31.0046139217209;0.200531005859375;8.544921875E-05;9.37999997631778;939;100 mA
31.0146139216956;0.200531005859375;8.75854492187494E-05;9.38999997629253;940;100 mA
31.0246139216704;0.200531005859375;8.544921875E-05;9.39999997626728;941;100 mA
31.0346139216451;0.20050048828125;7.99560546874994E-05;9.40999997624203;942;100 mA
31.0446139216199;0.200469970703125;8.66699218750003E-05;9.41999997621679;943;100 mA
31.0546139215946;0.200592041015625;7.75146484375003E-05;9.42999997619154;944;100 mA
31.0646139215694;0.200469970703125;8.11767578124997E-05;9.43999997616629;945;100 mA
31.0746139215441;0.20050048828125;8.20922851562503E-05;9.44999997614104;946;100 mA
31.0846139215189;0.20050048828125;8.14819335937495E-05;9.4599999761158;947;100 mA
31.0946139214936;0.200439453125;8.57543945312497E-05;9.46999997609055;948;100 mA
31.1046139214684;0.200592041015625;7.65991210937497E-05;9.4799999760653;949;100 mA
31.1146139214432;0.200531005859375;8.33129882812506E-05;9.48999997604005;950;100 mA
31.1246139214179;0.200469970703125;8.30078124999995E-05;9.49999997601481;951;100 mA
31.1346139213927;0.200531005859375;8.05664062500003E-05;9.50999997598956;952;100 mA
31.1446139213674;0.200439453125;9.06372070312495E-05;9.51999997596431;953;100 mA
31.1546139213422;0.200531005859375;7.87353515625006E-05;9.52999997593906;954;100 mA
31.1646139213169;0.200531005859375;8.30078124999995E-05;9.53999997591382;955;100 mA
31.1746139212917;0.200469970703125;8.544921875E-05;9.54999997588857;956;100 mA
31.1846139212664;0.200531005859375;7.781982421875E-05;9.55999997586332;957;100 mA
31.1946139212412;0.20050048828125;8.57543945312497E-05;9.56999997583807;958;100 mA
31.2046139212159;0.200469970703125;7.99560546874994E-05;9.57999997581283;959;100 mA
31.2146139211907;0.200531005859375;8.17871093750006E-05;9.58999997578758;960;100 mA
31.2246139211654;0.200469970703125;8.63647460937506E-05;9.59999997576233;961;100 mA
31.2346139211402;0.200531005859375;8.17871093750006E-05;9.60999997573708;962;100 mA
31.2446139211149;0.2005615234375;8.91113281249995E-05;9.61999997571183;963;100 mA
31.2546139210897;0.20050048828125;8.02612304687506E-05;9.62999997568659;964;100 mA
31.2646139210644;0.200531005859375;8.63647460937506E-05;9.63999997566134;965;100 mA
31.2746139210392;0.20050048828125;8.697509765625E-05;9.64999997563609;966;100 mA
31.2846139210139;0.20050048828125;8.11767578124997E-05;9.65999997561084;967;100 mA
31.2946139209887;0.20050048828125;8.85009765625E-05;9.6699999755856;968;100 mA
31.3046139209634;0.200469970703125;8.33129882812506E-05;9.67999997556035;969;100 mA
31.3146139209382;0.20050048828125;8.30078124999995E-05;9.6899999755351;970;100 mA
31.324613920913;0.200469970703125;8.392333984375E-05;9.69999997550985;971;100 mA
31.3346139208877;0.200469970703125;7.9345703125E-05;9.70999997548461;972;100 mA
31.3446139208625;0.2005615234375;8.51440429687503E-05;9.71999997545936;973;100 mA
31.3546139208372;0.200469970703125;8.11767578124997E-05;9.72999997543411;974;100 mA
31.364613920812;0.200469970703125;8.27026367187497E-05;9.73999997540886;975;100 mA
31.3746139207867;0.20050048828125;8.392333984375E-05;9.74999997538362;976;100 mA
31.3846139207615;0.200531005859375;7.87353515625006E-05;9.75999997535837;977;100 mA
31.3946139207362;0.20050048828125;8.81958007812503E-05;9.76999997533312;978;100 mA
31.404613920711;0.2005615234375;8.30078124999995E-05;9.77999997530787;979;100 mA
31.4146139206857;0.200469970703125;8.27026367187497E-05;9.78999997528263;980;100 mA
31.4246139206605;0.2005615234375;8.17871093750006E-05;9.79999997525738;981;100 mA
31.4346139206352;0.20050048828125;7.9345703125E-05;9.80999997523213;982;100 mA
31.44461392061;0.200531005859375;8.72802734374997E-05;9.81999997520688;983;100 mA
31.4546139205847;0.20050048828125;7.75146484375003E-05;9.82999997518164;984;100 mA
31.4646139205595;0.200469970703125;8.20922851562503E-05;9.83999997515639;985;100 mA
31.4746139205342;0.20050048828125;8.544921875E-05;9.84999997513114;986;100 mA
31.484613920509;0.2005615234375;8.27026367187497E-05;9.85999997510589;987;100 mA
31.4946139204837;0.20050048828125;8.78906250000006E-05;9.86999997508065;988;100 mA
31.5046139204585;0.200439453125;8.45336914062494E-05;9.8799999750554;989;100 mA
31.5146139204332;0.200439453125;8.11767578124997E-05;9.88999997503015;990;100 mA
31.524613920408;0.200531005859375;8.23974609375E-05;9.8999999750049;991;100 mA
31.5346139203828;0.20050048828125;8.11767578124997E-05;9.90999997497966;992;100 mA
31.5446139203575;0.200469970703125;8.81958007812503E-05;9.91999997495441;993;100 mA
31.5546139203323;0.20050048828125;8.20922851562503E-05;9.92999997492916;994;100 mA
31.564613920307;0.200469970703125;8.14819335937495E-05;9.93999997490391;995;100 mA
31.5746139202818;0.2005615234375;8.27026367187497E-05;9.94999997487866;996;100 mA
31.5846139202565;0.20050048828125;7.99560546874994E-05;9.95999997485342;997;100 mA
31.5946139202313;0.20050048828125;8.697509765625E-05;9.96999997482817;998;100 mA
31.604613920206;0.200531005859375;8.11767578124997E-05;9.97999997480292;999;100 mA
31.6146139201808;0.2005615234375;8.17871093750006E-05;9.98999997477767;1000;100 mA
