Time (s);WE(1).Potential (V);WE(1).Current (A);Corrected time (s);Index;Current range
32.2258819186375;-0.799560546875;-0.30902099609375;0;1;100 mA
32.2358819186122;-0.799560546875;-0.2305908203125;0.00999999997475243;2;100 mA
32.245881918587;-0.79925537109375;-0.192047119140625;0.0199999999495049;3;100 mA
32.2558819185617;-0.799560546875;-0.168121337890625;0.0299999999242573;4;100 mA
32.2658819185365;-0.7989501953125;-0.151123046875;0.0399999998990097;5;100 mA
32.2758819185112;-0.799560546875;-0.138397216796875;0.0499999998737621;6;100 mA
32.285881918486;-0.7989501953125;-0.12841796875;0.0599999998485146;7;100 mA
32.2958819184607;-0.79925537109375;-0.120361328125;0.069999999823267;8;100 mA
32.3058819184355;-0.79925537109375;-0.11376953125;0.0799999997980194;9;100 mA
32.3158819184102;-0.799560546875;-0.108154296875;0.0899999997727718;10;100 mA
32.325881918385;-0.79925537109375;-0.103240966796875;0.0999999997475243;11;100 mA
32.3358819183597;-0.79925537109375;-0.098907470703125;0.109999999722277;12;100 mA
32.3458819183345;-0.79925537109375;-0.0950927734375;0.119999999697029;13;100 mA
32.3558819183093;-0.7989501953125;-0.091827392578125;0.129999999671782;14;100 mA
32.365881918284;-0.79925537109375;-0.088714599609375;0.139999999646534;15;100 mA
32.3758819182588;-0.79925537109375;-0.086029052734375;0.149999999621286;16;100 mA
32.3858819182335;-0.79925537109375;-0.08349609375;0.159999999596039;17;100 mA
32.3958819182083;-0.7989501953125;-0.081146240234375;0.169999999570791;18;100 mA
32.405881918183;-0.7989501953125;-0.079010009765625;0.179999999545544;19;100 mA
32.4158819181578;-0.7989501953125;-0.077056884765625;0.189999999520296;20;100 mA
32.4258819181325;-0.799560546875;-0.075286865234375;0.199999999495049;21;100 mA
32.4358819181073;-0.7989501953125;-0.073577880859375;0.209999999469801;22;100 mA
32.445881918082;-0.7989501953125;-0.071990966796875;0.219999999444553;23;100 mA
32.4558819180568;-0.7989501953125;-0.07049560546875;0.229999999419306;24;100 mA
32.4658819180315;-0.79864501953125;-0.069061279296875;0.239999999394058;25;100 mA
32.4758819180063;-0.79925537109375;-0.06781005859375;0.249999999368811;26;100 mA
32.485881917981;-0.7989501953125;-0.06646728515625;0.259999999343563;27;100 mA
32.4958819179558;-0.799560546875;-0.06536865234375;0.269999999318316;28;100 mA
32.5058819179305;-0.79925537109375;-0.064300537109375;0.279999999293068;29;100 mA
32.5158819179053;-0.79925537109375;-0.06317138671875;0.28999999926782;30;100 mA
32.52588191788;-0.799560546875;-0.062255859375;0.299999999242573;31;100 mA
32.5358819178548;-0.799560546875;-0.061309814453125;0.309999999217325;32;100 mA
32.5458819178295;-0.799560546875;-0.060455322265625;0.319999999192078;33;100 mA
32.5558819178043;-0.799560546875;-0.059661865234375;0.32999999916683;34;100 mA
32.5658819177791;-0.79925537109375;-0.058807373046875;0.339999999141583;35;100 mA
32.5758819177538;-0.799560546875;-0.058013916015625;0.349999999116335;36;100 mA
32.5858819177286;-0.79864501953125;-0.057220458984375;0.359999999091087;37;100 mA
32.5958819177033;-0.79864501953125;-0.05657958984375;0.36999999906584;38;100 mA
32.6058819176781;-0.799560546875;-0.055877685546875;0.379999999040592;39;100 mA
32.6158819176528;-0.79925537109375;-0.055206298828125;0.389999999015345;40;100 mA
32.6258819176276;-0.7989501953125;-0.05450439453125;0.399999998990097;41;100 mA
32.6358819176023;-0.7989501953125;-0.053863525390625;0.40999999896485;42;100 mA
32.6458819175771;-0.79925537109375;-0.053253173828125;0.419999998939602;43;100 mA
32.6558819175518;-0.799560546875;-0.052642822265625;0.429999998914354;44;100 mA
32.6658819175266;-0.7989501953125;-0.052093505859375;0.439999998889107;45;100 mA
32.6758819175013;-0.79925537109375;-0.05157470703125;0.449999998863859;46;100 mA
32.6858819174761;-0.7989501953125;-0.051025390625;0.459999998838612;47;100 mA
32.6958819174508;-0.79925537109375;-0.050506591796875;0.469999998813364;48;100 mA
32.7058819174256;-0.799560546875;-0.050079345703125;0.479999998788116;49;100 mA
32.7158819174003;-0.79925537109375;-0.04959716796875;0.489999998762869;50;100 mA
32.7258819173751;-0.7989501953125;-0.0491424560546875;0.499999998737621;51;100 mA
32.7358819173498;-0.799560546875;-0.0486663818359375;0.509999998712374;52;100 mA
32.7458819173246;-0.7989501953125;-0.048211669921875;0.519999998687126;53;100 mA
32.7558819172993;-0.799560546875;-0.04776611328125;0.529999998661879;54;100 mA
32.7658819172741;-0.79925537109375;-0.0472869873046875;0.539999998636631;55;100 mA
32.7758819172489;-0.79925537109375;-0.0469024658203125;0.549999998611383;56;100 mA
32.7858819172236;-0.79925537109375;-0.046539306640625;0.559999998586136;57;100 mA
32.7958819171984;-0.799560546875;-0.0461822509765625;0.569999998560888;58;100 mA
32.8058819171731;-0.79864501953125;-0.0458160400390625;0.579999998535641;59;100 mA
32.8158819171479;-0.799560546875;-0.0454742431640625;0.589999998510393;60;100 mA
32.8258819171226;-0.79925537109375;-0.0451263427734375;0.599999998485146;61;100 mA
32.8358819170974;-0.79925537109375;-0.0448150634765625;0.609999998459898;62;100 mA
32.8458819170721;-0.7989501953125;-0.0444488525390625;0.61999999843465;63;100 mA
32.8558819170469;-0.79925537109375;-0.044134521484375;0.629999998409403;64;100 mA
32.8658819170216;-0.79925537109375;-0.0438507080078125;0.639999998384155;65;100 mA
32.8758819169964;-0.79925537109375;-0.043585205078125;0.649999998358908;66;100 mA
32.8858819169711;-0.79925537109375;-0.04327392578125;0.65999999833366;67;100 mA
32.8958819169459;-0.7989501953125;-0.0429840087890625;0.669999998308413;68;100 mA
32.9058819169206;-0.79864501953125;-0.042718505859375;0.679999998283165;69;100 mA
32.9158819168954;-0.799560546875;-0.0423858642578125;0.689999998257917;70;100 mA
32.9258819168701;-0.799560546875;-0.0421051025390625;0.69999999823267;71;100 mA
32.9358819168449;-0.7989501953125;-0.04188232421875;0.709999998207422;72;100 mA
32.9458819168196;-0.799560546875;-0.0416046142578125;0.719999998182175;73;100 mA
32.9558819167944;-0.79925537109375;-0.041351318359375;0.729999998156927;74;100 mA
32.9658819167691;-0.7989501953125;-0.041070556640625;0.73999999813168;75;100 mA
32.9758819167439;-0.79925537109375;-0.040826416015625;0.749999998106432;76;100 mA
32.9858819167187;-0.7989501953125;-0.0405670166015625;0.759999998081184;77;100 mA
32.9958819166934;-0.79986572265625;-0.0402984619140625;0.769999998055937;78;100 mA
33.0058819166682;-0.7989501953125;-0.0400604248046875;0.779999998030689;79;100 mA
33.0158819166429;-0.79925537109375;-0.0398101806640625;0.789999998005442;80;100 mA
33.0258819166177;-0.7989501953125;-0.039599609375;0.799999997980194;81;100 mA
33.0358819165924;-0.79864501953125;-0.0394073486328125;0.809999997954947;82;100 mA
33.0458819165672;-0.79925537109375;-0.0391998291015625;0.819999997929699;83;100 mA
33.0558819165419;-0.79925537109375;-0.0389862060546875;0.829999997904451;84;100 mA
33.0658819165167;-0.79986572265625;-0.038739013671875;0.839999997879204;85;100 mA
33.0758819164914;-0.79925537109375;-0.038568115234375;0.849999997853956;86;100 mA
33.0858819164662;-0.7989501953125;-0.0383209228515625;0.859999997828709;87;100 mA
33.0958819164409;-0.79925537109375;-0.03814697265625;0.869999997803461;88;100 mA
33.1058819164157;-0.79925537109375;-0.037933349609375;0.879999997778214;89;100 mA
33.1158819163904;-0.79925537109375;-0.0377593994140625;0.889999997752966;90;100 mA
33.1258819163652;-0.79925537109375;-0.0375579833984375;0.899999997727718;91;100 mA
33.1358819163399;-0.79864501953125;-0.0374176025390625;0.909999997702471;92;100 mA
33.1458819163147;-0.799560546875;-0.037213134765625;0.919999997677223;93;100 mA
33.1558819162894;-0.799560546875;-0.03707275390625;0.929999997651976;94;100 mA
33.1658819162642;-0.79925537109375;-0.036871337890625;0.939999997626728;95;100 mA
33.1758819162389;-0.799560546875;-0.0368133544921875;0.949999997601481;96;100 mA
33.1858819162137;-0.7989501953125;-0.0366241455078125;0.959999997576233;97;100 mA
33.1958819161885;-0.799560546875;-0.0365509033203125;0.969999997550985;98;100 mA
33.2058819161632;-0.79925537109375;-0.036376953125;0.979999997525738;99;100 mA
33.215881916138;-0.79925537109375;-0.036285400390625;0.98999999750049;100;100 mA
33.2258819161127;-0.79925537109375;-0.03609619140625;0.999999997475243;101;100 mA
33.2358819160875;-0.79925537109375;-0.035943603515625;1.00999999745;102;100 mA
33.2458819160622;-0.79925537109375;-0.0357879638671875;1.01999999742475;103;100 mA
33.255881916037;-0.79864501953125;-0.035614013671875;1.0299999973995;104;100 mA
33.2658819160117;-0.79864501953125;-0.0355682373046875;1.03999999737425;105;100 mA
33.2758819159865;-0.79925537109375;-0.03551025390625;1.049999997349;106;100 mA
33.2858819159612;-0.79925537109375;-0.035333251953125;1.05999999732376;107;100 mA
33.295881915936;-0.79925537109375;-0.0351531982421875;1.06999999729851;108;100 mA
33.3058819159107;-0.7989501953125;-0.03499755859375;1.07999999727326;109;100 mA
33.3158819158855;-0.7989501953125;-0.0349090576171875;1.08999999724801;110;100 mA
33.3258819158602;-0.799560546875;-0.03475341796875;1.09999999722277;111;100 mA
33.335881915835;-0.799560546875;-0.034649658203125;1.10999999719752;112;100 mA
33.3458819158097;-0.7989501953125;-0.03443603515625;1.11999999717227;113;100 mA
33.3558819157845;-0.79925537109375;-0.03428955078125;1.12999999714702;114;100 mA
33.3658819157592;-0.799560546875;-0.034088134765625;1.13999999712178;115;100 mA
33.375881915734;-0.79864501953125;-0.0339630126953125;1.14999999709653;116;100 mA
33.3858819157088;-0.7989501953125;-0.033880615234375;1.15999999707128;117;100 mA
33.3958819156835;-0.7989501953125;-0.033770751953125;1.16999999704603;118;100 mA
33.4058819156583;-0.7989501953125;-0.0336181640625;1.17999999702079;119;100 mA
33.415881915633;-0.79925537109375;-0.0335235595703125;1.18999999699554;120;100 mA
33.4258819156078;-0.7989501953125;-0.03338623046875;1.19999999697029;121;100 mA
33.4358819155825;-0.79925537109375;-0.0333221435546875;1.20999999694504;122;100 mA
33.4458819155573;-0.799560546875;-0.03321533203125;1.2199999969198;123;100 mA
33.455881915532;-0.799560546875;-0.0331146240234375;1.22999999689455;124;100 mA
33.4658819155068;-0.7989501953125;-0.0330230712890625;1.2399999968693;125;100 mA
33.4758819154815;-0.79925537109375;-0.032879638671875;1.24999999684405;126;100 mA
33.4858819154563;-0.79925537109375;-0.0327392578125;1.25999999681881;127;100 mA
33.495881915431;-0.79925537109375;-0.03265380859375;1.26999999679356;128;100 mA
33.5058819154058;-0.7989501953125;-0.032586669921875;1.27999999676831;129;100 mA
33.5158819153805;-0.7989501953125;-0.0324432373046875;1.28999999674306;130;100 mA
33.5258819153553;-0.79925537109375;-0.0323486328125;1.29999999671782;131;100 mA
33.53588191533;-0.799560546875;-0.0322296142578125;1.30999999669257;132;100 mA
33.5458819153048;-0.799560546875;-0.0321533203125;1.31999999666732;133;100 mA
33.5558819152795;-0.79986572265625;-0.0320648193359375;1.32999999664207;134;100 mA
33.5658819152543;-0.79925537109375;-0.0319427490234375;1.33999999661683;135;100 mA
33.575881915229;-0.79925537109375;-0.0318756103515625;1.34999999659158;136;100 mA
33.5858819152038;-0.79925537109375;-0.0317962646484375;1.35999999656633;137;100 mA
33.5958819151786;-0.799560546875;-0.031683349609375;1.36999999654108;138;100 mA
33.6058819151533;-0.7989501953125;-0.03157958984375;1.37999999651583;139;100 mA
33.6158819151281;-0.79986572265625;-0.0314849853515625;1.38999999649059;140;100 mA
33.6258819151028;-0.79925537109375;-0.0314483642578125;1.39999999646534;141;100 mA
33.6358819150776;-0.79925537109375;-0.031402587890625;1.40999999644009;142;100 mA
33.6458819150523;-0.7989501953125;-0.0312652587890625;1.41999999641484;143;100 mA
33.6558819150271;-0.7989501953125;-0.0312103271484375;1.4299999963896;144;100 mA
33.6658819150018;-0.7989501953125;-0.0310882568359375;1.43999999636435;145;100 mA
33.6758819149766;-0.799560546875;-0.03104248046875;1.4499999963391;146;100 mA
33.6858819149513;-0.79925537109375;-0.0309326171875;1.45999999631385;147;100 mA
33.6958819149261;-0.7989501953125;-0.030828857421875;1.46999999628861;148;100 mA
33.7058819149008;-0.79864501953125;-0.0306671142578125;1.47999999626336;149;100 mA
33.7158819148756;-0.79925537109375;-0.0305511474609375;1.48999999623811;150;100 mA
33.7258819148503;-0.79925537109375;-0.0304595947265625;1.49999999621286;151;100 mA
33.7358819148251;-0.799560546875;-0.0303375244140625;1.50999999618762;152;100 mA
33.7458819147998;-0.7989501953125;-0.03031005859375;1.51999999616237;153;100 mA
33.7558819147746;-0.7989501953125;-0.030255126953125;1.52999999613712;154;100 mA
33.7658819147493;-0.7989501953125;-0.0301727294921875;1.53999999611187;155;100 mA
33.7758819147241;-0.799560546875;-0.030072021484375;1.54999999608663;156;100 mA
33.7858819146988;-0.79925537109375;-0.0299957275390625;1.55999999606138;157;100 mA
33.7958819146736;-0.79925537109375;-0.0299560546875;1.56999999603613;158;100 mA
33.8058819146484;-0.79925537109375;-0.0298797607421875;1.57999999601088;159;100 mA
33.8158819146231;-0.799560546875;-0.029833984375;1.58999999598564;160;100 mA
33.8258819145979;-0.7989501953125;-0.02974853515625;1.59999999596039;161;100 mA
33.8358819145726;-0.79925537109375;-0.029681396484375;1.60999999593514;162;100 mA
33.8458819145474;-0.799560546875;-0.0296295166015625;1.61999999590989;163;100 mA
33.8558819145221;-0.7989501953125;-0.02955322265625;1.62999999588465;164;100 mA
33.8658819144969;-0.799560546875;-0.029498291015625;1.6399999958594;165;100 mA
33.8758819144716;-0.799560546875;-0.0294525146484375;1.64999999583415;166;100 mA
33.8858819144464;-0.7989501953125;-0.029302978515625;1.6599999958089;167;100 mA
33.8958819144211;-0.799560546875;-0.0292633056640625;1.66999999578366;168;100 mA
33.9058819143959;-0.79925537109375;-0.029205322265625;1.67999999575841;169;100 mA
33.9158819143706;-0.7989501953125;-0.0292022705078125;1.68999999573316;170;100 mA
33.9258819143454;-0.79986572265625;-0.0291412353515625;1.69999999570791;171;100 mA
33.9358819143201;-0.79925537109375;-0.0291351318359375;1.70999999568267;172;100 mA
33.9458819142949;-0.79925537109375;-0.0290252685546875;1.71999999565742;173;100 mA
33.9558819142696;-0.79925537109375;-0.0289947509765625;1.72999999563217;174;100 mA
33.9658819142444;-0.79925537109375;-0.0289459228515625;1.73999999560692;175;100 mA
33.9758819142191;-0.79925537109375;-0.028863525390625;1.74999999558167;176;100 mA
33.9858819141939;-0.8001708984375;-0.028851318359375;1.75999999555643;177;100 mA
33.9958819141686;-0.799560546875;-0.028863525390625;1.76999999553118;178;100 mA
34.0058819141434;-0.799560546875;-0.02880859375;1.77999999550593;179;100 mA
34.0158819141182;-0.7989501953125;-0.028729248046875;1.78999999548068;180;100 mA
34.0258819140929;-0.79925537109375;-0.0286865234375;1.79999999545544;181;100 mA
34.0358819140677;-0.79925537109375;-0.028656005859375;1.80999999543019;182;100 mA
34.0458819140424;-0.79925537109375;-0.0285614013671875;1.81999999540494;183;100 mA
34.0558819140172;-0.79925537109375;-0.02850341796875;1.82999999537969;184;100 mA
34.0658819139919;-0.7989501953125;-0.02845458984375;1.83999999535445;185;100 mA
34.0758819139667;-0.79925537109375;-0.0283660888671875;1.8499999953292;186;100 mA
34.0858819139414;-0.799560546875;-0.028302001953125;1.85999999530395;187;100 mA
34.0958819139162;-0.799560546875;-0.028240966796875;1.8699999952787;188;100 mA
34.1058819138909;-0.7989501953125;-0.028155517578125;1.87999999525346;189;100 mA
34.1158819138657;-0.799560546875;-0.0281280517578125;1.88999999522821;190;100 mA
34.1258819138404;-0.7989501953125;-0.0280426025390625;1.89999999520296;191;100 mA
34.1358819138152;-0.7989501953125;-0.0279693603515625;1.90999999517771;192;100 mA
34.1458819137899;-0.79864501953125;-0.0279144287109375;1.91999999515247;193;100 mA
34.1558819137647;-0.79925537109375;-0.0278533935546875;1.92999999512722;194;100 mA
34.1658819137394;-0.7989501953125;-0.0277862548828125;1.93999999510197;195;100 mA
34.1758819137142;-0.79925537109375;-0.0277618408203125;1.94999999507672;196;100 mA
34.1858819136889;-0.79925537109375;-0.0277069091796875;1.95999999505148;197;100 mA
34.1958819136637;-0.79925537109375;-0.02762451171875;1.96999999502623;198;100 mA
34.2058819136384;-0.79925537109375;-0.0275421142578125;1.97999999500098;199;100 mA
34.2158819136132;-0.799560546875;-0.027490234375;1.98999999497573;200;100 mA
34.225881913588;-0.7989501953125;-0.027490234375;1.99999999495049;201;100 mA
34.2358819135627;-0.79925537109375;-0.0274169921875;2.00999999492524;202;100 mA
34.2458819135375;-0.7989501953125;-0.0273590087890625;2.01999999489999;203;100 mA
34.2558819135122;-0.799560546875;-0.0273345947265625;2.02999999487474;204;100 mA
34.265881913487;-0.79925537109375;-0.027288818359375;2.0399999948495;205;100 mA
34.2758819134617;-0.799560546875;-0.0272705078125;2.04999999482425;206;100 mA
34.2858819134365;-0.7989501953125;-0.02723388671875;2.059999994799;207;100 mA
34.2958819134112;-0.7989501953125;-0.0271881103515625;2.06999999477375;208;100 mA
34.305881913386;-0.79925537109375;-0.0271575927734375;2.0799999947485;209;100 mA
34.3158819133607;-0.799560546875;-0.0270904541015625;2.08999999472326;210;100 mA
34.3258819133355;-0.7989501953125;-0.0270660400390625;2.09999999469801;211;100 mA
34.3358819133102;-0.7989501953125;-0.0270172119140625;2.10999999467276;212;100 mA
34.345881913285;-0.7989501953125;-0.026971435546875;2.11999999464751;213;100 mA
34.3558819132597;-0.7989501953125;-0.0269439697265625;2.12999999462227;214;100 mA
34.3658819132345;-0.799560546875;-0.0268798828125;2.13999999459702;215;100 mA
34.3758819132092;-0.7989501953125;-0.02685546875;2.14999999457177;216;100 mA
34.385881913184;-0.7989501953125;-0.026776123046875;2.15999999454652;217;100 mA
34.3958819131587;-0.7989501953125;-0.0267547607421875;2.16999999452128;218;100 mA
34.4058819131335;-0.7989501953125;-0.0266693115234375;2.17999999449603;219;100 mA
34.4158819131083;-0.7989501953125;-0.02666015625;2.18999999447078;220;100 mA
34.425881913083;-0.7989501953125;-0.026611328125;2.19999999444553;221;100 mA
34.4358819130578;-0.799560546875;-0.0265472412109375;2.20999999442029;222;100 mA
34.4458819130325;-0.7989501953125;-0.0264984130859375;2.21999999439504;223;100 mA
34.4558819130073;-0.79925537109375;-0.026483154296875;2.22999999436979;224;100 mA
34.465881912982;-0.799560546875;-0.02645263671875;2.23999999434454;225;100 mA
34.4758819129568;-0.79925537109375;-0.026422119140625;2.2499999943193;226;100 mA
34.4858819129315;-0.7989501953125;-0.0263702392578125;2.25999999429405;227;100 mA
34.4958819129063;-0.79925537109375;-0.0263153076171875;2.2699999942688;228;100 mA
34.505881912881;-0.7989501953125;-0.0262542724609375;2.27999999424355;229;100 mA
34.5158819128558;-0.79925537109375;-0.02623291015625;2.28999999421831;230;100 mA
34.5258819128305;-0.79925537109375;-0.0261810302734375;2.29999999419306;231;100 mA
34.5358819128053;-0.799560546875;-0.02618408203125;2.30999999416781;232;100 mA
34.54588191278;-0.79925537109375;-0.0261322021484375;2.31999999414256;233;100 mA
34.5558819127548;-0.7989501953125;-0.0260894775390625;2.32999999411732;234;100 mA
34.5658819127295;-0.79925537109375;-0.026043701171875;2.33999999409207;235;100 mA
34.5758819127043;-0.79864501953125;-0.0260040283203125;2.34999999406682;236;100 mA
34.585881912679;-0.79925537109375;-0.0260009765625;2.35999999404157;237;100 mA
34.5958819126538;-0.799560546875;-0.0259613037109375;2.36999999401633;238;100 mA
34.6058819126285;-0.79925537109375;-0.02591552734375;2.37999999399108;239;100 mA
34.6158819126033;-0.799560546875;-0.02587890625;2.38999999396583;240;100 mA
34.6258819125781;-0.79925537109375;-0.02584228515625;2.39999999394058;241;100 mA
34.6358819125528;-0.79925537109375;-0.025830078125;2.40999999391533;242;100 mA
34.6458819125276;-0.7989501953125;-0.02578125;2.41999999389009;243;100 mA
34.6558819125023;-0.7989501953125;-0.0257049560546875;2.42999999386484;244;100 mA
34.6658819124771;-0.799560546875;-0.025665283203125;2.43999999383959;245;100 mA
34.6758819124518;-0.7989501953125;-0.0256072998046875;2.44999999381434;246;100 mA
34.6858819124266;-0.799560546875;-0.025555419921875;2.4599999937891;247;100 mA
34.6958819124013;-0.79864501953125;-0.0255279541015625;2.46999999376385;248;100 mA
34.7058819123761;-0.79925537109375;-0.02548828125;2.4799999937386;249;100 mA
34.7158819123508;-0.79925537109375;-0.025457763671875;2.48999999371335;250;100 mA
34.7258819123256;-0.799560546875;-0.025390625;2.49999999368811;251;100 mA
34.7358819123003;-0.7989501953125;-0.025335693359375;2.50999999366286;252;100 mA
34.7458819122751;-0.79925537109375;-0.0253143310546875;2.51999999363761;253;100 mA
34.7558819122498;-0.7989501953125;-0.025274658203125;2.52999999361236;254;100 mA
34.7658819122246;-0.7989501953125;-0.025213623046875;2.53999999358712;255;100 mA
34.7758819121993;-0.7989501953125;-0.02518310546875;2.54999999356187;256;100 mA
34.7858819121741;-0.79925537109375;-0.0251434326171875;2.55999999353662;257;100 mA
34.7958819121488;-0.799560546875;-0.025115966796875;2.56999999351137;258;100 mA
34.8058819121236;-0.799560546875;-0.02503662109375;2.57999999348613;259;100 mA
34.8158819120983;-0.799560546875;-0.0249755859375;2.58999999346088;260;100 mA
34.8258819120731;-0.79864501953125;-0.0249664306640625;2.59999999343563;261;100 mA
34.8358819120479;-0.799560546875;-0.02496337890625;2.60999999341038;262;100 mA
34.8458819120226;-0.7989501953125;-0.02491455078125;2.61999999338514;263;100 mA
34.8558819119974;-0.79864501953125;-0.0248809814453125;2.62999999335989;264;100 mA
34.8658819119721;-0.799560546875;-0.024822998046875;2.63999999333464;265;100 mA
34.8758819119469;-0.7989501953125;-0.02484130859375;2.64999999330939;266;100 mA
34.8858819119216;-0.7989501953125;-0.0248016357421875;2.65999999328415;267;100 mA
34.8958819118964;-0.7989501953125;-0.024761962890625;2.6699999932589;268;100 mA
34.9058819118711;-0.79925537109375;-0.024755859375;2.67999999323365;269;100 mA
34.9158819118459;-0.7989501953125;-0.0247161865234375;2.6899999932084;270;100 mA
34.9258819118206;-0.79925537109375;-0.0246917724609375;2.69999999318316;271;100 mA
34.9358819117954;-0.79864501953125;-0.0246337890625;2.70999999315791;272;100 mA
34.9458819117701;-0.799560546875;-0.024658203125;2.71999999313266;273;100 mA
34.9558819117449;-0.799560546875;-0.0246490478515625;2.72999999310741;274;100 mA
34.9658819117196;-0.79925537109375;-0.0246002197265625;2.73999999308217;275;100 mA
34.9758819116944;-0.79925537109375;-0.0245697021484375;2.74999999305692;276;100 mA
34.9858819116691;-0.7989501953125;-0.02449951171875;2.75999999303167;277;100 mA
34.9958819116439;-0.7989501953125;-0.02449951171875;2.76999999300642;278;100 mA
35.0058819116186;-0.799560546875;-0.0244537353515625;2.77999999298117;279;100 mA
35.0158819115934;-0.79986572265625;-0.024462890625;2.78999999295593;280;100 mA
35.0258819115681;-0.79925537109375;-0.02445068359375;2.79999999293068;281;100 mA
35.0358819115429;-0.7989501953125;-0.024371337890625;2.80999999290543;282;100 mA
35.0458819115177;-0.79925537109375;-0.0243377685546875;2.81999999288018;283;100 mA
35.0558819114924;-0.79925537109375;-0.024298095703125;2.82999999285494;284;100 mA
35.0658819114672;-0.79925537109375;-0.0243072509765625;2.83999999282969;285;100 mA
35.0758819114419;-0.79925537109375;-0.0242584228515625;2.84999999280444;286;100 mA
35.0858819114167;-0.79986572265625;-0.0241973876953125;2.85999999277919;287;100 mA
35.0958819113914;-0.79925537109375;-0.0241668701171875;2.86999999275395;288;100 mA
35.1058819113662;-0.79925537109375;-0.024139404296875;2.8799999927287;289;100 mA
35.1158819113409;-0.7989501953125;-0.024151611328125;2.88999999270345;290;100 mA
35.1258819113157;-0.7989501953125;-0.0241180419921875;2.8999999926782;291;100 mA
35.1358819112904;-0.7989501953125;-0.0241363525390625;2.90999999265296;292;100 mA
35.1458819112652;-0.79864501953125;-0.0240997314453125;2.91999999262771;293;100 mA
35.1558819112399;-0.7989501953125;-0.0240753173828125;2.92999999260246;294;100 mA
35.1658819112147;-0.799560546875;-0.024072265625;2.93999999257721;295;100 mA
35.1758819111894;-0.79864501953125;-0.0240386962890625;2.94999999255197;296;100 mA
35.1858819111642;-0.79925537109375;-0.024029541015625;2.95999999252672;297;100 mA
35.1958819111389;-0.79925537109375;-0.0240203857421875;2.96999999250147;298;100 mA
35.2058819111137;-0.7989501953125;-0.0239654541015625;2.97999999247622;299;100 mA
35.2158819110884;-0.79864501953125;-0.0239532470703125;2.98999999245098;300;100 mA
35.2258819110632;-0.79925537109375;-0.02391357421875;2.99999999242573;301;100 mA
35.2358819110379;-0.799560546875;-0.0239013671875;3.00999999240048;302;100 mA
35.2458819110127;-0.79925537109375;-0.023846435546875;3.01999999237523;303;100 mA
35.2558819109875;-0.7989501953125;-0.0238250732421875;3.02999999234999;304;100 mA
35.2658819109622;-0.79925537109375;-0.0238037109375;3.03999999232474;305;100 mA
35.275881910937;-0.79925537109375;-0.0237884521484375;3.04999999229949;306;100 mA
35.2858819109117;-0.799560546875;-0.023748779296875;3.05999999227424;307;100 mA
35.2958819108865;-0.79986572265625;-0.0237335205078125;3.069999992249;308;100 mA
35.3058819108612;-0.79925537109375;-0.023712158203125;3.07999999222375;309;100 mA
35.315881910836;-0.79925537109375;-0.02371826171875;3.0899999921985;310;100 mA
35.3258819108107;-0.799560546875;-0.0236358642578125;3.09999999217325;311;100 mA
35.3358819107855;-0.79925537109375;-0.0236419677734375;3.109999992148;312;100 mA
35.3458819107602;-0.79925537109375;-0.023626708984375;3.11999999212276;313;100 mA
35.355881910735;-0.79925537109375;-0.0236175537109375;3.12999999209751;314;100 mA
35.3658819107097;-0.799560546875;-0.0235504150390625;3.13999999207226;315;100 mA
35.3758819106845;-0.7989501953125;-0.023529052734375;3.14999999204701;316;100 mA
35.3858819106592;-0.7989501953125;-0.0235198974609375;3.15999999202177;317;100 mA
35.395881910634;-0.79864501953125;-0.0235107421875;3.16999999199652;318;100 mA
35.4058819106087;-0.79925537109375;-0.0235107421875;3.17999999197127;319;100 mA
35.4158819105835;-0.7989501953125;-0.023504638671875;3.18999999194602;320;100 mA
35.4258819105582;-0.79864501953125;-0.023486328125;3.19999999192078;321;100 mA
35.435881910533;-0.79925537109375;-0.0234710693359375;3.20999999189553;322;100 mA
35.4458819105078;-0.79925537109375;-0.0234161376953125;3.21999999187028;323;100 mA
35.4558819104825;-0.79925537109375;-0.023431396484375;3.22999999184503;324;100 mA
35.4658819104573;-0.799560546875;-0.0234161376953125;3.23999999181979;325;100 mA
35.475881910432;-0.79925537109375;-0.0234222412109375;3.24999999179454;326;100 mA
35.4858819104068;-0.79925537109375;-0.023388671875;3.25999999176929;327;100 mA
35.4958819103815;-0.79864501953125;-0.0233428955078125;3.26999999174404;328;100 mA
35.5058819103563;-0.79925537109375;-0.023333740234375;3.2799999917188;329;100 mA
35.515881910331;-0.7989501953125;-0.023260498046875;3.28999999169355;330;100 mA
35.5258819103058;-0.799560546875;-0.0232391357421875;3.2999999916683;331;100 mA
35.5358819102805;-0.79925537109375;-0.0231964111328125;3.30999999164305;332;100 mA
35.5458819102553;-0.79864501953125;-0.023236083984375;3.31999999161781;333;100 mA
35.55588191023;-0.799560546875;-0.023175048828125;3.32999999159256;334;100 mA
35.5658819102048;-0.799560546875;-0.02314453125;3.33999999156731;335;100 mA
35.5758819101795;-0.79925537109375;-0.02313232421875;3.34999999154206;336;100 mA
35.5858819101543;-0.7989501953125;-0.0230865478515625;3.35999999151682;337;100 mA
35.595881910129;-0.7989501953125;-0.023126220703125;3.36999999149157;338;100 mA
35.6058819101038;-0.799560546875;-0.023114013671875;3.37999999146632;339;100 mA
35.6158819100785;-0.79925537109375;-0.02314453125;3.38999999144107;340;100 mA
35.6258819100533;-0.799560546875;-0.023150634765625;3.39999999141583;341;100 mA
35.635881910028;-0.799560546875;-0.0231109619140625;3.40999999139058;342;100 mA
35.6458819100028;-0.79925537109375;-0.02314453125;3.41999999136533;343;100 mA
35.6558819099776;-0.7989501953125;-0.0230987548828125;3.42999999134008;344;100 mA
35.6658819099523;-0.7989501953125;-0.023089599609375;3.43999999131483;345;100 mA
35.6758819099271;-0.79925537109375;-0.0230865478515625;3.44999999128959;346;100 mA
35.6858819099018;-0.79925537109375;-0.0230804443359375;3.45999999126434;347;100 mA
35.6958819098766;-0.7989501953125;-0.02308349609375;3.46999999123909;348;100 mA
35.7058819098513;-0.799560546875;-0.0230865478515625;3.47999999121384;349;100 mA
35.7158819098261;-0.79864501953125;-0.0230621337890625;3.4899999911886;350;100 mA
35.7258819098008;-0.79925537109375;-0.023028564453125;3.49999999116335;351;100 mA
35.7358819097756;-0.799560546875;-0.022991943359375;3.5099999911381;352;100 mA
35.7458819097503;-0.79925537109375;-0.0230133056640625;3.51999999111285;353;100 mA
35.7558819097251;-0.79925537109375;-0.0229705810546875;3.52999999108761;354;100 mA
35.7658819096998;-0.7989501953125;-0.0229461669921875;3.53999999106236;355;100 mA
35.7758819096746;-0.7989501953125;-0.0229278564453125;3.54999999103711;356;100 mA
35.7858819096493;-0.7989501953125;-0.0228973388671875;3.55999999101186;357;100 mA
35.7958819096241;-0.7989501953125;-0.02288818359375;3.56999999098662;358;100 mA
35.8058819095988;-0.79864501953125;-0.02283935546875;3.57999999096137;359;100 mA
35.8158819095736;-0.799560546875;-0.0228179931640625;3.58999999093612;360;100 mA
35.8258819095483;-0.79925537109375;-0.022796630859375;3.59999999091087;361;100 mA
35.8358819095231;-0.7989501953125;-0.0227813720703125;3.60999999088563;362;100 mA
35.8458819094978;-0.799560546875;-0.022772216796875;3.61999999086038;363;100 mA
35.8558819094726;-0.79833984375;-0.0227386474609375;3.62999999083513;364;100 mA
35.8658819094474;-0.79925537109375;-0.022723388671875;3.63999999080988;365;100 mA
35.8758819094221;-0.799560546875;-0.022686767578125;3.64999999078464;366;100 mA
35.8858819093969;-0.7989501953125;-0.02264404296875;3.65999999075939;367;100 mA
35.8958819093716;-0.79925537109375;-0.022625732421875;3.66999999073414;368;100 mA
35.9058819093464;-0.7989501953125;-0.022650146484375;3.67999999070889;369;100 mA
35.9158819093211;-0.799560546875;-0.0226318359375;3.68999999068365;370;100 mA
35.9258819092959;-0.7989501953125;-0.0225982666015625;3.6999999906584;371;100 mA
35.9358819092706;-0.79925537109375;-0.022613525390625;3.70999999063315;372;100 mA
35.9458819092454;-0.799560546875;-0.0225982666015625;3.7199999906079;373;100 mA
35.9558819092201;-0.79925537109375;-0.02261962890625;3.72999999058266;374;100 mA
35.9658819091949;-0.7989501953125;-0.022589111328125;3.73999999055741;375;100 mA
35.9758819091696;-0.799560546875;-0.022589111328125;3.74999999053216;376;100 mA
35.9858819091444;-0.7989501953125;-0.0225830078125;3.75999999050691;377;100 mA
35.9958819091191;-0.79925537109375;-0.022552490234375;3.76999999048167;378;100 mA
36.0058819090939;-0.7989501953125;-0.0225311279296875;3.77999999045642;379;100 mA
36.0158819090686;-0.79925537109375;-0.0225128173828125;3.78999999043117;380;100 mA
36.0258819090434;-0.79925537109375;-0.0225311279296875;3.79999999040592;381;100 mA
36.0358819090181;-0.7989501953125;-0.0225433349609375;3.80999999038067;382;100 mA
36.0458819089929;-0.79925537109375;-0.0224853515625;3.81999999035543;383;100 mA
36.0558819089676;-0.7989501953125;-0.0224517822265625;3.82999999033018;384;100 mA
36.0658819089424;-0.7989501953125;-0.0224090576171875;3.83999999030493;385;100 mA
36.0758819089172;-0.799560546875;-0.0224090576171875;3.84999999027968;386;100 mA
36.0858819088919;-0.799560546875;-0.022357177734375;3.85999999025444;387;100 mA
36.0958819088667;-0.799560546875;-0.022357177734375;3.86999999022919;388;100 mA
36.1058819088414;-0.7989501953125;-0.022296142578125;3.87999999020394;389;100 mA
36.1158819088162;-0.79925537109375;-0.0222564697265625;3.88999999017869;390;100 mA
36.1258819087909;-0.79925537109375;-0.02220458984375;3.89999999015345;391;100 mA
36.1358819087657;-0.799560546875;-0.0221893310546875;3.9099999901282;392;100 mA
36.1458819087404;-0.79986572265625;-0.0221832275390625;3.91999999010295;393;100 mA
36.1558819087152;-0.799560546875;-0.022161865234375;3.9299999900777;394;100 mA
36.1658819086899;-0.79925537109375;-0.0221282958984375;3.93999999005246;395;100 mA
36.1758819086647;-0.79925537109375;-0.022113037109375;3.94999999002721;396;100 mA
36.1858819086394;-0.7989501953125;-0.0220947265625;3.95999999000196;397;100 mA
36.1958819086142;-0.79925537109375;-0.02213134765625;3.96999998997671;398;100 mA
36.2058819085889;-0.799560546875;-0.022119140625;3.97999998995147;399;100 mA
36.2158819085637;-0.7989501953125;-0.0221343994140625;3.98999998992622;400;100 mA
36.2258819085384;-0.799560546875;-0.0221343994140625;3.99999998990097;401;100 mA
36.2358819085132;-0.79925537109375;-0.022125244140625;4.00999998987572;402;100 mA
36.2458819084879;-0.799560546875;-0.0221405029296875;4.01999998985048;403;100 mA
36.2558819084627;-0.799560546875;-0.022125244140625;4.02999998982523;404;100 mA
36.2658819084374;-0.79925537109375;-0.0221160888671875;4.03999998979998;405;100 mA
36.2758819084122;-0.79925537109375;-0.0221160888671875;4.04999998977473;406;100 mA
36.285881908387;-0.7989501953125;-0.0220458984375;4.05999998974949;407;100 mA
36.2958819083617;-0.7989501953125;-0.02205810546875;4.06999998972424;408;100 mA
36.3058819083365;-0.79925537109375;-0.0220550537109375;4.07999998969899;409;100 mA
36.3158819083112;-0.7989501953125;-0.022052001953125;4.08999998967374;410;100 mA
36.325881908286;-0.79925537109375;-0.02203369140625;4.0999999896485;411;100 mA
36.3358819082607;-0.79925537109375;-0.0220184326171875;4.10999998962325;412;100 mA
36.3458819082355;-0.79925537109375;-0.022027587890625;4.119999989598;413;100 mA
36.3558819082102;-0.79925537109375;-0.0219818115234375;4.12999998957275;414;100 mA
36.365881908185;-0.799560546875;-0.0220062255859375;4.1399999895475;415;100 mA
36.3758819081597;-0.799560546875;-0.0219757080078125;4.14999998952226;416;100 mA
36.3858819081345;-0.79925537109375;-0.0219757080078125;4.15999998949701;417;100 mA
36.3958819081092;-0.7989501953125;-0.02197265625;4.16999998947176;418;100 mA
36.405881908084;-0.79925537109375;-0.0219268798828125;4.17999998944651;419;100 mA
36.4158819080587;-0.7989501953125;-0.021954345703125;4.18999998942127;420;100 mA
36.4258819080335;-0.79925537109375;-0.0219451904296875;4.19999998939602;421;100 mA
36.4358819080082;-0.79925537109375;-0.021923828125;4.20999998937077;422;100 mA
36.445881907983;-0.7989501953125;-0.0218963623046875;4.21999998934552;423;100 mA
36.4558819079577;-0.79864501953125;-0.0218719482421875;4.22999998932028;424;100 mA
36.4658819079325;-0.7989501953125;-0.0218658447265625;4.23999998929503;425;100 mA
36.4758819079073;-0.79925537109375;-0.0218353271484375;4.24999998926978;426;100 mA
36.485881907882;-0.7989501953125;-0.0218109130859375;4.25999998924453;427;100 mA
36.4958819078568;-0.79864501953125;-0.0217987060546875;4.26999998921929;428;100 mA
36.5058819078315;-0.79864501953125;-0.021832275390625;4.27999998919404;429;100 mA
36.5158819078063;-0.79925537109375;-0.0218475341796875;4.28999998916879;430;100 mA
36.525881907781;-0.7989501953125;-0.021856689453125;4.29999998914354;431;100 mA
36.5358819077558;-0.79925537109375;-0.021875;4.3099999891183;432;100 mA
36.5458819077305;-0.79925537109375;-0.0218658447265625;4.31999998909305;433;100 mA
36.5558819077053;-0.7989501953125;-0.021881103515625;4.3299999890678;434;100 mA
36.56588190768;-0.7989501953125;-0.02181396484375;4.33999998904255;435;100 mA
36.5758819076548;-0.7989501953125;-0.0218292236328125;4.34999998901731;436;100 mA
36.5858819076295;-0.799560546875;-0.021771240234375;4.35999998899206;437;100 mA
36.5958819076043;-0.799560546875;-0.0217437744140625;4.36999998896681;438;100 mA
36.605881907579;-0.79864501953125;-0.0217071533203125;4.37999998894156;439;100 mA
36.6158819075538;-0.79925537109375;-0.0216888427734375;4.38999998891632;440;100 mA
36.6258819075285;-0.7989501953125;-0.021710205078125;4.39999998889107;441;100 mA
36.6358819075033;-0.79925537109375;-0.02169189453125;4.40999998886582;442;100 mA
36.645881907478;-0.799560546875;-0.021636962890625;4.41999998884057;443;100 mA
36.6558819074528;-0.79864501953125;-0.0216156005859375;4.42999998881533;444;100 mA
36.6658819074275;-0.799560546875;-0.0216064453125;4.43999998879008;445;100 mA
36.6758819074023;-0.79925537109375;-0.021636962890625;4.44999998876483;446;100 mA
36.6858819073771;-0.79925537109375;-0.0215728759765625;4.45999998873958;447;100 mA
36.6958819073518;-0.799560546875;-0.021612548828125;4.46999998871433;448;100 mA
36.7058819073266;-0.799560546875;-0.0215667724609375;4.47999998868909;449;100 mA
36.7158819073013;-0.799560546875;-0.0215850830078125;4.48999998866384;450;100 mA
36.7258819072761;-0.79925537109375;-0.0215850830078125;4.49999998863859;451;100 mA
36.7358819072508;-0.7989501953125;-0.0216033935546875;4.50999998861334;452;100 mA
36.7458819072256;-0.79925537109375;-0.0216339111328125;4.5199999885881;453;100 mA
36.7558819072003;-0.79925537109375;-0.02156982421875;4.52999998856285;454;100 mA
36.7658819071751;-0.79925537109375;-0.021527099609375;4.5399999885376;455;100 mA
36.7758819071498;-0.79925537109375;-0.0215362548828125;4.54999998851235;456;100 mA
36.7858819071246;-0.7989501953125;-0.021514892578125;4.55999998848711;457;100 mA
36.7958819070993;-0.7989501953125;-0.0215362548828125;4.56999998846186;458;100 mA
36.8058819070741;-0.79925537109375;-0.021533203125;4.57999998843661;459;100 mA
36.8158819070488;-0.7989501953125;-0.0215423583984375;4.58999998841136;460;100 mA
36.8258819070236;-0.7989501953125;-0.0215850830078125;4.59999998838612;461;100 mA
36.8358819069983;-0.79925537109375;-0.0215484619140625;4.60999998836087;462;100 mA
36.8458819069731;-0.79925537109375;-0.0215576171875;4.61999998833562;463;100 mA
36.8558819069478;-0.79925537109375;-0.02154541015625;4.62999998831037;464;100 mA
36.8658819069226;-0.79925537109375;-0.0215301513671875;4.63999998828513;465;100 mA
36.8758819068973;-0.79986572265625;-0.0215087890625;4.64999998825988;466;100 mA
36.8858819068721;-0.799560546875;-0.021441650390625;4.65999998823463;467;100 mA
36.8958819068469;-0.79925537109375;-0.0214141845703125;4.66999998820938;468;100 mA
36.9058819068216;-0.79986572265625;-0.021405029296875;4.67999998818414;469;100 mA
36.9158819067964;-0.79925537109375;-0.021405029296875;4.68999998815889;470;100 mA
36.9258819067711;-0.79925537109375;-0.021429443359375;4.69999998813364;471;100 mA
36.9358819067459;-0.79925537109375;-0.0213897705078125;4.70999998810839;472;100 mA
36.9458819067206;-0.79925537109375;-0.0213531494140625;4.71999998808315;473;100 mA
36.9558819066954;-0.79925537109375;-0.021295166015625;4.7299999880579;474;100 mA
36.9658819066701;-0.79925537109375;-0.02125244140625;4.73999998803265;475;100 mA
36.9758819066449;-0.79925537109375;-0.0212432861328125;4.7499999880074;476;100 mA
36.9858819066196;-0.79925537109375;-0.0212371826171875;4.75999998798216;477;100 mA
36.9958819065944;-0.79925537109375;-0.0212310791015625;4.76999998795691;478;100 mA
37.0058819065691;-0.7989501953125;-0.021209716796875;4.77999998793166;479;100 mA
37.0158819065439;-0.799560546875;-0.021197509765625;4.78999998790641;480;100 mA
37.0258819065186;-0.79925537109375;-0.0212310791015625;4.79999998788116;481;100 mA
37.0358819064934;-0.79925537109375;-0.021185302734375;4.80999998785592;482;100 mA
37.0458819064681;-0.79925537109375;-0.02115478515625;4.81999998783067;483;100 mA
37.0558819064429;-0.7989501953125;-0.021160888671875;4.82999998780542;484;100 mA
37.0658819064176;-0.79925537109375;-0.021136474609375;4.83999998778017;485;100 mA
37.0758819063924;-0.799560546875;-0.0211090087890625;4.84999998775493;486;100 mA
37.0858819063671;-0.799560546875;-0.02110595703125;4.85999998772968;487;100 mA
37.0958819063419;-0.799560546875;-0.02108154296875;4.86999998770443;488;100 mA
37.1058819063167;-0.79864501953125;-0.02110595703125;4.87999998767918;489;100 mA
37.1158819062914;-0.79925537109375;-0.0210968017578125;4.88999998765394;490;100 mA
37.1258819062662;-0.7989501953125;-0.0211090087890625;4.89999998762869;491;100 mA
37.1358819062409;-0.7989501953125;-0.0211181640625;4.90999998760344;492;100 mA
37.1458819062157;-0.7989501953125;-0.021112060546875;4.91999998757819;493;100 mA
37.1558819061904;-0.79925537109375;-0.021173095703125;4.92999998755295;494;100 mA
37.1658819061652;-0.799560546875;-0.021124267578125;4.9399999875277;495;100 mA
37.1758819061399;-0.79925537109375;-0.0211700439453125;4.94999998750245;496;100 mA
37.1858819061147;-0.799560546875;-0.0210968017578125;4.9599999874772;497;100 mA
37.1958819060894;-0.79986572265625;-0.021075439453125;4.96999998745196;498;100 mA
37.2058819060642;-0.799560546875;-0.0210906982421875;4.97999998742671;499;100 mA
37.2158819060389;-0.7989501953125;-0.0210662841796875;4.98999998740146;500;100 mA
37.2258819060137;-0.79925537109375;-0.0210662841796875;4.99999998737621;501;100 mA
37.2358819059884;-0.79925537109375;-0.0210601806640625;5.00999998735097;502;100 mA
37.2458819059632;-0.79925537109375;-0.021038818359375;5.01999998732572;503;100 mA
37.2558819059379;-0.7989501953125;-0.021026611328125;5.02999998730047;504;100 mA
37.2658819059127;-0.79925537109375;-0.0210052490234375;5.03999998727522;505;100 mA
37.2758819058874;-0.7989501953125;-0.0210296630859375;5.04999998724998;506;100 mA
37.2858819058622;-0.79925537109375;-0.020977783203125;5.05999998722473;507;100 mA
37.2958819058369;-0.7989501953125;-0.0210235595703125;5.06999998719948;508;100 mA
37.3058819058117;-0.799560546875;-0.0209564208984375;5.07999998717423;509;100 mA
37.3158819057865;-0.79925537109375;-0.0209197998046875;5.08999998714899;510;100 mA
37.3258819057612;-0.7989501953125;-0.02091064453125;5.09999998712374;511;100 mA
37.335881905736;-0.7989501953125;-0.0208953857421875;5.10999998709849;512;100 mA
37.3458819057107;-0.79925537109375;-0.0209136962890625;5.11999998707324;513;100 mA
37.3558819056855;-0.79925537109375;-0.0209228515625;5.129999987048;514;100 mA
37.3658819056602;-0.7989501953125;-0.0208740234375;5.13999998702275;515;100 mA
37.375881905635;-0.79925537109375;-0.0208770751953125;5.1499999869975;516;100 mA
37.3858819056097;-0.7989501953125;-0.020843505859375;5.15999998697225;517;100 mA
37.3958819055845;-0.79925537109375;-0.020867919921875;5.169999986947;518;100 mA
37.4058819055592;-0.7989501953125;-0.0208709716796875;5.17999998692176;519;100 mA
37.415881905534;-0.7989501953125;-0.02088623046875;5.18999998689651;520;100 mA
37.4258819055087;-0.79925537109375;-0.02088623046875;5.19999998687126;521;100 mA
37.4358819054835;-0.79864501953125;-0.0208740234375;5.20999998684601;522;100 mA
37.4458819054582;-0.79986572265625;-0.0208648681640625;5.21999998682077;523;100 mA
37.455881905433;-0.799560546875;-0.0208465576171875;5.22999998679552;524;100 mA
37.4658819054077;-0.79864501953125;-0.0208160400390625;5.23999998677027;525;100 mA
37.4758819053825;-0.79925537109375;-0.0208465576171875;5.24999998674502;526;100 mA
37.4858819053572;-0.79864501953125;-0.0208038330078125;5.25999998671978;527;100 mA
37.495881905332;-0.79864501953125;-0.02080078125;5.26999998669453;528;100 mA
37.5058819053068;-0.79925537109375;-0.0208038330078125;5.27999998666928;529;100 mA
37.5158819052815;-0.79925537109375;-0.020843505859375;5.28999998664403;530;100 mA
37.5258819052563;-0.7989501953125;-0.020806884765625;5.29999998661879;531;100 mA
37.535881905231;-0.79925537109375;-0.0207672119140625;5.30999998659354;532;100 mA
37.5458819052058;-0.799560546875;-0.020758056640625;5.31999998656829;533;100 mA
37.5558819051805;-0.79864501953125;-0.0207183837890625;5.32999998654304;534;100 mA
37.5658819051553;-0.79925537109375;-0.0206817626953125;5.3399999865178;535;100 mA
37.57588190513;-0.79925537109375;-0.0206787109375;5.34999998649255;536;100 mA
37.5858819051048;-0.799560546875;-0.02066650390625;5.3599999864673;537;100 mA
37.5958819050795;-0.79925537109375;-0.0206451416015625;5.36999998644205;538;100 mA
37.6058819050543;-0.79925537109375;-0.02064208984375;5.37999998641681;539;100 mA
37.615881905029;-0.79925537109375;-0.0206268310546875;5.38999998639156;540;100 mA
37.6258819050038;-0.7989501953125;-0.020635986328125;5.39999998636631;541;100 mA
37.6358819049785;-0.79925537109375;-0.020599365234375;5.40999998634106;542;100 mA
37.6458819049533;-0.79925537109375;-0.02059326171875;5.41999998631582;543;100 mA
37.655881904928;-0.79925537109375;-0.0206024169921875;5.42999998629057;544;100 mA
37.6658819049028;-0.7989501953125;-0.0205780029296875;5.43999998626532;545;100 mA
37.6758819048775;-0.79864501953125;-0.020599365234375;5.44999998624007;546;100 mA
37.6858819048523;-0.7989501953125;-0.0205169677734375;5.45999998621483;547;100 mA
37.695881904827;-0.7989501953125;-0.0204925537109375;5.46999998618958;548;100 mA
37.7058819048018;-0.7989501953125;-0.0205352783203125;5.47999998616433;549;100 mA
37.7158819047766;-0.799560546875;-0.0205413818359375;5.48999998613908;550;100 mA
37.7258819047513;-0.799560546875;-0.0205230712890625;5.49999998611383;551;100 mA
37.7358819047261;-0.79925537109375;-0.0205322265625;5.50999998608859;552;100 mA
37.7458819047008;-0.79864501953125;-0.02052001953125;5.51999998606334;553;100 mA
37.7558819046756;-0.79925537109375;-0.020556640625;5.52999998603809;554;100 mA
37.7658819046503;-0.79925537109375;-0.0205322265625;5.53999998601284;555;100 mA
37.7758819046251;-0.79925537109375;-0.0206024169921875;5.5499999859876;556;100 mA
37.7858819045998;-0.7989501953125;-0.0205291748046875;5.55999998596235;557;100 mA
37.7958819045746;-0.79925537109375;-0.0205078125;5.5699999859371;558;100 mA
37.8058819045493;-0.79864501953125;-0.0205413818359375;5.57999998591185;559;100 mA
37.8158819045241;-0.79925537109375;-0.0205291748046875;5.58999998588661;560;100 mA
37.8258819044988;-0.79925537109375;-0.0205322265625;5.59999998586136;561;100 mA
37.8358819044736;-0.79864501953125;-0.020550537109375;5.60999998583611;562;100 mA
37.8458819044483;-0.79925537109375;-0.020556640625;5.61999998581086;563;100 mA
37.8558819044231;-0.7989501953125;-0.0205780029296875;5.62999998578562;564;100 mA
37.8658819043978;-0.79925537109375;-0.020556640625;5.63999998576037;565;100 mA
37.8758819043726;-0.7989501953125;-0.020587158203125;5.64999998573512;566;100 mA
37.8858819043473;-0.79925537109375;-0.0205291748046875;5.65999998570987;567;100 mA
37.8958819043221;-0.79925537109375;-0.020538330078125;5.66999998568463;568;100 mA
37.9058819042968;-0.79925537109375;-0.020501708984375;5.67999998565938;569;100 mA
37.9158819042716;-0.7989501953125;-0.0204681396484375;5.68999998563413;570;100 mA
37.9258819042464;-0.7989501953125;-0.020465087890625;5.69999998560888;571;100 mA
37.9358819042211;-0.79864501953125;-0.0204345703125;5.70999998558364;572;100 mA
37.9458819041959;-0.7989501953125;-0.0204345703125;5.71999998555839;573;100 mA
37.9558819041706;-0.799560546875;-0.020428466796875;5.72999998553314;574;100 mA
37.9658819041454;-0.79925537109375;-0.0204345703125;5.73999998550789;575;100 mA
37.9758819041201;-0.7989501953125;-0.02042236328125;5.74999998548265;576;100 mA
37.9858819040949;-0.79925537109375;-0.020416259765625;5.7599999854574;577;100 mA
37.9958819040696;-0.7989501953125;-0.020428466796875;5.76999998543215;578;100 mA
38.0058819040444;-0.7989501953125;-0.02039794921875;5.7799999854069;579;100 mA
38.0158819040191;-0.79925537109375;-0.0203826904296875;5.78999998538166;580;100 mA
38.0258819039939;-0.799560546875;-0.0203857421875;5.79999998535641;581;100 mA
38.0358819039686;-0.79925537109375;-0.0203521728515625;5.80999998533116;582;100 mA
38.0458819039434;-0.7989501953125;-0.0203887939453125;5.81999998530591;583;100 mA
38.0558819039181;-0.79925537109375;-0.02041015625;5.82999998528066;584;100 mA
38.0658819038929;-0.7989501953125;-0.020379638671875;5.83999998525542;585;100 mA
38.0758819038676;-0.799560546875;-0.0204132080078125;5.84999998523017;586;100 mA
38.0858819038424;-0.799560546875;-0.0203521728515625;5.85999998520492;587;100 mA
38.0958819038171;-0.799560546875;-0.02037353515625;5.86999998517967;588;100 mA
38.1058819037919;-0.79925537109375;-0.0203826904296875;5.87999998515443;589;100 mA
38.1158819037666;-0.79986572265625;-0.0204132080078125;5.88999998512918;590;100 mA
38.1258819037414;-0.79986572265625;-0.02041015625;5.89999998510393;591;100 mA
38.1358819037162;-0.79925537109375;-0.0203857421875;5.90999998507868;592;100 mA
38.1458819036909;-0.79925537109375;-0.0204193115234375;5.91999998505344;593;100 mA
38.1558819036657;-0.79925537109375;-0.020379638671875;5.92999998502819;594;100 mA
38.1658819036404;-0.79925537109375;-0.020361328125;5.93999998500294;595;100 mA
38.1758819036152;-0.799560546875;-0.02039794921875;5.94999998497769;596;100 mA
38.1858819035899;-0.7989501953125;-0.0203643798828125;5.95999998495245;597;100 mA
38.1958819035647;-0.79925537109375;-0.0203460693359375;5.9699999849272;598;100 mA
38.2058819035394;-0.7989501953125;-0.0203033447265625;5.97999998490195;599;100 mA
38.2158819035142;-0.79986572265625;-0.020263671875;5.9899999848767;600;100 mA
38.2258819034889;-0.799560546875;-0.020245361328125;5.99999998485146;601;100 mA
38.2358819034637;-0.7989501953125;-0.0202423095703125;6.00999998482621;602;100 mA
38.2458819034384;-0.79925537109375;-0.0202239990234375;6.01999998480096;603;100 mA
38.2558819034132;-0.799560546875;-0.0201995849609375;6.02999998477571;604;100 mA
38.2658819033879;-0.799560546875;-0.0201568603515625;6.03999998475047;605;100 mA
38.2758819033627;-0.799560546875;-0.02015380859375;6.04999998472522;606;100 mA
38.2858819033374;-0.7989501953125;-0.02010498046875;6.05999998469997;607;100 mA
38.2958819033122;-0.79925537109375;-0.020111083984375;6.06999998467472;608;100 mA
38.3058819032869;-0.79925537109375;-0.0200897216796875;6.07999998464948;609;100 mA
38.3158819032617;-0.79925537109375;-0.0200958251953125;6.08999998462423;610;100 mA
38.3258819032364;-0.79925537109375;-0.0201141357421875;6.09999998459898;611;100 mA
38.3358819032112;-0.79925537109375;-0.0201019287109375;6.10999998457373;612;100 mA
38.345881903186;-0.7989501953125;-0.0201019287109375;6.11999998454849;613;100 mA
38.3558819031607;-0.79864501953125;-0.0201385498046875;6.12999998452324;614;100 mA
38.3658819031355;-0.7989501953125;-0.0201385498046875;6.13999998449799;615;100 mA
38.3758819031102;-0.79925537109375;-0.020159912109375;6.14999998447274;616;100 mA
38.385881903085;-0.79925537109375;-0.020172119140625;6.1599999844475;617;100 mA
38.3958819030597;-0.7989501953125;-0.020196533203125;6.16999998442225;618;100 mA
38.4058819030345;-0.79925537109375;-0.0201995849609375;6.179999984397;619;100 mA
38.4158819030092;-0.79925537109375;-0.0201812744140625;6.18999998437175;620;100 mA
38.425881902984;-0.799560546875;-0.0202239990234375;6.1999999843465;621;100 mA
38.4358819029587;-0.79925537109375;-0.0202178955078125;6.20999998432126;622;100 mA
38.4458819029335;-0.799560546875;-0.0202056884765625;6.21999998429601;623;100 mA
38.4558819029082;-0.7989501953125;-0.0202239990234375;6.22999998427076;624;100 mA
38.465881902883;-0.79925537109375;-0.0201995849609375;6.23999998424551;625;100 mA
38.4758819028577;-0.799560546875;-0.0202117919921875;6.24999998422027;626;100 mA
38.4858819028325;-0.79986572265625;-0.0201934814453125;6.25999998419502;627;100 mA
38.4958819028072;-0.7989501953125;-0.020263671875;6.26999998416977;628;100 mA
38.505881902782;-0.799560546875;-0.020220947265625;6.27999998414452;629;100 mA
38.5158819027567;-0.79925537109375;-0.0202239990234375;6.28999998411928;630;100 mA
38.5258819027315;-0.79925537109375;-0.0201995849609375;6.29999998409403;631;100 mA
38.5358819027063;-0.79925537109375;-0.020196533203125;6.30999998406878;632;100 mA
38.545881902681;-0.79925537109375;-0.020220947265625;6.31999998404353;633;100 mA
38.5558819026558;-0.79925537109375;-0.0202545166015625;6.32999998401829;634;100 mA
38.5658819026305;-0.79925537109375;-0.02021484375;6.33999998399304;635;100 mA
38.5758819026053;-0.79925537109375;-0.0202117919921875;6.34999998396779;636;100 mA
38.58588190258;-0.79925537109375;-0.0201812744140625;6.35999998394254;637;100 mA
38.5958819025548;-0.79925537109375;-0.0201904296875;6.3699999839173;638;100 mA
38.6058819025295;-0.7989501953125;-0.0201812744140625;6.37999998389205;639;100 mA
38.6158819025043;-0.799560546875;-0.0201751708984375;6.3899999838668;640;100 mA
38.625881902479;-0.7989501953125;-0.020172119140625;6.39999998384155;641;100 mA
38.6358819024538;-0.799560546875;-0.0201263427734375;6.40999998381631;642;100 mA
38.6458819024285;-0.79925537109375;-0.0201171875;6.41999998379106;643;100 mA
38.6558819024033;-0.79925537109375;-0.0201019287109375;6.42999998376581;644;100 mA
38.665881902378;-0.79925537109375;-0.020111083984375;6.43999998374056;645;100 mA
38.6758819023528;-0.799560546875;-0.020123291015625;6.44999998371532;646;100 mA
38.6858819023275;-0.7989501953125;-0.0200927734375;6.45999998369007;647;100 mA
38.6958819023023;-0.7989501953125;-0.020098876953125;6.46999998366482;648;100 mA
38.705881902277;-0.79925537109375;-0.0201080322265625;6.47999998363957;649;100 mA
38.7158819022518;-0.79925537109375;-0.0201263427734375;6.48999998361433;650;100 mA
38.7258819022265;-0.799560546875;-0.0201568603515625;6.49999998358908;651;100 mA
38.7358819022013;-0.7989501953125;-0.0201568603515625;6.50999998356383;652;100 mA
38.7458819021761;-0.79925537109375;-0.0201812744140625;6.51999998353858;653;100 mA
38.7558819021508;-0.79925537109375;-0.020166015625;6.52999998351333;654;100 mA
38.7658819021256;-0.79986572265625;-0.0201385498046875;6.53999998348809;655;100 mA
38.7758819021003;-0.79925537109375;-0.0201446533203125;6.54999998346284;656;100 mA
38.7858819020751;-0.7989501953125;-0.0201446533203125;6.55999998343759;657;100 mA
38.7958819020498;-0.79925537109375;-0.0201324462890625;6.56999998341234;658;100 mA
38.8058819020246;-0.799560546875;-0.02010498046875;6.5799999833871;659;100 mA
38.8158819019993;-0.79925537109375;-0.0200897216796875;6.58999998336185;660;100 mA
38.8258819019741;-0.799560546875;-0.0200958251953125;6.5999999833366;661;100 mA
38.8358819019488;-0.79925537109375;-0.0201080322265625;6.60999998331135;662;100 mA
38.8458819019236;-0.799560546875;-0.0201171875;6.61999998328611;663;100 mA
38.8558819018983;-0.79925537109375;-0.02012939453125;6.62999998326086;664;100 mA
38.8658819018731;-0.7989501953125;-0.0200927734375;6.63999998323561;665;100 mA
38.8758819018478;-0.7989501953125;-0.020074462890625;6.64999998321036;666;100 mA
38.8858819018226;-0.79986572265625;-0.0200592041015625;6.65999998318512;667;100 mA
38.8958819017973;-0.7989501953125;-0.0200653076171875;6.66999998315987;668;100 mA
38.9058819017721;-0.7989501953125;-0.0200714111328125;6.67999998313462;669;100 mA
38.9158819017468;-0.79925537109375;-0.02005615234375;6.68999998310937;670;100 mA
38.9258819017216;-0.79925537109375;-0.0200531005859375;6.69999998308413;671;100 mA
38.9358819016963;-0.79925537109375;-0.0200347900390625;6.70999998305888;672;100 mA
38.9458819016711;-0.79833984375;-0.020025634765625;6.71999998303363;673;100 mA
38.9558819016459;-0.79925537109375;-0.020037841796875;6.72999998300838;674;100 mA
38.9658819016206;-0.79925537109375;-0.0200286865234375;6.73999998298314;675;100 mA
38.9758819015954;-0.79925537109375;-0.0200225830078125;6.74999998295789;676;100 mA
38.9858819015701;-0.79925537109375;-0.020037841796875;6.75999998293264;677;100 mA
38.9958819015449;-0.799560546875;-0.0199920654296875;6.76999998290739;678;100 mA
39.0058819015196;-0.79925537109375;-0.019989013671875;6.77999998288215;679;100 mA
39.0158819014944;-0.79986572265625;-0.019976806640625;6.7899999828569;680;100 mA
39.0258819014691;-0.7989501953125;-0.0200347900390625;6.79999998283165;681;100 mA
39.0358819014439;-0.79925537109375;-0.0200042724609375;6.8099999828064;682;100 mA
39.0458819014186;-0.79925537109375;-0.01995849609375;6.81999998278116;683;100 mA
39.0558819013934;-0.79925537109375;-0.0199371337890625;6.82999998275591;684;100 mA
39.0658819013681;-0.7989501953125;-0.019952392578125;6.83999998273066;685;100 mA
39.0758819013429;-0.79925537109375;-0.0199615478515625;6.84999998270541;686;100 mA
39.0858819013176;-0.799560546875;-0.01995849609375;6.85999998268016;687;100 mA
39.0958819012924;-0.7989501953125;-0.019970703125;6.86999998265492;688;100 mA
39.1058819012671;-0.7989501953125;-0.0199859619140625;6.87999998262967;689;100 mA
39.1158819012419;-0.79925537109375;-0.0199493408203125;6.88999998260442;690;100 mA
39.1258819012166;-0.79925537109375;-0.0199554443359375;6.89999998257917;691;100 mA
39.1358819011914;-0.79925537109375;-0.01995849609375;6.90999998255393;692;100 mA
39.1458819011661;-0.79925537109375;-0.019989013671875;6.91999998252868;693;100 mA
39.1558819011409;-0.79864501953125;-0.02000732421875;6.92999998250343;694;100 mA
39.1658819011157;-0.79864501953125;-0.019976806640625;6.93999998247818;695;100 mA
39.1758819010904;-0.79925537109375;-0.020001220703125;6.94999998245294;696;100 mA
39.1858819010652;-0.79925537109375;-0.019989013671875;6.95999998242769;697;100 mA
39.1958819010399;-0.7989501953125;-0.0199981689453125;6.96999998240244;698;100 mA
39.2058819010147;-0.79925537109375;-0.0200164794921875;6.97999998237719;699;100 mA
39.2158819009894;-0.79925537109375;-0.0199981689453125;6.98999998235195;700;100 mA
39.2258819009642;-0.7989501953125;-0.020013427734375;6.9999999823267;701;100 mA
39.2358819009389;-0.799560546875;-0.019989013671875;7.00999998230145;702;100 mA
39.2458819009137;-0.79986572265625;-0.0199859619140625;7.0199999822762;703;100 mA
39.2558819008884;-0.79986572265625;-0.0199737548828125;7.02999998225096;704;100 mA
39.2658819008632;-0.79925537109375;-0.0199798583984375;7.03999998222571;705;100 mA
39.2758819008379;-0.79925537109375;-0.0199798583984375;7.04999998220046;706;100 mA
39.2858819008127;-0.799560546875;-0.0199432373046875;7.05999998217521;707;100 mA
39.2958819007874;-0.79925537109375;-0.0199676513671875;7.06999998214997;708;100 mA
39.3058819007622;-0.799560546875;-0.019927978515625;7.07999998212472;709;100 mA
39.3158819007369;-0.79986572265625;-0.01993408203125;7.08999998209947;710;100 mA
39.3258819007117;-0.79925537109375;-0.0199188232421875;7.09999998207422;711;100 mA
39.3358819006864;-0.79925537109375;-0.01990966796875;7.10999998204898;712;100 mA
39.3458819006612;-0.799560546875;-0.019842529296875;7.11999998202373;713;100 mA
39.3558819006359;-0.79925537109375;-0.0198333740234375;7.12999998199848;714;100 mA
39.3658819006107;-0.7989501953125;-0.019805908203125;7.13999998197323;715;100 mA
39.3758819005855;-0.79925537109375;-0.0198028564453125;7.14999998194799;716;100 mA
39.3858819005602;-0.79925537109375;-0.019830322265625;7.15999998192274;717;100 mA
39.395881900535;-0.79925537109375;-0.0198455810546875;7.16999998189749;718;100 mA
39.4058819005097;-0.799560546875;-0.0198150634765625;7.17999998187224;719;100 mA
39.4158819004845;-0.799560546875;-0.0197967529296875;7.189999981847;720;100 mA
39.4258819004592;-0.799560546875;-0.0197845458984375;7.19999998182175;721;100 mA
39.435881900434;-0.7989501953125;-0.01981201171875;7.2099999817965;722;100 mA
39.4458819004087;-0.79925537109375;-0.0198028564453125;7.21999998177125;723;100 mA
39.4558819003835;-0.79925537109375;-0.01983642578125;7.229999981746;724;100 mA
39.4658819003582;-0.79925537109375;-0.0198516845703125;7.23999998172076;725;100 mA
39.475881900333;-0.799560546875;-0.019842529296875;7.24999998169551;726;100 mA
39.4858819003077;-0.7989501953125;-0.0198486328125;7.25999998167026;727;100 mA
39.4958819002825;-0.7989501953125;-0.0198333740234375;7.26999998164501;728;100 mA
39.5058819002572;-0.79925537109375;-0.0198150634765625;7.27999998161977;729;100 mA
39.515881900232;-0.7989501953125;-0.0197906494140625;7.28999998159452;730;100 mA
39.5258819002067;-0.79925537109375;-0.0197662353515625;7.29999998156927;731;100 mA
39.5358819001815;-0.79925537109375;-0.019775390625;7.30999998154402;732;100 mA
39.5458819001562;-0.799560546875;-0.0197662353515625;7.31999998151878;733;100 mA
39.555881900131;-0.8001708984375;-0.019793701171875;7.32999998149353;734;100 mA
39.5658819001058;-0.7989501953125;-0.0197723388671875;7.33999998146828;735;100 mA
39.5758819000805;-0.79986572265625;-0.0197967529296875;7.34999998144303;736;100 mA
39.5858819000553;-0.7989501953125;-0.019805908203125;7.35999998141779;737;100 mA
39.59588190003;-0.799560546875;-0.019793701171875;7.36999998139254;738;100 mA
39.6058819000048;-0.79925537109375;-0.019805908203125;7.37999998136729;739;100 mA
39.6158818999795;-0.79925537109375;-0.01978759765625;7.38999998134204;740;100 mA
39.6258818999543;-0.7989501953125;-0.0198089599609375;7.3999999813168;741;100 mA
39.635881899929;-0.799560546875;-0.019781494140625;7.40999998129155;742;100 mA
39.6458818999038;-0.79925537109375;-0.0197509765625;7.4199999812663;743;100 mA
39.6558818998785;-0.799560546875;-0.0197509765625;7.42999998124105;744;100 mA
39.6658818998533;-0.79864501953125;-0.019744873046875;7.43999998121581;745;100 mA
39.675881899828;-0.7989501953125;-0.0197540283203125;7.44999998119056;746;100 mA
39.6858818998028;-0.79925537109375;-0.0197174072265625;7.45999998116531;747;100 mA
39.6958818997775;-0.79864501953125;-0.019708251953125;7.46999998114006;748;100 mA
39.7058818997523;-0.799560546875;-0.01971435546875;7.47999998111482;749;100 mA
39.715881899727;-0.7989501953125;-0.019696044921875;7.48999998108957;750;100 mA
39.7258818997018;-0.79925537109375;-0.0196746826171875;7.49999998106432;751;100 mA
39.7358818996765;-0.7989501953125;-0.0196533203125;7.50999998103907;752;100 mA
39.7458818996513;-0.7989501953125;-0.01966552734375;7.51999998101383;753;100 mA
39.755881899626;-0.799560546875;-0.0196563720703125;7.52999998098858;754;100 mA
39.7658818996008;-0.79925537109375;-0.0196319580078125;7.53999998096333;755;100 mA
39.7758818995756;-0.7989501953125;-0.0196533203125;7.54999998093808;756;100 mA
39.7858818995503;-0.799560546875;-0.0196685791015625;7.55999998091283;757;100 mA
39.7958818995251;-0.79925537109375;-0.0197174072265625;7.56999998088759;758;100 mA
39.8058818994998;-0.79925537109375;-0.0197418212890625;7.57999998086234;759;100 mA
39.8158818994746;-0.799560546875;-0.019732666015625;7.58999998083709;760;100 mA
39.8258818994493;-0.79833984375;-0.019744873046875;7.59999998081184;761;100 mA
39.8358818994241;-0.7989501953125;-0.019708251953125;7.6099999807866;762;100 mA
39.8458818993988;-0.79925537109375;-0.0197265625;7.61999998076135;763;100 mA
39.8558818993736;-0.79925537109375;-0.019744873046875;7.6299999807361;764;100 mA
39.8658818993483;-0.799560546875;-0.0197784423828125;7.63999998071085;765;100 mA
39.8758818993231;-0.7989501953125;-0.0198211669921875;7.64999998068561;766;100 mA
39.8858818992978;-0.8001708984375;-0.019793701171875;7.65999998066036;767;100 mA
39.8958818992726;-0.79864501953125;-0.0198394775390625;7.66999998063511;768;100 mA
39.9058818992473;-0.79925537109375;-0.019830322265625;7.67999998060986;769;100 mA
39.9158818992221;-0.79986572265625;-0.019866943359375;7.68999998058462;770;100 mA
39.9258818991968;-0.79925537109375;-0.019842529296875;7.69999998055937;771;100 mA
39.9358818991716;-0.79925537109375;-0.0198638916015625;7.70999998053412;772;100 mA
39.9458818991463;-0.79925537109375;-0.0198455810546875;7.71999998050887;773;100 mA
39.9558818991211;-0.79986572265625;-0.0198211669921875;7.72999998048363;774;100 mA
39.9658818990958;-0.79925537109375;-0.0198089599609375;7.73999998045838;775;100 mA
39.9758818990706;-0.79925537109375;-0.0197845458984375;7.74999998043313;776;100 mA
39.9858818990454;-0.7989501953125;-0.019805908203125;7.75999998040788;777;100 mA
39.9958818990201;-0.799560546875;-0.0197967529296875;7.76999998038264;778;100 mA
40.0058818989949;-0.799560546875;-0.0197540283203125;7.77999998035739;779;100 mA
40.0158818989696;-0.799560546875;-0.019732666015625;7.78999998033214;780;100 mA
40.0258818989444;-0.799560546875;-0.019720458984375;7.79999998030689;781;100 mA
40.0358818989191;-0.79925537109375;-0.019744873046875;7.80999998028165;782;100 mA
40.0458818988939;-0.799560546875;-0.0197357177734375;7.8199999802564;783;100 mA
40.0558818988686;-0.79925537109375;-0.0197784423828125;7.82999998023115;784;100 mA
40.0658818988434;-0.79986572265625;-0.0197540283203125;7.8399999802059;785;100 mA
40.0758818988181;-0.79925537109375;-0.0197357177734375;7.84999998018066;786;100 mA
40.0858818987929;-0.79925537109375;-0.019744873046875;7.85999998015541;787;100 mA
40.0958818987676;-0.79925537109375;-0.019696044921875;7.86999998013016;788;100 mA
40.1058818987424;-0.79925537109375;-0.0197021484375;7.87999998010491;789;100 mA
40.1158818987171;-0.79864501953125;-0.0196929931640625;7.88999998007966;790;100 mA
40.1258818986919;-0.79925537109375;-0.0196441650390625;7.89999998005442;791;100 mA
40.1358818986666;-0.7989501953125;-0.01962890625;7.90999998002917;792;100 mA
40.1458818986414;-0.79925537109375;-0.01962890625;7.91999998000392;793;100 mA
40.1558818986161;-0.7989501953125;-0.019659423828125;7.92999997997867;794;100 mA
40.1658818985909;-0.79833984375;-0.0196685791015625;7.93999997995343;795;100 mA
40.1758818985656;-0.79986572265625;-0.019696044921875;7.94999997992818;796;100 mA
40.1858818985404;-0.7989501953125;-0.01973876953125;7.95999997990293;797;100 mA
40.1958818985152;-0.79925537109375;-0.0197235107421875;7.96999997987768;798;100 mA
40.2058818984899;-0.79925537109375;-0.0197113037109375;7.97999997985244;799;100 mA
40.2158818984647;-0.79864501953125;-0.01973876953125;7.98999997982719;800;100 mA
40.2258818984394;-0.8001708984375;-0.019757080078125;7.99999997980194;801;100 mA
40.2358818984142;-0.79925537109375;-0.019732666015625;8.00999997977669;802;100 mA
40.2458818983889;-0.7989501953125;-0.0196990966796875;8.01999997975145;803;100 mA
40.2558818983637;-0.7989501953125;-0.0197021484375;8.0299999797262;804;100 mA
40.2658818983384;-0.79925537109375;-0.0196929931640625;8.03999997970095;805;100 mA
40.2758818983132;-0.79986572265625;-0.0197174072265625;8.0499999796757;806;100 mA
40.2858818982879;-0.79925537109375;-0.0197174072265625;8.05999997965046;807;100 mA
40.2958818982627;-0.799560546875;-0.019671630859375;8.06999997962521;808;100 mA
40.3058818982374;-0.79925537109375;-0.019671630859375;8.07999997959996;809;100 mA
40.3158818982122;-0.799560546875;-0.0196319580078125;8.08999997957471;810;100 mA
40.3258818981869;-0.799560546875;-0.01964111328125;8.09999997954947;811;100 mA
40.3358818981617;-0.79925537109375;-0.019610595703125;8.10999997952422;812;100 mA
40.3458818981364;-0.79864501953125;-0.01961669921875;8.11999997949897;813;100 mA
40.3558818981112;-0.7989501953125;-0.0196044921875;8.12999997947372;814;100 mA
40.3658818980859;-0.7989501953125;-0.0195709228515625;8.13999997944848;815;100 mA
40.3758818980607;-0.79925537109375;-0.0195587158203125;8.14999997942323;816;100 mA
40.3858818980354;-0.79925537109375;-0.019561767578125;8.15999997939798;817;100 mA
40.3958818980102;-0.7989501953125;-0.0195709228515625;8.16999997937273;818;100 mA
40.405881897985;-0.79925537109375;-0.019586181640625;8.17999997934749;819;100 mA
40.4158818979597;-0.79925537109375;-0.01959228515625;8.18999997932224;820;100 mA
40.4258818979345;-0.79986572265625;-0.019647216796875;8.19999997929699;821;100 mA
40.4358818979092;-0.79925537109375;-0.01961669921875;8.20999997927174;822;100 mA
40.445881897884;-0.7989501953125;-0.0196044921875;8.2199999792465;823;100 mA
40.4558818978587;-0.7989501953125;-0.019610595703125;8.22999997922125;824;100 mA
40.4658818978335;-0.79925537109375;-0.0196563720703125;8.239999979196;825;100 mA
40.4758818978082;-0.79925537109375;-0.0196624755859375;8.24999997917075;826;100 mA
40.485881897783;-0.799560546875;-0.0196563720703125;8.2599999791455;827;100 mA
40.4958818977577;-0.79986572265625;-0.019671630859375;8.26999997912026;828;100 mA
40.5058818977325;-0.79925537109375;-0.0196929931640625;8.27999997909501;829;100 mA
40.5158818977072;-0.79925537109375;-0.0196929931640625;8.28999997906976;830;100 mA
40.525881897682;-0.7989501953125;-0.0196868896484375;8.29999997904451;831;100 mA
40.5358818976567;-0.79925537109375;-0.01971435546875;8.30999997901927;832;100 mA
40.5458818976315;-0.79925537109375;-0.01971435546875;8.31999997899402;833;100 mA
40.5558818976062;-0.7989501953125;-0.0197052001953125;8.32999997896877;834;100 mA
40.565881897581;-0.79925537109375;-0.01971435546875;8.33999997894352;835;100 mA
40.5758818975557;-0.799560546875;-0.019732666015625;8.34999997891828;836;100 mA
40.5858818975305;-0.799560546875;-0.0197601318359375;8.35999997889303;837;100 mA
40.5958818975053;-0.7989501953125;-0.0197479248046875;8.36999997886778;838;100 mA
40.60588189748;-0.7989501953125;-0.0197052001953125;8.37999997884253;839;100 mA
40.6158818974548;-0.79925537109375;-0.0196990966796875;8.38999997881729;840;100 mA
40.6258818974295;-0.79925537109375;-0.0196929931640625;8.39999997879204;841;100 mA
40.6358818974043;-0.79864501953125;-0.0197052001953125;8.40999997876679;842;100 mA
40.645881897379;-0.79925537109375;-0.0196563720703125;8.41999997874154;843;100 mA
40.6558818973538;-0.79986572265625;-0.0196868896484375;8.4299999787163;844;100 mA
40.6658818973285;-0.7989501953125;-0.019659423828125;8.43999997869105;845;100 mA
40.6758818973033;-0.799560546875;-0.0196258544921875;8.4499999786658;846;100 mA
40.685881897278;-0.79833984375;-0.019610595703125;8.45999997864055;847;100 mA
40.6958818972528;-0.79864501953125;-0.019610595703125;8.46999997861531;848;100 mA
40.7058818972275;-0.7989501953125;-0.0196197509765625;8.47999997859006;849;100 mA
40.7158818972023;-0.7989501953125;-0.019622802734375;8.48999997856481;850;100 mA
40.725881897177;-0.79925537109375;-0.019610595703125;8.49999997853956;851;100 mA
40.7358818971518;-0.79925537109375;-0.019586181640625;8.50999997851432;852;100 mA
40.7458818971265;-0.799560546875;-0.0196044921875;8.51999997848907;853;100 mA
40.7558818971013;-0.79864501953125;-0.0196685791015625;8.52999997846382;854;100 mA
40.765881897076;-0.79925537109375;-0.0196990966796875;8.53999997843857;855;100 mA
40.7758818970508;-0.79925537109375;-0.019671630859375;8.54999997841333;856;100 mA
40.7858818970255;-0.79925537109375;-0.0196807861328125;8.55999997838808;857;100 mA
40.7958818970003;-0.79864501953125;-0.0196380615234375;8.56999997836283;858;100 mA
40.8058818969751;-0.7989501953125;-0.019671630859375;8.57999997833758;859;100 mA
40.8158818969498;-0.79925537109375;-0.019677734375;8.58999997831233;860;100 mA
40.8258818969246;-0.79986572265625;-0.0196807861328125;8.59999997828709;861;100 mA
40.8358818968993;-0.7989501953125;-0.0196868896484375;8.60999997826184;862;100 mA
40.8458818968741;-0.799560546875;-0.019659423828125;8.61999997823659;863;100 mA
40.8558818968488;-0.7989501953125;-0.0196685791015625;8.62999997821134;864;100 mA
40.8658818968236;-0.7989501953125;-0.0196807861328125;8.6399999781861;865;100 mA
40.8758818967983;-0.79925537109375;-0.01968994140625;8.64999997816085;866;100 mA
40.8858818967731;-0.79925537109375;-0.019683837890625;8.6599999781356;867;100 mA
40.8958818967478;-0.7989501953125;-0.019696044921875;8.66999997811035;868;100 mA
40.9058818967226;-0.79986572265625;-0.0197113037109375;8.67999997808511;869;100 mA
40.9158818966973;-0.799560546875;-0.0196868896484375;8.68999997805986;870;100 mA
40.9258818966721;-0.79925537109375;-0.0197296142578125;8.69999997803461;871;100 mA
40.9358818966468;-0.799560546875;-0.019696044921875;8.70999997800936;872;100 mA
40.9458818966216;-0.79833984375;-0.019708251953125;8.71999997798412;873;100 mA
40.9558818965963;-0.799560546875;-0.0196868896484375;8.72999997795887;874;100 mA
40.9658818965711;-0.7989501953125;-0.0196533203125;8.73999997793362;875;100 mA
40.9758818965458;-0.79864501953125;-0.0196807861328125;8.74999997790837;876;100 mA
40.9858818965206;-0.7989501953125;-0.019659423828125;8.75999997788313;877;100 mA
40.9958818964953;-0.79925537109375;-0.019671630859375;8.76999997785788;878;100 mA
41.0058818964701;-0.79864501953125;-0.0196502685546875;8.77999997783263;879;100 mA
41.0158818964449;-0.79925537109375;-0.019610595703125;8.78999997780738;880;100 mA
41.0258818964196;-0.79925537109375;-0.01962890625;8.79999997778214;881;100 mA
41.0358818963944;-0.79925537109375;-0.0196044921875;8.80999997775689;882;100 mA
41.0458818963691;-0.79864501953125;-0.0195770263671875;8.81999997773164;883;100 mA
41.0558818963439;-0.79925537109375;-0.019580078125;8.82999997770639;884;100 mA
41.0658818963186;-0.7989501953125;-0.0195892333984375;8.83999997768115;885;100 mA
41.0758818962934;-0.79925537109375;-0.0195953369140625;8.8499999776559;886;100 mA
41.0858818962681;-0.79864501953125;-0.01961669921875;8.85999997763065;887;100 mA
41.0958818962429;-0.799560546875;-0.01964111328125;8.8699999776054;888;100 mA
41.1058818962176;-0.79925537109375;-0.0196014404296875;8.87999997758016;889;100 mA
41.1158818961924;-0.7989501953125;-0.019610595703125;8.88999997755491;890;100 mA
41.1258818961671;-0.7989501953125;-0.0196258544921875;8.89999997752966;891;100 mA
41.1358818961419;-0.79864501953125;-0.01962890625;8.90999997750441;892;100 mA
41.1458818961166;-0.799560546875;-0.0196563720703125;8.91999997747916;893;100 mA
41.1558818960914;-0.79864501953125;-0.019635009765625;8.92999997745392;894;100 mA
41.1658818960661;-0.79925537109375;-0.0196563720703125;8.93999997742867;895;100 mA
41.1758818960409;-0.7989501953125;-0.0196990966796875;8.94999997740342;896;100 mA
41.1858818960156;-0.799560546875;-0.0196929931640625;8.95999997737817;897;100 mA
41.1958818959904;-0.799560546875;-0.0196990966796875;8.96999997735293;898;100 mA
41.2058818959651;-0.799560546875;-0.0196746826171875;8.97999997732768;899;100 mA
41.2158818959399;-0.799560546875;-0.0196533203125;8.98999997730243;900;100 mA
41.2258818959147;-0.79925537109375;-0.0196746826171875;8.99999997727718;901;100 mA
41.2358818958894;-0.799560546875;-0.0196868896484375;9.00999997725194;902;100 mA
41.2458818958642;-0.79986572265625;-0.0196533203125;9.01999997722669;903;100 mA
41.2558818958389;-0.79925537109375;-0.019677734375;9.02999997720144;904;100 mA
41.2658818958137;-0.7989501953125;-0.01964111328125;9.03999997717619;905;100 mA
41.2758818957884;-0.799560546875;-0.019598388671875;9.04999997715095;906;100 mA
41.2858818957632;-0.79925537109375;-0.0196197509765625;9.0599999771257;907;100 mA
41.2958818957379;-0.7989501953125;-0.0195770263671875;9.06999997710045;908;100 mA
41.3058818957127;-0.7989501953125;-0.01959228515625;9.0799999770752;909;100 mA
41.3158818956874;-0.799560546875;-0.0195953369140625;9.08999997704996;910;100 mA
41.3258818956622;-0.79925537109375;-0.019580078125;9.09999997702471;911;100 mA
41.3358818956369;-0.799560546875;-0.0195556640625;9.10999997699946;912;100 mA
41.3458818956117;-0.7989501953125;-0.0195404052734375;9.11999997697421;913;100 mA
41.3558818955864;-0.7989501953125;-0.019549560546875;9.12999997694897;914;100 mA
41.3658818955612;-0.799560546875;-0.019537353515625;9.13999997692372;915;100 mA
41.3758818955359;-0.799560546875;-0.0195281982421875;9.14999997689847;916;100 mA
41.3858818955107;-0.79864501953125;-0.0195343017578125;9.15999997687322;917;100 mA
41.3958818954854;-0.7989501953125;-0.0195068359375;9.16999997684798;918;100 mA
41.4058818954602;-0.79833984375;-0.0195068359375;9.17999997682273;919;100 mA
41.4158818954349;-0.799560546875;-0.01949462890625;9.18999997679748;920;100 mA
41.4258818954097;-0.799560546875;-0.0195281982421875;9.19999997677223;921;100 mA
41.4358818953845;-0.79925537109375;-0.01951904296875;9.20999997674699;922;100 mA
41.4458818953592;-0.7989501953125;-0.0195159912109375;9.21999997672174;923;100 mA
41.455881895334;-0.799560546875;-0.01951904296875;9.22999997669649;924;100 mA
41.4658818953087;-0.7989501953125;-0.019549560546875;9.23999997667124;925;100 mA
41.4758818952835;-0.799560546875;-0.0196044921875;9.249999976646;926;100 mA
41.4858818952582;-0.79925537109375;-0.01961669921875;9.25999997662075;927;100 mA
41.495881895233;-0.79925537109375;-0.01962890625;9.2699999765955;928;100 mA
41.5058818952077;-0.79925537109375;-0.0196502685546875;9.27999997657025;929;100 mA
41.5158818951825;-0.7989501953125;-0.0196502685546875;9.289999976545;930;100 mA
41.5258818951572;-0.799560546875;-0.0196533203125;9.29999997651976;931;100 mA
41.535881895132;-0.79864501953125;-0.0196533203125;9.30999997649451;932;100 mA
41.5458818951067;-0.7989501953125;-0.0196807861328125;9.31999997646926;933;100 mA
41.5558818950815;-0.79925537109375;-0.019677734375;9.32999997644401;934;100 mA
41.5658818950562;-0.7989501953125;-0.019659423828125;9.33999997641877;935;100 mA
41.575881895031;-0.799560546875;-0.019647216796875;9.34999997639352;936;100 mA
41.5858818950057;-0.79925537109375;-0.01964111328125;9.35999997636827;937;100 mA
41.5958818949805;-0.79925537109375;-0.01962890625;9.36999997634302;938;100 mA
41.6058818949552;-0.79925537109375;-0.0196075439453125;9.37999997631778;939;100 mA
41.61588189493;-0.7989501953125;-0.0195770263671875;9.38999997629253;940;100 mA
41.6258818949048;-0.79925537109375;-0.01956787109375;9.39999997626728;941;100 mA
41.6358818948795;-0.79925537109375;-0.019537353515625;9.40999997624203;942;100 mA
41.6458818948543;-0.7989501953125;-0.0195404052734375;9.41999997621679;943;100 mA
41.655881894829;-0.79925537109375;-0.01954345703125;9.42999997619154;944;100 mA
41.6658818948038;-0.799560546875;-0.0195587158203125;9.43999997616629;945;100 mA
41.6758818947785;-0.7989501953125;-0.019573974609375;9.44999997614104;946;100 mA
41.6858818947533;-0.7989501953125;-0.019573974609375;9.4599999761158;947;100 mA
41.695881894728;-0.7989501953125;-0.0195526123046875;9.46999997609055;948;100 mA
41.7058818947028;-0.79925537109375;-0.0195556640625;9.4799999760653;949;100 mA
41.7158818946775;-0.79925537109375;-0.019586181640625;9.48999997604005;950;100 mA
41.7258818946523;-0.79925537109375;-0.0196258544921875;9.49999997601481;951;100 mA
41.735881894627;-0.79925537109375;-0.01962890625;9.50999997598956;952;100 mA
41.7458818946018;-0.79925537109375;-0.01964111328125;9.51999997596431;953;100 mA
41.7558818945765;-0.79925537109375;-0.0195953369140625;9.52999997593906;954;100 mA
41.7658818945513;-0.7989501953125;-0.0196014404296875;9.53999997591382;955;100 mA
41.775881894526;-0.79925537109375;-0.019586181640625;9.54999997588857;956;100 mA
41.7858818945008;-0.79925537109375;-0.019622802734375;9.55999997586332;957;100 mA
41.7958818944755;-0.79925537109375;-0.01961669921875;9.56999997583807;958;100 mA
41.8058818944503;-0.7989501953125;-0.01961669921875;9.57999997581283;959;100 mA
41.815881894425;-0.799560546875;-0.0195892333984375;9.58999997578758;960;100 mA
41.8258818943998;-0.799560546875;-0.0196075439453125;9.59999997576233;961;100 mA
41.8358818943746;-0.799560546875;-0.01962890625;9.60999997573708;962;100 mA
41.8458818943493;-0.79864501953125;-0.01961669921875;9.61999997571183;963;100 mA
41.8558818943241;-0.79925537109375;-0.0196441650390625;9.62999997568659;964;100 mA
41.8658818942988;-0.79925537109375;-0.0196380615234375;9.63999997566134;965;100 mA
41.8758818942736;-0.7989501953125;-0.0196258544921875;9.64999997563609;966;100 mA
41.8858818942483;-0.7989501953125;-0.0196258544921875;9.65999997561084;967;100 mA
41.8958818942231;-0.79864501953125;-0.01962890625;9.6699999755856;968;100 mA
41.9058818941978;-0.79925537109375;-0.0196563720703125;9.67999997556035;969;100 mA
41.9158818941726;-0.79925537109375;-0.0196502685546875;9.6899999755351;970;100 mA
41.9258818941473;-0.7989501953125;-0.019659423828125;9.69999997550985;971;100 mA
41.9358818941221;-0.79925537109375;-0.0196075439453125;9.70999997548461;972;100 mA
41.9458818940968;-0.7989501953125;-0.019598388671875;9.71999997545936;973;100 mA
41.9558818940716;-0.7989501953125;-0.01962890625;9.72999997543411;974;100 mA
41.9658818940463;-0.79986572265625;-0.01959228515625;9.73999997540886;975;100 mA
41.9758818940211;-0.7989501953125;-0.0195953369140625;9.74999997538362;976;100 mA
41.9858818939958;-0.799560546875;-0.019598388671875;9.75999997535837;977;100 mA
41.9958818939706;-0.799560546875;-0.0195770263671875;9.76999997533312;978;100 mA
42.0058818939453;-0.7989501953125;-0.01959228515625;9.77999997530787;979;100 mA
42.0158818939201;-0.7989501953125;-0.019573974609375;9.78999997528263;980;100 mA
42.0258818938948;-0.79925537109375;-0.0195892333984375;9.79999997525738;981;100 mA
42.0358818938696;-0.79925537109375;-0.0195953369140625;9.80999997523213;982;100 mA
42.0458818938444;-0.7989501953125;-0.01959228515625;9.81999997520688;983;100 mA
42.0558818938191;-0.79925537109375;-0.0196014404296875;9.82999997518164;984;100 mA
42.0658818937939;-0.79986572265625;-0.01961669921875;9.83999997515639;985;100 mA
42.0758818937686;-0.79925537109375;-0.0196197509765625;9.84999997513114;986;100 mA
42.0858818937434;-0.7989501953125;-0.0196258544921875;9.85999997510589;987;100 mA
42.0958818937181;-0.79925537109375;-0.0196380615234375;9.86999997508065;988;100 mA
42.1058818936929;-0.79925537109375;-0.01964111328125;9.8799999750554;989;100 mA
42.1158818936676;-0.79925537109375;-0.01961669921875;9.88999997503015;990;100 mA
42.1258818936424;-0.7989501953125;-0.0196441650390625;9.8999999750049;991;100 mA
42.1358818936171;-0.79925537109375;-0.0196685791015625;9.90999997497966;992;100 mA
42.1458818935919;-0.79925537109375;-0.0196807861328125;9.91999997495441;993;100 mA
42.1558818935666;-0.7989501953125;-0.019683837890625;9.92999997492916;994;100 mA
42.1658818935414;-0.7989501953125;-0.0196929931640625;9.93999997490391;995;100 mA
42.1758818935161;-0.799560546875;-0.0197052001953125;9.94999997487866;996;100 mA
42.1858818934909;-0.7989501953125;-0.01966552734375;9.95999997485342;997;100 mA
42.1958818934656;-0.79925537109375;-0.0196929931640625;9.96999997482817;998;100 mA
42.2058818934404;-0.79925537109375;-0.0196868896484375;9.97999997480292;999;100 mA
42.2158818934151;-0.799560546875;-0.0197021484375;9.98999997477767;1000;100 mA
