Time (s);WE(1).Potential (V);WE(1).Current (A);Corrected time (s);Index;Current range
72.8761258160055;-0.9002685546875;-0.318145751953125;0;1;100 mA
72.8861258159802;-0.89996337890625;-0.235931396484375;0.00999999997475243;2;100 mA
72.896125815955;-0.8990478515625;-0.19586181640625;0.0199999999495049;3;100 mA
72.9061258159297;-0.89935302734375;-0.171112060546875;0.0299999999242573;4;100 mA
72.9161258159045;-0.89935302734375;-0.153533935546875;0.0399999998990097;5;100 mA
72.9261258158792;-0.89935302734375;-0.140655517578125;0.0499999998737621;6;100 mA
72.936125815854;-0.89935302734375;-0.13043212890625;0.0599999998485146;7;100 mA
72.9461258158287;-0.89935302734375;-0.12225341796875;0.069999999823267;8;100 mA
72.9561258158035;-0.899658203125;-0.11541748046875;0.0799999997980194;9;100 mA
72.9661258157782;-0.89935302734375;-0.109710693359375;0.0899999997727718;10;100 mA
72.976125815753;-0.8990478515625;-0.104736328125;0.0999999997475243;11;100 mA
72.9861258157277;-0.89935302734375;-0.100311279296875;0.109999999722277;12;100 mA
72.9961258157025;-0.899658203125;-0.0963134765625;0.119999999697029;13;100 mA
73.0061258156773;-0.89935302734375;-0.092803955078125;0.129999999671782;14;100 mA
73.016125815652;-0.89996337890625;-0.089752197265625;0.139999999646534;15;100 mA
73.0261258156268;-0.89935302734375;-0.08697509765625;0.149999999621286;16;100 mA
73.0361258156015;-0.899658203125;-0.084381103515625;0.159999999596039;17;100 mA
73.0461258155763;-0.89935302734375;-0.08203125;0.169999999570791;18;100 mA
73.056125815551;-0.899658203125;-0.079833984375;0.179999999545544;19;100 mA
73.0661258155258;-0.89935302734375;-0.0777587890625;0.189999999520296;20;100 mA
73.0761258155005;-0.8990478515625;-0.075958251953125;0.199999999495049;21;100 mA
73.0861258154753;-0.89935302734375;-0.074310302734375;0.209999999469801;22;100 mA
73.09612581545;-0.89935302734375;-0.072662353515625;0.219999999444553;23;100 mA
73.1061258154248;-0.899658203125;-0.07122802734375;0.229999999419306;24;100 mA
73.1161258153995;-0.89935302734375;-0.0697021484375;0.239999999394058;25;100 mA
73.1261258153743;-0.89996337890625;-0.068450927734375;0.249999999368811;26;100 mA
73.136125815349;-0.899658203125;-0.067108154296875;0.259999999343563;27;100 mA
73.1461258153238;-0.89935302734375;-0.065948486328125;0.269999999318316;28;100 mA
73.1561258152985;-0.89935302734375;-0.0648193359375;0.279999999293068;29;100 mA
73.1661258152733;-0.89935302734375;-0.063751220703125;0.28999999926782;30;100 mA
73.176125815248;-0.899658203125;-0.06268310546875;0.299999999242573;31;100 mA
73.1861258152228;-0.89935302734375;-0.061737060546875;0.309999999217325;32;100 mA
73.1961258151975;-0.8990478515625;-0.060821533203125;0.319999999192078;33;100 mA
73.2061258151723;-0.89874267578125;-0.0599365234375;0.32999999916683;34;100 mA
73.2161258151471;-0.89935302734375;-0.05908203125;0.339999999141583;35;100 mA
73.2261258151218;-0.89935302734375;-0.058258056640625;0.349999999116335;36;100 mA
73.2361258150966;-0.899658203125;-0.057464599609375;0.359999999091087;37;100 mA
73.2461258150713;-0.89935302734375;-0.05682373046875;0.36999999906584;38;100 mA
73.2561258150461;-0.8990478515625;-0.056060791015625;0.379999999040592;39;100 mA
73.2661258150208;-0.899658203125;-0.055389404296875;0.389999999015345;40;100 mA
73.2761258149956;-0.89935302734375;-0.0546875;0.399999998990097;41;100 mA
73.2861258149703;-0.89874267578125;-0.05401611328125;0.40999999896485;42;100 mA
73.2961258149451;-0.899658203125;-0.053375244140625;0.419999998939602;43;100 mA
73.3061258149198;-0.899658203125;-0.05279541015625;0.429999998914354;44;100 mA
73.3161258148946;-0.899658203125;-0.052276611328125;0.439999998889107;45;100 mA
73.3261258148693;-0.89935302734375;-0.051788330078125;0.449999998863859;46;100 mA
73.3361258148441;-0.899658203125;-0.05120849609375;0.459999998838612;47;100 mA
73.3461258148188;-0.899658203125;-0.050689697265625;0.469999998813364;48;100 mA
73.3561258147936;-0.89935302734375;-0.0501708984375;0.479999998788116;49;100 mA
73.3661258147683;-0.899658203125;-0.0496490478515625;0.489999998762869;50;100 mA
73.3761258147431;-0.8990478515625;-0.049163818359375;0.499999998737621;51;100 mA
73.3861258147178;-0.89935302734375;-0.0487945556640625;0.509999998712374;52;100 mA
73.3961258146926;-0.89935302734375;-0.0483184814453125;0.519999998687126;53;100 mA
73.4061258146673;-0.8990478515625;-0.047894287109375;0.529999998661879;54;100 mA
73.4161258146421;-0.89874267578125;-0.0474945068359375;0.539999998636631;55;100 mA
73.4261258146169;-0.8990478515625;-0.0471282958984375;0.549999998611383;56;100 mA
73.4361258145916;-0.89935302734375;-0.046673583984375;0.559999998586136;57;100 mA
73.4461258145664;-0.899658203125;-0.0463104248046875;0.569999998560888;58;100 mA
73.4561258145411;-0.89935302734375;-0.0459686279296875;0.579999998535641;59;100 mA
73.4661258145159;-0.89935302734375;-0.0456298828125;0.589999998510393;60;100 mA
73.4761258144906;-0.89874267578125;-0.0452911376953125;0.599999998485146;61;100 mA
73.4861258144654;-0.89935302734375;-0.0449737548828125;0.609999998459898;62;100 mA
73.4961258144401;-0.899658203125;-0.0446044921875;0.61999999843465;63;100 mA
73.5061258144149;-0.899658203125;-0.044268798828125;0.629999998409403;64;100 mA
73.5161258143896;-0.8990478515625;-0.0439361572265625;0.639999998384155;65;100 mA
73.5261258143644;-0.899658203125;-0.043609619140625;0.649999998358908;66;100 mA
73.5361258143391;-0.89935302734375;-0.0432342529296875;0.65999999833366;67;100 mA
73.5461258143139;-0.8990478515625;-0.042938232421875;0.669999998308413;68;100 mA
73.5561258142886;-0.899658203125;-0.0426300048828125;0.679999998283165;69;100 mA
73.5661258142634;-0.89935302734375;-0.042413330078125;0.689999998257917;70;100 mA
73.5761258142381;-0.89874267578125;-0.04208984375;0.69999999823267;71;100 mA
73.5861258142129;-0.89935302734375;-0.04189453125;0.709999998207422;72;100 mA
73.5961258141876;-0.8990478515625;-0.04158935546875;0.719999998182175;73;100 mA
73.6061258141624;-0.8990478515625;-0.0413360595703125;0.729999998156927;74;100 mA
73.6161258141371;-0.8990478515625;-0.041046142578125;0.73999999813168;75;100 mA
73.6261258141119;-0.89935302734375;-0.04080810546875;0.749999998106432;76;100 mA
73.6361258140867;-0.8990478515625;-0.0405242919921875;0.759999998081184;77;100 mA
73.6461258140614;-0.89935302734375;-0.0403289794921875;0.769999998055937;78;100 mA
73.6561258140362;-0.89935302734375;-0.04005126953125;0.779999998030689;79;100 mA
73.6661258140109;-0.8990478515625;-0.039801025390625;0.789999998005442;80;100 mA
73.6761258139857;-0.8990478515625;-0.0395721435546875;0.799999997980194;81;100 mA
73.6861258139604;-0.8990478515625;-0.039385986328125;0.809999997954947;82;100 mA
73.6961258139352;-0.8990478515625;-0.0391387939453125;0.819999997929699;83;100 mA
73.7061258139099;-0.89935302734375;-0.0389984130859375;0.829999997904451;84;100 mA
73.7161258138847;-0.899658203125;-0.0387115478515625;0.839999997879204;85;100 mA
73.7261258138594;-0.899658203125;-0.0385833740234375;0.849999997853956;86;100 mA
73.7361258138342;-0.89935302734375;-0.0383270263671875;0.859999997828709;87;100 mA
73.7461258138089;-0.89935302734375;-0.03814697265625;0.869999997803461;88;100 mA
73.7561258137837;-0.899658203125;-0.0379547119140625;0.879999997778214;89;100 mA
73.7661258137584;-0.899658203125;-0.0377685546875;0.889999997752966;90;100 mA
73.7761258137332;-0.89935302734375;-0.0375518798828125;0.899999997727718;91;100 mA
73.7861258137079;-0.899658203125;-0.0374053955078125;0.909999997702471;92;100 mA
73.7961258136827;-0.89935302734375;-0.03724365234375;0.919999997677223;93;100 mA
73.8061258136574;-0.8990478515625;-0.03707275390625;0.929999997651976;94;100 mA
73.8161258136322;-0.899658203125;-0.0369293212890625;0.939999997626728;95;100 mA
73.826125813607;-0.8990478515625;-0.0367919921875;0.949999997601481;96;100 mA
73.8361258135817;-0.899658203125;-0.0366302490234375;0.959999997576233;97;100 mA
73.8461258135565;-0.89874267578125;-0.03648681640625;0.969999997550985;98;100 mA
73.8561258135312;-0.89996337890625;-0.03629150390625;0.979999997525738;99;100 mA
73.866125813506;-0.89935302734375;-0.036187744140625;0.98999999750049;100;100 mA
73.8761258134807;-0.899658203125;-0.036029052734375;0.999999997475243;101;100 mA
73.8861258134555;-0.899658203125;-0.035888671875;1.00999999745;102;100 mA
73.8961258134302;-0.89935302734375;-0.035711669921875;1.01999999742475;103;100 mA
73.906125813405;-0.89935302734375;-0.035528564453125;1.0299999973995;104;100 mA
73.9161258133797;-0.89935302734375;-0.0353851318359375;1.03999999737425;105;100 mA
73.9261258133545;-0.8990478515625;-0.035296630859375;1.049999997349;106;100 mA
73.9361258133292;-0.89935302734375;-0.0351226806640625;1.05999999732376;107;100 mA
73.946125813304;-0.89935302734375;-0.0349700927734375;1.06999999729851;108;100 mA
73.9561258132787;-0.8990478515625;-0.034820556640625;1.07999999727326;109;100 mA
73.9661258132535;-0.899658203125;-0.0347137451171875;1.08999999724801;110;100 mA
73.9761258132282;-0.8990478515625;-0.0345611572265625;1.09999999722277;111;100 mA
73.986125813203;-0.89935302734375;-0.0344512939453125;1.10999999719752;112;100 mA
73.9961258131777;-0.8990478515625;-0.034283447265625;1.11999999717227;113;100 mA
74.0061258131525;-0.8990478515625;-0.034149169921875;1.12999999714702;114;100 mA
74.0161258131272;-0.8990478515625;-0.0340240478515625;1.13999999712178;115;100 mA
74.026125813102;-0.899658203125;-0.0339324951171875;1.14999999709653;116;100 mA
74.0361258130768;-0.89935302734375;-0.0337921142578125;1.15999999707128;117;100 mA
74.0461258130515;-0.8990478515625;-0.03370361328125;1.16999999704603;118;100 mA
74.0561258130263;-0.89935302734375;-0.033563232421875;1.17999999702079;119;100 mA
74.066125813001;-0.899658203125;-0.03350830078125;1.18999999699554;120;100 mA
74.0761258129758;-0.899658203125;-0.0333709716796875;1.19999999697029;121;100 mA
74.0861258129505;-0.899658203125;-0.0332763671875;1.20999999694504;122;100 mA
74.0961258129253;-0.89935302734375;-0.033111572265625;1.2199999969198;123;100 mA
74.1061258129;-0.89935302734375;-0.03310546875;1.22999999689455;124;100 mA
74.1161258128748;-0.899658203125;-0.0329437255859375;1.2399999968693;125;100 mA
74.1261258128495;-0.899658203125;-0.03287353515625;1.24999999684405;126;100 mA
74.1361258128243;-0.89935302734375;-0.0327880859375;1.25999999681881;127;100 mA
74.146125812799;-0.8990478515625;-0.0327362060546875;1.26999999679356;128;100 mA
74.1561258127738;-0.899658203125;-0.0326507568359375;1.27999999676831;129;100 mA
74.1661258127485;-0.8990478515625;-0.03258056640625;1.28999999674306;130;100 mA
74.1761258127233;-0.899658203125;-0.03238525390625;1.29999999671782;131;100 mA
74.186125812698;-0.89996337890625;-0.032330322265625;1.30999999669257;132;100 mA
74.1961258126728;-0.89935302734375;-0.0321929931640625;1.31999999666732;133;100 mA
74.2061258126475;-0.89935302734375;-0.032171630859375;1.32999999664207;134;100 mA
74.2161258126223;-0.89935302734375;-0.0320037841796875;1.33999999661683;135;100 mA
74.226125812597;-0.89935302734375;-0.0319427490234375;1.34999999659158;136;100 mA
74.2361258125718;-0.89996337890625;-0.0318115234375;1.35999999656633;137;100 mA
74.2461258125466;-0.8990478515625;-0.0317352294921875;1.36999999654108;138;100 mA
74.2561258125213;-0.89996337890625;-0.031646728515625;1.37999999651583;139;100 mA
74.2661258124961;-0.89935302734375;-0.0315460205078125;1.38999999649059;140;100 mA
74.2761258124708;-0.899658203125;-0.031463623046875;1.39999999646534;141;100 mA
74.2861258124456;-0.8990478515625;-0.031396484375;1.40999999644009;142;100 mA
74.2961258124203;-0.8990478515625;-0.0312774658203125;1.41999999641484;143;100 mA
74.3061258123951;-0.899658203125;-0.031256103515625;1.4299999963896;144;100 mA
74.3161258123698;-0.8990478515625;-0.031134033203125;1.43999999636435;145;100 mA
74.3261258123446;-0.8990478515625;-0.03109130859375;1.4499999963391;146;100 mA
74.3361258123193;-0.899658203125;-0.0309539794921875;1.45999999631385;147;100 mA
74.3461258122941;-0.89996337890625;-0.030859375;1.46999999628861;148;100 mA
74.3561258122688;-0.89874267578125;-0.03074951171875;1.47999999626336;149;100 mA
74.3661258122436;-0.89935302734375;-0.030645751953125;1.48999999623811;150;100 mA
74.3761258122183;-0.89935302734375;-0.030560302734375;1.49999999621286;151;100 mA
74.3861258121931;-0.899658203125;-0.03052978515625;1.50999999618762;152;100 mA
74.3961258121678;-0.89874267578125;-0.030413818359375;1.51999999616237;153;100 mA
74.4061258121426;-0.89935302734375;-0.0303436279296875;1.52999999613712;154;100 mA
74.4161258121173;-0.89935302734375;-0.030242919921875;1.53999999611187;155;100 mA
74.4261258120921;-0.899658203125;-0.03016357421875;1.54999999608663;156;100 mA
74.4361258120668;-0.8990478515625;-0.030084228515625;1.55999999606138;157;100 mA
74.4461258120416;-0.89996337890625;-0.030035400390625;1.56999999603613;158;100 mA
74.4561258120164;-0.899658203125;-0.02991943359375;1.57999999601088;159;100 mA
74.4661258119911;-0.8990478515625;-0.0298248291015625;1.58999999598564;160;100 mA
74.4761258119659;-0.89935302734375;-0.0297576904296875;1.59999999596039;161;100 mA
74.4861258119406;-0.899658203125;-0.029681396484375;1.60999999593514;162;100 mA
74.4961258119154;-0.89935302734375;-0.0296112060546875;1.61999999590989;163;100 mA
74.5061258118901;-0.89935302734375;-0.0295562744140625;1.62999999588465;164;100 mA
74.5161258118649;-0.89935302734375;-0.0295440673828125;1.6399999958594;165;100 mA
74.5261258118396;-0.8990478515625;-0.0295166015625;1.64999999583415;166;100 mA
74.5361258118144;-0.8990478515625;-0.0294342041015625;1.6599999958089;167;100 mA
74.5461258117891;-0.8984375;-0.0293426513671875;1.66999999578366;168;100 mA
74.5561258117639;-0.89874267578125;-0.0292510986328125;1.67999999575841;169;100 mA
74.5661258117386;-0.8990478515625;-0.02918701171875;1.68999999573316;170;100 mA
74.5761258117134;-0.899658203125;-0.0291168212890625;1.69999999570791;171;100 mA
74.5861258116881;-0.89874267578125;-0.029058837890625;1.70999999568267;172;100 mA
74.5961258116629;-0.8990478515625;-0.028973388671875;1.71999999565742;173;100 mA
74.6061258116376;-0.899658203125;-0.0289031982421875;1.72999999563217;174;100 mA
74.6161258116124;-0.899658203125;-0.0288604736328125;1.73999999560692;175;100 mA
74.6261258115871;-0.89935302734375;-0.0287628173828125;1.74999999558167;176;100 mA
74.6361258115619;-0.8990478515625;-0.02869873046875;1.75999999555643;177;100 mA
74.6461258115366;-0.89935302734375;-0.02867431640625;1.76999999553118;178;100 mA
74.6561258115114;-0.8990478515625;-0.02857666015625;1.77999999550593;179;100 mA
74.6661258114862;-0.89935302734375;-0.0285400390625;1.78999999548068;180;100 mA
74.6761258114609;-0.89935302734375;-0.0284576416015625;1.79999999545544;181;100 mA
74.6861258114357;-0.89935302734375;-0.028436279296875;1.80999999543019;182;100 mA
74.6961258114104;-0.899658203125;-0.02833251953125;1.81999999540494;183;100 mA
74.7061258113852;-0.899658203125;-0.02830810546875;1.82999999537969;184;100 mA
74.7161258113599;-0.89935302734375;-0.028204345703125;1.83999999535445;185;100 mA
74.7261258113347;-0.89935302734375;-0.0281982421875;1.8499999953292;186;100 mA
74.7361258113094;-0.89935302734375;-0.0281158447265625;1.85999999530395;187;100 mA
74.7461258112842;-0.8990478515625;-0.0281005859375;1.8699999952787;188;100 mA
74.7561258112589;-0.899658203125;-0.0280487060546875;1.87999999525346;189;100 mA
74.7661258112337;-0.89935302734375;-0.0280303955078125;1.88999999522821;190;100 mA
74.7761258112084;-0.8990478515625;-0.0279205322265625;1.89999999520296;191;100 mA
74.7861258111832;-0.89935302734375;-0.0279083251953125;1.90999999517771;192;100 mA
74.7961258111579;-0.8990478515625;-0.0277679443359375;1.91999999515247;193;100 mA
74.8061258111327;-0.899658203125;-0.027789306640625;1.92999999512722;194;100 mA
74.8161258111074;-0.8990478515625;-0.0276763916015625;1.93999999510197;195;100 mA
74.8261258110822;-0.89996337890625;-0.02767333984375;1.94999999507672;196;100 mA
74.8361258110569;-0.89996337890625;-0.0275787353515625;1.95999999505148;197;100 mA
74.8461258110317;-0.8990478515625;-0.02760009765625;1.96999999502623;198;100 mA
74.8561258110065;-0.89935302734375;-0.0274993896484375;1.97999999500098;199;100 mA
74.8661258109812;-0.89935302734375;-0.027490234375;1.98999999497573;200;100 mA
74.876125810956;-0.89935302734375;-0.0274505615234375;1.99999999495049;201;100 mA
74.8861258109307;-0.89935302734375;-0.0274658203125;2.00999999492524;202;100 mA
74.8961258109055;-0.89935302734375;-0.02738037109375;2.01999999489999;203;100 mA
74.9061258108802;-0.89935302734375;-0.0273834228515625;2.02999999487474;204;100 mA
74.916125810855;-0.89935302734375;-0.0272857666015625;2.0399999948495;205;100 mA
74.9261258108297;-0.89935302734375;-0.0272796630859375;2.04999999482425;206;100 mA
74.9361258108045;-0.89935302734375;-0.0271697998046875;2.059999994799;207;100 mA
74.9461258107792;-0.899658203125;-0.0271514892578125;2.06999999477375;208;100 mA
74.956125810754;-0.89935302734375;-0.027056884765625;2.0799999947485;209;100 mA
74.9661258107287;-0.8990478515625;-0.0270233154296875;2.08999999472326;210;100 mA
74.9761258107035;-0.89935302734375;-0.0269195556640625;2.09999999469801;211;100 mA
74.9861258106782;-0.89935302734375;-0.0268951416015625;2.10999999467276;212;100 mA
74.996125810653;-0.899658203125;-0.02679443359375;2.11999999464751;213;100 mA
75.0061258106277;-0.8990478515625;-0.026812744140625;2.12999999462227;214;100 mA
75.0161258106025;-0.8990478515625;-0.0267059326171875;2.13999999459702;215;100 mA
75.0261258105772;-0.89935302734375;-0.0266754150390625;2.14999999457177;216;100 mA
75.036125810552;-0.89935302734375;-0.026629638671875;2.15999999454652;217;100 mA
75.0461258105267;-0.8990478515625;-0.026605224609375;2.16999999452128;218;100 mA
75.0561258105015;-0.89935302734375;-0.026531982421875;2.17999999449603;219;100 mA
75.0661258104763;-0.89935302734375;-0.0265228271484375;2.18999999447078;220;100 mA
75.076125810451;-0.89935302734375;-0.0264404296875;2.19999999444553;221;100 mA
75.0861258104258;-0.89935302734375;-0.0263641357421875;2.20999999442029;222;100 mA
75.0961258104005;-0.8990478515625;-0.026318359375;2.21999999439504;223;100 mA
75.1061258103753;-0.89874267578125;-0.02626953125;2.22999999436979;224;100 mA
75.11612581035;-0.899658203125;-0.026226806640625;2.23999999434454;225;100 mA
75.1261258103248;-0.89935302734375;-0.0261993408203125;2.2499999943193;226;100 mA
75.1361258102995;-0.899658203125;-0.026080322265625;2.25999999429405;227;100 mA
75.1461258102743;-0.8990478515625;-0.0260467529296875;2.2699999942688;228;100 mA
75.156125810249;-0.89874267578125;-0.0260009765625;2.27999999424355;229;100 mA
75.1661258102238;-0.89935302734375;-0.0259735107421875;2.28999999421831;230;100 mA
75.1761258101985;-0.89935302734375;-0.025933837890625;2.29999999419306;231;100 mA
75.1861258101733;-0.8990478515625;-0.02591552734375;2.30999999416781;232;100 mA
75.196125810148;-0.89935302734375;-0.0258453369140625;2.31999999414256;233;100 mA
75.2061258101228;-0.89935302734375;-0.02581787109375;2.32999999411732;234;100 mA
75.2161258100975;-0.8990478515625;-0.0257598876953125;2.33999999409207;235;100 mA
75.2261258100723;-0.89935302734375;-0.0257080078125;2.34999999406682;236;100 mA
75.236125810047;-0.8990478515625;-0.025665283203125;2.35999999404157;237;100 mA
75.2461258100218;-0.89935302734375;-0.02564697265625;2.36999999401633;238;100 mA
75.2561258099965;-0.89874267578125;-0.025604248046875;2.37999999399108;239;100 mA
75.2661258099713;-0.8990478515625;-0.02559814453125;2.38999999396583;240;100 mA
75.2761258099461;-0.8990478515625;-0.025543212890625;2.39999999394058;241;100 mA
75.2861258099208;-0.89935302734375;-0.0255706787109375;2.40999999391533;242;100 mA
75.2961258098956;-0.89935302734375;-0.025494384765625;2.41999999389009;243;100 mA
75.3061258098703;-0.89935302734375;-0.02548828125;2.42999999386484;244;100 mA
75.3161258098451;-0.89935302734375;-0.0253936767578125;2.43999999383959;245;100 mA
75.3261258098198;-0.89935302734375;-0.02537841796875;2.44999999381434;246;100 mA
75.3361258097946;-0.89935302734375;-0.0253326416015625;2.4599999937891;247;100 mA
75.3461258097693;-0.8990478515625;-0.025323486328125;2.46999999376385;248;100 mA
75.3561258097441;-0.899658203125;-0.0253265380859375;2.4799999937386;249;100 mA
75.3661258097188;-0.8990478515625;-0.0253082275390625;2.48999999371335;250;100 mA
75.3761258096936;-0.899658203125;-0.0252044677734375;2.49999999368811;251;100 mA
75.3861258096683;-0.8990478515625;-0.0251800537109375;2.50999999366286;252;100 mA
75.3961258096431;-0.899658203125;-0.025103759765625;2.51999999363761;253;100 mA
75.4061258096178;-0.89935302734375;-0.0251129150390625;2.52999999361236;254;100 mA
75.4161258095926;-0.8990478515625;-0.02501220703125;2.53999999358712;255;100 mA
75.4261258095673;-0.8990478515625;-0.024993896484375;2.54999999356187;256;100 mA
75.4361258095421;-0.89935302734375;-0.02491455078125;2.55999999353662;257;100 mA
75.4461258095168;-0.8990478515625;-0.0248931884765625;2.56999999351137;258;100 mA
75.4561258094916;-0.8990478515625;-0.024810791015625;2.57999999348613;259;100 mA
75.4661258094663;-0.8990478515625;-0.02476806640625;2.58999999346088;260;100 mA
75.4761258094411;-0.8990478515625;-0.0247314453125;2.59999999343563;261;100 mA
75.4861258094159;-0.89935302734375;-0.02471923828125;2.60999999341038;262;100 mA
75.4961258093906;-0.89935302734375;-0.024652099609375;2.61999999338514;263;100 mA
75.5061258093654;-0.89935302734375;-0.024658203125;2.62999999335989;264;100 mA
75.5161258093401;-0.89935302734375;-0.02459716796875;2.63999999333464;265;100 mA
75.5261258093149;-0.89935302734375;-0.024603271484375;2.64999999330939;266;100 mA
75.5361258092896;-0.899658203125;-0.024560546875;2.65999999328415;267;100 mA
75.5461258092644;-0.899658203125;-0.0245391845703125;2.6699999932589;268;100 mA
75.5561258092391;-0.89935302734375;-0.02451171875;2.67999999323365;269;100 mA
75.5661258092139;-0.89935302734375;-0.0244903564453125;2.6899999932084;270;100 mA
75.5761258091886;-0.89935302734375;-0.0244598388671875;2.69999999318316;271;100 mA
75.5861258091634;-0.8990478515625;-0.0244415283203125;2.70999999315791;272;100 mA
75.5961258091381;-0.8990478515625;-0.0244049072265625;2.71999999313266;273;100 mA
75.6061258091129;-0.8984375;-0.0244384765625;2.72999999310741;274;100 mA
75.6161258090876;-0.899658203125;-0.02437744140625;2.73999999308217;275;100 mA
75.6261258090624;-0.8990478515625;-0.024371337890625;2.74999999305692;276;100 mA
75.6361258090371;-0.899658203125;-0.024346923828125;2.75999999303167;277;100 mA
75.6461258090119;-0.899658203125;-0.02435302734375;2.76999999300642;278;100 mA
75.6561258089866;-0.89935302734375;-0.0243194580078125;2.77999999298117;279;100 mA
75.6661258089614;-0.899658203125;-0.02431640625;2.78999999295593;280;100 mA
75.6761258089361;-0.8990478515625;-0.024261474609375;2.79999999293068;281;100 mA
75.6861258089109;-0.8990478515625;-0.0242340087890625;2.80999999290543;282;100 mA
75.6961258088857;-0.89935302734375;-0.024188232421875;2.81999999288018;283;100 mA
75.7061258088604;-0.89935302734375;-0.0241729736328125;2.82999999285494;284;100 mA
75.7161258088352;-0.89996337890625;-0.024169921875;2.83999999282969;285;100 mA
75.7261258088099;-0.89935302734375;-0.024176025390625;2.84999999280444;286;100 mA
75.7361258087847;-0.899658203125;-0.024102783203125;2.85999999277919;287;100 mA
75.7461258087594;-0.89935302734375;-0.0240753173828125;2.86999999275395;288;100 mA
75.7561258087342;-0.8990478515625;-0.024041748046875;2.8799999927287;289;100 mA
75.7661258087089;-0.9002685546875;-0.0240234375;2.88999999270345;290;100 mA
75.7761258086837;-0.89935302734375;-0.024005126953125;2.8999999926782;291;100 mA
75.7861258086584;-0.899658203125;-0.0239654541015625;2.90999999265296;292;100 mA
75.7961258086332;-0.899658203125;-0.02388916015625;2.91999999262771;293;100 mA
75.8061258086079;-0.8990478515625;-0.023883056640625;2.92999999260246;294;100 mA
75.8161258085827;-0.8990478515625;-0.02384033203125;2.93999999257721;295;100 mA
75.8261258085574;-0.899658203125;-0.0238037109375;2.94999999255197;296;100 mA
75.8361258085322;-0.89935302734375;-0.0237945556640625;2.95999999252672;297;100 mA
75.8461258085069;-0.899658203125;-0.023785400390625;2.96999999250147;298;100 mA
75.8561258084817;-0.89935302734375;-0.02374267578125;2.97999999247622;299;100 mA
75.8661258084564;-0.89935302734375;-0.0237548828125;2.98999999245098;300;100 mA
75.8761258084312;-0.899658203125;-0.0237152099609375;2.99999999242573;301;100 mA
75.886125808406;-0.89874267578125;-0.0237457275390625;3.00999999240048;302;100 mA
75.8961258083807;-0.899658203125;-0.02373046875;3.01999999237523;303;100 mA
75.9061258083555;-0.89935302734375;-0.0237335205078125;3.02999999234999;304;100 mA
75.9161258083302;-0.89935302734375;-0.0236968994140625;3.03999999232474;305;100 mA
75.926125808305;-0.8990478515625;-0.0236968994140625;3.04999999229949;306;100 mA
75.9361258082797;-0.8990478515625;-0.023663330078125;3.05999999227424;307;100 mA
75.9461258082545;-0.899658203125;-0.0236419677734375;3.069999992249;308;100 mA
75.9561258082292;-0.899658203125;-0.0236236572265625;3.07999999222375;309;100 mA
75.966125808204;-0.89935302734375;-0.0236114501953125;3.0899999921985;310;100 mA
75.9761258081787;-0.899658203125;-0.0235626220703125;3.09999999217325;311;100 mA
75.9861258081535;-0.89935302734375;-0.023541259765625;3.109999992148;312;100 mA
75.9961258081282;-0.899658203125;-0.0235015869140625;3.11999999212276;313;100 mA
76.006125808103;-0.8990478515625;-0.0235260009765625;3.12999999209751;314;100 mA
76.0161258080777;-0.8990478515625;-0.023455810546875;3.13999999207226;315;100 mA
76.0261258080525;-0.8990478515625;-0.0234832763671875;3.14999999204701;316;100 mA
76.0361258080272;-0.899658203125;-0.0234283447265625;3.15999999202177;317;100 mA
76.046125808002;-0.89935302734375;-0.0234100341796875;3.16999999199652;318;100 mA
76.0561258079767;-0.899658203125;-0.023370361328125;3.17999999197127;319;100 mA
76.0661258079515;-0.89935302734375;-0.023382568359375;3.18999999194602;320;100 mA
76.0761258079262;-0.89996337890625;-0.0234039306640625;3.19999999192078;321;100 mA
76.086125807901;-0.899658203125;-0.0234466552734375;3.20999999189553;322;100 mA
76.0961258078758;-0.899658203125;-0.0233367919921875;3.21999999187028;323;100 mA
76.1061258078505;-0.89935302734375;-0.023345947265625;3.22999999184503;324;100 mA
76.1161258078253;-0.89935302734375;-0.02327880859375;3.23999999181979;325;100 mA
76.1261258078;-0.89935302734375;-0.023297119140625;3.24999999179454;326;100 mA
76.1361258077748;-0.89935302734375;-0.023236083984375;3.25999999176929;327;100 mA
76.1461258077495;-0.8990478515625;-0.0232147216796875;3.26999999174404;328;100 mA
76.1561258077243;-0.89935302734375;-0.0231719970703125;3.2799999917188;329;100 mA
76.166125807699;-0.89996337890625;-0.02314453125;3.28999999169355;330;100 mA
76.1761258076738;-0.89935302734375;-0.0231048583984375;3.2999999916683;331;100 mA
76.1861258076485;-0.89935302734375;-0.0230987548828125;3.30999999164305;332;100 mA
76.1961258076233;-0.89935302734375;-0.0230499267578125;3.31999999161781;333;100 mA
76.206125807598;-0.89935302734375;-0.023095703125;3.32999999159256;334;100 mA
76.2161258075728;-0.89935302734375;-0.0230072021484375;3.33999999156731;335;100 mA
76.2261258075475;-0.89935302734375;-0.023028564453125;3.34999999154206;336;100 mA
76.2361258075223;-0.899658203125;-0.0230133056640625;3.35999999151682;337;100 mA
76.246125807497;-0.89935302734375;-0.0230194091796875;3.36999999149157;338;100 mA
76.2561258074718;-0.89996337890625;-0.02296142578125;3.37999999146632;339;100 mA
76.2661258074465;-0.89935302734375;-0.022967529296875;3.38999999144107;340;100 mA
76.2761258074213;-0.8990478515625;-0.0229248046875;3.39999999141583;341;100 mA
76.286125807396;-0.89996337890625;-0.022918701171875;3.40999999139058;342;100 mA
76.2961258073708;-0.899658203125;-0.0228546142578125;3.41999999136533;343;100 mA
76.3061258073456;-0.89935302734375;-0.022857666015625;3.42999999134008;344;100 mA
76.3161258073203;-0.89935302734375;-0.0228546142578125;3.43999999131483;345;100 mA
76.3261258072951;-0.899658203125;-0.022882080078125;3.44999999128959;346;100 mA
76.3361258072698;-0.89935302734375;-0.022808837890625;3.45999999126434;347;100 mA
76.3461258072446;-0.89935302734375;-0.022808837890625;3.46999999123909;348;100 mA
76.3561258072193;-0.899658203125;-0.0228118896484375;3.47999999121384;349;100 mA
76.3661258071941;-0.899658203125;-0.0227996826171875;3.4899999911886;350;100 mA
76.3761258071688;-0.89935302734375;-0.02276611328125;3.49999999116335;351;100 mA
76.3861258071436;-0.89935302734375;-0.0227691650390625;3.5099999911381;352;100 mA
76.3961258071183;-0.899658203125;-0.02271728515625;3.51999999111285;353;100 mA
76.4061258070931;-0.89935302734375;-0.0227081298828125;3.52999999108761;354;100 mA
76.4161258070678;-0.89935302734375;-0.022686767578125;3.53999999106236;355;100 mA
76.4261258070426;-0.89935302734375;-0.022686767578125;3.54999999103711;356;100 mA
76.4361258070173;-0.8990478515625;-0.022686767578125;3.55999999101186;357;100 mA
76.4461258069921;-0.89935302734375;-0.0227264404296875;3.56999999098662;358;100 mA
76.4561258069668;-0.8990478515625;-0.022674560546875;3.57999999096137;359;100 mA
76.4661258069416;-0.8990478515625;-0.02269287109375;3.58999999093612;360;100 mA
76.4761258069163;-0.89935302734375;-0.022650146484375;3.59999999091087;361;100 mA
76.4861258068911;-0.899658203125;-0.022674560546875;3.60999999088563;362;100 mA
76.4961258068658;-0.89935302734375;-0.0226226806640625;3.61999999086038;363;100 mA
76.5061258068406;-0.8990478515625;-0.022625732421875;3.62999999083513;364;100 mA
76.5161258068154;-0.899658203125;-0.02259521484375;3.63999999080988;365;100 mA
76.5261258067901;-0.8990478515625;-0.02257080078125;3.64999999078464;366;100 mA
76.5361258067649;-0.8990478515625;-0.02255859375;3.65999999075939;367;100 mA
76.5461258067396;-0.899658203125;-0.0225433349609375;3.66999999073414;368;100 mA
76.5561258067144;-0.89935302734375;-0.022528076171875;3.67999999070889;369;100 mA
76.5661258066891;-0.8990478515625;-0.0225128173828125;3.68999999068365;370;100 mA
76.5761258066639;-0.89996337890625;-0.0224761962890625;3.6999999906584;371;100 mA
76.5861258066386;-0.8990478515625;-0.0224700927734375;3.70999999063315;372;100 mA
76.5961258066134;-0.8990478515625;-0.0224334716796875;3.7199999906079;373;100 mA
76.6061258065881;-0.8990478515625;-0.022442626953125;3.72999999058266;374;100 mA
76.6161258065629;-0.899658203125;-0.0223785400390625;3.73999999055741;375;100 mA
76.6261258065376;-0.89935302734375;-0.0223541259765625;3.74999999053216;376;100 mA
76.6361258065124;-0.89935302734375;-0.0223480224609375;3.75999999050691;377;100 mA
76.6461258064871;-0.8990478515625;-0.02232666015625;3.76999999048167;378;100 mA
76.6561258064619;-0.8990478515625;-0.0223114013671875;3.77999999045642;379;100 mA
76.6661258064366;-0.899658203125;-0.0222930908203125;3.78999999043117;380;100 mA
76.6761258064114;-0.8990478515625;-0.0222991943359375;3.79999999040592;381;100 mA
76.6861258063861;-0.89935302734375;-0.0222930908203125;3.80999999038067;382;100 mA
76.6961258063609;-0.8990478515625;-0.0222503662109375;3.81999999035543;383;100 mA
76.7061258063356;-0.899658203125;-0.022259521484375;3.82999999033018;384;100 mA
76.7161258063104;-0.89935302734375;-0.022222900390625;3.83999999030493;385;100 mA
76.7261258062852;-0.8990478515625;-0.02222900390625;3.84999999027968;386;100 mA
76.7361258062599;-0.8990478515625;-0.02220458984375;3.85999999025444;387;100 mA
76.7461258062347;-0.8990478515625;-0.0221954345703125;3.86999999022919;388;100 mA
76.7561258062094;-0.89996337890625;-0.0221710205078125;3.87999999020394;389;100 mA
76.7661258061842;-0.89935302734375;-0.022149658203125;3.88999999017869;390;100 mA
76.7761258061589;-0.89935302734375;-0.0221282958984375;3.89999999015345;391;100 mA
76.7861258061337;-0.89935302734375;-0.0221221923828125;3.9099999901282;392;100 mA
76.7961258061084;-0.89935302734375;-0.02210693359375;3.91999999010295;393;100 mA
76.8061258060832;-0.89996337890625;-0.0221466064453125;3.9299999900777;394;100 mA
76.8161258060579;-0.89935302734375;-0.0220977783203125;3.93999999005246;395;100 mA
76.8261258060327;-0.89935302734375;-0.0221466064453125;3.94999999002721;396;100 mA
76.8361258060074;-0.89935302734375;-0.0221343994140625;3.95999999000196;397;100 mA
76.8461258059822;-0.89935302734375;-0.0221466064453125;3.96999998997671;398;100 mA
76.8561258059569;-0.89996337890625;-0.02210693359375;3.97999998995147;399;100 mA
76.8661258059317;-0.899658203125;-0.0221160888671875;3.98999998992622;400;100 mA
76.8761258059064;-0.8990478515625;-0.0220672607421875;3.99999998990097;401;100 mA
76.8861258058812;-0.89935302734375;-0.0220672607421875;4.00999998987572;402;100 mA
76.8961258058559;-0.8990478515625;-0.0220184326171875;4.01999998985048;403;100 mA
76.9061258058307;-0.89935302734375;-0.0220367431640625;4.02999998982523;404;100 mA
76.9161258058054;-0.899658203125;-0.02200927734375;4.03999998979998;405;100 mA
76.9261258057802;-0.8990478515625;-0.0220184326171875;4.04999998977473;406;100 mA
76.936125805755;-0.8990478515625;-0.021954345703125;4.05999998974949;407;100 mA
76.9461258057297;-0.89935302734375;-0.0219268798828125;4.06999998972424;408;100 mA
76.9561258057045;-0.899658203125;-0.021905517578125;4.07999998969899;409;100 mA
76.9661258056792;-0.899658203125;-0.0219390869140625;4.08999998967374;410;100 mA
76.976125805654;-0.89935302734375;-0.021881103515625;4.0999999896485;411;100 mA
76.9861258056287;-0.89935302734375;-0.02191162109375;4.10999998962325;412;100 mA
76.9961258056035;-0.89935302734375;-0.0218414306640625;4.119999989598;413;100 mA
77.0061258055782;-0.89996337890625;-0.0218536376953125;4.12999998957275;414;100 mA
77.016125805553;-0.899658203125;-0.0218048095703125;4.1399999895475;415;100 mA
77.0261258055277;-0.89935302734375;-0.0217987060546875;4.14999998952226;416;100 mA
77.0361258055025;-0.899658203125;-0.021783447265625;4.15999998949701;417;100 mA
77.0461258054772;-0.89935302734375;-0.02177734375;4.16999998947176;418;100 mA
77.056125805452;-0.899658203125;-0.0217315673828125;4.17999998944651;419;100 mA
77.0661258054267;-0.899658203125;-0.0217529296875;4.18999998942127;420;100 mA
77.0761258054015;-0.89935302734375;-0.0217041015625;4.19999998939602;421;100 mA
77.0861258053762;-0.8990478515625;-0.02171630859375;4.20999998937077;422;100 mA
77.096125805351;-0.8990478515625;-0.0216522216796875;4.21999998934552;423;100 mA
77.1061258053257;-0.89935302734375;-0.021673583984375;4.22999998932028;424;100 mA
77.1161258053005;-0.89935302734375;-0.021649169921875;4.23999998929503;425;100 mA
77.1261258052753;-0.89935302734375;-0.02161865234375;4.24999998926978;426;100 mA
77.13612580525;-0.8990478515625;-0.021600341796875;4.25999998924453;427;100 mA
77.1461258052248;-0.899658203125;-0.0215728759765625;4.26999998921929;428;100 mA
77.1561258051995;-0.89935302734375;-0.0215545654296875;4.27999998919404;429;100 mA
77.1661258051743;-0.89935302734375;-0.0215606689453125;4.28999998916879;430;100 mA
77.176125805149;-0.89935302734375;-0.021527099609375;4.29999998914354;431;100 mA
77.1861258051238;-0.8990478515625;-0.0215362548828125;4.3099999891183;432;100 mA
77.1961258050985;-0.89935302734375;-0.0215362548828125;4.31999998909305;433;100 mA
77.2061258050733;-0.8990478515625;-0.021551513671875;4.3299999890678;434;100 mA
77.216125805048;-0.899658203125;-0.0215301513671875;4.33999998904255;435;100 mA
77.2261258050228;-0.899658203125;-0.02152099609375;4.34999998901731;436;100 mA
77.2361258049975;-0.89935302734375;-0.0215606689453125;4.35999998899206;437;100 mA
77.2461258049723;-0.89996337890625;-0.021514892578125;4.36999998896681;438;100 mA
77.256125804947;-0.8990478515625;-0.02152099609375;4.37999998894156;439;100 mA
77.2661258049218;-0.8990478515625;-0.0215057373046875;4.38999998891632;440;100 mA
77.2761258048965;-0.899658203125;-0.0215545654296875;4.39999998889107;441;100 mA
77.2861258048713;-0.89935302734375;-0.021575927734375;4.40999998886582;442;100 mA
77.296125804846;-0.8990478515625;-0.0215240478515625;4.41999998884057;443;100 mA
77.3061258048208;-0.899658203125;-0.0215423583984375;4.42999998881533;444;100 mA
77.3161258047955;-0.899658203125;-0.02152099609375;4.43999998879008;445;100 mA
77.3261258047703;-0.899658203125;-0.02152099609375;4.44999998876483;446;100 mA
77.3361258047451;-0.8990478515625;-0.0215057373046875;4.45999998873958;447;100 mA
77.3461258047198;-0.8990478515625;-0.0215423583984375;4.46999998871433;448;100 mA
77.3561258046946;-0.8990478515625;-0.021502685546875;4.47999998868909;449;100 mA
77.3661258046693;-0.8990478515625;-0.021484375;4.48999998866384;450;100 mA
77.3761258046441;-0.89935302734375;-0.0214752197265625;4.49999998863859;451;100 mA
77.3861258046188;-0.899658203125;-0.0214385986328125;4.50999998861334;452;100 mA
77.3961258045936;-0.8990478515625;-0.0214080810546875;4.5199999885881;453;100 mA
77.4061258045683;-0.89935302734375;-0.021441650390625;4.52999998856285;454;100 mA
77.4161258045431;-0.89935302734375;-0.0214080810546875;4.5399999885376;455;100 mA
77.4261258045178;-0.899658203125;-0.0214141845703125;4.54999998851235;456;100 mA
77.4361258044926;-0.89935302734375;-0.021356201171875;4.55999998848711;457;100 mA
77.4461258044673;-0.899658203125;-0.0213714599609375;4.56999998846186;458;100 mA
77.4561258044421;-0.899658203125;-0.021331787109375;4.57999998843661;459;100 mA
77.4661258044168;-0.899658203125;-0.0213653564453125;4.58999998841136;460;100 mA
77.4761258043916;-0.89935302734375;-0.021307373046875;4.59999998838612;461;100 mA
77.4861258043663;-0.89935302734375;-0.0213409423828125;4.60999998836087;462;100 mA
77.4961258043411;-0.8990478515625;-0.0212921142578125;4.61999998833562;463;100 mA
77.5061258043158;-0.89935302734375;-0.0213104248046875;4.62999998831037;464;100 mA
77.5161258042906;-0.8984375;-0.0213287353515625;4.63999998828513;465;100 mA
77.5261258042653;-0.89935302734375;-0.0212982177734375;4.64999998825988;466;100 mA
77.5361258042401;-0.89935302734375;-0.021282958984375;4.65999998823463;467;100 mA
77.5461258042149;-0.89935302734375;-0.021307373046875;4.66999998820938;468;100 mA
77.5561258041896;-0.8990478515625;-0.0212799072265625;4.67999998818414;469;100 mA
77.5661258041644;-0.8990478515625;-0.0213165283203125;4.68999998815889;470;100 mA
77.5761258041391;-0.89935302734375;-0.0212890625;4.69999998813364;471;100 mA
77.5861258041139;-0.89935302734375;-0.021307373046875;4.70999998810839;472;100 mA
77.5961258040886;-0.899658203125;-0.021234130859375;4.71999998808315;473;100 mA
77.6061258040634;-0.8990478515625;-0.021258544921875;4.7299999880579;474;100 mA
77.6161258040381;-0.8990478515625;-0.0212158203125;4.73999998803265;475;100 mA
77.6261258040129;-0.89935302734375;-0.0212127685546875;4.7499999880074;476;100 mA
77.6361258039876;-0.8990478515625;-0.0212127685546875;4.75999998798216;477;100 mA
77.6461258039624;-0.89935302734375;-0.021209716796875;4.76999998795691;478;100 mA
77.6561258039371;-0.89935302734375;-0.0211761474609375;4.77999998793166;479;100 mA
77.6661258039119;-0.899658203125;-0.0211883544921875;4.78999998790641;480;100 mA
77.6761258038866;-0.8990478515625;-0.021136474609375;4.79999998788116;481;100 mA
77.6861258038614;-0.899658203125;-0.021160888671875;4.80999998785592;482;100 mA
77.6961258038361;-0.8990478515625;-0.0211395263671875;4.81999998783067;483;100 mA
77.7061258038109;-0.8990478515625;-0.02113037109375;4.82999998780542;484;100 mA
77.7161258037856;-0.8990478515625;-0.0211151123046875;4.83999998778017;485;100 mA
77.7261258037604;-0.8990478515625;-0.021075439453125;4.84999998775493;486;100 mA
77.7361258037351;-0.89935302734375;-0.0210693359375;4.85999998772968;487;100 mA
77.7461258037099;-0.89935302734375;-0.0210418701171875;4.86999998770443;488;100 mA
77.7561258036847;-0.899658203125;-0.0210296630859375;4.87999998767918;489;100 mA
77.7661258036594;-0.899658203125;-0.0210174560546875;4.88999998765394;490;100 mA
77.7761258036342;-0.899658203125;-0.0209808349609375;4.89999998762869;491;100 mA
77.7861258036089;-0.8990478515625;-0.0209564208984375;4.90999998760344;492;100 mA
77.7961258035837;-0.8990478515625;-0.02093505859375;4.91999998757819;493;100 mA
77.8061258035584;-0.89935302734375;-0.0209442138671875;4.92999998755295;494;100 mA
77.8161258035332;-0.8990478515625;-0.02093505859375;4.9399999875277;495;100 mA
77.8261258035079;-0.89935302734375;-0.020928955078125;4.94999998750245;496;100 mA
77.8361258034827;-0.899658203125;-0.0209381103515625;4.9599999874772;497;100 mA
77.8461258034574;-0.8990478515625;-0.0209259033203125;4.96999998745196;498;100 mA
77.8561258034322;-0.899658203125;-0.02093505859375;4.97999998742671;499;100 mA
77.8661258034069;-0.89935302734375;-0.02091064453125;4.98999998740146;500;100 mA
77.8761258033817;-0.8990478515625;-0.0209259033203125;4.99999998737621;501;100 mA
77.8861258033564;-0.89935302734375;-0.0209075927734375;5.00999998735097;502;100 mA
77.8961258033312;-0.89935302734375;-0.0209075927734375;5.01999998732572;503;100 mA
77.9061258033059;-0.8990478515625;-0.0208984375;5.02999998730047;504;100 mA
77.9161258032807;-0.89935302734375;-0.02083740234375;5.03999998727522;505;100 mA
77.9261258032554;-0.8990478515625;-0.02083740234375;5.04999998724998;506;100 mA
77.9361258032302;-0.89935302734375;-0.0208343505859375;5.05999998722473;507;100 mA
77.9461258032049;-0.89935302734375;-0.02083740234375;5.06999998719948;508;100 mA
77.9561258031797;-0.899658203125;-0.0208160400390625;5.07999998717423;509;100 mA
77.9661258031545;-0.8990478515625;-0.0207977294921875;5.08999998714899;510;100 mA
77.9761258031292;-0.89935302734375;-0.020770263671875;5.09999998712374;511;100 mA
77.986125803104;-0.89935302734375;-0.0207977294921875;5.10999998709849;512;100 mA
77.9961258030787;-0.89935302734375;-0.020819091796875;5.11999998707324;513;100 mA
78.0061258030535;-0.899658203125;-0.0208343505859375;5.129999987048;514;100 mA
78.0161258030282;-0.89935302734375;-0.0208251953125;5.13999998702275;515;100 mA
78.026125803003;-0.89935302734375;-0.020831298828125;5.1499999869975;516;100 mA
78.0361258029777;-0.89935302734375;-0.0208099365234375;5.15999998697225;517;100 mA
78.0461258029525;-0.89935302734375;-0.0208221435546875;5.169999986947;518;100 mA
78.0561258029272;-0.899658203125;-0.0207977294921875;5.17999998692176;519;100 mA
78.066125802902;-0.899658203125;-0.020819091796875;5.18999998689651;520;100 mA
78.0761258028767;-0.8990478515625;-0.020770263671875;5.19999998687126;521;100 mA
78.0861258028515;-0.8990478515625;-0.0208038330078125;5.20999998684601;522;100 mA
78.0961258028262;-0.89874267578125;-0.02076416015625;5.21999998682077;523;100 mA
78.106125802801;-0.89935302734375;-0.0207855224609375;5.22999998679552;524;100 mA
78.1161258027757;-0.8990478515625;-0.0207763671875;5.23999998677027;525;100 mA
78.1261258027505;-0.89996337890625;-0.020806884765625;5.24999998674502;526;100 mA
78.1361258027252;-0.899658203125;-0.0207427978515625;5.25999998671978;527;100 mA
78.1461258027;-0.8990478515625;-0.0207672119140625;5.26999998669453;528;100 mA
78.1561258026748;-0.89935302734375;-0.02071533203125;5.27999998666928;529;100 mA
78.1661258026495;-0.89874267578125;-0.020770263671875;5.28999998664403;530;100 mA
78.1761258026243;-0.8990478515625;-0.0207305908203125;5.29999998661879;531;100 mA
78.186125802599;-0.89935302734375;-0.0208038330078125;5.30999998659354;532;100 mA
78.1961258025738;-0.899658203125;-0.0207550048828125;5.31999998656829;533;100 mA
78.2061258025485;-0.89935302734375;-0.020794677734375;5.32999998654304;534;100 mA
78.2161258025233;-0.89874267578125;-0.02076416015625;5.3399999865178;535;100 mA
78.226125802498;-0.89935302734375;-0.020782470703125;5.34999998649255;536;100 mA
78.2361258024728;-0.89996337890625;-0.02080078125;5.3599999864673;537;100 mA
78.2461258024475;-0.89996337890625;-0.0208251953125;5.36999998644205;538;100 mA
78.2561258024223;-0.89996337890625;-0.0207794189453125;5.37999998641681;539;100 mA
78.266125802397;-0.8990478515625;-0.0208282470703125;5.38999998639156;540;100 mA
78.2761258023718;-0.89874267578125;-0.0207763671875;5.39999998636631;541;100 mA
78.2861258023465;-0.89935302734375;-0.02080078125;5.40999998634106;542;100 mA
78.2961258023213;-0.89935302734375;-0.0207611083984375;5.41999998631582;543;100 mA
78.306125802296;-0.8990478515625;-0.0207916259765625;5.42999998629057;544;100 mA
78.3161258022708;-0.89935302734375;-0.020782470703125;5.43999998626532;545;100 mA
78.3261258022455;-0.89874267578125;-0.0207611083984375;5.44999998624007;546;100 mA
78.3361258022203;-0.89874267578125;-0.020751953125;5.45999998621483;547;100 mA
78.346125802195;-0.89874267578125;-0.0207794189453125;5.46999998618958;548;100 mA
78.3561258021698;-0.89935302734375;-0.02076416015625;5.47999998616433;549;100 mA
78.3661258021446;-0.89874267578125;-0.020770263671875;5.48999998613908;550;100 mA
78.3761258021193;-0.8990478515625;-0.0207122802734375;5.49999998611383;551;100 mA
78.3861258020941;-0.89935302734375;-0.0207275390625;5.50999998608859;552;100 mA
78.3961258020688;-0.899658203125;-0.02069091796875;5.51999998606334;553;100 mA
78.4061258020436;-0.89874267578125;-0.0207061767578125;5.52999998603809;554;100 mA
78.4161258020183;-0.899658203125;-0.0206573486328125;5.53999998601284;555;100 mA
78.4261258019931;-0.8990478515625;-0.020660400390625;5.5499999859876;556;100 mA
78.4361258019678;-0.89935302734375;-0.0206268310546875;5.55999998596235;557;100 mA
78.4461258019426;-0.8990478515625;-0.0205841064453125;5.5699999859371;558;100 mA
78.4561258019173;-0.89935302734375;-0.020562744140625;5.57999998591185;559;100 mA
78.4661258018921;-0.89996337890625;-0.020538330078125;5.58999998588661;560;100 mA
78.4761258018668;-0.89874267578125;-0.0205352783203125;5.59999998586136;561;100 mA
78.4861258018416;-0.89874267578125;-0.020526123046875;5.60999998583611;562;100 mA
78.4961258018163;-0.89935302734375;-0.0204681396484375;5.61999998581086;563;100 mA
78.5061258017911;-0.8990478515625;-0.0204833984375;5.62999998578562;564;100 mA
78.5161258017658;-0.89935302734375;-0.0204620361328125;5.63999998576037;565;100 mA
78.5261258017406;-0.89935302734375;-0.020465087890625;5.64999998573512;566;100 mA
78.5361258017153;-0.89935302734375;-0.0204498291015625;5.65999998570987;567;100 mA
78.5461258016901;-0.8990478515625;-0.02042236328125;5.66999998568463;568;100 mA
78.5561258016648;-0.899658203125;-0.02039794921875;5.67999998565938;569;100 mA
78.5661258016396;-0.8990478515625;-0.020367431640625;5.68999998563413;570;100 mA
78.5761258016144;-0.89935302734375;-0.0203521728515625;5.69999998560888;571;100 mA
78.5861258015891;-0.8990478515625;-0.020361328125;5.70999998558364;572;100 mA
78.5961258015639;-0.89935302734375;-0.020367431640625;5.71999998555839;573;100 mA
78.6061258015386;-0.899658203125;-0.0203704833984375;5.72999998553314;574;100 mA
78.6161258015134;-0.89935302734375;-0.0203765869140625;5.73999998550789;575;100 mA
78.6261258014881;-0.89935302734375;-0.0203826904296875;5.74999998548265;576;100 mA
78.6361258014629;-0.89935302734375;-0.020367431640625;5.7599999854574;577;100 mA
78.6461258014376;-0.89935302734375;-0.0203948974609375;5.76999998543215;578;100 mA
78.6561258014124;-0.89935302734375;-0.020330810546875;5.7799999854069;579;100 mA
78.6661258013871;-0.89935302734375;-0.0203857421875;5.78999998538166;580;100 mA
78.6761258013619;-0.89996337890625;-0.020355224609375;5.79999998535641;581;100 mA
78.6861258013366;-0.89935302734375;-0.020361328125;5.80999998533116;582;100 mA
78.6961258013114;-0.899658203125;-0.0203277587890625;5.81999998530591;583;100 mA
78.7061258012861;-0.8990478515625;-0.0203277587890625;5.82999998528066;584;100 mA
78.7161258012609;-0.899658203125;-0.0203277587890625;5.83999998525542;585;100 mA
78.7261258012356;-0.8990478515625;-0.0203460693359375;5.84999998523017;586;100 mA
78.7361258012104;-0.89996337890625;-0.020294189453125;5.85999998520492;587;100 mA
78.7461258011851;-0.89935302734375;-0.0202911376953125;5.86999998517967;588;100 mA
78.7561258011599;-0.899658203125;-0.0202392578125;5.87999998515443;589;100 mA
78.7661258011346;-0.899658203125;-0.0202484130859375;5.88999998512918;590;100 mA
78.7761258011094;-0.89935302734375;-0.0202362060546875;5.89999998510393;591;100 mA
78.7861258010842;-0.8990478515625;-0.02022705078125;5.90999998507868;592;100 mA
78.7961258010589;-0.899658203125;-0.0202178955078125;5.91999998505344;593;100 mA
78.8061258010337;-0.89935302734375;-0.0202392578125;5.92999998502819;594;100 mA
78.8161258010084;-0.89935302734375;-0.0201873779296875;5.93999998500294;595;100 mA
78.8261258009832;-0.89935302734375;-0.0201751708984375;5.94999998497769;596;100 mA
78.8361258009579;-0.89935302734375;-0.0201751708984375;5.95999998495245;597;100 mA
78.8461258009327;-0.89935302734375;-0.02017822265625;5.9699999849272;598;100 mA
78.8561258009074;-0.899658203125;-0.020147705078125;5.97999998490195;599;100 mA
78.8661258008822;-0.89935302734375;-0.0201568603515625;5.9899999848767;600;100 mA
78.8761258008569;-0.89935302734375;-0.02015380859375;5.99999998485146;601;100 mA
78.8861258008317;-0.89996337890625;-0.0201873779296875;6.00999998482621;602;100 mA
78.8961258008064;-0.89935302734375;-0.0201385498046875;6.01999998480096;603;100 mA
78.9061258007812;-0.89935302734375;-0.02012939453125;6.02999998477571;604;100 mA
78.9161258007559;-0.8990478515625;-0.02010498046875;6.03999998475047;605;100 mA
78.9261258007307;-0.89996337890625;-0.02008056640625;6.04999998472522;606;100 mA
78.9361258007054;-0.89935302734375;-0.0200775146484375;6.05999998469997;607;100 mA
78.9461258006802;-0.899658203125;-0.020086669921875;6.06999998467472;608;100 mA
78.9561258006549;-0.89935302734375;-0.0200653076171875;6.07999998464948;609;100 mA
78.9661258006297;-0.8990478515625;-0.02008056640625;6.08999998462423;610;100 mA
78.9761258006044;-0.89935302734375;-0.0200439453125;6.09999998459898;611;100 mA
78.9861258005792;-0.899658203125;-0.02008056640625;6.10999998457373;612;100 mA
78.996125800554;-0.8990478515625;-0.020068359375;6.11999998454849;613;100 mA
79.0061258005287;-0.89935302734375;-0.0201385498046875;6.12999998452324;614;100 mA
79.0161258005035;-0.89874267578125;-0.0201263427734375;6.13999998449799;615;100 mA
79.0261258004782;-0.8990478515625;-0.020147705078125;6.14999998447274;616;100 mA
79.036125800453;-0.89935302734375;-0.020159912109375;6.1599999844475;617;100 mA
79.0461258004277;-0.8990478515625;-0.0201629638671875;6.16999998442225;618;100 mA
79.0561258004025;-0.89935302734375;-0.0201446533203125;6.179999984397;619;100 mA
79.0661258003772;-0.89935302734375;-0.020147705078125;6.18999998437175;620;100 mA
79.076125800352;-0.899658203125;-0.0201507568359375;6.1999999843465;621;100 mA
79.0861258003267;-0.89874267578125;-0.0201934814453125;6.20999998432126;622;100 mA
79.0961258003015;-0.89935302734375;-0.0201446533203125;6.21999998429601;623;100 mA
79.1061258002762;-0.89935302734375;-0.0201568603515625;6.22999998427076;624;100 mA
79.116125800251;-0.89874267578125;-0.0201080322265625;6.23999998424551;625;100 mA
79.1261258002257;-0.8990478515625;-0.0201141357421875;6.24999998422027;626;100 mA
79.1361258002005;-0.89935302734375;-0.02010498046875;6.25999998419502;627;100 mA
79.1461258001752;-0.89996337890625;-0.020123291015625;6.26999998416977;628;100 mA
79.15612580015;-0.899658203125;-0.0201080322265625;6.27999998414452;629;100 mA
79.1661258001247;-0.8990478515625;-0.0200836181640625;6.28999998411928;630;100 mA
79.1761258000995;-0.8990478515625;-0.020068359375;6.29999998409403;631;100 mA
79.1861258000743;-0.89874267578125;-0.0200439453125;6.30999998406878;632;100 mA
79.196125800049;-0.8990478515625;-0.0200347900390625;6.31999998404353;633;100 mA
79.2061258000238;-0.9002685546875;-0.020037841796875;6.32999998401829;634;100 mA
79.2161257999985;-0.899658203125;-0.02000732421875;6.33999998399304;635;100 mA
79.2261257999733;-0.89935302734375;-0.0200042724609375;6.34999998396779;636;100 mA
79.236125799948;-0.899658203125;-0.0199676513671875;6.35999998394254;637;100 mA
79.2461257999228;-0.89935302734375;-0.0199981689453125;6.3699999839173;638;100 mA
79.2561257998975;-0.899658203125;-0.0199798583984375;6.37999998389205;639;100 mA
79.2661257998723;-0.899658203125;-0.020013427734375;6.3899999838668;640;100 mA
79.276125799847;-0.8990478515625;-0.02000732421875;6.39999998384155;641;100 mA
79.2861257998218;-0.89935302734375;-0.02000732421875;6.40999998381631;642;100 mA
79.2961257997965;-0.89935302734375;-0.0199920654296875;6.41999998379106;643;100 mA
79.3061257997713;-0.89874267578125;-0.0200042724609375;6.42999998376581;644;100 mA
79.316125799746;-0.8990478515625;-0.02001953125;6.43999998374056;645;100 mA
79.3261257997208;-0.89996337890625;-0.0200225830078125;6.44999998371532;646;100 mA
79.3361257996955;-0.8984375;-0.0199920654296875;6.45999998369007;647;100 mA
79.3461257996703;-0.899658203125;-0.0199859619140625;6.46999998366482;648;100 mA
79.356125799645;-0.899658203125;-0.02000732421875;6.47999998363957;649;100 mA
79.3661257996198;-0.8990478515625;-0.0200286865234375;6.48999998361433;650;100 mA
79.3761257995945;-0.899658203125;-0.020001220703125;6.49999998358908;651;100 mA
79.3861257995693;-0.89935302734375;-0.020062255859375;6.50999998356383;652;100 mA
79.3961257995441;-0.89935302734375;-0.0200439453125;6.51999998353858;653;100 mA
79.4061257995188;-0.89935302734375;-0.020074462890625;6.52999998351333;654;100 mA
79.4161257994936;-0.89874267578125;-0.020074462890625;6.53999998348809;655;100 mA
79.4261257994683;-0.89935302734375;-0.0200836181640625;6.54999998346284;656;100 mA
79.4361257994431;-0.8990478515625;-0.020068359375;6.55999998343759;657;100 mA
79.4461257994178;-0.8990478515625;-0.020098876953125;6.56999998341234;658;100 mA
79.4561257993926;-0.89935302734375;-0.02005615234375;6.5799999833871;659;100 mA
79.4661257993673;-0.89935302734375;-0.0200958251953125;6.58999998336185;660;100 mA
79.4761257993421;-0.89996337890625;-0.0200653076171875;6.5999999833366;661;100 mA
79.4861257993168;-0.89935302734375;-0.0200775146484375;6.60999998331135;662;100 mA
79.4961257992916;-0.89935302734375;-0.0200286865234375;6.61999998328611;663;100 mA
79.5061257992663;-0.89935302734375;-0.02003173828125;6.62999998326086;664;100 mA
79.5161257992411;-0.89874267578125;-0.0200042724609375;6.63999998323561;665;100 mA
79.5261257992158;-0.899658203125;-0.019970703125;6.64999998321036;666;100 mA
79.5361257991906;-0.89935302734375;-0.0199798583984375;6.65999998318512;667;100 mA
79.5461257991653;-0.89935302734375;-0.019970703125;6.66999998315987;668;100 mA
79.5561257991401;-0.89935302734375;-0.0199432373046875;6.67999998313462;669;100 mA
79.5661257991148;-0.89874267578125;-0.019952392578125;6.68999998310937;670;100 mA
79.5761257990896;-0.89935302734375;-0.01990966796875;6.69999998308413;671;100 mA
79.5861257990643;-0.89935302734375;-0.01993408203125;6.70999998305888;672;100 mA
79.5961257990391;-0.89935302734375;-0.019915771484375;6.71999998303363;673;100 mA
79.6061257990139;-0.899658203125;-0.0199615478515625;6.72999998300838;674;100 mA
79.6161257989886;-0.89935302734375;-0.0199249267578125;6.73999998298314;675;100 mA
79.6261257989634;-0.899658203125;-0.0199371337890625;6.74999998295789;676;100 mA
79.6361257989381;-0.89996337890625;-0.0199371337890625;6.75999998293264;677;100 mA
79.6461257989129;-0.89935302734375;-0.01993408203125;6.76999998290739;678;100 mA
79.6561257988876;-0.899658203125;-0.0198822021484375;6.77999998288215;679;100 mA
79.6661257988624;-0.89996337890625;-0.0198822021484375;6.7899999828569;680;100 mA
79.6761257988371;-0.89935302734375;-0.0199005126953125;6.79999998283165;681;100 mA
79.6861257988119;-0.899658203125;-0.0199249267578125;6.8099999828064;682;100 mA
79.6961257987866;-0.899658203125;-0.0198638916015625;6.81999998278116;683;100 mA
79.7061257987614;-0.8990478515625;-0.01988525390625;6.82999998275591;684;100 mA
79.7161257987361;-0.89935302734375;-0.019854736328125;6.83999998273066;685;100 mA
79.7261257987109;-0.89935302734375;-0.01986083984375;6.84999998270541;686;100 mA
79.7361257986856;-0.89935302734375;-0.019854736328125;6.85999998268016;687;100 mA
79.7461257986604;-0.89935302734375;-0.0198516845703125;6.86999998265492;688;100 mA
79.7561257986351;-0.89996337890625;-0.0198211669921875;6.87999998262967;689;100 mA
79.7661257986099;-0.8990478515625;-0.0198333740234375;6.88999998260442;690;100 mA
79.7761257985846;-0.89935302734375;-0.0198333740234375;6.89999998257917;691;100 mA
79.7861257985594;-0.899658203125;-0.019830322265625;6.90999998255393;692;100 mA
79.7961257985341;-0.8990478515625;-0.0198272705078125;6.91999998252868;693;100 mA
79.8061257985089;-0.89935302734375;-0.0198394775390625;6.92999998250343;694;100 mA
79.8161257984837;-0.89935302734375;-0.019818115234375;6.93999998247818;695;100 mA
79.8261257984584;-0.89935302734375;-0.019842529296875;6.94999998245294;696;100 mA
79.8361257984332;-0.89935302734375;-0.019805908203125;6.95999998242769;697;100 mA
79.8461257984079;-0.89935302734375;-0.019830322265625;6.96999998240244;698;100 mA
79.8561257983827;-0.899658203125;-0.0198150634765625;6.97999998237719;699;100 mA
79.8661257983574;-0.8990478515625;-0.01981201171875;6.98999998235195;700;100 mA
79.8761257983322;-0.899658203125;-0.019805908203125;6.9999999823267;701;100 mA
79.8861257983069;-0.89935302734375;-0.0197723388671875;7.00999998230145;702;100 mA
79.8961257982817;-0.899658203125;-0.0197509765625;7.0199999822762;703;100 mA
79.9061257982564;-0.89874267578125;-0.01976318359375;7.02999998225096;704;100 mA
79.9161257982312;-0.89935302734375;-0.019744873046875;7.03999998222571;705;100 mA
79.9261257982059;-0.89935302734375;-0.01973876953125;7.04999998220046;706;100 mA
79.9361257981807;-0.899658203125;-0.0197113037109375;7.05999998217521;707;100 mA
79.9461257981554;-0.89935302734375;-0.0196929931640625;7.06999998214997;708;100 mA
79.9561257981302;-0.89935302734375;-0.0196990966796875;7.07999998212472;709;100 mA
79.9661257981049;-0.899658203125;-0.0196929931640625;7.08999998209947;710;100 mA
79.9761257980797;-0.8990478515625;-0.0196685791015625;7.09999998207422;711;100 mA
79.9861257980544;-0.89935302734375;-0.019671630859375;7.10999998204898;712;100 mA
79.9961257980292;-0.899658203125;-0.019677734375;7.11999998202373;713;100 mA
80.0061257980039;-0.89935302734375;-0.0196624755859375;7.12999998199848;714;100 mA
80.0161257979787;-0.8990478515625;-0.019647216796875;7.13999998197323;715;100 mA
80.0261257979535;-0.899658203125;-0.0196441650390625;7.14999998194799;716;100 mA
80.0361257979282;-0.899658203125;-0.0196807861328125;7.15999998192274;717;100 mA
80.046125797903;-0.89935302734375;-0.0197174072265625;7.16999998189749;718;100 mA
80.0561257978777;-0.8990478515625;-0.019696044921875;7.17999998187224;719;100 mA
80.0661257978525;-0.89935302734375;-0.0197113037109375;7.189999981847;720;100 mA
80.0761257978272;-0.89935302734375;-0.019696044921875;7.19999998182175;721;100 mA
80.086125797802;-0.8990478515625;-0.019720458984375;7.2099999817965;722;100 mA
80.0961257977767;-0.89935302734375;-0.01968994140625;7.21999998177125;723;100 mA
80.1061257977515;-0.89935302734375;-0.019720458984375;7.229999981746;724;100 mA
80.1161257977262;-0.8990478515625;-0.0197021484375;7.23999998172076;725;100 mA
80.126125797701;-0.89935302734375;-0.0196746826171875;7.24999998169551;726;100 mA
80.1361257976757;-0.89935302734375;-0.019671630859375;7.25999998167026;727;100 mA
80.1461257976505;-0.899658203125;-0.0196563720703125;7.26999998164501;728;100 mA
80.1561257976252;-0.8990478515625;-0.0196685791015625;7.27999998161977;729;100 mA
80.1661257976;-0.89935302734375;-0.01971435546875;7.28999998159452;730;100 mA
80.1761257975747;-0.8990478515625;-0.019683837890625;7.29999998156927;731;100 mA
80.1861257975495;-0.89935302734375;-0.019708251953125;7.30999998154402;732;100 mA
80.1961257975242;-0.8990478515625;-0.0196685791015625;7.31999998151878;733;100 mA
80.206125797499;-0.899658203125;-0.0197296142578125;7.32999998149353;734;100 mA
80.2161257974738;-0.8990478515625;-0.019696044921875;7.33999998146828;735;100 mA
80.2261257974485;-0.899658203125;-0.0197357177734375;7.34999998144303;736;100 mA
80.2361257974233;-0.8990478515625;-0.01968994140625;7.35999998141779;737;100 mA
80.246125797398;-0.899658203125;-0.0196807861328125;7.36999998139254;738;100 mA
80.2561257973728;-0.899658203125;-0.019677734375;7.37999998136729;739;100 mA
80.2661257973475;-0.8990478515625;-0.0196807861328125;7.38999998134204;740;100 mA
80.2761257973223;-0.89935302734375;-0.019720458984375;7.3999999813168;741;100 mA
80.286125797297;-0.89996337890625;-0.01973876953125;7.40999998129155;742;100 mA
80.2961257972718;-0.899658203125;-0.0196685791015625;7.4199999812663;743;100 mA
80.3061257972465;-0.89874267578125;-0.019708251953125;7.42999998124105;744;100 mA
80.3161257972213;-0.89935302734375;-0.019683837890625;7.43999998121581;745;100 mA
80.326125797196;-0.89935302734375;-0.0197296142578125;7.44999998119056;746;100 mA
80.3361257971708;-0.8990478515625;-0.019720458984375;7.45999998116531;747;100 mA
80.3461257971455;-0.8990478515625;-0.0197540283203125;7.46999998114006;748;100 mA
80.3561257971203;-0.89935302734375;-0.0197052001953125;7.47999998111482;749;100 mA
80.366125797095;-0.89935302734375;-0.0197235107421875;7.48999998108957;750;100 mA
80.3761257970698;-0.89935302734375;-0.0197021484375;7.49999998106432;751;100 mA
80.3861257970445;-0.89935302734375;-0.019744873046875;7.50999998103907;752;100 mA
80.3961257970193;-0.899658203125;-0.019720458984375;7.51999998101383;753;100 mA
80.406125796994;-0.89874267578125;-0.0197509765625;7.52999998098858;754;100 mA
80.4161257969688;-0.8990478515625;-0.0196929931640625;7.53999998096333;755;100 mA
80.4261257969436;-0.8990478515625;-0.0196990966796875;7.54999998093808;756;100 mA
80.4361257969183;-0.8990478515625;-0.0196533203125;7.55999998091283;757;100 mA
80.4461257968931;-0.899658203125;-0.0196990966796875;7.56999998088759;758;100 mA
80.4561257968678;-0.8990478515625;-0.0196929931640625;7.57999998086234;759;100 mA
80.4661257968426;-0.89935302734375;-0.0197296142578125;7.58999998083709;760;100 mA
80.4761257968173;-0.899658203125;-0.01971435546875;7.59999998081184;761;100 mA
80.4861257967921;-0.899658203125;-0.0196990966796875;7.6099999807866;762;100 mA
80.4961257967668;-0.8990478515625;-0.0196807861328125;7.61999998076135;763;100 mA
80.5061257967416;-0.89935302734375;-0.019708251953125;7.6299999807361;764;100 mA
80.5161257967163;-0.8990478515625;-0.0196929931640625;7.63999998071085;765;100 mA
80.5261257966911;-0.89935302734375;-0.0197052001953125;7.64999998068561;766;100 mA
80.5361257966658;-0.899658203125;-0.019683837890625;7.65999998066036;767;100 mA
80.5461257966406;-0.8990478515625;-0.0196685791015625;7.66999998063511;768;100 mA
80.5561257966153;-0.899658203125;-0.0196624755859375;7.67999998060986;769;100 mA
80.5661257965901;-0.89935302734375;-0.0196868896484375;7.68999998058462;770;100 mA
80.5761257965648;-0.89996337890625;-0.019659423828125;7.69999998055937;771;100 mA
80.5861257965396;-0.8990478515625;-0.0196563720703125;7.70999998053412;772;100 mA
80.5961257965143;-0.8990478515625;-0.0196502685546875;7.71999998050887;773;100 mA
80.6061257964891;-0.89935302734375;-0.01962890625;7.72999998048363;774;100 mA
80.6161257964638;-0.899658203125;-0.01961669921875;7.73999998045838;775;100 mA
80.6261257964386;-0.89935302734375;-0.0196075439453125;7.74999998043313;776;100 mA
80.6361257964134;-0.89996337890625;-0.0196441650390625;7.75999998040788;777;100 mA
80.6461257963881;-0.89935302734375;-0.019647216796875;7.76999998038264;778;100 mA
80.6561257963629;-0.89935302734375;-0.0196685791015625;7.77999998035739;779;100 mA
80.6661257963376;-0.89935302734375;-0.019647216796875;7.78999998033214;780;100 mA
80.6761257963124;-0.89935302734375;-0.019635009765625;7.79999998030689;781;100 mA
80.6861257962871;-0.89874267578125;-0.0196685791015625;7.80999998028165;782;100 mA
80.6961257962619;-0.89935302734375;-0.0196197509765625;7.8199999802564;783;100 mA
80.7061257962366;-0.8990478515625;-0.0196380615234375;7.82999998023115;784;100 mA
80.7161257962114;-0.89874267578125;-0.0196441650390625;7.8399999802059;785;100 mA
80.7261257961861;-0.8990478515625;-0.01964111328125;7.84999998018066;786;100 mA
80.7361257961609;-0.8990478515625;-0.0196624755859375;7.85999998015541;787;100 mA
80.7461257961356;-0.89935302734375;-0.0196563720703125;7.86999998013016;788;100 mA
80.7561257961104;-0.89935302734375;-0.01968994140625;7.87999998010491;789;100 mA
80.7661257960851;-0.89935302734375;-0.0197021484375;7.88999998007966;790;100 mA
80.7761257960599;-0.89874267578125;-0.0196746826171875;7.89999998005442;791;100 mA
80.7861257960346;-0.89935302734375;-0.01971435546875;7.90999998002917;792;100 mA
80.7961257960094;-0.89935302734375;-0.0196807861328125;7.91999998000392;793;100 mA
80.8061257959841;-0.8990478515625;-0.0197113037109375;7.92999997997867;794;100 mA
80.8161257959589;-0.8990478515625;-0.019671630859375;7.93999997995343;795;100 mA
80.8261257959336;-0.89935302734375;-0.01968994140625;7.94999997992818;796;100 mA
80.8361257959084;-0.8990478515625;-0.019677734375;7.95999997990293;797;100 mA
80.8461257958832;-0.89935302734375;-0.01966552734375;7.96999997987768;798;100 mA
80.8561257958579;-0.8990478515625;-0.0196563720703125;7.97999997985244;799;100 mA
80.8661257958327;-0.89935302734375;-0.0196533203125;7.98999997982719;800;100 mA
80.8761257958074;-0.89935302734375;-0.0196502685546875;7.99999997980194;801;100 mA
80.8861257957822;-0.89935302734375;-0.01968994140625;8.00999997977669;802;100 mA
80.8961257957569;-0.89935302734375;-0.019659423828125;8.01999997975145;803;100 mA
80.9061257957317;-0.899658203125;-0.0197113037109375;8.0299999797262;804;100 mA
80.9161257957064;-0.89935302734375;-0.0196685791015625;8.03999997970095;805;100 mA
80.9261257956812;-0.8990478515625;-0.019708251953125;8.0499999796757;806;100 mA
80.9361257956559;-0.8990478515625;-0.019683837890625;8.05999997965046;807;100 mA
80.9461257956307;-0.89935302734375;-0.0197052001953125;8.06999997962521;808;100 mA
80.9561257956054;-0.89874267578125;-0.019671630859375;8.07999997959996;809;100 mA
80.9661257955802;-0.89935302734375;-0.0196746826171875;8.08999997957471;810;100 mA
80.9761257955549;-0.89935302734375;-0.01966552734375;8.09999997954947;811;100 mA
80.9861257955297;-0.89935302734375;-0.019696044921875;8.10999997952422;812;100 mA
80.9961257955044;-0.89935302734375;-0.019677734375;8.11999997949897;813;100 mA
81.0061257954792;-0.8990478515625;-0.0196929931640625;8.12999997947372;814;100 mA
81.0161257954539;-0.8990478515625;-0.0196624755859375;8.13999997944848;815;100 mA
81.0261257954287;-0.8990478515625;-0.019671630859375;8.14999997942323;816;100 mA
81.0361257954034;-0.89935302734375;-0.0196380615234375;8.15999997939798;817;100 mA
81.0461257953782;-0.89996337890625;-0.0196563720703125;8.16999997937273;818;100 mA
81.056125795353;-0.89935302734375;-0.0196380615234375;8.17999997934749;819;100 mA
81.0661257953277;-0.899658203125;-0.0196533203125;8.18999997932224;820;100 mA
81.0761257953025;-0.89935302734375;-0.019647216796875;8.19999997929699;821;100 mA
81.0861257952772;-0.899658203125;-0.0196533203125;8.20999997927174;822;100 mA
81.096125795252;-0.899658203125;-0.0196380615234375;8.2199999792465;823;100 mA
81.1061257952267;-0.89935302734375;-0.0196502685546875;8.22999997922125;824;100 mA
81.1161257952015;-0.8990478515625;-0.0196380615234375;8.239999979196;825;100 mA
81.1261257951762;-0.89935302734375;-0.0196533203125;8.24999997917075;826;100 mA
81.136125795151;-0.899658203125;-0.0196624755859375;8.2599999791455;827;100 mA
81.1461257951257;-0.8990478515625;-0.0196380615234375;8.26999997912026;828;100 mA
81.1561257951005;-0.8990478515625;-0.019635009765625;8.27999997909501;829;100 mA
81.1661257950752;-0.8990478515625;-0.0196685791015625;8.28999997906976;830;100 mA
81.17612579505;-0.8990478515625;-0.019671630859375;8.29999997904451;831;100 mA
81.1861257950247;-0.8990478515625;-0.019683837890625;8.30999997901927;832;100 mA
81.1961257949995;-0.89935302734375;-0.019683837890625;8.31999997899402;833;100 mA
81.2061257949742;-0.89935302734375;-0.0196746826171875;8.32999997896877;834;100 mA
81.216125794949;-0.89935302734375;-0.01966552734375;8.33999997894352;835;100 mA
81.2261257949237;-0.89935302734375;-0.0196624755859375;8.34999997891828;836;100 mA
81.2361257948985;-0.899658203125;-0.0196990966796875;8.35999997889303;837;100 mA
81.2461257948733;-0.899658203125;-0.0196929931640625;8.36999997886778;838;100 mA
81.256125794848;-0.89935302734375;-0.019677734375;8.37999997884253;839;100 mA
81.2661257948228;-0.89935302734375;-0.0197113037109375;8.38999997881729;840;100 mA
81.2761257947975;-0.8990478515625;-0.0196502685546875;8.39999997879204;841;100 mA
81.2861257947723;-0.8990478515625;-0.0196441650390625;8.40999997876679;842;100 mA
81.296125794747;-0.89996337890625;-0.0196258544921875;8.41999997874154;843;100 mA
81.3061257947218;-0.8990478515625;-0.0196258544921875;8.4299999787163;844;100 mA
81.3161257946965;-0.8990478515625;-0.0196044921875;8.43999997869105;845;100 mA
81.3261257946713;-0.899658203125;-0.0195831298828125;8.4499999786658;846;100 mA
81.336125794646;-0.89935302734375;-0.0196136474609375;8.45999997864055;847;100 mA
81.3461257946208;-0.89935302734375;-0.0195526123046875;8.46999997861531;848;100 mA
81.3561257945955;-0.89996337890625;-0.0195709228515625;8.47999997859006;849;100 mA
81.3661257945703;-0.8990478515625;-0.0195831298828125;8.48999997856481;850;100 mA
81.376125794545;-0.899658203125;-0.0195556640625;8.49999997853956;851;100 mA
81.3861257945198;-0.899658203125;-0.0196014404296875;8.50999997851432;852;100 mA
81.3961257944945;-0.8990478515625;-0.0196014404296875;8.51999997848907;853;100 mA
81.4061257944693;-0.89935302734375;-0.01964111328125;8.52999997846382;854;100 mA
81.416125794444;-0.89935302734375;-0.0196319580078125;8.53999997843857;855;100 mA
81.4261257944188;-0.89935302734375;-0.0196807861328125;8.54999997841333;856;100 mA
81.4361257943935;-0.89935302734375;-0.01968994140625;8.55999997838808;857;100 mA
81.4461257943683;-0.89935302734375;-0.01971435546875;8.56999997836283;858;100 mA
81.4561257943431;-0.89935302734375;-0.0196929931640625;8.57999997833758;859;100 mA
81.4661257943178;-0.8990478515625;-0.019708251953125;8.58999997831233;860;100 mA
81.4761257942926;-0.89996337890625;-0.0197235107421875;8.59999997828709;861;100 mA
81.4861257942673;-0.8990478515625;-0.0197784423828125;8.60999997826184;862;100 mA
81.4961257942421;-0.899658203125;-0.0197265625;8.61999997823659;863;100 mA
81.5061257942168;-0.89996337890625;-0.0197601318359375;8.62999997821134;864;100 mA
81.5161257941916;-0.899658203125;-0.0197296142578125;8.6399999781861;865;100 mA
81.5261257941663;-0.89874267578125;-0.0197723388671875;8.64999997816085;866;100 mA
81.5361257941411;-0.899658203125;-0.0197235107421875;8.6599999781356;867;100 mA
81.5461257941158;-0.89935302734375;-0.019769287109375;8.66999997811035;868;100 mA
81.5561257940906;-0.899658203125;-0.019708251953125;8.67999997808511;869;100 mA
81.5661257940653;-0.89935302734375;-0.019732666015625;8.68999997805986;870;100 mA
81.5761257940401;-0.89935302734375;-0.0197021484375;8.69999997803461;871;100 mA
81.5861257940148;-0.899658203125;-0.019744873046875;8.70999997800936;872;100 mA
81.5961257939896;-0.899658203125;-0.0197509765625;8.71999997798412;873;100 mA
81.6061257939643;-0.89935302734375;-0.019781494140625;8.72999997795887;874;100 mA
81.6161257939391;-0.8990478515625;-0.019769287109375;8.73999997793362;875;100 mA
81.6261257939138;-0.89935302734375;-0.0198150634765625;8.74999997790837;876;100 mA
81.6361257938886;-0.89935302734375;-0.019732666015625;8.75999997788313;877;100 mA
81.6461257938633;-0.8990478515625;-0.019744873046875;8.76999997785788;878;100 mA
81.6561257938381;-0.899658203125;-0.019696044921875;8.77999997783263;879;100 mA
81.6661257938129;-0.899658203125;-0.019708251953125;8.78999997780738;880;100 mA
81.6761257937876;-0.899658203125;-0.019671630859375;8.79999997778214;881;100 mA
81.6861257937624;-0.89874267578125;-0.0196533203125;8.80999997775689;882;100 mA
81.6961257937371;-0.89935302734375;-0.019647216796875;8.81999997773164;883;100 mA
81.7061257937119;-0.8990478515625;-0.019647216796875;8.82999997770639;884;100 mA
81.7161257936866;-0.8990478515625;-0.01961669921875;8.83999997768115;885;100 mA
81.7261257936614;-0.8990478515625;-0.0196258544921875;8.8499999776559;886;100 mA
81.7361257936361;-0.89996337890625;-0.019586181640625;8.85999997763065;887;100 mA
81.7461257936109;-0.89935302734375;-0.019580078125;8.8699999776054;888;100 mA
81.7561257935856;-0.8990478515625;-0.0195587158203125;8.87999997758016;889;100 mA
81.7661257935604;-0.89935302734375;-0.0195831298828125;8.88999997755491;890;100 mA
81.7761257935351;-0.89935302734375;-0.019549560546875;8.89999997752966;891;100 mA
81.7861257935099;-0.899658203125;-0.0195526123046875;8.90999997750441;892;100 mA
81.7961257934846;-0.8990478515625;-0.01954345703125;8.91999997747916;893;100 mA
81.8061257934594;-0.8990478515625;-0.01953125;8.92999997745392;894;100 mA
81.8161257934341;-0.89935302734375;-0.01951904296875;8.93999997742867;895;100 mA
81.8261257934089;-0.89935302734375;-0.019482421875;8.94999997740342;896;100 mA
81.8361257933836;-0.899658203125;-0.0195037841796875;8.95999997737817;897;100 mA
81.8461257933584;-0.89935302734375;-0.0194976806640625;8.96999997735293;898;100 mA
81.8561257933331;-0.89935302734375;-0.0194549560546875;8.97999997732768;899;100 mA
81.8661257933079;-0.89935302734375;-0.019464111328125;8.98999997730243;900;100 mA
81.8761257932827;-0.89874267578125;-0.019451904296875;8.99999997727718;901;100 mA
81.8861257932574;-0.8990478515625;-0.01949462890625;9.00999997725194;902;100 mA
81.8961257932322;-0.89935302734375;-0.0194793701171875;9.01999997722669;903;100 mA
81.9061257932069;-0.899658203125;-0.0195037841796875;9.02999997720144;904;100 mA
81.9161257931817;-0.89935302734375;-0.0195098876953125;9.03999997717619;905;100 mA
81.9261257931564;-0.8990478515625;-0.0195098876953125;9.04999997715095;906;100 mA
81.9361257931312;-0.899658203125;-0.0196044921875;9.0599999771257;907;100 mA
81.9461257931059;-0.89935302734375;-0.0195770263671875;9.06999997710045;908;100 mA
81.9561257930807;-0.89935302734375;-0.019586181640625;9.0799999770752;909;100 mA
81.9661257930554;-0.89935302734375;-0.019586181640625;9.08999997704996;910;100 mA
81.9761257930302;-0.89935302734375;-0.01956787109375;9.09999997702471;911;100 mA
81.9861257930049;-0.89996337890625;-0.0196075439453125;9.10999997699946;912;100 mA
81.9961257929797;-0.89874267578125;-0.0195648193359375;9.11999997697421;913;100 mA
82.0061257929544;-0.899658203125;-0.019598388671875;9.12999997694897;914;100 mA
82.0161257929292;-0.899658203125;-0.0195465087890625;9.13999997692372;915;100 mA
82.0261257929039;-0.89935302734375;-0.0195556640625;9.14999997689847;916;100 mA
82.0361257928787;-0.899658203125;-0.0195465087890625;9.15999997687322;917;100 mA
82.0461257928534;-0.89935302734375;-0.01953125;9.16999997684798;918;100 mA
82.0561257928282;-0.899658203125;-0.01951904296875;9.17999997682273;919;100 mA
82.0661257928029;-0.899658203125;-0.0195281982421875;9.18999997679748;920;100 mA
82.0761257927777;-0.89935302734375;-0.01954345703125;9.19999997677223;921;100 mA
82.0861257927525;-0.899658203125;-0.0195587158203125;9.20999997674699;922;100 mA
82.0961257927272;-0.89935302734375;-0.0195098876953125;9.21999997672174;923;100 mA
82.106125792702;-0.89935302734375;-0.019512939453125;9.22999997669649;924;100 mA
82.1161257926767;-0.899658203125;-0.0195343017578125;9.23999997667124;925;100 mA
82.1261257926515;-0.89935302734375;-0.0195709228515625;9.249999976646;926;100 mA
82.1361257926262;-0.89935302734375;-0.0195404052734375;9.25999997662075;927;100 mA
82.146125792601;-0.89935302734375;-0.0195526123046875;9.2699999765955;928;100 mA
82.1561257925757;-0.899658203125;-0.019549560546875;9.27999997657025;929;100 mA
82.1661257925505;-0.89935302734375;-0.019586181640625;9.289999976545;930;100 mA
82.1761257925252;-0.8990478515625;-0.019598388671875;9.29999997651976;931;100 mA
82.1861257925;-0.8990478515625;-0.01961669921875;9.30999997649451;932;100 mA
82.1961257924747;-0.8990478515625;-0.0196258544921875;9.31999997646926;933;100 mA
82.2061257924495;-0.8990478515625;-0.01966552734375;9.32999997644401;934;100 mA
82.2161257924242;-0.89935302734375;-0.0196502685546875;9.33999997641877;935;100 mA
82.226125792399;-0.89935302734375;-0.0196807861328125;9.34999997639352;936;100 mA
82.2361257923737;-0.8984375;-0.0196563720703125;9.35999997636827;937;100 mA
82.2461257923485;-0.89935302734375;-0.0196868896484375;9.36999997634302;938;100 mA
82.2561257923232;-0.89935302734375;-0.019708251953125;9.37999997631778;939;100 mA
82.266125792298;-0.89874267578125;-0.0197296142578125;9.38999997629253;940;100 mA
82.2761257922728;-0.89935302734375;-0.01971435546875;9.39999997626728;941;100 mA
82.2861257922475;-0.8990478515625;-0.0196990966796875;9.40999997624203;942;100 mA
82.2961257922223;-0.89935302734375;-0.019677734375;9.41999997621679;943;100 mA
82.306125792197;-0.899658203125;-0.0197052001953125;9.42999997619154;944;100 mA
82.3161257921718;-0.89996337890625;-0.0197052001953125;9.43999997616629;945;100 mA
82.3261257921465;-0.89996337890625;-0.0197418212890625;9.44999997614104;946;100 mA
82.3361257921213;-0.899658203125;-0.0197479248046875;9.4599999761158;947;100 mA
82.346125792096;-0.899658203125;-0.0197601318359375;9.46999997609055;948;100 mA
82.3561257920708;-0.89935302734375;-0.019757080078125;9.4799999760653;949;100 mA
82.3661257920455;-0.899658203125;-0.0198089599609375;9.48999997604005;950;100 mA
82.3761257920203;-0.89935302734375;-0.0197601318359375;9.49999997601481;951;100 mA
82.386125791995;-0.899658203125;-0.01978759765625;9.50999997598956;952;100 mA
82.3961257919698;-0.89935302734375;-0.0197479248046875;9.51999997596431;953;100 mA
82.4061257919445;-0.89935302734375;-0.01976318359375;9.52999997593906;954;100 mA
82.4161257919193;-0.89874267578125;-0.0197418212890625;9.53999997591382;955;100 mA
82.426125791894;-0.8990478515625;-0.0197296142578125;9.54999997588857;956;100 mA
82.4361257918688;-0.899658203125;-0.0197418212890625;9.55999997586332;957;100 mA
82.4461257918435;-0.89935302734375;-0.019744873046875;9.56999997583807;958;100 mA
82.4561257918183;-0.899658203125;-0.0197113037109375;9.57999997581283;959;100 mA
82.466125791793;-0.8990478515625;-0.0197265625;9.58999997578758;960;100 mA
82.4761257917678;-0.9002685546875;-0.019708251953125;9.59999997576233;961;100 mA
82.4861257917426;-0.89935302734375;-0.0197418212890625;9.60999997573708;962;100 mA
82.4961257917173;-0.8990478515625;-0.01973876953125;9.61999997571183;963;100 mA
82.5061257916921;-0.899658203125;-0.019769287109375;9.62999997568659;964;100 mA
82.5161257916668;-0.8990478515625;-0.0197509765625;9.63999997566134;965;100 mA
82.5261257916416;-0.89935302734375;-0.0197723388671875;9.64999997563609;966;100 mA
82.5361257916163;-0.89935302734375;-0.019757080078125;9.65999997561084;967;100 mA
82.5461257915911;-0.8990478515625;-0.0197418212890625;9.6699999755856;968;100 mA
82.5561257915658;-0.89996337890625;-0.0197723388671875;9.67999997556035;969;100 mA
82.5661257915406;-0.89935302734375;-0.0197784423828125;9.6899999755351;970;100 mA
82.5761257915153;-0.899658203125;-0.019769287109375;9.69999997550985;971;100 mA
82.5861257914901;-0.89935302734375;-0.0198089599609375;9.70999997548461;972;100 mA
82.5961257914648;-0.89935302734375;-0.01973876953125;9.71999997545936;973;100 mA
82.6061257914396;-0.89874267578125;-0.0197998046875;9.72999997543411;974;100 mA
82.6161257914143;-0.899658203125;-0.01978759765625;9.73999997540886;975;100 mA
82.6261257913891;-0.89935302734375;-0.01982421875;9.74999997538362;976;100 mA
82.6361257913638;-0.8990478515625;-0.01986083984375;9.75999997535837;977;100 mA
82.6461257913386;-0.89935302734375;-0.0198486328125;9.76999997533312;978;100 mA
82.6561257913133;-0.89935302734375;-0.01986083984375;9.77999997530787;979;100 mA
82.6661257912881;-0.89874267578125;-0.01986083984375;9.78999997528263;980;100 mA
82.6761257912628;-0.89935302734375;-0.0198486328125;9.79999997525738;981;100 mA
82.6861257912376;-0.89935302734375;-0.0198822021484375;9.80999997523213;982;100 mA
82.6961257912124;-0.89935302734375;-0.0198089599609375;9.81999997520688;983;100 mA
82.7061257911871;-0.8990478515625;-0.019793701171875;9.82999997518164;984;100 mA
82.7161257911619;-0.899658203125;-0.019793701171875;9.83999997515639;985;100 mA
82.7261257911366;-0.899658203125;-0.0197967529296875;9.84999997513114;986;100 mA
82.7361257911114;-0.899658203125;-0.0197418212890625;9.85999997510589;987;100 mA
82.7461257910861;-0.899658203125;-0.0197509765625;9.86999997508065;988;100 mA
82.7561257910609;-0.89874267578125;-0.0197357177734375;9.8799999750554;989;100 mA
82.7661257910356;-0.899658203125;-0.0197265625;9.88999997503015;990;100 mA
82.7761257910104;-0.89935302734375;-0.0197021484375;9.8999999750049;991;100 mA
82.7861257909851;-0.899658203125;-0.019708251953125;9.90999997497966;992;100 mA
82.7961257909599;-0.8990478515625;-0.0197174072265625;9.91999997495441;993;100 mA
82.8061257909346;-0.899658203125;-0.019744873046875;9.92999997492916;994;100 mA
82.8161257909094;-0.89935302734375;-0.0197357177734375;9.93999997490391;995;100 mA
82.8261257908841;-0.89935302734375;-0.01973876953125;9.94999997487866;996;100 mA
82.8361257908589;-0.899658203125;-0.019744873046875;9.95999997485342;997;100 mA
82.8461257908336;-0.8990478515625;-0.0197479248046875;9.96999997482817;998;100 mA
82.8561257908084;-0.89935302734375;-0.019744873046875;9.97999997480292;999;100 mA
82.8661257907831;-0.899658203125;-0.0197509765625;9.98999997477767;1000;100 mA
