Time (s);WE(1).Potential (V);WE(1).Current (A);Corrected time (s);Index;Current range
113.966909712261;-1.00006103515625;-0.321136474609375;0;1;100 mA
113.976909712236;-1.00006103515625;-0.23797607421875;0.00999999997475243;2;100 mA
113.986909712211;-0.999755859375;-0.19757080078125;0.0199999999495049;3;100 mA
113.996909712185;-0.99945068359375;-0.17242431640625;0.0299999999242573;4;100 mA
114.00690971216;-0.99945068359375;-0.15478515625;0.0399999998990097;5;100 mA
114.016909712135;-0.9991455078125;-0.14178466796875;0.0499999998737621;6;100 mA
114.02690971211;-0.99945068359375;-0.13140869140625;0.0599999998485146;7;100 mA
114.036909712084;-0.999755859375;-0.123138427734375;0.069999999823267;8;100 mA
114.046909712059;-0.999755859375;-0.116058349609375;0.0799999997980194;9;100 mA
114.056909712034;-0.99945068359375;-0.110198974609375;0.0899999997727718;10;100 mA
114.066909712009;-0.999755859375;-0.105072021484375;0.0999999997475243;11;100 mA
114.076909711983;-0.9991455078125;-0.100677490234375;0.109999999722277;12;100 mA
114.086909711958;-0.999755859375;-0.096832275390625;0.119999999697029;13;100 mA
114.096909711933;-0.99945068359375;-0.0933837890625;0.129999999671782;14;100 mA
114.106909711908;-0.99945068359375;-0.090301513671875;0.139999999646534;15;100 mA
114.116909711882;-0.999755859375;-0.08740234375;0.149999999621286;16;100 mA
114.126909711857;-0.999755859375;-0.084808349609375;0.159999999596039;17;100 mA
114.136909711832;-0.99884033203125;-0.08258056640625;0.169999999570791;18;100 mA
114.146909711807;-0.999755859375;-0.080291748046875;0.179999999545544;19;100 mA
114.156909711782;-0.99945068359375;-0.07830810546875;0.189999999520296;20;100 mA
114.166909711756;-1.00006103515625;-0.076416015625;0.199999999495049;21;100 mA
114.176909711731;-0.999755859375;-0.07464599609375;0.209999999469801;22;100 mA
114.186909711706;-1.00006103515625;-0.072967529296875;0.219999999444553;23;100 mA
114.196909711681;-0.99945068359375;-0.071441650390625;0.229999999419306;24;100 mA
114.206909711655;-0.99945068359375;-0.070037841796875;0.239999999394058;25;100 mA
114.21690971163;-0.99945068359375;-0.06878662109375;0.249999999368811;26;100 mA
114.226909711605;-0.99945068359375;-0.06744384765625;0.259999999343563;27;100 mA
114.23690971158;-0.999755859375;-0.06622314453125;0.269999999318316;28;100 mA
114.246909711554;-0.99945068359375;-0.065093994140625;0.279999999293068;29;100 mA
114.256909711529;-0.99945068359375;-0.06402587890625;0.28999999926782;30;100 mA
114.266909711504;-0.99945068359375;-0.062957763671875;0.299999999242573;31;100 mA
114.276909711479;-0.99884033203125;-0.06207275390625;0.309999999217325;32;100 mA
114.286909711453;-0.99945068359375;-0.06109619140625;0.319999999192078;33;100 mA
114.296909711428;-1.00006103515625;-0.0601806640625;0.32999999916683;34;100 mA
114.306909711403;-0.99945068359375;-0.059326171875;0.339999999141583;35;100 mA
114.316909711378;-0.999755859375;-0.0584716796875;0.349999999116335;36;100 mA
114.326909711352;-0.99884033203125;-0.057708740234375;0.359999999091087;37;100 mA
114.336909711327;-0.99945068359375;-0.05706787109375;0.36999999906584;38;100 mA
114.346909711302;-0.999755859375;-0.05633544921875;0.379999999040592;39;100 mA
114.356909711277;-0.99945068359375;-0.055572509765625;0.389999999015345;40;100 mA
114.366909711251;-0.9991455078125;-0.05487060546875;0.399999998990097;41;100 mA
114.376909711226;-0.99884033203125;-0.05426025390625;0.40999999896485;42;100 mA
114.386909711201;-0.99945068359375;-0.0535888671875;0.419999998939602;43;100 mA
114.396909711176;-0.99945068359375;-0.05303955078125;0.429999998914354;44;100 mA
114.40690971115;-0.999755859375;-0.052490234375;0.439999998889107;45;100 mA
114.416909711125;-0.99945068359375;-0.051910400390625;0.449999998863859;46;100 mA
114.4269097111;-0.999755859375;-0.051422119140625;0.459999998838612;47;100 mA
114.436909711075;-0.9991455078125;-0.05096435546875;0.469999998813364;48;100 mA
114.446909711049;-0.999755859375;-0.050445556640625;0.479999998788116;49;100 mA
114.456909711024;-0.99945068359375;-0.04998779296875;0.489999998762869;50;100 mA
114.466909710999;-0.99945068359375;-0.04949951171875;0.499999998737621;51;100 mA
114.476909710974;-0.99945068359375;-0.0489959716796875;0.509999998712374;52;100 mA
114.486909710948;-0.99884033203125;-0.04859619140625;0.519999998687126;53;100 mA
114.496909710923;-0.9991455078125;-0.048223876953125;0.529999998661879;54;100 mA
114.506909710898;-0.99945068359375;-0.0477874755859375;0.539999998636631;55;100 mA
114.516909710873;-0.9991455078125;-0.047369384765625;0.549999998611383;56;100 mA
114.526909710847;-0.999755859375;-0.0469207763671875;0.559999998586136;57;100 mA
114.536909710822;-0.99945068359375;-0.046649169921875;0.569999998560888;58;100 mA
114.546909710797;-0.999755859375;-0.04617919921875;0.579999998535641;59;100 mA
114.556909710772;-0.999755859375;-0.0458099365234375;0.589999998510393;60;100 mA
114.566909710746;-0.999755859375;-0.0454315185546875;0.599999998485146;61;100 mA
114.576909710721;-0.99945068359375;-0.0451019287109375;0.609999998459898;62;100 mA
114.586909710696;-1.0003662109375;-0.044757080078125;0.61999999843465;63;100 mA
114.596909710671;-0.999755859375;-0.04444580078125;0.629999998409403;64;100 mA
114.606909710645;-1.0003662109375;-0.044122314453125;0.639999998384155;65;100 mA
114.61690971062;-1.00006103515625;-0.0438507080078125;0.649999998358908;66;100 mA
114.626909710595;-0.99945068359375;-0.043487548828125;0.65999999833366;67;100 mA
114.63690971057;-0.99945068359375;-0.043255615234375;0.669999998308413;68;100 mA
114.646909710544;-0.99945068359375;-0.0428619384765625;0.679999998283165;69;100 mA
114.656909710519;-0.99884033203125;-0.0425689697265625;0.689999998257917;70;100 mA
114.666909710494;-0.9991455078125;-0.04228515625;0.69999999823267;71;100 mA
114.676909710469;-0.9991455078125;-0.0420013427734375;0.709999998207422;72;100 mA
114.686909710443;-0.9991455078125;-0.0417236328125;0.719999998182175;73;100 mA
114.696909710418;-0.9991455078125;-0.0414703369140625;0.729999998156927;74;100 mA
114.706909710393;-0.9991455078125;-0.0412353515625;0.73999999813168;75;100 mA
114.716909710368;-0.9991455078125;-0.0409515380859375;0.749999998106432;76;100 mA
114.726909710342;-0.9991455078125;-0.040692138671875;0.759999998081184;77;100 mA
114.736909710317;-0.99884033203125;-0.0405120849609375;0.769999998055937;78;100 mA
114.746909710292;-0.99945068359375;-0.04022216796875;0.779999998030689;79;100 mA
114.756909710267;-0.99945068359375;-0.0400604248046875;0.789999998005442;80;100 mA
114.766909710241;-0.99945068359375;-0.0397705078125;0.799999997980194;81;100 mA
114.776909710216;-0.9991455078125;-0.039556884765625;0.809999997954947;82;100 mA
114.786909710191;-0.999755859375;-0.0393035888671875;0.819999997929699;83;100 mA
114.796909710166;-0.9991455078125;-0.0390411376953125;0.829999997904451;84;100 mA
114.80690971014;-0.9991455078125;-0.0388641357421875;0.839999997879204;85;100 mA
114.816909710115;-0.99945068359375;-0.0387054443359375;0.849999997853956;86;100 mA
114.82690971009;-0.99945068359375;-0.0384552001953125;0.859999997828709;87;100 mA
114.836909710065;-0.999755859375;-0.038275146484375;0.869999997803461;88;100 mA
114.846909710039;-0.999755859375;-0.038067626953125;0.879999997778214;89;100 mA
114.856909710014;-0.99884033203125;-0.0379150390625;0.889999997752966;90;100 mA
114.866909709989;-0.999755859375;-0.0376861572265625;0.899999997727718;91;100 mA
114.876909709964;-0.99945068359375;-0.037530517578125;0.909999997702471;92;100 mA
114.886909709938;-0.99884033203125;-0.0373199462890625;0.919999997677223;93;100 mA
114.896909709913;-0.9991455078125;-0.03714599609375;0.929999997651976;94;100 mA
114.906909709888;-0.999755859375;-0.0369598388671875;0.939999997626728;95;100 mA
114.916909709863;-0.9991455078125;-0.0367950439453125;0.949999997601481;96;100 mA
114.926909709837;-0.99945068359375;-0.0366546630859375;0.959999997576233;97;100 mA
114.936909709812;-0.99853515625;-0.0365142822265625;0.969999997550985;98;100 mA
114.946909709787;-0.999755859375;-0.03631591796875;0.979999997525738;99;100 mA
114.956909709762;-0.9991455078125;-0.036181640625;0.98999999750049;100;100 mA
114.966909709736;-0.99945068359375;-0.0360198974609375;0.999999997475243;101;100 mA
114.976909709711;-0.99945068359375;-0.0359039306640625;1.00999999745;102;100 mA
114.986909709686;-0.9991455078125;-0.0357208251953125;1.01999999742475;103;100 mA
114.996909709661;-0.99945068359375;-0.0356353759765625;1.0299999973995;104;100 mA
115.006909709635;-0.999755859375;-0.0354278564453125;1.03999999737425;105;100 mA
115.01690970961;-0.99945068359375;-0.0353179931640625;1.049999997349;106;100 mA
115.026909709585;-0.99945068359375;-0.03514404296875;1.05999999732376;107;100 mA
115.03690970956;-0.9991455078125;-0.0350830078125;1.06999999729851;108;100 mA
115.046909709534;-0.9991455078125;-0.0349578857421875;1.07999999727326;109;100 mA
115.056909709509;-0.999755859375;-0.03486328125;1.08999999724801;110;100 mA
115.066909709484;-0.99945068359375;-0.0347015380859375;1.09999999722277;111;100 mA
115.076909709459;-0.9991455078125;-0.03458251953125;1.10999999719752;112;100 mA
115.086909709433;-0.99945068359375;-0.034393310546875;1.11999999717227;113;100 mA
115.096909709408;-0.99945068359375;-0.0343292236328125;1.12999999714702;114;100 mA
115.106909709383;-0.9991455078125;-0.03414306640625;1.13999999712178;115;100 mA
115.116909709358;-0.9991455078125;-0.0340789794921875;1.14999999709653;116;100 mA
115.126909709332;-0.9991455078125;-0.0339141845703125;1.15999999707128;117;100 mA
115.136909709307;-0.9991455078125;-0.033856201171875;1.16999999704603;118;100 mA
115.146909709282;-0.99884033203125;-0.03365478515625;1.17999999702079;119;100 mA
115.156909709257;-0.9991455078125;-0.033544921875;1.18999999699554;120;100 mA
115.166909709232;-0.999755859375;-0.0333892822265625;1.19999999697029;121;100 mA
115.176909709206;-0.999755859375;-0.033306884765625;1.20999999694504;122;100 mA
115.186909709181;-0.9991455078125;-0.0331756591796875;1.2199999969198;123;100 mA
115.196909709156;-0.999755859375;-0.03306884765625;1.22999999689455;124;100 mA
115.206909709131;-0.9991455078125;-0.0329345703125;1.2399999968693;125;100 mA
115.216909709105;-0.999755859375;-0.0328582763671875;1.24999999684405;126;100 mA
115.22690970908;-0.9991455078125;-0.032720947265625;1.25999999681881;127;100 mA
115.236909709055;-0.9991455078125;-0.0326629638671875;1.26999999679356;128;100 mA
115.24690970903;-0.99945068359375;-0.0324737548828125;1.27999999676831;129;100 mA
115.256909709004;-0.99884033203125;-0.0324066162109375;1.28999999674306;130;100 mA
115.266909708979;-0.999755859375;-0.032269287109375;1.29999999671782;131;100 mA
115.276909708954;-1.0003662109375;-0.032159423828125;1.30999999669257;132;100 mA
115.286909708929;-0.99945068359375;-0.0320404052734375;1.31999999666732;133;100 mA
115.296909708903;-0.99945068359375;-0.031951904296875;1.32999999664207;134;100 mA
115.306909708878;-0.9991455078125;-0.0318572998046875;1.33999999661683;135;100 mA
115.316909708853;-0.9991455078125;-0.0317474365234375;1.34999999659158;136;100 mA
115.326909708828;-0.99945068359375;-0.0316375732421875;1.35999999656633;137;100 mA
115.336909708802;-0.9991455078125;-0.031585693359375;1.36999999654108;138;100 mA
115.346909708777;-0.99945068359375;-0.0314544677734375;1.37999999651583;139;100 mA
115.356909708752;-0.99945068359375;-0.0313995361328125;1.38999999649059;140;100 mA
115.366909708727;-0.9991455078125;-0.0312957763671875;1.39999999646534;141;100 mA
115.376909708701;-0.999755859375;-0.031195068359375;1.40999999644009;142;100 mA
115.386909708676;-0.999755859375;-0.031103515625;1.41999999641484;143;100 mA
115.396909708651;-0.99945068359375;-0.03101806640625;1.4299999963896;144;100 mA
115.406909708626;-0.999755859375;-0.030938720703125;1.43999999636435;145;100 mA
115.4169097086;-0.9991455078125;-0.030877685546875;1.4499999963391;146;100 mA
115.426909708575;-0.9991455078125;-0.0307403564453125;1.45999999631385;147;100 mA
115.43690970855;-0.9991455078125;-0.03067626953125;1.46999999628861;148;100 mA
115.446909708525;-0.999755859375;-0.0305633544921875;1.47999999626336;149;100 mA
115.456909708499;-0.99945068359375;-0.0305206298828125;1.48999999623811;150;100 mA
115.466909708474;-0.99945068359375;-0.030450439453125;1.49999999621286;151;100 mA
115.476909708449;-0.99945068359375;-0.0303802490234375;1.50999999618762;152;100 mA
115.486909708424;-0.99945068359375;-0.030328369140625;1.51999999616237;153;100 mA
115.496909708398;-0.99945068359375;-0.030218505859375;1.52999999613712;154;100 mA
115.506909708373;-0.999755859375;-0.030145263671875;1.53999999611187;155;100 mA
115.516909708348;-0.99945068359375;-0.0300323486328125;1.54999999608663;156;100 mA
115.526909708323;-0.99945068359375;-0.02994384765625;1.55999999606138;157;100 mA
115.536909708297;-0.9991455078125;-0.0299530029296875;1.56999999603613;158;100 mA
115.546909708272;-0.9991455078125;-0.029852294921875;1.57999999601088;159;100 mA
115.556909708247;-0.99945068359375;-0.0298126220703125;1.58999999598564;160;100 mA
115.566909708222;-0.999755859375;-0.029730224609375;1.59999999596039;161;100 mA
115.576909708196;-0.99945068359375;-0.0296844482421875;1.60999999593514;162;100 mA
115.586909708171;-0.999755859375;-0.0295928955078125;1.61999999590989;163;100 mA
115.596909708146;-0.99945068359375;-0.02957763671875;1.62999999588465;164;100 mA
115.606909708121;-0.999755859375;-0.029461669921875;1.6399999958594;165;100 mA
115.616909708095;-0.999755859375;-0.0294158935546875;1.64999999583415;166;100 mA
115.62690970807;-0.99945068359375;-0.029296875;1.6599999958089;167;100 mA
115.636909708045;-0.9991455078125;-0.029278564453125;1.66999999578366;168;100 mA
115.64690970802;-0.9991455078125;-0.0292144775390625;1.67999999575841;169;100 mA
115.656909707994;-0.999755859375;-0.029205322265625;1.68999999573316;170;100 mA
115.666909707969;-0.9991455078125;-0.0291046142578125;1.69999999570791;171;100 mA
115.676909707944;-0.99945068359375;-0.0290283203125;1.70999999568267;172;100 mA
115.686909707919;-0.999755859375;-0.02894287109375;1.71999999565742;173;100 mA
115.696909707893;-0.99945068359375;-0.0289398193359375;1.72999999563217;174;100 mA
115.706909707868;-0.9991455078125;-0.0288238525390625;1.73999999560692;175;100 mA
115.716909707843;-0.9991455078125;-0.0287872314453125;1.74999999558167;176;100 mA
115.726909707818;-0.99945068359375;-0.0286865234375;1.75999999555643;177;100 mA
115.736909707792;-1.00006103515625;-0.0286773681640625;1.76999999553118;178;100 mA
115.746909707767;-0.999755859375;-0.0285675048828125;1.77999999550593;179;100 mA
115.756909707742;-0.99884033203125;-0.028564453125;1.78999999548068;180;100 mA
115.766909707717;-0.99945068359375;-0.028485107421875;1.79999999545544;181;100 mA
115.776909707691;-0.999755859375;-0.0284698486328125;1.80999999543019;182;100 mA
115.786909707666;-0.99945068359375;-0.02841796875;1.81999999540494;183;100 mA
115.796909707641;-0.99945068359375;-0.028387451171875;1.82999999537969;184;100 mA
115.806909707616;-0.99945068359375;-0.0282958984375;1.83999999535445;185;100 mA
115.81690970759;-0.99945068359375;-0.0282684326171875;1.8499999953292;186;100 mA
115.826909707565;-0.999755859375;-0.02816162109375;1.85999999530395;187;100 mA
115.83690970754;-0.9991455078125;-0.0281463623046875;1.8699999952787;188;100 mA
115.846909707515;-0.999755859375;-0.028070068359375;1.87999999525346;189;100 mA
115.856909707489;-0.99945068359375;-0.0280487060546875;1.88999999522821;190;100 mA
115.866909707464;-0.99945068359375;-0.0279754638671875;1.89999999520296;191;100 mA
115.876909707439;-0.9991455078125;-0.02794189453125;1.90999999517771;192;100 mA
115.886909707414;-0.99945068359375;-0.0278533935546875;1.91999999515247;193;100 mA
115.896909707388;-0.99945068359375;-0.0278564453125;1.92999999512722;194;100 mA
115.906909707363;-0.99945068359375;-0.027801513671875;1.93999999510197;195;100 mA
115.916909707338;-0.99945068359375;-0.0277587890625;1.94999999507672;196;100 mA
115.926909707313;-0.99945068359375;-0.0276824951171875;1.95999999505148;197;100 mA
115.936909707287;-0.99945068359375;-0.02764892578125;1.96999999502623;198;100 mA
115.946909707262;-0.999755859375;-0.0275726318359375;1.97999999500098;199;100 mA
115.956909707237;-1.00006103515625;-0.0275390625;1.98999999497573;200;100 mA
115.966909707212;-0.99945068359375;-0.0274505615234375;1.99999999495049;201;100 mA
115.976909707186;-0.99945068359375;-0.027398681640625;2.00999999492524;202;100 mA
115.986909707161;-0.99945068359375;-0.027325439453125;2.01999999489999;203;100 mA
115.996909707136;-0.9991455078125;-0.0272735595703125;2.02999999487474;204;100 mA
116.006909707111;-0.99945068359375;-0.027215576171875;2.0399999948495;205;100 mA
116.016909707085;-0.999755859375;-0.0272125244140625;2.04999999482425;206;100 mA
116.02690970706;-0.9991455078125;-0.0270782470703125;2.059999994799;207;100 mA
116.036909707035;-0.999755859375;-0.0270721435546875;2.06999999477375;208;100 mA
116.04690970701;-0.99945068359375;-0.0269622802734375;2.0799999947485;209;100 mA
116.056909706984;-0.999755859375;-0.0269378662109375;2.08999999472326;210;100 mA
116.066909706959;-0.9991455078125;-0.0268829345703125;2.09999999469801;211;100 mA
116.076909706934;-0.999755859375;-0.02685546875;2.10999999467276;212;100 mA
116.086909706909;-0.99945068359375;-0.0267852783203125;2.11999999464751;213;100 mA
116.096909706883;-0.999755859375;-0.0267364501953125;2.12999999462227;214;100 mA
116.106909706858;-0.99945068359375;-0.026715087890625;2.13999999459702;215;100 mA
116.116909706833;-0.99945068359375;-0.0266387939453125;2.14999999457177;216;100 mA
116.126909706808;-0.99884033203125;-0.026593017578125;2.15999999454652;217;100 mA
116.136909706782;-0.99945068359375;-0.0266082763671875;2.16999999452128;218;100 mA
116.146909706757;-0.99945068359375;-0.026519775390625;2.17999999449603;219;100 mA
116.156909706732;-0.99945068359375;-0.02657470703125;2.18999999447078;220;100 mA
116.166909706707;-0.999755859375;-0.02655029296875;2.19999999444553;221;100 mA
116.176909706681;-0.9991455078125;-0.0264801025390625;2.20999999442029;222;100 mA
116.186909706656;-0.99945068359375;-0.0263946533203125;2.21999999439504;223;100 mA
116.196909706631;-0.999755859375;-0.0264007568359375;2.22999999436979;224;100 mA
116.206909706606;-0.99945068359375;-0.026324462890625;2.23999999434454;225;100 mA
116.216909706581;-0.99945068359375;-0.02635498046875;2.2499999943193;226;100 mA
116.226909706555;-0.99945068359375;-0.026300048828125;2.25999999429405;227;100 mA
116.23690970653;-0.99945068359375;-0.02628173828125;2.2699999942688;228;100 mA
116.246909706505;-0.99884033203125;-0.026214599609375;2.27999999424355;229;100 mA
116.25690970648;-0.99945068359375;-0.0262237548828125;2.28999999421831;230;100 mA
116.266909706454;-0.99884033203125;-0.026141357421875;2.29999999419306;231;100 mA
116.276909706429;-0.99884033203125;-0.026141357421875;2.30999999416781;232;100 mA
116.286909706404;-0.999755859375;-0.02606201171875;2.31999999414256;233;100 mA
116.296909706379;-0.9991455078125;-0.0260589599609375;2.32999999411732;234;100 mA
116.306909706353;-0.9991455078125;-0.0260345458984375;2.33999999409207;235;100 mA
116.316909706328;-0.99945068359375;-0.0259918212890625;2.34999999406682;236;100 mA
116.326909706303;-0.99945068359375;-0.025872802734375;2.35999999404157;237;100 mA
116.336909706278;-0.9991455078125;-0.02586669921875;2.36999999401633;238;100 mA
116.346909706252;-0.9991455078125;-0.02578125;2.37999999399108;239;100 mA
116.356909706227;-0.99884033203125;-0.02578125;2.38999999396583;240;100 mA
116.366909706202;-0.999755859375;-0.0257171630859375;2.39999999394058;241;100 mA
116.376909706177;-0.999755859375;-0.0257110595703125;2.40999999391533;242;100 mA
116.386909706151;-1.00006103515625;-0.0256439208984375;2.41999999389009;243;100 mA
116.396909706126;-0.999755859375;-0.0255950927734375;2.42999999386484;244;100 mA
116.406909706101;-0.99945068359375;-0.025537109375;2.43999999383959;245;100 mA
116.416909706076;-0.9991455078125;-0.025518798828125;2.44999999381434;246;100 mA
116.42690970605;-0.999755859375;-0.0255096435546875;2.4599999937891;247;100 mA
116.436909706025;-0.9991455078125;-0.0254974365234375;2.46999999376385;248;100 mA
116.446909706;-0.999755859375;-0.0253936767578125;2.4799999937386;249;100 mA
116.456909705975;-0.9991455078125;-0.02537841796875;2.48999999371335;250;100 mA
116.466909705949;-0.999755859375;-0.02532958984375;2.49999999368811;251;100 mA
116.476909705924;-0.99945068359375;-0.02528076171875;2.50999999366286;252;100 mA
116.486909705899;-0.99945068359375;-0.0252288818359375;2.51999999363761;253;100 mA
116.496909705874;-0.99945068359375;-0.025213623046875;2.52999999361236;254;100 mA
116.506909705848;-0.9991455078125;-0.02515869140625;2.53999999358712;255;100 mA
116.516909705823;-0.99945068359375;-0.0251251220703125;2.54999999356187;256;100 mA
116.526909705798;-0.999755859375;-0.025091552734375;2.55999999353662;257;100 mA
116.536909705773;-0.99945068359375;-0.0250823974609375;2.56999999351137;258;100 mA
116.546909705747;-0.99945068359375;-0.025006103515625;2.57999999348613;259;100 mA
116.556909705722;-0.9991455078125;-0.0250030517578125;2.58999999346088;260;100 mA
116.566909705697;-0.99945068359375;-0.024951171875;2.59999999343563;261;100 mA
116.576909705672;-0.9991455078125;-0.0249542236328125;2.60999999341038;262;100 mA
116.586909705646;-0.9991455078125;-0.02490234375;2.61999999338514;263;100 mA
116.596909705621;-0.9991455078125;-0.02489013671875;2.62999999335989;264;100 mA
116.606909705596;-0.99945068359375;-0.024859619140625;2.63999999333464;265;100 mA
116.616909705571;-0.9991455078125;-0.02489013671875;2.64999999330939;266;100 mA
116.626909705545;-0.99945068359375;-0.024810791015625;2.65999999328415;267;100 mA
116.63690970552;-0.99945068359375;-0.02479248046875;2.6699999932589;268;100 mA
116.646909705495;-0.999755859375;-0.0247344970703125;2.67999999323365;269;100 mA
116.65690970547;-0.999755859375;-0.024786376953125;2.6899999932084;270;100 mA
116.666909705444;-0.99945068359375;-0.024761962890625;2.69999999318316;271;100 mA
116.676909705419;-0.99945068359375;-0.0247314453125;2.70999999315791;272;100 mA
116.686909705394;-0.9991455078125;-0.0246795654296875;2.71999999313266;273;100 mA
116.696909705369;-0.99945068359375;-0.0246307373046875;2.72999999310741;274;100 mA
116.706909705343;-0.99945068359375;-0.024591064453125;2.73999999308217;275;100 mA
116.716909705318;-0.9991455078125;-0.02454833984375;2.74999999305692;276;100 mA
116.726909705293;-0.99945068359375;-0.024505615234375;2.75999999303167;277;100 mA
116.736909705268;-0.9991455078125;-0.0245025634765625;2.76999999300642;278;100 mA
116.746909705242;-0.99945068359375;-0.024432373046875;2.77999999298117;279;100 mA
116.756909705217;-0.99945068359375;-0.024432373046875;2.78999999295593;280;100 mA
116.766909705192;-0.99945068359375;-0.0244049072265625;2.79999999293068;281;100 mA
116.776909705167;-0.9991455078125;-0.0243865966796875;2.80999999290543;282;100 mA
116.786909705141;-0.999755859375;-0.0243316650390625;2.81999999288018;283;100 mA
116.796909705116;-0.99884033203125;-0.0243377685546875;2.82999999285494;284;100 mA
116.806909705091;-0.99884033203125;-0.0242919921875;2.83999999282969;285;100 mA
116.816909705066;-0.99945068359375;-0.0242828369140625;2.84999999280444;286;100 mA
116.82690970504;-0.9991455078125;-0.0242462158203125;2.85999999277919;287;100 mA
116.836909705015;-0.99945068359375;-0.024237060546875;2.86999999275395;288;100 mA
116.84690970499;-0.9991455078125;-0.0241729736328125;2.8799999927287;289;100 mA
116.856909704965;-0.99945068359375;-0.024163818359375;2.88999999270345;290;100 mA
116.866909704939;-0.99945068359375;-0.024090576171875;2.8999999926782;291;100 mA
116.876909704914;-0.9991455078125;-0.024053955078125;2.90999999265296;292;100 mA
116.886909704889;-0.99945068359375;-0.024005126953125;2.91999999262771;293;100 mA
116.896909704864;-0.99884033203125;-0.02398681640625;2.92999999260246;294;100 mA
116.906909704838;-0.9991455078125;-0.0239349365234375;2.93999999257721;295;100 mA
116.916909704813;-0.999755859375;-0.023907470703125;2.94999999255197;296;100 mA
116.926909704788;-0.99945068359375;-0.0238433837890625;2.95999999252672;297;100 mA
116.936909704763;-0.999755859375;-0.023870849609375;2.96999999250147;298;100 mA
116.946909704737;-0.99884033203125;-0.023785400390625;2.97999999247622;299;100 mA
116.956909704712;-0.99945068359375;-0.0237640380859375;2.98999999245098;300;100 mA
116.966909704687;-0.9991455078125;-0.0237457275390625;2.99999999242573;301;100 mA
116.976909704662;-0.999755859375;-0.0237518310546875;3.00999999240048;302;100 mA
116.986909704636;-0.9991455078125;-0.023699951171875;3.01999999237523;303;100 mA
116.996909704611;-0.99945068359375;-0.023681640625;3.02999999234999;304;100 mA
117.006909704586;-0.999755859375;-0.023651123046875;3.03999999232474;305;100 mA
117.016909704561;-0.99945068359375;-0.0236328125;3.04999999229949;306;100 mA
117.026909704535;-0.999755859375;-0.023602294921875;3.05999999227424;307;100 mA
117.03690970451;-0.999755859375;-0.02362060546875;3.069999992249;308;100 mA
117.046909704485;-0.999755859375;-0.02357177734375;3.07999999222375;309;100 mA
117.05690970446;-0.99945068359375;-0.023565673828125;3.0899999921985;310;100 mA
117.066909704434;-0.999755859375;-0.0235565185546875;3.09999999217325;311;100 mA
117.076909704409;-0.99945068359375;-0.0235382080078125;3.109999992148;312;100 mA
117.086909704384;-0.9991455078125;-0.023504638671875;3.11999999212276;313;100 mA
117.096909704359;-0.99884033203125;-0.0235107421875;3.12999999209751;314;100 mA
117.106909704333;-0.99945068359375;-0.02344970703125;3.13999999207226;315;100 mA
117.116909704308;-0.99945068359375;-0.0234832763671875;3.14999999204701;316;100 mA
117.126909704283;-0.9991455078125;-0.0234375;3.15999999202177;317;100 mA
117.136909704258;-0.99945068359375;-0.023431396484375;3.16999999199652;318;100 mA
117.146909704232;-0.99945068359375;-0.0233795166015625;3.17999999197127;319;100 mA
117.156909704207;-0.999755859375;-0.023388671875;3.18999999194602;320;100 mA
117.166909704182;-0.9991455078125;-0.023309326171875;3.19999999192078;321;100 mA
117.176909704157;-0.99945068359375;-0.023333740234375;3.20999999189553;322;100 mA
117.186909704131;-0.9991455078125;-0.0232818603515625;3.21999999187028;323;100 mA
117.196909704106;-0.9991455078125;-0.0232696533203125;3.22999999184503;324;100 mA
117.206909704081;-0.999755859375;-0.023223876953125;3.23999999181979;325;100 mA
117.216909704056;-0.99945068359375;-0.02325439453125;3.24999999179454;326;100 mA
117.226909704031;-0.99945068359375;-0.0232147216796875;3.25999999176929;327;100 mA
117.236909704005;-0.9991455078125;-0.0232086181640625;3.26999999174404;328;100 mA
117.24690970398;-0.99945068359375;-0.023162841796875;3.2799999917188;329;100 mA
117.256909703955;-1.00006103515625;-0.0231689453125;3.28999999169355;330;100 mA
117.26690970393;-0.9991455078125;-0.0231292724609375;3.2999999916683;331;100 mA
117.276909703904;-0.99945068359375;-0.0231414794921875;3.30999999164305;332;100 mA
117.286909703879;-0.999755859375;-0.02310791015625;3.31999999161781;333;100 mA
117.296909703854;-0.999755859375;-0.023095703125;3.32999999159256;334;100 mA
117.306909703829;-0.9991455078125;-0.02303466796875;3.33999999156731;335;100 mA
117.316909703803;-0.99945068359375;-0.0230224609375;3.34999999154206;336;100 mA
117.326909703778;-0.999755859375;-0.0229949951171875;3.35999999151682;337;100 mA
117.336909703753;-0.9991455078125;-0.0230194091796875;3.36999999149157;338;100 mA
117.346909703728;-0.99945068359375;-0.0229339599609375;3.37999999146632;339;100 mA
117.356909703702;-0.99945068359375;-0.022930908203125;3.38999999144107;340;100 mA
117.366909703677;-0.99945068359375;-0.022869873046875;3.39999999141583;341;100 mA
117.376909703652;-0.99945068359375;-0.022900390625;3.40999999139058;342;100 mA
117.386909703627;-0.999755859375;-0.0228515625;3.41999999136533;343;100 mA
117.396909703601;-1.00006103515625;-0.0228668212890625;3.42999999134008;344;100 mA
117.406909703576;-0.99945068359375;-0.022857666015625;3.43999999131483;345;100 mA
117.416909703551;-1.00006103515625;-0.02283935546875;3.44999999128959;346;100 mA
117.426909703526;-0.99945068359375;-0.0228302001953125;3.45999999126434;347;100 mA
117.4369097035;-0.9991455078125;-0.0228302001953125;3.46999999123909;348;100 mA
117.446909703475;-0.9991455078125;-0.0227813720703125;3.47999999121384;349;100 mA
117.45690970345;-0.99945068359375;-0.0227752685546875;3.4899999911886;350;100 mA
117.466909703425;-0.999755859375;-0.0227508544921875;3.49999999116335;351;100 mA
117.476909703399;-0.99853515625;-0.02271728515625;3.5099999911381;352;100 mA
117.486909703374;-0.99884033203125;-0.0227020263671875;3.51999999111285;353;100 mA
117.496909703349;-0.999755859375;-0.0226959228515625;3.52999999108761;354;100 mA
117.506909703324;-0.99945068359375;-0.0226654052734375;3.53999999106236;355;100 mA
117.516909703298;-0.9991455078125;-0.02264404296875;3.54999999103711;356;100 mA
117.526909703273;-0.99884033203125;-0.0226165771484375;3.55999999101186;357;100 mA
117.536909703248;-0.99945068359375;-0.0225921630859375;3.56999999098662;358;100 mA
117.546909703223;-0.999755859375;-0.0225341796875;3.57999999096137;359;100 mA
117.556909703197;-0.999755859375;-0.022509765625;3.58999999093612;360;100 mA
117.566909703172;-0.99945068359375;-0.022528076171875;3.59999999091087;361;100 mA
117.576909703147;-1.00006103515625;-0.0225250244140625;3.60999999088563;362;100 mA
117.586909703122;-0.99945068359375;-0.0224609375;3.61999999086038;363;100 mA
117.596909703096;-0.99945068359375;-0.022454833984375;3.62999999083513;364;100 mA
117.606909703071;-0.9991455078125;-0.0224090576171875;3.63999999080988;365;100 mA
117.616909703046;-0.99945068359375;-0.0223846435546875;3.64999999078464;366;100 mA
117.626909703021;-0.99945068359375;-0.0223602294921875;3.65999999075939;367;100 mA
117.636909702995;-0.99945068359375;-0.022369384765625;3.66999999073414;368;100 mA
117.64690970297;-0.99884033203125;-0.0223236083984375;3.67999999070889;369;100 mA
117.656909702945;-0.9991455078125;-0.0222900390625;3.68999999068365;370;100 mA
117.66690970292;-0.9991455078125;-0.02225341796875;3.6999999906584;371;100 mA
117.676909702894;-0.999755859375;-0.0222198486328125;3.70999999063315;372;100 mA
117.686909702869;-0.99945068359375;-0.0222198486328125;3.7199999906079;373;100 mA
117.696909702844;-0.99945068359375;-0.022222900390625;3.72999999058266;374;100 mA
117.706909702819;-0.999755859375;-0.02220458984375;3.73999999055741;375;100 mA
117.716909702793;-0.99945068359375;-0.022174072265625;3.74999999053216;376;100 mA
117.726909702768;-0.999755859375;-0.02215576171875;3.75999999050691;377;100 mA
117.736909702743;-0.99945068359375;-0.0221435546875;3.76999999048167;378;100 mA
117.746909702718;-0.9991455078125;-0.0221099853515625;3.77999999045642;379;100 mA
117.756909702692;-0.9991455078125;-0.0221282958984375;3.78999999043117;380;100 mA
117.766909702667;-0.9991455078125;-0.022088623046875;3.79999999040592;381;100 mA
117.776909702642;-0.9991455078125;-0.0220916748046875;3.80999999038067;382;100 mA
117.786909702617;-0.99884033203125;-0.022052001953125;3.81999999035543;383;100 mA
117.796909702591;-0.9991455078125;-0.0220703125;3.82999999033018;384;100 mA
117.806909702566;-0.9991455078125;-0.0220367431640625;3.83999999030493;385;100 mA
117.816909702541;-0.999755859375;-0.0220367431640625;3.84999999027968;386;100 mA
117.826909702516;-0.99945068359375;-0.02198486328125;3.85999999025444;387;100 mA
117.83690970249;-0.999755859375;-0.02198486328125;3.86999999022919;388;100 mA
117.846909702465;-0.999755859375;-0.0219451904296875;3.87999999020394;389;100 mA
117.85690970244;-0.99945068359375;-0.021990966796875;3.88999999017869;390;100 mA
117.866909702415;-0.999755859375;-0.0219635009765625;3.89999999015345;391;100 mA
117.876909702389;-0.99945068359375;-0.0219970703125;3.9099999901282;392;100 mA
117.886909702364;-0.99945068359375;-0.0219818115234375;3.91999999010295;393;100 mA
117.896909702339;-0.99945068359375;-0.0219879150390625;3.9299999900777;394;100 mA
117.906909702314;-0.999755859375;-0.0219635009765625;3.93999999005246;395;100 mA
117.916909702288;-0.99945068359375;-0.0219696044921875;3.94999999002721;396;100 mA
117.926909702263;-0.99945068359375;-0.0219696044921875;3.95999999000196;397;100 mA
117.936909702238;-0.99945068359375;-0.0219970703125;3.96999998997671;398;100 mA
117.946909702213;-0.999755859375;-0.021942138671875;3.97999998995147;399;100 mA
117.956909702187;-0.99945068359375;-0.0219573974609375;3.98999998992622;400;100 mA
117.966909702162;-0.999755859375;-0.0218902587890625;3.99999998990097;401;100 mA
117.976909702137;-0.999755859375;-0.0219451904296875;4.00999998987572;402;100 mA
117.986909702112;-0.9991455078125;-0.021875;4.01999998985048;403;100 mA
117.996909702086;-0.99945068359375;-0.021881103515625;4.02999998982523;404;100 mA
118.006909702061;-0.99945068359375;-0.021826171875;4.03999998979998;405;100 mA
118.016909702036;-0.9991455078125;-0.021795654296875;4.04999998977473;406;100 mA
118.026909702011;-0.9991455078125;-0.0217529296875;4.05999998974949;407;100 mA
118.036909701985;-0.99945068359375;-0.0217620849609375;4.06999998972424;408;100 mA
118.04690970196;-0.99945068359375;-0.021710205078125;4.07999998969899;409;100 mA
118.056909701935;-0.99945068359375;-0.0217529296875;4.08999998967374;410;100 mA
118.06690970191;-0.9991455078125;-0.0216949462890625;4.0999999896485;411;100 mA
118.076909701884;-0.999755859375;-0.0216796875;4.10999998962325;412;100 mA
118.086909701859;-0.999755859375;-0.021649169921875;4.119999989598;413;100 mA
118.096909701834;-0.99945068359375;-0.0216552734375;4.12999998957275;414;100 mA
118.106909701809;-0.99945068359375;-0.021612548828125;4.1399999895475;415;100 mA
118.116909701783;-0.9991455078125;-0.021624755859375;4.14999998952226;416;100 mA
118.126909701758;-0.99945068359375;-0.0215911865234375;4.15999998949701;417;100 mA
118.136909701733;-0.999755859375;-0.02158203125;4.16999998947176;418;100 mA
118.146909701708;-0.99945068359375;-0.0215362548828125;4.17999998944651;419;100 mA
118.156909701682;-0.999755859375;-0.02149658203125;4.18999998942127;420;100 mA
118.166909701657;-0.99945068359375;-0.0214874267578125;4.19999998939602;421;100 mA
118.176909701632;-0.9991455078125;-0.0215087890625;4.20999998937077;422;100 mA
118.186909701607;-0.99945068359375;-0.0214569091796875;4.21999998934552;423;100 mA
118.196909701581;-0.99945068359375;-0.0214385986328125;4.22999998932028;424;100 mA
118.206909701556;-0.999755859375;-0.021429443359375;4.23999998929503;425;100 mA
118.216909701531;-0.9991455078125;-0.02144775390625;4.24999998926978;426;100 mA
118.226909701506;-0.99945068359375;-0.0214111328125;4.25999998924453;427;100 mA
118.23690970148;-0.999755859375;-0.0214080810546875;4.26999998921929;428;100 mA
118.246909701455;-0.999755859375;-0.021368408203125;4.27999998919404;429;100 mA
118.25690970143;-0.99945068359375;-0.0213348388671875;4.28999998916879;430;100 mA
118.266909701405;-0.9991455078125;-0.0213226318359375;4.29999998914354;431;100 mA
118.27690970138;-0.99945068359375;-0.0212860107421875;4.3099999891183;432;100 mA
118.286909701354;-0.9991455078125;-0.0212890625;4.31999998909305;433;100 mA
118.296909701329;-0.99945068359375;-0.02130126953125;4.3299999890678;434;100 mA
118.306909701304;-0.99945068359375;-0.0212921142578125;4.33999998904255;435;100 mA
118.316909701279;-0.999755859375;-0.021282958984375;4.34999998901731;436;100 mA
118.326909701253;-0.99945068359375;-0.0212493896484375;4.35999998899206;437;100 mA
118.336909701228;-0.99945068359375;-0.0212860107421875;4.36999998896681;438;100 mA
118.346909701203;-0.999755859375;-0.021246337890625;4.37999998894156;439;100 mA
118.356909701178;-0.9991455078125;-0.0213348388671875;4.38999998891632;440;100 mA
118.366909701152;-0.99945068359375;-0.02130126953125;4.39999998889107;441;100 mA
118.376909701127;-0.999755859375;-0.0213104248046875;4.40999998886582;442;100 mA
118.386909701102;-0.999755859375;-0.02127685546875;4.41999998884057;443;100 mA
118.396909701077;-0.9991455078125;-0.0212738037109375;4.42999998881533;444;100 mA
118.406909701051;-0.99945068359375;-0.02125244140625;4.43999998879008;445;100 mA
118.416909701026;-0.999755859375;-0.021282958984375;4.44999998876483;446;100 mA
118.426909701001;-1.00006103515625;-0.02122802734375;4.45999998873958;447;100 mA
118.436909700976;-1.00006103515625;-0.0212310791015625;4.46999998871433;448;100 mA
118.44690970095;-0.999755859375;-0.021173095703125;4.47999998868909;449;100 mA
118.456909700925;-0.99945068359375;-0.0212249755859375;4.48999998866384;450;100 mA
118.4669097009;-0.9991455078125;-0.0211517333984375;4.49999998863859;451;100 mA
118.476909700875;-0.99945068359375;-0.02117919921875;4.50999998861334;452;100 mA
118.486909700849;-0.9991455078125;-0.0211212158203125;4.5199999885881;453;100 mA
118.496909700824;-0.999755859375;-0.0211578369140625;4.52999998856285;454;100 mA
118.506909700799;-0.99945068359375;-0.02113037109375;4.5399999885376;455;100 mA
118.516909700774;-0.9991455078125;-0.02115478515625;4.54999998851235;456;100 mA
118.526909700748;-0.9991455078125;-0.0211212158203125;4.55999998848711;457;100 mA
118.536909700723;-0.99945068359375;-0.0211517333984375;4.56999998846186;458;100 mA
118.546909700698;-0.99945068359375;-0.02110595703125;4.57999998843661;459;100 mA
118.556909700673;-0.9991455078125;-0.02108154296875;4.58999998841136;460;100 mA
118.566909700647;-0.9991455078125;-0.021044921875;4.59999998838612;461;100 mA
118.576909700622;-0.99945068359375;-0.0210540771484375;4.60999998836087;462;100 mA
118.586909700597;-0.99945068359375;-0.021038818359375;4.61999998833562;463;100 mA
118.596909700572;-0.999755859375;-0.0210418701171875;4.62999998831037;464;100 mA
118.606909700546;-0.9991455078125;-0.021014404296875;4.63999998828513;465;100 mA
118.616909700521;-0.9991455078125;-0.020977783203125;4.64999998825988;466;100 mA
118.626909700496;-0.9991455078125;-0.020928955078125;4.65999998823463;467;100 mA
118.636909700471;-0.9991455078125;-0.0209228515625;4.66999998820938;468;100 mA
118.646909700445;-0.99945068359375;-0.0208892822265625;4.67999998818414;469;100 mA
118.65690970042;-0.99884033203125;-0.0209014892578125;4.68999998815889;470;100 mA
118.666909700395;-0.9991455078125;-0.020880126953125;4.69999998813364;471;100 mA
118.67690970037;-0.999755859375;-0.020867919921875;4.70999998810839;472;100 mA
118.686909700344;-1.00006103515625;-0.0208648681640625;4.71999998808315;473;100 mA
118.696909700319;-0.99945068359375;-0.0208740234375;4.7299999880579;474;100 mA
118.706909700294;-0.9991455078125;-0.0208587646484375;4.73999998803265;475;100 mA
118.716909700269;-0.999755859375;-0.0208526611328125;4.7499999880074;476;100 mA
118.726909700243;-0.9991455078125;-0.0208251953125;4.75999998798216;477;100 mA
118.736909700218;-0.9991455078125;-0.0207916259765625;4.76999998795691;478;100 mA
118.746909700193;-0.999755859375;-0.0207763671875;4.77999998793166;479;100 mA
118.756909700168;-0.99945068359375;-0.02076416015625;4.78999998790641;480;100 mA
118.766909700142;-0.9991455078125;-0.02076416015625;4.79999998788116;481;100 mA
118.776909700117;-0.99945068359375;-0.0207733154296875;4.80999998785592;482;100 mA
118.786909700092;-0.9991455078125;-0.0207550048828125;4.81999998783067;483;100 mA
118.796909700067;-0.99945068359375;-0.0207244873046875;4.82999998780542;484;100 mA
118.806909700041;-0.99945068359375;-0.0207366943359375;4.83999998778017;485;100 mA
118.816909700016;-0.999755859375;-0.0207427978515625;4.84999998775493;486;100 mA
118.826909699991;-0.9991455078125;-0.020721435546875;4.85999998772968;487;100 mA
118.836909699966;-0.9991455078125;-0.0207305908203125;4.86999998770443;488;100 mA
118.84690969994;-0.9991455078125;-0.020709228515625;4.87999998767918;489;100 mA
118.856909699915;-0.999755859375;-0.020721435546875;4.88999998765394;490;100 mA
118.86690969989;-0.99945068359375;-0.020733642578125;4.89999998762869;491;100 mA
118.876909699865;-0.99945068359375;-0.0206878662109375;4.90999998760344;492;100 mA
118.886909699839;-0.9991455078125;-0.0206756591796875;4.91999998757819;493;100 mA
118.896909699814;-0.9991455078125;-0.0206878662109375;4.92999998755295;494;100 mA
118.906909699789;-0.9991455078125;-0.0207000732421875;4.9399999875277;495;100 mA
118.916909699764;-0.99945068359375;-0.0207122802734375;4.94999998750245;496;100 mA
118.926909699738;-0.99945068359375;-0.0206939697265625;4.9599999874772;497;100 mA
118.936909699713;-0.99945068359375;-0.0207244873046875;4.96999998745196;498;100 mA
118.946909699688;-0.99945068359375;-0.02073974609375;4.97999998742671;499;100 mA
118.956909699663;-0.999755859375;-0.02076416015625;4.98999998740146;500;100 mA
118.966909699637;-0.99945068359375;-0.020709228515625;4.99999998737621;501;100 mA
118.976909699612;-0.99945068359375;-0.020709228515625;5.00999998735097;502;100 mA
118.986909699587;-0.9991455078125;-0.0206939697265625;5.01999998732572;503;100 mA
118.996909699562;-0.99945068359375;-0.020697021484375;5.02999998730047;504;100 mA
119.006909699536;-0.99945068359375;-0.020709228515625;5.03999998727522;505;100 mA
119.016909699511;-0.99945068359375;-0.0207427978515625;5.04999998724998;506;100 mA
119.026909699486;-0.999755859375;-0.0207183837890625;5.05999998722473;507;100 mA
119.036909699461;-0.99884033203125;-0.0207061767578125;5.06999998719948;508;100 mA
119.046909699435;-0.999755859375;-0.0206939697265625;5.07999998717423;509;100 mA
119.05690969941;-0.9991455078125;-0.0207122802734375;5.08999998714899;510;100 mA
119.066909699385;-0.999755859375;-0.020672607421875;5.09999998712374;511;100 mA
119.07690969936;-0.9991455078125;-0.02071533203125;5.10999998709849;512;100 mA
119.086909699334;-0.99945068359375;-0.0206787109375;5.11999998707324;513;100 mA
119.096909699309;-0.999755859375;-0.020703125;5.129999987048;514;100 mA
119.106909699284;-0.99945068359375;-0.0206634521484375;5.13999998702275;515;100 mA
119.116909699259;-0.99945068359375;-0.02066650390625;5.1499999869975;516;100 mA
119.126909699233;-0.999755859375;-0.0206573486328125;5.15999998697225;517;100 mA
119.136909699208;-0.9991455078125;-0.020684814453125;5.169999986947;518;100 mA
119.146909699183;-0.9991455078125;-0.0206329345703125;5.17999998692176;519;100 mA
119.156909699158;-0.999755859375;-0.0206512451171875;5.18999998689651;520;100 mA
119.166909699132;-0.9991455078125;-0.0206146240234375;5.19999998687126;521;100 mA
119.176909699107;-0.999755859375;-0.0206451416015625;5.20999998684601;522;100 mA
119.186909699082;-0.99945068359375;-0.0206298828125;5.21999998682077;523;100 mA
119.196909699057;-0.999755859375;-0.020648193359375;5.22999998679552;524;100 mA
119.206909699031;-0.9991455078125;-0.020611572265625;5.23999998677027;525;100 mA
119.216909699006;-0.9991455078125;-0.0206207275390625;5.24999998674502;526;100 mA
119.226909698981;-0.9991455078125;-0.0206024169921875;5.25999998671978;527;100 mA
119.236909698956;-0.99945068359375;-0.020587158203125;5.26999998669453;528;100 mA
119.24690969893;-0.9991455078125;-0.0205657958984375;5.27999998666928;529;100 mA
119.256909698905;-0.999755859375;-0.02059326171875;5.28999998664403;530;100 mA
119.26690969888;-0.99884033203125;-0.02056884765625;5.29999998661879;531;100 mA
119.276909698855;-0.9991455078125;-0.020587158203125;5.30999998659354;532;100 mA
119.28690969883;-1.00006103515625;-0.020562744140625;5.31999998656829;533;100 mA
119.296909698804;-0.99945068359375;-0.020574951171875;5.32999998654304;534;100 mA
119.306909698779;-0.999755859375;-0.0205718994140625;5.3399999865178;535;100 mA
119.316909698754;-1.00006103515625;-0.020574951171875;5.34999998649255;536;100 mA
119.326909698729;-0.99945068359375;-0.0205810546875;5.3599999864673;537;100 mA
119.336909698703;-0.99884033203125;-0.020587158203125;5.36999998644205;538;100 mA
119.346909698678;-0.999755859375;-0.0205810546875;5.37999998641681;539;100 mA
119.356909698653;-0.9991455078125;-0.0205657958984375;5.38999998639156;540;100 mA
119.366909698628;-0.9991455078125;-0.0205352783203125;5.39999998636631;541;100 mA
119.376909698602;-0.999755859375;-0.020550537109375;5.40999998634106;542;100 mA
119.386909698577;-0.999755859375;-0.0205169677734375;5.41999998631582;543;100 mA
119.396909698552;-0.99945068359375;-0.020538330078125;5.42999998629057;544;100 mA
119.406909698527;-0.999755859375;-0.02052001953125;5.43999998626532;545;100 mA
119.416909698501;-0.9991455078125;-0.020550537109375;5.44999998624007;546;100 mA
119.426909698476;-0.99945068359375;-0.0204925537109375;5.45999998621483;547;100 mA
119.436909698451;-0.99945068359375;-0.0205169677734375;5.46999998618958;548;100 mA
119.446909698426;-0.999755859375;-0.020458984375;5.47999998616433;549;100 mA
119.4569096984;-0.99945068359375;-0.0205108642578125;5.48999998613908;550;100 mA
119.466909698375;-0.99945068359375;-0.020489501953125;5.49999998611383;551;100 mA
119.47690969835;-0.999755859375;-0.0204437255859375;5.50999998608859;552;100 mA
119.486909698325;-0.999755859375;-0.020452880859375;5.51999998606334;553;100 mA
119.496909698299;-0.9991455078125;-0.020465087890625;5.52999998603809;554;100 mA
119.506909698274;-0.999755859375;-0.0204345703125;5.53999998601284;555;100 mA
119.516909698249;-0.999755859375;-0.02044677734375;5.5499999859876;556;100 mA
119.526909698224;-0.9991455078125;-0.020404052734375;5.55999998596235;557;100 mA
119.536909698198;-0.99945068359375;-0.0204559326171875;5.5699999859371;558;100 mA
119.546909698173;-0.99945068359375;-0.0203948974609375;5.57999998591185;559;100 mA
119.556909698148;-0.99945068359375;-0.02044677734375;5.58999998588661;560;100 mA
119.566909698123;-0.9991455078125;-0.02041015625;5.59999998586136;561;100 mA
119.576909698097;-1.00006103515625;-0.0204254150390625;5.60999998583611;562;100 mA
119.586909698072;-0.99945068359375;-0.020391845703125;5.61999998581086;563;100 mA
119.596909698047;-0.99945068359375;-0.0203887939453125;5.62999998578562;564;100 mA
119.606909698022;-0.99945068359375;-0.0204010009765625;5.63999998576037;565;100 mA
119.616909697996;-0.9991455078125;-0.0204071044921875;5.64999998573512;566;100 mA
119.626909697971;-0.99945068359375;-0.0203521728515625;5.65999998570987;567;100 mA
119.636909697946;-0.9991455078125;-0.0203643798828125;5.66999998568463;568;100 mA
119.646909697921;-0.9991455078125;-0.0203216552734375;5.67999998565938;569;100 mA
119.656909697895;-0.999755859375;-0.02034912109375;5.68999998563413;570;100 mA
119.66690969787;-0.99945068359375;-0.020294189453125;5.69999998560888;571;100 mA
119.676909697845;-0.9991455078125;-0.0203369140625;5.70999998558364;572;100 mA
119.68690969782;-0.99945068359375;-0.0203033447265625;5.71999998555839;573;100 mA
119.696909697794;-0.999755859375;-0.020306396484375;5.72999998553314;574;100 mA
119.706909697769;-0.99945068359375;-0.0202911376953125;5.73999998550789;575;100 mA
119.716909697744;-0.99945068359375;-0.020343017578125;5.74999998548265;576;100 mA
119.726909697719;-0.9991455078125;-0.0203216552734375;5.7599999854574;577;100 mA
119.736909697693;-0.99945068359375;-0.0203460693359375;5.76999998543215;578;100 mA
119.746909697668;-0.99945068359375;-0.0202850341796875;5.7799999854069;579;100 mA
119.756909697643;-0.9991455078125;-0.0202972412109375;5.78999998538166;580;100 mA
119.766909697618;-0.999755859375;-0.0202606201171875;5.79999998535641;581;100 mA
119.776909697592;-0.99945068359375;-0.0202606201171875;5.80999998533116;582;100 mA
119.786909697567;-0.99945068359375;-0.020233154296875;5.81999998530591;583;100 mA
119.796909697542;-0.9991455078125;-0.02025146484375;5.82999998528066;584;100 mA
119.806909697517;-0.99945068359375;-0.0202301025390625;5.83999998525542;585;100 mA
119.816909697491;-0.99945068359375;-0.0202301025390625;5.84999998523017;586;100 mA
119.826909697466;-0.99945068359375;-0.0202178955078125;5.85999998520492;587;100 mA
119.836909697441;-0.9991455078125;-0.0202178955078125;5.86999998517967;588;100 mA
119.846909697416;-0.999755859375;-0.020220947265625;5.87999998515443;589;100 mA
119.85690969739;-0.9991455078125;-0.02025146484375;5.88999998512918;590;100 mA
119.866909697365;-0.99945068359375;-0.020220947265625;5.89999998510393;591;100 mA
119.87690969734;-0.99945068359375;-0.020245361328125;5.90999998507868;592;100 mA
119.886909697315;-0.99884033203125;-0.0202301025390625;5.91999998505344;593;100 mA
119.896909697289;-0.99945068359375;-0.02022705078125;5.92999998502819;594;100 mA
119.906909697264;-0.9991455078125;-0.020196533203125;5.93999998500294;595;100 mA
119.916909697239;-0.999755859375;-0.02021484375;5.94999998497769;596;100 mA
119.926909697214;-0.99945068359375;-0.0201751708984375;5.95999998495245;597;100 mA
119.936909697188;-0.999755859375;-0.0201904296875;5.9699999849272;598;100 mA
119.946909697163;-0.9991455078125;-0.0201416015625;5.97999998490195;599;100 mA
119.956909697138;-0.99945068359375;-0.0201507568359375;5.9899999848767;600;100 mA
119.966909697113;-0.9991455078125;-0.0201202392578125;5.99999998485146;601;100 mA
119.976909697087;-0.99945068359375;-0.0201568603515625;6.00999998482621;602;100 mA
119.986909697062;-0.99945068359375;-0.0200897216796875;6.01999998480096;603;100 mA
119.996909697037;-0.99945068359375;-0.0200927734375;6.02999998477571;604;100 mA
120.006909697012;-0.999755859375;-0.020062255859375;6.03999998475047;605;100 mA
120.016909696986;-0.9991455078125;-0.020074462890625;6.04999998472522;606;100 mA
120.026909696961;-0.99884033203125;-0.02005615234375;6.05999998469997;607;100 mA
120.036909696936;-0.99945068359375;-0.02008056640625;6.06999998467472;608;100 mA
120.046909696911;-0.999755859375;-0.020037841796875;6.07999998464948;609;100 mA
120.056909696885;-0.9991455078125;-0.02005615234375;6.08999998462423;610;100 mA
120.06690969686;-0.99884033203125;-0.0200439453125;6.09999998459898;611;100 mA
120.076909696835;-0.9991455078125;-0.02003173828125;6.10999998457373;612;100 mA
120.08690969681;-0.99945068359375;-0.0200408935546875;6.11999998454849;613;100 mA
120.096909696784;-0.999755859375;-0.020062255859375;6.12999998452324;614;100 mA
120.106909696759;-0.999755859375;-0.0200286865234375;6.13999998449799;615;100 mA
120.116909696734;-0.999755859375;-0.0200592041015625;6.14999998447274;616;100 mA
120.126909696709;-0.9991455078125;-0.0200286865234375;6.1599999844475;617;100 mA
120.136909696683;-0.999755859375;-0.0200469970703125;6.16999998442225;618;100 mA
120.146909696658;-0.9991455078125;-0.020001220703125;6.179999984397;619;100 mA
120.156909696633;-0.99945068359375;-0.0200286865234375;6.18999998437175;620;100 mA
120.166909696608;-0.99945068359375;-0.019989013671875;6.1999999843465;621;100 mA
120.176909696582;-0.99884033203125;-0.0199798583984375;6.20999998432126;622;100 mA
120.186909696557;-0.999755859375;-0.019952392578125;6.21999998429601;623;100 mA
120.196909696532;-0.99945068359375;-0.01993408203125;6.22999998427076;624;100 mA
120.206909696507;-0.99945068359375;-0.0199493408203125;6.23999998424551;625;100 mA
120.216909696481;-0.999755859375;-0.01995849609375;6.24999998422027;626;100 mA
120.226909696456;-0.99945068359375;-0.01990966796875;6.25999998419502;627;100 mA
120.236909696431;-0.9991455078125;-0.0199249267578125;6.26999998416977;628;100 mA
120.246909696406;-0.9991455078125;-0.01986083984375;6.27999998414452;629;100 mA
120.25690969638;-0.99945068359375;-0.0198944091796875;6.28999998411928;630;100 mA
120.266909696355;-0.9991455078125;-0.0198516845703125;6.29999998409403;631;100 mA
120.27690969633;-0.99945068359375;-0.0198455810546875;6.30999998406878;632;100 mA
120.286909696305;-0.9991455078125;-0.0198394775390625;6.31999998404353;633;100 mA
120.296909696279;-0.99945068359375;-0.0198089599609375;6.32999998401829;634;100 mA
120.306909696254;-0.99945068359375;-0.019805908203125;6.33999998399304;635;100 mA
120.316909696229;-0.9991455078125;-0.019805908203125;6.34999998396779;636;100 mA
120.326909696204;-1.00006103515625;-0.01982421875;6.35999998394254;637;100 mA
120.336909696179;-0.99945068359375;-0.019842529296875;6.3699999839173;638;100 mA
120.346909696153;-0.99945068359375;-0.0197998046875;6.37999998389205;639;100 mA
120.356909696128;-0.9991455078125;-0.019805908203125;6.3899999838668;640;100 mA
120.366909696103;-0.99945068359375;-0.0197906494140625;6.39999998384155;641;100 mA
120.376909696078;-1.00006103515625;-0.019793701171875;6.40999998381631;642;100 mA
120.386909696052;-0.99945068359375;-0.0197845458984375;6.41999998379106;643;100 mA
120.396909696027;-0.99945068359375;-0.019781494140625;6.42999998376581;644;100 mA
120.406909696002;-0.9991455078125;-0.0197723388671875;6.43999998374056;645;100 mA
120.416909695977;-0.999755859375;-0.0197357177734375;6.44999998371532;646;100 mA
120.426909695951;-0.99945068359375;-0.019720458984375;6.45999998369007;647;100 mA
120.436909695926;-0.99945068359375;-0.01976318359375;6.46999998366482;648;100 mA
120.446909695901;-0.9991455078125;-0.0197418212890625;6.47999998363957;649;100 mA
120.456909695876;-0.99945068359375;-0.019757080078125;6.48999998361433;650;100 mA
120.46690969585;-0.99945068359375;-0.0197357177734375;6.49999998358908;651;100 mA
120.476909695825;-0.999755859375;-0.0197601318359375;6.50999998356383;652;100 mA
120.4869096958;-0.99945068359375;-0.0197418212890625;6.51999998353858;653;100 mA
120.496909695775;-0.9991455078125;-0.0197540283203125;6.52999998351333;654;100 mA
120.506909695749;-0.999755859375;-0.0197296142578125;6.53999998348809;655;100 mA
120.516909695724;-0.999755859375;-0.0197723388671875;6.54999998346284;656;100 mA
120.526909695699;-0.9991455078125;-0.0197479248046875;6.55999998343759;657;100 mA
120.536909695674;-0.9991455078125;-0.019744873046875;6.56999998341234;658;100 mA
120.546909695648;-0.9991455078125;-0.019708251953125;6.5799999833871;659;100 mA
120.556909695623;-1.00006103515625;-0.0197418212890625;6.58999998336185;660;100 mA
120.566909695598;-0.999755859375;-0.0197357177734375;6.5999999833366;661;100 mA
120.576909695573;-0.99945068359375;-0.0197723388671875;6.60999998331135;662;100 mA
120.586909695547;-0.999755859375;-0.019732666015625;6.61999998328611;663;100 mA
120.596909695522;-0.99945068359375;-0.0197357177734375;6.62999998326086;664;100 mA
120.606909695497;-0.9991455078125;-0.019757080078125;6.63999998323561;665;100 mA
120.616909695472;-0.999755859375;-0.019744873046875;6.64999998321036;666;100 mA
120.626909695446;-0.9991455078125;-0.0197174072265625;6.65999998318512;667;100 mA
120.636909695421;-0.99945068359375;-0.0197479248046875;6.66999998315987;668;100 mA
120.646909695396;-0.999755859375;-0.019708251953125;6.67999998313462;669;100 mA
120.656909695371;-0.9991455078125;-0.01973876953125;6.68999998310937;670;100 mA
120.666909695345;-0.9991455078125;-0.0197113037109375;6.69999998308413;671;100 mA
120.67690969532;-0.99945068359375;-0.01971435546875;6.70999998305888;672;100 mA
120.686909695295;-0.99945068359375;-0.0197052001953125;6.71999998303363;673;100 mA
120.69690969527;-0.999755859375;-0.0197235107421875;6.72999998300838;674;100 mA
120.706909695244;-0.99945068359375;-0.019708251953125;6.73999998298314;675;100 mA
120.716909695219;-0.99945068359375;-0.019757080078125;6.74999998295789;676;100 mA
120.726909695194;-0.9991455078125;-0.019696044921875;6.75999998293264;677;100 mA
120.736909695169;-0.9991455078125;-0.019720458984375;6.76999998290739;678;100 mA
120.746909695143;-0.99945068359375;-0.019708251953125;6.77999998288215;679;100 mA
120.756909695118;-0.9991455078125;-0.0197357177734375;6.7899999828569;680;100 mA
120.766909695093;-1.00006103515625;-0.0196990966796875;6.79999998283165;681;100 mA
120.776909695068;-0.99945068359375;-0.0196807861328125;6.8099999828064;682;100 mA
120.786909695042;-1.00006103515625;-0.0196746826171875;6.81999998278116;683;100 mA
120.796909695017;-0.99945068359375;-0.01968994140625;6.82999998275591;684;100 mA
120.806909694992;-0.999755859375;-0.0196929931640625;6.83999998273066;685;100 mA
120.816909694967;-0.99945068359375;-0.01968994140625;6.84999998270541;686;100 mA
120.826909694941;-0.99945068359375;-0.019659423828125;6.85999998268016;687;100 mA
120.836909694916;-0.99945068359375;-0.01966552734375;6.86999998265492;688;100 mA
120.846909694891;-0.999755859375;-0.0196380615234375;6.87999998262967;689;100 mA
120.856909694866;-0.99945068359375;-0.019647216796875;6.88999998260442;690;100 mA
120.86690969484;-0.99884033203125;-0.019622802734375;6.89999998257917;691;100 mA
120.876909694815;-0.999755859375;-0.019635009765625;6.90999998255393;692;100 mA
120.88690969479;-0.99945068359375;-0.0196624755859375;6.91999998252868;693;100 mA
120.896909694765;-0.9991455078125;-0.0196136474609375;6.92999998250343;694;100 mA
120.906909694739;-0.99884033203125;-0.0196075439453125;6.93999998247818;695;100 mA
120.916909694714;-0.9991455078125;-0.0195953369140625;6.94999998245294;696;100 mA
120.926909694689;-0.9991455078125;-0.01961669921875;6.95999998242769;697;100 mA
120.936909694664;-0.9991455078125;-0.0196441650390625;6.96999998240244;698;100 mA
120.946909694638;-0.999755859375;-0.01961669921875;6.97999998237719;699;100 mA
120.956909694613;-0.999755859375;-0.01964111328125;6.98999998235195;700;100 mA
120.966909694588;-0.99945068359375;-0.0196014404296875;6.9999999823267;701;100 mA
120.976909694563;-0.999755859375;-0.019610595703125;7.00999998230145;702;100 mA
120.986909694537;-0.999755859375;-0.0196197509765625;7.0199999822762;703;100 mA
120.996909694512;-0.99945068359375;-0.0196319580078125;7.02999998225096;704;100 mA
121.006909694487;-0.9991455078125;-0.01961669921875;7.03999998222571;705;100 mA
121.016909694462;-0.999755859375;-0.01959228515625;7.04999998220046;706;100 mA
121.026909694436;-0.999755859375;-0.0195831298828125;7.05999998217521;707;100 mA
121.036909694411;-0.99945068359375;-0.019580078125;7.06999998214997;708;100 mA
121.046909694386;-0.99945068359375;-0.0195953369140625;7.07999998212472;709;100 mA
121.056909694361;-0.99945068359375;-0.0196319580078125;7.08999998209947;710;100 mA
121.066909694335;-0.999755859375;-0.0196014404296875;7.09999998207422;711;100 mA
121.07690969431;-0.999755859375;-0.0196197509765625;7.10999998204898;712;100 mA
121.086909694285;-0.9991455078125;-0.0195770263671875;7.11999998202373;713;100 mA
121.09690969426;-0.99884033203125;-0.0195953369140625;7.12999998199848;714;100 mA
121.106909694234;-0.99945068359375;-0.019580078125;7.13999998197323;715;100 mA
121.116909694209;-0.9991455078125;-0.0196136474609375;7.14999998194799;716;100 mA
121.126909694184;-0.99945068359375;-0.0195831298828125;7.15999998192274;717;100 mA
121.136909694159;-0.9991455078125;-0.0196319580078125;7.16999998189749;718;100 mA
121.146909694133;-0.99945068359375;-0.0195953369140625;7.17999998187224;719;100 mA
121.156909694108;-0.99945068359375;-0.019610595703125;7.189999981847;720;100 mA
121.166909694083;-0.9991455078125;-0.019598388671875;7.19999998182175;721;100 mA
121.176909694058;-0.99945068359375;-0.01961669921875;7.2099999817965;722;100 mA
121.186909694032;-0.9991455078125;-0.0195831298828125;7.21999998177125;723;100 mA
121.196909694007;-0.99945068359375;-0.0195953369140625;7.229999981746;724;100 mA
121.206909693982;-0.99884033203125;-0.0195831298828125;7.23999998172076;725;100 mA
121.216909693957;-0.999755859375;-0.01964111328125;7.24999998169551;726;100 mA
121.226909693931;-0.99945068359375;-0.019610595703125;7.25999998167026;727;100 mA
121.236909693906;-0.999755859375;-0.0196624755859375;7.26999998164501;728;100 mA
121.246909693881;-0.99945068359375;-0.01962890625;7.27999998161977;729;100 mA
121.256909693856;-0.99945068359375;-0.0196441650390625;7.28999998159452;730;100 mA
121.26690969383;-0.99884033203125;-0.0196014404296875;7.29999998156927;731;100 mA
121.276909693805;-0.9991455078125;-0.0196197509765625;7.30999998154402;732;100 mA
121.28690969378;-0.999755859375;-0.01962890625;7.31999998151878;733;100 mA
121.296909693755;-0.9991455078125;-0.019635009765625;7.32999998149353;734;100 mA
121.306909693729;-0.9991455078125;-0.0196197509765625;7.33999998146828;735;100 mA
121.316909693704;-0.99945068359375;-0.0196319580078125;7.34999998144303;736;100 mA
121.326909693679;-0.99945068359375;-0.01961669921875;7.35999998141779;737;100 mA
121.336909693654;-0.999755859375;-0.0196502685546875;7.36999998139254;738;100 mA
121.346909693629;-0.9991455078125;-0.0196380615234375;7.37999998136729;739;100 mA
121.356909693603;-0.9991455078125;-0.0196563720703125;7.38999998134204;740;100 mA
121.366909693578;-0.9991455078125;-0.0196136474609375;7.3999999813168;741;100 mA
121.376909693553;-0.999755859375;-0.0196197509765625;7.40999998129155;742;100 mA
121.386909693528;-1.00006103515625;-0.0196075439453125;7.4199999812663;743;100 mA
121.396909693502;-0.9991455078125;-0.0196075439453125;7.42999998124105;744;100 mA
121.406909693477;-0.9991455078125;-0.0196014404296875;7.43999998121581;745;100 mA
121.416909693452;-0.9991455078125;-0.0196502685546875;7.44999998119056;746;100 mA
121.426909693427;-0.99945068359375;-0.01962890625;7.45999998116531;747;100 mA
121.436909693401;-0.99884033203125;-0.01962890625;7.46999998114006;748;100 mA
121.446909693376;-0.99884033203125;-0.0196136474609375;7.47999998111482;749;100 mA
121.456909693351;-0.999755859375;-0.0196380615234375;7.48999998108957;750;100 mA
121.466909693326;-0.9991455078125;-0.019622802734375;7.49999998106432;751;100 mA
121.4769096933;-0.999755859375;-0.01961669921875;7.50999998103907;752;100 mA
121.486909693275;-0.99945068359375;-0.019610595703125;7.51999998101383;753;100 mA
121.49690969325;-0.999755859375;-0.0196075439453125;7.52999998098858;754;100 mA
121.506909693225;-0.9991455078125;-0.0196044921875;7.53999998096333;755;100 mA
121.516909693199;-0.99945068359375;-0.01956787109375;7.54999998093808;756;100 mA
121.526909693174;-0.999755859375;-0.01959228515625;7.55999998091283;757;100 mA
121.536909693149;-1.00006103515625;-0.019622802734375;7.56999998088759;758;100 mA
121.546909693124;-0.9991455078125;-0.019580078125;7.57999998086234;759;100 mA
121.556909693098;-0.999755859375;-0.0195831298828125;7.58999998083709;760;100 mA
121.566909693073;-0.9991455078125;-0.0195526123046875;7.59999998081184;761;100 mA
121.576909693048;-0.9991455078125;-0.019561767578125;7.6099999807866;762;100 mA
121.586909693023;-0.99945068359375;-0.0195770263671875;7.61999998076135;763;100 mA
121.596909692997;-0.999755859375;-0.019586181640625;7.6299999807361;764;100 mA
121.606909692972;-0.99945068359375;-0.019537353515625;7.63999998071085;765;100 mA
121.616909692947;-0.9991455078125;-0.0195037841796875;7.64999998068561;766;100 mA
121.626909692922;-0.9991455078125;-0.0194976806640625;7.65999998066036;767;100 mA
121.636909692896;-0.9991455078125;-0.019488525390625;7.66999998063511;768;100 mA
121.646909692871;-0.99945068359375;-0.019488525390625;7.67999998060986;769;100 mA
121.656909692846;-0.99945068359375;-0.01951904296875;7.68999998058462;770;100 mA
121.666909692821;-0.99945068359375;-0.01949462890625;7.69999998055937;771;100 mA
121.676909692795;-0.99945068359375;-0.0195037841796875;7.70999998053412;772;100 mA
121.68690969277;-0.99945068359375;-0.019482421875;7.71999998050887;773;100 mA
121.696909692745;-0.99945068359375;-0.01953125;7.72999998048363;774;100 mA
121.70690969272;-0.99945068359375;-0.0195404052734375;7.73999998045838;775;100 mA
121.716909692694;-0.999755859375;-0.0195709228515625;7.74999998043313;776;100 mA
121.726909692669;-1.00006103515625;-0.01954345703125;7.75999998040788;777;100 mA
121.736909692644;-0.99945068359375;-0.0195953369140625;7.76999998038264;778;100 mA
121.746909692619;-0.99945068359375;-0.0195648193359375;7.77999998035739;779;100 mA
121.756909692593;-0.99945068359375;-0.019586181640625;7.78999998033214;780;100 mA
121.766909692568;-0.99945068359375;-0.0195953369140625;7.79999998030689;781;100 mA
121.776909692543;-0.9991455078125;-0.0196258544921875;7.80999998028165;782;100 mA
121.786909692518;-0.9991455078125;-0.0195648193359375;7.8199999802564;783;100 mA
121.796909692492;-0.999755859375;-0.019573974609375;7.82999998023115;784;100 mA
121.806909692467;-0.9991455078125;-0.0195648193359375;7.8399999802059;785;100 mA
121.816909692442;-0.99945068359375;-0.019610595703125;7.84999998018066;786;100 mA
121.826909692417;-0.9991455078125;-0.0196014404296875;7.85999998015541;787;100 mA
121.836909692391;-0.999755859375;-0.01964111328125;7.86999998013016;788;100 mA
121.846909692366;-0.99945068359375;-0.0195953369140625;7.87999998010491;789;100 mA
121.856909692341;-0.99945068359375;-0.0196075439453125;7.88999998007966;790;100 mA
121.866909692316;-0.99884033203125;-0.0195770263671875;7.89999998005442;791;100 mA
121.87690969229;-0.999755859375;-0.019580078125;7.90999998002917;792;100 mA
121.886909692265;-0.99945068359375;-0.01959228515625;7.91999998000392;793;100 mA
121.89690969224;-0.99884033203125;-0.019635009765625;7.92999997997867;794;100 mA
121.906909692215;-0.99884033203125;-0.0195953369140625;7.93999997995343;795;100 mA
121.916909692189;-0.999755859375;-0.0196075439453125;7.94999997992818;796;100 mA
121.926909692164;-0.99884033203125;-0.01956787109375;7.95999997990293;797;100 mA
121.936909692139;-0.999755859375;-0.019598388671875;7.96999997987768;798;100 mA
121.946909692114;-0.99945068359375;-0.01956787109375;7.97999997985244;799;100 mA
121.956909692088;-0.9991455078125;-0.0196014404296875;7.98999997982719;800;100 mA
121.966909692063;-0.999755859375;-0.0195770263671875;7.99999997980194;801;100 mA
121.976909692038;-0.9991455078125;-0.0195770263671875;8.00999997977669;802;100 mA
121.986909692013;-0.99945068359375;-0.0195831298828125;8.01999997975145;803;100 mA
121.996909691987;-1.00006103515625;-0.01959228515625;8.0299999797262;804;100 mA
122.006909691962;-0.999755859375;-0.019580078125;8.03999997970095;805;100 mA
122.016909691937;-1.00006103515625;-0.0196258544921875;8.0499999796757;806;100 mA
122.026909691912;-0.9991455078125;-0.0196075439453125;8.05999997965046;807;100 mA
122.036909691886;-0.99945068359375;-0.019622802734375;8.06999997962521;808;100 mA
122.046909691861;-0.99945068359375;-0.0196380615234375;8.07999997959996;809;100 mA
122.056909691836;-0.99884033203125;-0.019683837890625;8.08999997957471;810;100 mA
122.066909691811;-0.999755859375;-0.0196319580078125;8.09999997954947;811;100 mA
122.076909691785;-0.99945068359375;-0.0196533203125;8.10999997952422;812;100 mA
122.08690969176;-0.99945068359375;-0.0196563720703125;8.11999997949897;813;100 mA
122.096909691735;-0.99945068359375;-0.019622802734375;8.12999997947372;814;100 mA
122.10690969171;-0.99945068359375;-0.01962890625;8.13999997944848;815;100 mA
122.116909691684;-0.999755859375;-0.0196014404296875;8.14999997942323;816;100 mA
122.126909691659;-0.99945068359375;-0.0196197509765625;8.15999997939798;817;100 mA
122.136909691634;-0.9991455078125;-0.0196685791015625;8.16999997937273;818;100 mA
122.146909691609;-0.9991455078125;-0.01964111328125;8.17999997934749;819;100 mA
122.156909691583;-0.9991455078125;-0.0196533203125;8.18999997932224;820;100 mA
122.166909691558;-0.99945068359375;-0.0196044921875;8.19999997929699;821;100 mA
122.176909691533;-0.999755859375;-0.01962890625;8.20999997927174;822;100 mA
122.186909691508;-0.99945068359375;-0.0196502685546875;8.2199999792465;823;100 mA
122.196909691482;-0.99945068359375;-0.0196502685546875;8.22999997922125;824;100 mA
122.206909691457;-0.99945068359375;-0.01964111328125;8.239999979196;825;100 mA
122.216909691432;-0.999755859375;-0.0196044921875;8.24999997917075;826;100 mA
122.226909691407;-0.99945068359375;-0.0196044921875;8.2599999791455;827;100 mA
122.236909691381;-0.99945068359375;-0.0195770263671875;8.26999997912026;828;100 mA
122.246909691356;-0.999755859375;-0.0195770263671875;8.27999997909501;829;100 mA
122.256909691331;-0.99945068359375;-0.0196136474609375;8.28999997906976;830;100 mA
122.266909691306;-0.99945068359375;-0.0195770263671875;8.29999997904451;831;100 mA
122.27690969128;-1.00006103515625;-0.0195892333984375;8.30999997901927;832;100 mA
122.286909691255;-1.00006103515625;-0.019573974609375;8.31999997899402;833;100 mA
122.29690969123;-0.99945068359375;-0.019586181640625;8.32999997896877;834;100 mA
122.306909691205;-0.99945068359375;-0.0196014404296875;8.33999997894352;835;100 mA
122.316909691179;-0.99945068359375;-0.0196136474609375;8.34999997891828;836;100 mA
122.326909691154;-0.99884033203125;-0.019622802734375;8.35999997889303;837;100 mA
122.336909691129;-0.99945068359375;-0.0196197509765625;8.36999997886778;838;100 mA
122.346909691104;-0.9991455078125;-0.0196044921875;8.37999997884253;839;100 mA
122.356909691078;-0.9991455078125;-0.0196258544921875;8.38999997881729;840;100 mA
122.366909691053;-0.99945068359375;-0.0196258544921875;8.39999997879204;841;100 mA
122.376909691028;-0.9991455078125;-0.01966552734375;8.40999997876679;842;100 mA
122.386909691003;-0.999755859375;-0.0196533203125;8.41999997874154;843;100 mA
122.396909690978;-0.99945068359375;-0.0196624755859375;8.4299999787163;844;100 mA
122.406909690952;-0.9991455078125;-0.0196533203125;8.43999997869105;845;100 mA
122.416909690927;-0.9991455078125;-0.0196868896484375;8.4499999786658;846;100 mA
122.426909690902;-0.999755859375;-0.01966552734375;8.45999997864055;847;100 mA
122.436909690877;-0.999755859375;-0.0197235107421875;8.46999997861531;848;100 mA
122.446909690851;-0.99853515625;-0.0197052001953125;8.47999997859006;849;100 mA
122.456909690826;-0.9991455078125;-0.0197509765625;8.48999997856481;850;100 mA
122.466909690801;-0.999755859375;-0.019732666015625;8.49999997853956;851;100 mA
122.476909690776;-0.99945068359375;-0.019775390625;8.50999997851432;852;100 mA
122.48690969075;-0.999755859375;-0.0198028564453125;8.51999997848907;853;100 mA
122.496909690725;-0.999755859375;-0.0198089599609375;8.52999997846382;854;100 mA
122.5069096907;-0.99945068359375;-0.0197998046875;8.53999997843857;855;100 mA
122.516909690675;-0.99945068359375;-0.019842529296875;8.54999997841333;856;100 mA
122.526909690649;-0.999755859375;-0.0198150634765625;8.55999997838808;857;100 mA
122.536909690624;-0.999755859375;-0.0198333740234375;8.56999997836283;858;100 mA
122.546909690599;-0.99945068359375;-0.0197998046875;8.57999997833758;859;100 mA
122.556909690574;-0.9991455078125;-0.0198394775390625;8.58999997831233;860;100 mA
122.566909690548;-1.00006103515625;-0.019830322265625;8.59999997828709;861;100 mA
122.576909690523;-0.999755859375;-0.0198333740234375;8.60999997826184;862;100 mA
122.586909690498;-0.99945068359375;-0.019818115234375;8.61999997823659;863;100 mA
122.596909690473;-0.99945068359375;-0.0198089599609375;8.62999997821134;864;100 mA
122.606909690447;-0.99945068359375;-0.0197723388671875;8.6399999781861;865;100 mA
122.616909690422;-0.999755859375;-0.0197906494140625;8.64999997816085;866;100 mA
122.626909690397;-0.999755859375;-0.01976318359375;8.6599999781356;867;100 mA
122.636909690372;-0.9991455078125;-0.0197845458984375;8.66999997811035;868;100 mA
122.646909690346;-0.999755859375;-0.019769287109375;8.67999997808511;869;100 mA
122.656909690321;-0.9991455078125;-0.0198150634765625;8.68999997805986;870;100 mA
122.666909690296;-0.99945068359375;-0.0197906494140625;8.69999997803461;871;100 mA
122.676909690271;-0.99884033203125;-0.0198455810546875;8.70999997800936;872;100 mA
122.686909690245;-0.99884033203125;-0.0197845458984375;8.71999997798412;873;100 mA
122.69690969022;-0.999755859375;-0.0197906494140625;8.72999997795887;874;100 mA
122.706909690195;-0.999755859375;-0.0197601318359375;8.73999997793362;875;100 mA
122.71690969017;-0.99945068359375;-0.0197601318359375;8.74999997790837;876;100 mA
122.726909690144;-0.99945068359375;-0.019744873046875;8.75999997788313;877;100 mA
122.736909690119;-0.999755859375;-0.01976318359375;8.76999997785788;878;100 mA
122.746909690094;-0.999755859375;-0.0197113037109375;8.77999997783263;879;100 mA
122.756909690069;-0.9991455078125;-0.0197296142578125;8.78999997780738;880;100 mA
122.766909690043;-0.9991455078125;-0.019696044921875;8.79999997778214;881;100 mA
122.776909690018;-0.999755859375;-0.019757080078125;8.80999997775689;882;100 mA
122.786909689993;-0.99945068359375;-0.0197296142578125;8.81999997773164;883;100 mA
122.796909689968;-0.999755859375;-0.019757080078125;8.82999997770639;884;100 mA
122.806909689942;-0.999755859375;-0.0197296142578125;8.83999997768115;885;100 mA
122.816909689917;-0.9991455078125;-0.0197265625;8.8499999776559;886;100 mA
122.826909689892;-1.00006103515625;-0.019720458984375;8.85999997763065;887;100 mA
122.836909689867;-0.99945068359375;-0.019720458984375;8.8699999776054;888;100 mA
122.846909689841;-0.9991455078125;-0.0197235107421875;8.87999997758016;889;100 mA
122.856909689816;-0.99945068359375;-0.019757080078125;8.88999997755491;890;100 mA
122.866909689791;-0.99884033203125;-0.0197357177734375;8.89999997752966;891;100 mA
122.876909689766;-0.9991455078125;-0.0197509765625;8.90999997750441;892;100 mA
122.88690968974;-0.99945068359375;-0.0197357177734375;8.91999997747916;893;100 mA
122.896909689715;-0.99945068359375;-0.0197540283203125;8.92999997745392;894;100 mA
122.90690968969;-0.99884033203125;-0.0197479248046875;8.93999997742867;895;100 mA
122.916909689665;-0.99945068359375;-0.0197998046875;8.94999997740342;896;100 mA
122.926909689639;-0.9991455078125;-0.019757080078125;8.95999997737817;897;100 mA
122.936909689614;-0.999755859375;-0.019769287109375;8.96999997735293;898;100 mA
122.946909689589;-0.99945068359375;-0.019781494140625;8.97999997732768;899;100 mA
122.956909689564;-0.99945068359375;-0.019818115234375;8.98999997730243;900;100 mA
122.966909689538;-0.9991455078125;-0.019805908203125;8.99999997727718;901;100 mA
122.976909689513;-0.9991455078125;-0.0198333740234375;9.00999997725194;902;100 mA
122.986909689488;-0.99945068359375;-0.01981201171875;9.01999997722669;903;100 mA
122.996909689463;-1.00006103515625;-0.019830322265625;9.02999997720144;904;100 mA
123.006909689437;-0.99945068359375;-0.0198089599609375;9.03999997717619;905;100 mA
123.016909689412;-0.999755859375;-0.0198211669921875;9.04999997715095;906;100 mA
123.026909689387;-0.99884033203125;-0.01976318359375;9.0599999771257;907;100 mA
123.036909689362;-0.9991455078125;-0.019769287109375;9.06999997710045;908;100 mA
123.046909689336;-0.999755859375;-0.0197662353515625;9.0799999770752;909;100 mA
123.056909689311;-0.99945068359375;-0.0197662353515625;9.08999997704996;910;100 mA
123.066909689286;-0.99945068359375;-0.0197235107421875;9.09999997702471;911;100 mA
123.076909689261;-0.99945068359375;-0.0197174072265625;9.10999997699946;912;100 mA
123.086909689235;-0.99945068359375;-0.0197265625;9.11999997697421;913;100 mA
123.09690968921;-0.999755859375;-0.019732666015625;9.12999997694897;914;100 mA
123.106909689185;-0.99884033203125;-0.01971435546875;9.13999997692372;915;100 mA
123.11690968916;-0.99945068359375;-0.0197357177734375;9.14999997689847;916;100 mA
123.126909689134;-0.99945068359375;-0.0197174072265625;9.15999997687322;917;100 mA
123.136909689109;-0.99945068359375;-0.019720458984375;9.16999997684798;918;100 mA
123.146909689084;-0.99945068359375;-0.0197021484375;9.17999997682273;919;100 mA
123.156909689059;-0.99945068359375;-0.0197296142578125;9.18999997679748;920;100 mA
123.166909689033;-0.999755859375;-0.019720458984375;9.19999997677223;921;100 mA
123.176909689008;-0.9991455078125;-0.0196990966796875;9.20999997674699;922;100 mA
123.186909688983;-0.99945068359375;-0.019683837890625;9.21999997672174;923;100 mA
123.196909688958;-0.99945068359375;-0.0196563720703125;9.22999997669649;924;100 mA
123.206909688932;-0.9991455078125;-0.0196624755859375;9.23999997667124;925;100 mA
123.216909688907;-0.9991455078125;-0.019671630859375;9.249999976646;926;100 mA
123.226909688882;-0.999755859375;-0.0196319580078125;9.25999997662075;927;100 mA
123.236909688857;-0.99945068359375;-0.0196533203125;9.2699999765955;928;100 mA
123.246909688831;-0.9991455078125;-0.019635009765625;9.27999997657025;929;100 mA
123.256909688806;-0.99945068359375;-0.019671630859375;9.289999976545;930;100 mA
123.266909688781;-0.99945068359375;-0.0196441650390625;9.29999997651976;931;100 mA
123.276909688756;-0.99945068359375;-0.01966552734375;9.30999997649451;932;100 mA
123.28690968873;-0.999755859375;-0.0196197509765625;9.31999997646926;933;100 mA
123.296909688705;-0.99945068359375;-0.0196197509765625;9.32999997644401;934;100 mA
123.30690968868;-0.99945068359375;-0.01961669921875;9.33999997641877;935;100 mA
123.316909688655;-0.99945068359375;-0.01964111328125;9.34999997639352;936;100 mA
123.326909688629;-0.99945068359375;-0.019635009765625;9.35999997636827;937;100 mA
123.336909688604;-0.999755859375;-0.01966552734375;9.36999997634302;938;100 mA
123.346909688579;-0.99945068359375;-0.0196319580078125;9.37999997631778;939;100 mA
123.356909688554;-0.999755859375;-0.0196533203125;9.38999997629253;940;100 mA
123.366909688528;-0.99945068359375;-0.0196502685546875;9.39999997626728;941;100 mA
123.376909688503;-0.999755859375;-0.0196807861328125;9.40999997624203;942;100 mA
123.386909688478;-0.99853515625;-0.019720458984375;9.41999997621679;943;100 mA
123.396909688453;-0.99945068359375;-0.019720458984375;9.42999997619154;944;100 mA
123.406909688428;-0.999755859375;-0.0196868896484375;9.43999997616629;945;100 mA
123.416909688402;-0.999755859375;-0.0197021484375;9.44999997614104;946;100 mA
123.426909688377;-0.999755859375;-0.0197113037109375;9.4599999761158;947;100 mA
123.436909688352;-0.9991455078125;-0.0197357177734375;9.46999997609055;948;100 mA
123.446909688327;-0.9991455078125;-0.0197265625;9.4799999760653;949;100 mA
123.456909688301;-0.9991455078125;-0.0197540283203125;9.48999997604005;950;100 mA
123.466909688276;-0.99945068359375;-0.0197357177734375;9.49999997601481;951;100 mA
123.476909688251;-1.0003662109375;-0.019732666015625;9.50999997598956;952;100 mA
123.486909688226;-0.99945068359375;-0.0197052001953125;9.51999997596431;953;100 mA
123.4969096882;-0.99945068359375;-0.019732666015625;9.52999997593906;954;100 mA
123.506909688175;-0.999755859375;-0.0197113037109375;9.53999997591382;955;100 mA
123.51690968815;-0.999755859375;-0.0197296142578125;9.54999997588857;956;100 mA
123.526909688125;-0.9991455078125;-0.0197235107421875;9.55999997586332;957;100 mA
123.536909688099;-0.999755859375;-0.019696044921875;9.56999997583807;958;100 mA
123.546909688074;-0.999755859375;-0.019677734375;9.57999997581283;959;100 mA
123.556909688049;-0.999755859375;-0.0196807861328125;9.58999997578758;960;100 mA
123.566909688024;-0.99945068359375;-0.0196746826171875;9.59999997576233;961;100 mA
123.576909687998;-0.99945068359375;-0.01968994140625;9.60999997573708;962;100 mA
123.586909687973;-0.99945068359375;-0.0196807861328125;9.61999997571183;963;100 mA
123.596909687948;-0.999755859375;-0.0196319580078125;9.62999997568659;964;100 mA
123.606909687923;-0.99945068359375;-0.01964111328125;9.63999997566134;965;100 mA
123.616909687897;-0.99945068359375;-0.0196746826171875;9.64999997563609;966;100 mA
123.626909687872;-0.99945068359375;-0.0196746826171875;9.65999997561084;967;100 mA
123.636909687847;-0.9991455078125;-0.01971435546875;9.6699999755856;968;100 mA
123.646909687822;-0.99945068359375;-0.0197021484375;9.67999997556035;969;100 mA
123.656909687796;-0.999755859375;-0.0196685791015625;9.6899999755351;970;100 mA
123.666909687771;-0.999755859375;-0.0196441650390625;9.69999997550985;971;100 mA
123.676909687746;-0.9991455078125;-0.0196868896484375;9.70999997548461;972;100 mA
123.686909687721;-0.999755859375;-0.0197265625;9.71999997545936;973;100 mA
123.696909687695;-0.99945068359375;-0.01973876953125;9.72999997543411;974;100 mA
123.70690968767;-0.99945068359375;-0.0197296142578125;9.73999997540886;975;100 mA
123.716909687645;-0.999755859375;-0.0197296142578125;9.74999997538362;976;100 mA
123.72690968762;-0.99945068359375;-0.0197174072265625;9.75999997535837;977;100 mA
123.736909687594;-0.99884033203125;-0.019744873046875;9.76999997533312;978;100 mA
123.746909687569;-0.999755859375;-0.0197418212890625;9.77999997530787;979;100 mA
123.756909687544;-0.99945068359375;-0.019769287109375;9.78999997528263;980;100 mA
123.766909687519;-0.99945068359375;-0.0197601318359375;9.79999997525738;981;100 mA
123.776909687493;-0.99945068359375;-0.0197479248046875;9.80999997523213;982;100 mA
123.786909687468;-0.99945068359375;-0.0197296142578125;9.81999997520688;983;100 mA
123.796909687443;-0.99945068359375;-0.0197540283203125;9.82999997518164;984;100 mA
123.806909687418;-0.99945068359375;-0.019769287109375;9.83999997515639;985;100 mA
123.816909687392;-0.99884033203125;-0.0197845458984375;9.84999997513114;986;100 mA
123.826909687367;-0.99884033203125;-0.0197662353515625;9.85999997510589;987;100 mA
123.836909687342;-0.99945068359375;-0.0197784423828125;9.86999997508065;988;100 mA
123.846909687317;-0.99945068359375;-0.0197540283203125;9.8799999750554;989;100 mA
123.856909687291;-1.00006103515625;-0.0197906494140625;9.88999997503015;990;100 mA
123.866909687266;-0.999755859375;-0.019769287109375;9.8999999750049;991;100 mA
123.876909687241;-0.99945068359375;-0.0198089599609375;9.90999997497966;992;100 mA
123.886909687216;-0.9991455078125;-0.0197723388671875;9.91999997495441;993;100 mA
123.89690968719;-0.99945068359375;-0.01976318359375;9.92999997492916;994;100 mA
123.906909687165;-0.99945068359375;-0.0197357177734375;9.93999997490391;995;100 mA
123.91690968714;-0.999755859375;-0.019757080078125;9.94999997487866;996;100 mA
123.926909687115;-0.999755859375;-0.019744873046875;9.95999997485342;997;100 mA
123.936909687089;-0.99945068359375;-0.019781494140625;9.96999997482817;998;100 mA
123.946909687064;-0.9991455078125;-0.019720458984375;9.97999997480292;999;100 mA
123.956909687039;-0.9991455078125;-0.0197418212890625;9.98999997477767;1000;100 mA
