Time (s);WE(1).Potential (V);WE(1).Current (A);Corrected time (s);Index;Current range
4.44229098878429;0.39898681640625;0.0226593017578125;0;1;100 mA
4.45229098875905;0.399749755859375;0.0167327880859375;0.00999999997475243;2;100 mA
4.4622909887338;0.399658203125;0.0137725830078125;0.0199999999495049;3;100 mA
4.47229098870855;0.399658203125;0.01177978515625;0.0299999999242573;4;100 mA
4.4822909886833;0.39971923828125;0.010552978515625;0.0399999998990097;5;100 mA
4.49229098865806;0.399658203125;0.00955810546875;0.0499999998737621;6;100 mA
4.50229098863281;0.399688720703125;0.008758544921875;0.0599999998485146;7;100 mA
4.51229098860756;0.399658203125;0.0081573486328125;0.069999999823267;8;100 mA
4.52229098858231;0.399688720703125;0.0075927734375;0.0799999997980194;9;100 mA
4.53229098855707;0.39971923828125;0.007293701171875;0.0899999997727718;10;100 mA
4.54229098853182;0.399658203125;0.006903076171875;0.0999999997475243;11;100 mA
4.55229098850657;0.3997802734375;0.006585693359375;0.109999999722277;12;100 mA
4.56229098848132;0.399688720703125;0.0063385009765625;0.119999999697029;13;100 mA
4.57229098845607;0.39971923828125;0.0060333251953125;0.129999999671782;14;100 mA
4.58229098843083;0.399749755859375;0.005938720703125;0.139999999646534;15;100 mA
4.59229098840558;0.399749755859375;0.005718994140625;0.149999999621286;16;100 mA
4.60229098838033;0.399688720703125;0.005560302734375;0.159999999596039;17;100 mA
4.61229098835508;0.39959716796875;0.0054168701171875;0.169999999570791;18;100 mA
4.62229098832984;0.39971923828125;0.0052337646484375;0.179999999545544;19;100 mA
4.63229098830459;0.39971923828125;0.005120849609375;0.189999999520296;20;100 mA
4.64229098827934;0.399658203125;0.0049285888671875;0.199999999495049;21;100 mA
4.65229098825409;0.399749755859375;0.00491943359375;0.209999999469801;22;100 mA
4.66229098822885;0.39971923828125;0.004803466796875;0.219999999444553;23;100 mA
4.6722909882036;0.39971923828125;0.00472015380859375;0.229999999419306;24;100 mA
4.68229098817835;0.399688720703125;0.0046807861328125;0.239999999394058;25;100 mA
4.6922909881531;0.3997802734375;0.004547119140625;0.249999999368811;26;100 mA
4.70229098812786;0.3997802734375;0.0045831298828125;0.259999999343563;27;100 mA
4.71229098810261;0.399688720703125;0.00452056884765625;0.269999999318316;28;100 mA
4.72229098807736;0.3997802734375;0.00446380615234375;0.279999999293068;29;100 mA
4.73229098805211;0.39971923828125;0.004459228515625;0.28999999926782;30;100 mA
4.74229098802687;0.39971923828125;0.00435272216796875;0.299999999242573;31;100 mA
4.75229098800162;0.399688720703125;0.00434539794921875;0.309999999217325;32;100 mA
4.76229098797637;0.399749755859375;0.00430419921875;0.319999999192078;33;100 mA
4.77229098795112;0.39971923828125;0.00433258056640625;0.32999999916683;34;100 mA
4.78229098792588;0.39971923828125;0.0043402099609375;0.339999999141583;35;100 mA
4.79229098790063;0.39984130859375;0.00424560546875;0.349999999116335;36;100 mA
4.80229098787538;0.399749755859375;0.00427154541015625;0.359999999091087;37;100 mA
4.81229098785013;0.3997802734375;0.00416259765625;0.36999999906584;38;100 mA
4.82229098782489;0.39984130859375;0.00417572021484375;0.379999999040592;39;100 mA
4.83229098779964;0.39971923828125;0.0042156982421875;0.389999999015345;40;100 mA
4.84229098777439;0.39971923828125;0.0041497802734375;0.399999998990097;41;100 mA
4.85229098774914;0.399688720703125;0.00413360595703125;0.40999999896485;42;100 mA
4.8622909877239;0.39971923828125;0.00407440185546875;0.419999998939602;43;100 mA
4.87229098769865;0.39971923828125;0.004139404296875;0.429999998914354;44;100 mA
4.8822909876734;0.3997802734375;0.00407928466796875;0.439999998889107;45;100 mA
4.89229098764815;0.3997802734375;0.0040875244140625;0.449999998863859;46;100 mA
4.90229098762291;0.399749755859375;0.0040789794921875;0.459999998838612;47;100 mA
4.91229098759766;0.3997802734375;0.004033203125;0.469999998813364;48;100 mA
4.92229098757241;0.399810791015625;0.004085693359375;0.479999998788116;49;100 mA
4.93229098754716;0.3997802734375;0.00398834228515625;0.489999998762869;50;100 mA
4.94229098752191;0.39971923828125;0.0039788818359375;0.499999998737621;51;100 mA
4.95229098749667;0.399749755859375;0.00396453857421875;0.509999998712374;52;100 mA
4.96229098747142;0.399749755859375;0.003895263671875;0.519999998687126;53;100 mA
4.97229098744617;0.39971923828125;0.0039556884765625;0.529999998661879;54;100 mA
4.98229098742092;0.3997802734375;0.003914794921875;0.539999998636631;55;100 mA
4.99229098739568;0.399749755859375;0.00393096923828125;0.549999998611383;56;100 mA
5.00229098737043;0.3997802734375;0.0038916015625;0.559999998586136;57;100 mA
5.01229098734518;0.399810791015625;0.0039019775390625;0.569999998560888;58;100 mA
5.02229098731993;0.39971923828125;0.0039019775390625;0.579999998535641;59;100 mA
5.03229098729469;0.399810791015625;0.00385772705078125;0.589999998510393;60;100 mA
5.04229098726944;0.3997802734375;0.0038873291015625;0.599999998485146;61;100 mA
5.05229098724419;0.399749755859375;0.0038165283203125;0.609999998459898;62;100 mA
5.06229098721894;0.3997802734375;0.00387847900390625;0.61999999843465;63;100 mA
5.0722909871937;0.39971923828125;0.0038824462890625;0.629999998409403;64;100 mA
5.08229098716845;0.39984130859375;0.003870849609375;0.639999998384155;65;100 mA
5.0922909871432;0.399658203125;0.0038787841796875;0.649999998358908;66;100 mA
5.10229098711795;0.399749755859375;0.00380889892578125;0.65999999833366;67;100 mA
5.11229098709271;0.399749755859375;0.0038140869140625;0.669999998308413;68;100 mA
5.12229098706746;0.399810791015625;0.00377655029296875;0.679999998283165;69;100 mA
5.13229098704221;0.3997802734375;0.0037701416015625;0.689999998257917;70;100 mA
5.14229098701696;0.399749755859375;0.00381927490234375;0.69999999823267;71;100 mA
5.15229098699172;0.3997802734375;0.00377777099609375;0.709999998207422;72;100 mA
5.16229098696647;0.399749755859375;0.00383819580078125;0.719999998182175;73;100 mA
5.17229098694122;0.399749755859375;0.00376678466796875;0.729999998156927;74;100 mA
5.18229098691597;0.3997802734375;0.0038067626953125;0.73999999813168;75;100 mA
5.19229098689073;0.39971923828125;0.0038275146484375;0.749999998106432;76;100 mA
5.20229098686548;0.39971923828125;0.00377838134765625;0.759999998081184;77;100 mA
5.21229098684023;0.399810791015625;0.0037744140625;0.769999998055937;78;100 mA
5.22229098681498;0.39971923828125;0.00376129150390625;0.779999998030689;79;100 mA
5.23229098678974;0.399749755859375;0.00379974365234375;0.789999998005442;80;100 mA
5.24229098676449;0.399749755859375;0.00375885009765625;0.799999997980194;81;100 mA
5.25229098673924;0.399749755859375;0.0037652587890625;0.809999997954947;82;100 mA
5.26229098671399;0.39971923828125;0.0038104248046875;0.819999997929699;83;100 mA
5.27229098668874;0.3997802734375;0.00380096435546875;0.829999997904451;84;100 mA
5.2822909866635;0.399749755859375;0.00378936767578125;0.839999997879204;85;100 mA
5.29229098663825;0.399749755859375;0.0037579345703125;0.849999997853956;86;100 mA
5.302290986613;0.3997802734375;0.00375152587890625;0.859999997828709;87;100 mA
5.31229098658775;0.399658203125;0.0037432861328125;0.869999997803461;88;100 mA
5.32229098656251;0.3997802734375;0.0036785888671875;0.879999997778214;89;100 mA
5.33229098653726;0.399658203125;0.00374267578125;0.889999997752966;90;100 mA
5.34229098651201;0.3997802734375;0.00371856689453125;0.899999997727718;91;100 mA
5.35229098648676;0.399688720703125;0.00377410888671875;0.909999997702471;92;100 mA
5.36229098646152;0.39971923828125;0.003740234375;0.919999997677223;93;100 mA
5.37229098643627;0.3997802734375;0.00373016357421875;0.929999997651976;94;100 mA
5.38229098641102;0.39984130859375;0.0037579345703125;0.939999997626728;95;100 mA
5.39229098638577;0.3997802734375;0.0037506103515625;0.949999997601481;96;100 mA
5.40229098636053;0.399749755859375;0.0037908935546875;0.959999997576233;97;100 mA
5.41229098633528;0.399810791015625;0.0037518310546875;0.969999997550985;98;100 mA
5.42229098631003;0.399749755859375;0.0037493896484375;0.979999997525738;99;100 mA
5.43229098628478;0.39971923828125;0.0037493896484375;0.98999999750049;100;100 mA
5.44229098625954;0.399749755859375;0.003701171875;0.999999997475243;101;100 mA
5.45229098623429;0.399749755859375;0.0037335205078125;1.00999999745;102;100 mA
5.46229098620904;0.3997802734375;0.00372283935546875;1.01999999742475;103;100 mA
5.47229098618379;0.399749755859375;0.00372772216796875;1.0299999973995;104;100 mA
5.48229098615855;0.399810791015625;0.00367919921875;1.03999999737425;105;100 mA
5.4922909861333;0.399749755859375;0.00366790771484375;1.049999997349;106;100 mA
5.50229098610805;0.399810791015625;0.00367523193359375;1.05999999732376;107;100 mA
5.5122909860828;0.399810791015625;0.00361480712890625;1.06999999729851;108;100 mA
5.52229098605756;0.39971923828125;0.00363037109375;1.07999999727326;109;100 mA
5.53229098603231;0.3997802734375;0.00362030029296875;1.08999999724801;110;100 mA
5.54229098600706;0.399749755859375;0.003658447265625;1.09999999722277;111;100 mA
5.55229098598181;0.39971923828125;0.0036614990234375;1.10999999719752;112;100 mA
5.56229098595657;0.3997802734375;0.00364776611328125;1.11999999717227;113;100 mA
5.57229098593132;0.399688720703125;0.003721923828125;1.12999999714702;114;100 mA
5.58229098590607;0.39971923828125;0.00365386962890625;1.13999999712178;115;100 mA
5.59229098588082;0.3997802734375;0.00363800048828125;1.14999999709653;116;100 mA
5.60229098585557;0.39971923828125;0.00364227294921875;1.15999999707128;117;100 mA
5.61229098583033;0.399810791015625;0.00363311767578125;1.16999999704603;118;100 mA
5.62229098580508;0.39971923828125;0.0036273193359375;1.17999999702079;119;100 mA
5.63229098577983;0.3997802734375;0.003572998046875;1.18999999699554;120;100 mA
5.64229098575458;0.399810791015625;0.00358306884765625;1.19999999697029;121;100 mA
5.65229098572934;0.3997802734375;0.00366790771484375;1.20999999694504;122;100 mA
5.66229098570409;0.3997802734375;0.00363067626953125;1.2199999969198;123;100 mA
5.67229098567884;0.3997802734375;0.0036181640625;1.22999999689455;124;100 mA
5.68229098565359;0.399749755859375;0.00358367919921875;1.2399999968693;125;100 mA
5.69229098562835;0.39971923828125;0.0036126708984375;1.24999999684405;126;100 mA
5.7022909856031;0.399658203125;0.00358367919921875;1.25999999681881;127;100 mA
5.71229098557785;0.399658203125;0.00356109619140625;1.26999999679356;128;100 mA
5.7222909855526;0.399749755859375;0.003524169921875;1.27999999676831;129;100 mA
5.73229098552736;0.399810791015625;0.0035015869140625;1.28999999674306;130;100 mA
5.74229098550211;0.399749755859375;0.00352691650390625;1.29999999671782;131;100 mA
5.75229098547686;0.399810791015625;0.0035009765625;1.30999999669257;132;100 mA
5.76229098545161;0.39971923828125;0.00356781005859375;1.31999999666732;133;100 mA
5.77229098542637;0.39984130859375;0.00357452392578125;1.32999999664207;134;100 mA
5.78229098540112;0.39971923828125;0.00355712890625;1.33999999661683;135;100 mA
5.79229098537587;0.39971923828125;0.00356719970703125;1.34999999659158;136;100 mA
5.80229098535062;0.399810791015625;0.00353363037109375;1.35999999656633;137;100 mA
5.81229098532538;0.39971923828125;0.00356719970703125;1.36999999654108;138;100 mA
5.82229098530013;0.399810791015625;0.0035345458984375;1.37999999651583;139;100 mA
5.83229098527488;0.399749755859375;0.0035186767578125;1.38999999649059;140;100 mA
5.84229098524963;0.3997802734375;0.00352447509765625;1.39999999646534;141;100 mA
5.85229098522439;0.3997802734375;0.00351226806640625;1.40999999644009;142;100 mA
5.86229098519914;0.3997802734375;0.00354400634765625;1.41999999641484;143;100 mA
5.87229098517389;0.39984130859375;0.00351806640625;1.4299999963896;144;100 mA
5.88229098514864;0.39971923828125;0.00353302001953125;1.43999999636435;145;100 mA
5.8922909851234;0.39971923828125;0.00354766845703125;1.4499999963391;146;100 mA
5.90229098509815;0.399810791015625;0.00354583740234375;1.45999999631385;147;100 mA
5.9122909850729;0.39971923828125;0.0035028076171875;1.46999999628861;148;100 mA
5.92229098504765;0.399810791015625;0.00346160888671875;1.47999999626336;149;100 mA
5.93229098502241;0.399810791015625;0.00350494384765625;1.48999999623811;150;100 mA
5.94229098499716;0.39971923828125;0.0034814453125;1.49999999621286;151;100 mA
5.95229098497191;0.399749755859375;0.00347137451171875;1.50999999618762;152;100 mA
5.96229098494666;0.39971923828125;0.003482666015625;1.51999999616237;153;100 mA
5.97229098492141;0.399810791015625;0.003477783203125;1.52999999613712;154;100 mA
5.98229098489617;0.399749755859375;0.003524169921875;1.53999999611187;155;100 mA
5.99229098487092;0.3997802734375;0.00345245361328125;1.54999999608663;156;100 mA
6.00229098484567;0.399749755859375;0.0034857177734375;1.55999999606138;157;100 mA
6.01229098482042;0.399749755859375;0.00353271484375;1.56999999603613;158;100 mA
6.02229098479518;0.399749755859375;0.00351043701171875;1.57999999601088;159;100 mA
6.03229098476993;0.3997802734375;0.00351287841796875;1.58999999598564;160;100 mA
6.04229098474468;0.399749755859375;0.003487548828125;1.59999999596039;161;100 mA
6.05229098471943;0.39971923828125;0.0035418701171875;1.60999999593514;162;100 mA
6.06229098469419;0.399688720703125;0.0035101318359375;1.61999999590989;163;100 mA
6.07229098466894;0.399749755859375;0.00351318359375;1.62999999588465;164;100 mA
6.08229098464369;0.39971923828125;0.0035137939453125;1.6399999958594;165;100 mA
6.09229098461844;0.3997802734375;0.00352691650390625;1.64999999583415;166;100 mA
6.1022909845932;0.3997802734375;0.00353851318359375;1.6599999958089;167;100 mA
6.11229098456795;0.3997802734375;0.00350433349609375;1.66999999578366;168;100 mA
6.1222909845427;0.399749755859375;0.003543701171875;1.67999999575841;169;100 mA
6.13229098451745;0.399810791015625;0.003519287109375;1.68999999573316;170;100 mA
6.14229098449221;0.39984130859375;0.00353912353515625;1.69999999570791;171;100 mA
6.15229098446696;0.39971923828125;0.0035260009765625;1.70999999568267;172;100 mA
6.16229098444171;0.399749755859375;0.0035150146484375;1.71999999565742;173;100 mA
6.17229098441646;0.39971923828125;0.00354339599609375;1.72999999563217;174;100 mA
6.18229098439122;0.399749755859375;0.00349395751953125;1.73999999560692;175;100 mA
6.19229098436597;0.399749755859375;0.003480224609375;1.74999999558167;176;100 mA
6.20229098434072;0.3997802734375;0.00347076416015625;1.75999999555643;177;100 mA
6.21229098431547;0.39984130859375;0.00345916748046875;1.76999999553118;178;100 mA
6.22229098429023;0.399749755859375;0.00346893310546875;1.77999999550593;179;100 mA
6.23229098426498;0.399810791015625;0.0034527587890625;1.78999999548068;180;100 mA
6.24229098423973;0.399810791015625;0.0034832763671875;1.79999999545544;181;100 mA
6.25229098421448;0.39984130859375;0.003453369140625;1.80999999543019;182;100 mA
6.26229098418924;0.399749755859375;0.00346710205078125;1.81999999540494;183;100 mA
6.27229098416399;0.399749755859375;0.003470458984375;1.82999999537969;184;100 mA
6.28229098413874;0.399810791015625;0.00349029541015625;1.83999999535445;185;100 mA
6.29229098411349;0.39959716796875;0.00349273681640625;1.8499999953292;186;100 mA
6.30229098408824;0.3997802734375;0.003438720703125;1.85999999530395;187;100 mA
6.312290984063;0.39971923828125;0.00347869873046875;1.8699999952787;188;100 mA
6.32229098403775;0.3997802734375;0.0034735107421875;1.87999999525346;189;100 mA
6.3322909840125;0.399810791015625;0.00345489501953125;1.88999999522821;190;100 mA
6.34229098398725;0.399810791015625;0.00348907470703125;1.89999999520296;191;100 mA
6.35229098396201;0.399810791015625;0.0034375;1.90999999517771;192;100 mA
6.36229098393676;0.399810791015625;0.00347137451171875;1.91999999515247;193;100 mA
6.37229098391151;0.3997802734375;0.003441162109375;1.92999999512722;194;100 mA
6.38229098388626;0.3997802734375;0.003433837890625;1.93999999510197;195;100 mA
6.39229098386102;0.399688720703125;0.00346923828125;1.94999999507672;196;100 mA
6.40229098383577;0.39971923828125;0.00344970703125;1.95999999505148;197;100 mA
6.41229098381052;0.39971923828125;0.00344696044921875;1.96999999502623;198;100 mA
6.42229098378527;0.399749755859375;0.003446044921875;1.97999999500098;199;100 mA
6.43229098376003;0.399749755859375;0.00347198486328125;1.98999999497573;200;100 mA
6.44229098373478;0.39971923828125;0.003453369140625;1.99999999495049;201;100 mA
6.45229098370953;0.39971923828125;0.00344573974609375;2.00999999492524;202;100 mA
6.46229098368428;0.39971923828125;0.0034429931640625;2.01999999489999;203;100 mA
6.47229098365904;0.3997802734375;0.00344757080078125;2.02999999487474;204;100 mA
6.48229098363379;0.399810791015625;0.0034600830078125;2.0399999948495;205;100 mA
6.49229098360854;0.399810791015625;0.0034228515625;2.04999999482425;206;100 mA
6.50229098358329;0.3997802734375;0.00340911865234375;2.059999994799;207;100 mA
6.51229098355805;0.399658203125;0.00340789794921875;2.06999999477375;208;100 mA
6.5222909835328;0.399810791015625;0.00339599609375;2.0799999947485;209;100 mA
6.53229098350755;0.39971923828125;0.003447265625;2.08999999472326;210;100 mA
6.5422909834823;0.3997802734375;0.00341156005859375;2.09999999469801;211;100 mA
6.55229098345706;0.399810791015625;0.00346527099609375;2.10999999467276;212;100 mA
6.56229098343181;0.3997802734375;0.00346343994140625;2.11999999464751;213;100 mA
6.57229098340656;0.399749755859375;0.0034478759765625;2.12999999462227;214;100 mA
6.58229098338131;0.399749755859375;0.00345001220703125;2.13999999459702;215;100 mA
6.59229098335607;0.3997802734375;0.00342987060546875;2.14999999457177;216;100 mA
6.60229098333082;0.399749755859375;0.0034649658203125;2.15999999454652;217;100 mA
6.61229098330557;0.3997802734375;0.00344696044921875;2.16999999452128;218;100 mA
6.62229098328032;0.399749755859375;0.0034527587890625;2.17999999449603;219;100 mA
6.63229098325507;0.399749755859375;0.0034765625;2.18999999447078;220;100 mA
6.64229098322983;0.39971923828125;0.00351104736328125;2.19999999444553;221;100 mA
6.65229098320458;0.399749755859375;0.00347747802734375;2.20999999442029;222;100 mA
6.66229098317933;0.399749755859375;0.0034796142578125;2.21999999439504;223;100 mA
6.67229098315408;0.399749755859375;0.0034576416015625;2.22999999436979;224;100 mA
6.68229098312884;0.39971923828125;0.00346038818359375;2.23999999434454;225;100 mA
6.69229098310359;0.399749755859375;0.00346923828125;2.2499999943193;226;100 mA
6.70229098307834;0.399810791015625;0.00349365234375;2.25999999429405;227;100 mA
6.71229098305309;0.3997802734375;0.00348785400390625;2.2699999942688;228;100 mA
6.72229098302785;0.399749755859375;0.00349029541015625;2.27999999424355;229;100 mA
6.7322909830026;0.399810791015625;0.00345977783203125;2.28999999421831;230;100 mA
6.74229098297735;0.39971923828125;0.00349884033203125;2.29999999419306;231;100 mA
6.7522909829521;0.399688720703125;0.0034912109375;2.30999999416781;232;100 mA
6.76229098292686;0.3997802734375;0.0034814453125;2.31999999414256;233;100 mA
6.77229098290161;0.399749755859375;0.00347900390625;2.32999999411732;234;100 mA
6.78229098287636;0.3997802734375;0.00345458984375;2.33999999409207;235;100 mA
6.79229098285111;0.399688720703125;0.003494873046875;2.34999999406682;236;100 mA
6.80229098282587;0.3997802734375;0.00346527099609375;2.35999999404157;237;100 mA
6.81229098280062;0.399749755859375;0.0034527587890625;2.36999999401633;238;100 mA
6.82229098277537;0.39971923828125;0.0034686279296875;2.37999999399108;239;100 mA
6.83229098275012;0.39984130859375;0.00343292236328125;2.38999999396583;240;100 mA
6.84229098272488;0.399749755859375;0.003448486328125;2.39999999394058;241;100 mA
6.85229098269963;0.3997802734375;0.00342559814453125;2.40999999391533;242;100 mA
6.86229098267438;0.39971923828125;0.00346038818359375;2.41999999389009;243;100 mA
6.87229098264913;0.3997802734375;0.003486328125;2.42999999386484;244;100 mA
6.88229098262389;0.399688720703125;0.00349395751953125;2.43999999383959;245;100 mA
6.89229098259864;0.399658203125;0.00352935791015625;2.44999999381434;246;100 mA
6.90229098257339;0.399810791015625;0.00350128173828125;2.4599999937891;247;100 mA
6.91229098254814;0.399810791015625;0.00348846435546875;2.46999999376385;248;100 mA
6.9222909825229;0.399749755859375;0.00345947265625;2.4799999937386;249;100 mA
6.93229098249765;0.3997802734375;0.0034661865234375;2.48999999371335;250;100 mA
6.9422909824724;0.3997802734375;0.00351287841796875;2.49999999368811;251;100 mA
6.95229098244715;0.399871826171875;0.00343048095703125;2.50999999366286;252;100 mA
6.96229098242191;0.399749755859375;0.00347686767578125;2.51999999363761;253;100 mA
6.97229098239666;0.399810791015625;0.00342437744140625;2.52999999361236;254;100 mA
6.98229098237141;0.399749755859375;0.003433837890625;2.53999999358712;255;100 mA
6.99229098234616;0.39971923828125;0.0034747314453125;2.54999999356187;256;100 mA
7.00229098232091;0.3997802734375;0.00344024658203125;2.55999999353662;257;100 mA
7.01229098229567;0.399749755859375;0.00344146728515625;2.56999999351137;258;100 mA
7.02229098227042;0.39971923828125;0.00342041015625;2.57999999348613;259;100 mA
7.03229098224517;0.39971923828125;0.00345550537109375;2.58999999346088;260;100 mA
7.04229098221992;0.3997802734375;0.00342864990234375;2.59999999343563;261;100 mA
7.05229098219468;0.3997802734375;0.00343658447265625;2.60999999341038;262;100 mA
7.06229098216943;0.399749755859375;0.0034588623046875;2.61999999338514;263;100 mA
7.07229098214418;0.399810791015625;0.0034710693359375;2.62999999335989;264;100 mA
7.08229098211893;0.399749755859375;0.0034918212890625;2.63999999333464;265;100 mA
7.09229098209369;0.399810791015625;0.00346923828125;2.64999999330939;266;100 mA
7.10229098206844;0.399810791015625;0.003426513671875;2.65999999328415;267;100 mA
7.11229098204319;0.399749755859375;0.00341644287109375;2.6699999932589;268;100 mA
7.12229098201794;0.39971923828125;0.00338775634765625;2.67999999323365;269;100 mA
7.1322909819927;0.399688720703125;0.00343017578125;2.6899999932084;270;100 mA
7.14229098196745;0.39971923828125;0.00343475341796875;2.69999999318316;271;100 mA
7.1522909819422;0.399749755859375;0.00345123291015625;2.70999999315791;272;100 mA
7.16229098191695;0.3997802734375;0.00343719482421875;2.71999999313266;273;100 mA
7.17229098189171;0.39984130859375;0.00341339111328125;2.72999999310741;274;100 mA
7.18229098186646;0.399810791015625;0.003438720703125;2.73999999308217;275;100 mA
7.19229098184121;0.3997802734375;0.00339080810546875;2.74999999305692;276;100 mA
7.20229098181596;0.39971923828125;0.0034136962890625;2.75999999303167;277;100 mA
7.21229098179072;0.399810791015625;0.0034521484375;2.76999999300642;278;100 mA
7.22229098176547;0.399749755859375;0.00345672607421875;2.77999999298117;279;100 mA
7.23229098174022;0.3997802734375;0.00344146728515625;2.78999999295593;280;100 mA
7.24229098171497;0.3997802734375;0.0034649658203125;2.79999999293068;281;100 mA
7.25229098168973;0.39971923828125;0.0034710693359375;2.80999999290543;282;100 mA
7.26229098166448;0.399749755859375;0.00347625732421875;2.81999999288018;283;100 mA
7.27229098163923;0.39971923828125;0.00347442626953125;2.82999999285494;284;100 mA
7.28229098161398;0.399810791015625;0.0034442138671875;2.83999999282969;285;100 mA
7.29229098158874;0.39984130859375;0.0034197998046875;2.84999999280444;286;100 mA
7.30229098156349;0.399688720703125;0.0034356689453125;2.85999999277919;287;100 mA
7.31229098153824;0.399810791015625;0.00339385986328125;2.86999999275395;288;100 mA
7.32229098151299;0.39984130859375;0.003414306640625;2.8799999927287;289;100 mA
7.33229098148774;0.3997802734375;0.0034185791015625;2.88999999270345;290;100 mA
7.3422909814625;0.399749755859375;0.00342742919921875;2.8999999926782;291;100 mA
7.35229098143725;0.399810791015625;0.00349334716796875;2.90999999265296;292;100 mA
7.362290981412;0.39971923828125;0.00345245361328125;2.91999999262771;293;100 mA
7.37229098138675;0.399749755859375;0.00346099853515625;2.92999999260246;294;100 mA
7.38229098136151;0.3997802734375;0.00345184326171875;2.93999999257721;295;100 mA
7.39229098133626;0.399749755859375;0.00343536376953125;2.94999999255197;296;100 mA
7.40229098131101;0.399749755859375;0.00344024658203125;2.95999999252672;297;100 mA
7.41229098128576;0.399810791015625;0.00340789794921875;2.96999999250147;298;100 mA
7.42229098126052;0.3997802734375;0.00340789794921875;2.97999999247622;299;100 mA
7.43229098123527;0.3997802734375;0.00337432861328125;2.98999999245098;300;100 mA
7.44229098121002;0.399810791015625;0.00342010498046875;2.99999999242573;301;100 mA
7.45229098118477;0.399749755859375;0.00344757080078125;3.00999999240048;302;100 mA
7.46229098115953;0.3997802734375;0.0034136962890625;3.01999999237523;303;100 mA
7.47229098113428;0.3997802734375;0.00341644287109375;3.02999999234999;304;100 mA
7.48229098110903;0.399658203125;0.003414306640625;3.03999999232474;305;100 mA
7.49229098108378;0.399749755859375;0.00341705322265625;3.04999999229949;306;100 mA
7.50229098105854;0.3997802734375;0.00339569091796875;3.05999999227424;307;100 mA
7.51229098103329;0.39971923828125;0.00339447021484375;3.069999992249;308;100 mA
7.52229098100804;0.399749755859375;0.00339630126953125;3.07999999222375;309;100 mA
7.53229098098279;0.39984130859375;0.0034088134765625;3.0899999921985;310;100 mA
7.54229098095755;0.3997802734375;0.00341888427734375;3.09999999217325;311;100 mA
7.5522909809323;0.399810791015625;0.00338897705078125;3.109999992148;312;100 mA
7.56229098090705;0.399749755859375;0.00341217041015625;3.11999999212276;313;100 mA
7.5722909808818;0.3997802734375;0.00342926025390625;3.12999999209751;314;100 mA
7.58229098085656;0.399749755859375;0.00344696044921875;3.13999999207226;315;100 mA
7.59229098083131;0.39971923828125;0.00342254638671875;3.14999999204701;316;100 mA
7.60229098080606;0.3997802734375;0.0034161376953125;3.15999999202177;317;100 mA
7.61229098078081;0.399749755859375;0.00341522216796875;3.16999999199652;318;100 mA
7.62229098075557;0.3997802734375;0.0033551025390625;3.17999999197127;319;100 mA
7.63229098073032;0.399749755859375;0.00338409423828125;3.18999999194602;320;100 mA
7.64229098070507;0.399810791015625;0.00341094970703125;3.19999999192078;321;100 mA
7.65229098067982;0.3997802734375;0.003416748046875;3.20999999189553;322;100 mA
7.66229098065457;0.39971923828125;0.003431396484375;3.21999999187028;323;100 mA
7.67229098062933;0.3997802734375;0.0034173583984375;3.22999999184503;324;100 mA
7.68229098060408;0.3997802734375;0.00341583251953125;3.23999999181979;325;100 mA
7.69229098057883;0.3997802734375;0.0034051513671875;3.24999999179454;326;100 mA
7.70229098055358;0.399749755859375;0.00344879150390625;3.25999999176929;327;100 mA
7.71229098052834;0.399688720703125;0.0034307861328125;3.26999999174404;328;100 mA
7.72229098050309;0.399749755859375;0.00341156005859375;3.2799999917188;329;100 mA
7.73229098047784;0.399749755859375;0.00351226806640625;3.28999999169355;330;100 mA
7.74229098045259;0.399749755859375;0.00344757080078125;3.2999999916683;331;100 mA
7.75229098042735;0.399749755859375;0.003441162109375;3.30999999164305;332;100 mA
7.7622909804021;0.39971923828125;0.00344940185546875;3.31999999161781;333;100 mA
7.77229098037685;0.399749755859375;0.0034637451171875;3.32999999159256;334;100 mA
7.7822909803516;0.399749755859375;0.0034283447265625;3.33999999156731;335;100 mA
7.79229098032636;0.3997802734375;0.00338714599609375;3.34999999154206;336;100 mA
7.80229098030111;0.399810791015625;0.0034185791015625;3.35999999151682;337;100 mA
7.81229098027586;0.39984130859375;0.0034210205078125;3.36999999149157;338;100 mA
7.82229098025061;0.399810791015625;0.00340576171875;3.37999999146632;339;100 mA
7.83229098022537;0.399749755859375;0.00340576171875;3.38999999144107;340;100 mA
7.84229098020012;0.399749755859375;0.00339385986328125;3.39999999141583;341;100 mA
7.85229098017487;0.399688720703125;0.0033941650390625;3.40999999139058;342;100 mA
7.86229098014962;0.399749755859375;0.00335357666015625;3.41999999136533;343;100 mA
7.87229098012438;0.399749755859375;0.00337890625;3.42999999134008;344;100 mA
7.88229098009913;0.39971923828125;0.00340423583984375;3.43999999131483;345;100 mA
7.89229098007388;0.3997802734375;0.0033978271484375;3.44999999128959;346;100 mA
7.90229098004863;0.399688720703125;0.003363037109375;3.45999999126434;347;100 mA
7.91229098002339;0.399810791015625;0.00335479736328125;3.46999999123909;348;100 mA
7.92229097999814;0.3997802734375;0.00339813232421875;3.47999999121384;349;100 mA
7.93229097997289;0.3997802734375;0.00336822509765625;3.4899999911886;350;100 mA
7.94229097994764;0.3997802734375;0.00335052490234375;3.49999999116335;351;100 mA
7.9522909799224;0.399749755859375;0.00335968017578125;3.5099999911381;352;100 mA
7.96229097989715;0.3997802734375;0.00339935302734375;3.51999999111285;353;100 mA
7.9722909798719;0.399658203125;0.0033935546875;3.52999999108761;354;100 mA
7.98229097984665;0.39971923828125;0.00334869384765625;3.53999999106236;355;100 mA
7.99229097982141;0.399749755859375;0.00337249755859375;3.54999999103711;356;100 mA
8.00229097979616;0.399749755859375;0.003397216796875;3.55999999101186;357;100 mA
8.01229097977091;0.399810791015625;0.0034088134765625;3.56999999098662;358;100 mA
8.02229097974566;0.3997802734375;0.00337677001953125;3.57999999096137;359;100 mA
8.03229097972041;0.399810791015625;0.00335906982421875;3.58999999093612;360;100 mA
8.04229097969517;0.399810791015625;0.003453369140625;3.59999999091087;361;100 mA
8.05229097966992;0.3997802734375;0.0034320068359375;3.60999999088563;362;100 mA
8.06229097964467;0.399749755859375;0.00344390869140625;3.61999999086038;363;100 mA
8.07229097961942;0.39971923828125;0.00344024658203125;3.62999999083513;364;100 mA
8.08229097959418;0.399810791015625;0.00344482421875;3.63999999080988;365;100 mA
8.09229097956893;0.399688720703125;0.003468017578125;3.64999999078464;366;100 mA
8.10229097954368;0.399810791015625;0.0034100341796875;3.65999999075939;367;100 mA
8.11229097951843;0.39971923828125;0.00342620849609375;3.66999999073414;368;100 mA
8.12229097949319;0.39984130859375;0.00341339111328125;3.67999999070889;369;100 mA
8.13229097946794;0.399810791015625;0.00338897705078125;3.68999999068365;370;100 mA
8.14229097944269;0.399688720703125;0.00341400146484375;3.6999999906584;371;100 mA
8.15229097941744;0.399749755859375;0.0033831787109375;3.70999999063315;372;100 mA
8.1622909793922;0.399749755859375;0.0034063720703125;3.7199999906079;373;100 mA
8.17229097936695;0.399810791015625;0.0034136962890625;3.72999999058266;374;100 mA
8.1822909793417;0.399749755859375;0.003409423828125;3.73999999055741;375;100 mA
8.19229097931645;0.3997802734375;0.00344451904296875;3.74999999053216;376;100 mA
8.20229097929121;0.399749755859375;0.00345367431640625;3.75999999050691;377;100 mA
8.21229097926596;0.399658203125;0.0034698486328125;3.76999999048167;378;100 mA
8.22229097924071;0.39971923828125;0.003409423828125;3.77999999045642;379;100 mA
8.23229097921546;0.399749755859375;0.00339141845703125;3.78999999043117;380;100 mA
8.24229097919022;0.399810791015625;0.00339019775390625;3.79999999040592;381;100 mA
8.25229097916497;0.399810791015625;0.00339691162109375;3.80999999038067;382;100 mA
8.26229097913972;0.399810791015625;0.00342620849609375;3.81999999035543;383;100 mA
8.27229097911447;0.399810791015625;0.003433837890625;3.82999999033018;384;100 mA
8.28229097908923;0.399688720703125;0.0034625244140625;3.83999999030493;385;100 mA
8.29229097906398;0.39984130859375;0.00340789794921875;3.84999999027968;386;100 mA
8.30229097903873;0.3997802734375;0.0033917236328125;3.85999999025444;387;100 mA
8.31229097901348;0.3997802734375;0.00338958740234375;3.86999999022919;388;100 mA
8.32229097898824;0.399749755859375;0.0033648681640625;3.87999999020394;389;100 mA
8.33229097896299;0.39971923828125;0.0034344482421875;3.88999999017869;390;100 mA
8.34229097893774;0.399749755859375;0.00339935302734375;3.89999999015345;391;100 mA
8.35229097891249;0.399749755859375;0.0034014892578125;3.9099999901282;392;100 mA
8.36229097888724;0.399810791015625;0.0033868408203125;3.91999999010295;393;100 mA
8.372290978862;0.399810791015625;0.00335601806640625;3.9299999900777;394;100 mA
8.38229097883675;0.399688720703125;0.0033868408203125;3.93999999005246;395;100 mA
8.3922909788115;0.399810791015625;0.00336700439453125;3.94999999002721;396;100 mA
8.40229097878625;0.3997802734375;0.0033758544921875;3.95999999000196;397;100 mA
8.41229097876101;0.3997802734375;0.00333526611328125;3.96999998997671;398;100 mA
8.42229097873576;0.39971923828125;0.003355712890625;3.97999998995147;399;100 mA
8.43229097871051;0.399810791015625;0.00339447021484375;3.98999998992622;400;100 mA
8.44229097868526;0.399749755859375;0.00339447021484375;3.99999998990097;401;100 mA
8.45229097866002;0.399658203125;0.00341339111328125;4.00999998987572;402;100 mA
8.46229097863477;0.39971923828125;0.00337982177734375;4.01999998985048;403;100 mA
8.47229097860952;0.39971923828125;0.00337310791015625;4.02999998982523;404;100 mA
8.48229097858427;0.3997802734375;0.003333740234375;4.03999998979998;405;100 mA
8.49229097855903;0.399810791015625;0.00331146240234375;4.04999998977473;406;100 mA
8.50229097853378;0.399749755859375;0.00336181640625;4.05999998974949;407;100 mA
8.51229097850853;0.3997802734375;0.0033551025390625;4.06999998972424;408;100 mA
8.52229097848328;0.399810791015625;0.00338897705078125;4.07999998969899;409;100 mA
8.53229097845804;0.3997802734375;0.00340667724609375;4.08999998967374;410;100 mA
8.54229097843279;0.3997802734375;0.0034136962890625;4.0999999896485;411;100 mA
8.55229097840754;0.3997802734375;0.0034234619140625;4.10999998962325;412;100 mA
8.56229097838229;0.39971923828125;0.0034088134765625;4.119999989598;413;100 mA
8.57229097835705;0.39971923828125;0.00348876953125;4.12999998957275;414;100 mA
8.5822909783318;0.399749755859375;0.00345123291015625;4.1399999895475;415;100 mA
8.59229097830655;0.39971923828125;0.00346771240234375;4.14999998952226;416;100 mA
8.6022909782813;0.399749755859375;0.00343170166015625;4.15999998949701;417;100 mA
8.61229097825606;0.399871826171875;0.0033990478515625;4.16999998947176;418;100 mA
8.62229097823081;0.3997802734375;0.00341888427734375;4.17999998944651;419;100 mA
8.63229097820556;0.399810791015625;0.00338836669921875;4.18999998942127;420;100 mA
8.64229097818031;0.399749755859375;0.003404541015625;4.19999998939602;421;100 mA
8.65229097815507;0.39984130859375;0.0033868408203125;4.20999998937077;422;100 mA
8.66229097812982;0.399749755859375;0.0034149169921875;4.21999998934552;423;100 mA
8.67229097810457;0.3997802734375;0.00344451904296875;4.22999998932028;424;100 mA
8.68229097807932;0.3997802734375;0.0034246826171875;4.23999998929503;425;100 mA
8.69229097805407;0.39971923828125;0.00342926025390625;4.24999998926978;426;100 mA
8.70229097802883;0.3997802734375;0.00337615966796875;4.25999998924453;427;100 mA
8.71229097800358;0.3997802734375;0.00339874267578125;4.26999998921929;428;100 mA
8.72229097797833;0.3997802734375;0.00338104248046875;4.27999998919404;429;100 mA
8.73229097795308;0.3997802734375;0.00337005615234375;4.28999998916879;430;100 mA
8.74229097792784;0.39984130859375;0.00338409423828125;4.29999998914354;431;100 mA
8.75229097790259;0.399810791015625;0.00333587646484375;4.3099999891183;432;100 mA
8.76229097787734;0.3997802734375;0.00335906982421875;4.31999998909305;433;100 mA
8.77229097785209;0.39971923828125;0.00335174560546875;4.3299999890678;434;100 mA
8.78229097782685;0.3997802734375;0.00339111328125;4.33999998904255;435;100 mA
8.7922909778016;0.399749755859375;0.00335906982421875;4.34999998901731;436;100 mA
8.80229097777635;0.399749755859375;0.00334625244140625;4.35999998899206;437;100 mA
8.8122909777511;0.399688720703125;0.0033538818359375;4.36999998896681;438;100 mA
8.82229097772586;0.3997802734375;0.0033331298828125;4.37999998894156;439;100 mA
8.83229097770061;0.399749755859375;0.00333953857421875;4.38999998891632;440;100 mA
8.84229097767536;0.39971923828125;0.003365478515625;4.39999998889107;441;100 mA
8.85229097765011;0.39971923828125;0.00336151123046875;4.40999998886582;442;100 mA
8.86229097762487;0.3997802734375;0.00337799072265625;4.41999998884057;443;100 mA
8.87229097759962;0.3997802734375;0.0033502197265625;4.42999998881533;444;100 mA
8.88229097757437;0.39971923828125;0.00334228515625;4.43999998879008;445;100 mA
8.89229097754912;0.39984130859375;0.00331512451171875;4.44999998876483;446;100 mA
8.90229097752388;0.399749755859375;0.00333099365234375;4.45999998873958;447;100 mA
8.91229097749863;0.39971923828125;0.00332672119140625;4.46999998871433;448;100 mA
8.92229097747338;0.399810791015625;0.0033160400390625;4.47999998868909;449;100 mA
8.93229097744813;0.399749755859375;0.003353271484375;4.48999998866384;450;100 mA
8.94229097742289;0.3997802734375;0.003328857421875;4.49999998863859;451;100 mA
8.95229097739764;0.399749755859375;0.00335052490234375;4.50999998861334;452;100 mA
8.96229097737239;0.399810791015625;0.00333648681640625;4.5199999885881;453;100 mA
8.97229097734714;0.399749755859375;0.0033441162109375;4.52999998856285;454;100 mA
8.9822909773219;0.399688720703125;0.003365478515625;4.5399999885376;455;100 mA
8.99229097729665;0.39984130859375;0.00331756591796875;4.54999998851235;456;100 mA
9.0022909772714;0.399749755859375;0.00334228515625;4.55999998848711;457;100 mA
9.01229097724615;0.399810791015625;0.00334259033203125;4.56999998846186;458;100 mA
9.02229097722091;0.39971923828125;0.00334259033203125;4.57999998843661;459;100 mA
9.03229097719566;0.399749755859375;0.0033367919921875;4.58999998841136;460;100 mA
9.04229097717041;0.399749755859375;0.003311767578125;4.59999998838612;461;100 mA
9.05229097714516;0.399688720703125;0.0033575439453125;4.60999998836087;462;100 mA
9.06229097711991;0.39971923828125;0.0033306884765625;4.61999998833562;463;100 mA
9.07229097709467;0.399810791015625;0.00335296630859375;4.62999998831037;464;100 mA
9.08229097706942;0.399688720703125;0.00333251953125;4.63999998828513;465;100 mA
9.09229097704417;0.3997802734375;0.00331024169921875;4.64999998825988;466;100 mA
9.10229097701892;0.3997802734375;0.00333343505859375;4.65999998823463;467;100 mA
9.11229097699368;0.3997802734375;0.00330413818359375;4.66999998820938;468;100 mA
9.12229097696843;0.3997802734375;0.003316650390625;4.67999998818414;469;100 mA
9.13229097694318;0.3997802734375;0.0032891845703125;4.68999998815889;470;100 mA
9.14229097691793;0.3997802734375;0.0033123779296875;4.69999998813364;471;100 mA
9.15229097689269;0.39971923828125;0.0033099365234375;4.70999998810839;472;100 mA
9.16229097686744;0.399810791015625;0.00329742431640625;4.71999998808315;473;100 mA
9.17229097684219;0.399749755859375;0.003348388671875;4.7299999880579;474;100 mA
9.18229097681694;0.39971923828125;0.00332916259765625;4.73999998803265;475;100 mA
9.1922909767917;0.399688720703125;0.00334228515625;4.7499999880074;476;100 mA
9.20229097676645;0.399749755859375;0.003358154296875;4.75999998798216;477;100 mA
9.2122909767412;0.399749755859375;0.0033642578125;4.76999998795691;478;100 mA
9.22229097671595;0.399749755859375;0.00338653564453125;4.77999998793166;479;100 mA
9.23229097669071;0.399749755859375;0.00333648681640625;4.78999998790641;480;100 mA
9.24229097666546;0.399749755859375;0.00340423583984375;4.79999998788116;481;100 mA
9.25229097664021;0.399810791015625;0.00341156005859375;4.80999998785592;482;100 mA
9.26229097661496;0.39971923828125;0.00340545654296875;4.81999998783067;483;100 mA
9.27229097658972;0.399749755859375;0.00339569091796875;4.82999998780542;484;100 mA
9.28229097656447;0.39971923828125;0.0034051513671875;4.83999998778017;485;100 mA
9.29229097653922;0.399658203125;0.0034033203125;4.84999998775493;486;100 mA
9.30229097651397;0.3997802734375;0.00333892822265625;4.85999998772968;487;100 mA
9.31229097648873;0.399749755859375;0.00333587646484375;4.86999998770443;488;100 mA
9.32229097646348;0.399749755859375;0.00331085205078125;4.87999998767918;489;100 mA
9.33229097643823;0.399810791015625;0.0033148193359375;4.88999998765394;490;100 mA
9.34229097641298;0.399749755859375;0.00330902099609375;4.89999998762869;491;100 mA
9.35229097638774;0.399810791015625;0.003275146484375;4.90999998760344;492;100 mA
9.36229097636249;0.399749755859375;0.00332550048828125;4.91999998757819;493;100 mA
9.37229097633724;0.399810791015625;0.00329833984375;4.92999998755295;494;100 mA
9.38229097631199;0.3997802734375;0.00332305908203125;4.9399999875277;495;100 mA
9.39229097628674;0.399688720703125;0.0033551025390625;4.94999998750245;496;100 mA
9.4022909762615;0.39971923828125;0.00336944580078125;4.9599999874772;497;100 mA
9.41229097623625;0.399749755859375;0.003380126953125;4.96999998745196;498;100 mA
9.422290976211;0.399749755859375;0.00333038330078125;4.97999998742671;499;100 mA
9.43229097618575;0.3997802734375;0.003348388671875;4.98999998740146;500;100 mA
9.44229097616051;0.3997802734375;0.00335205078125;4.99999998737621;501;100 mA
9.45229097613526;0.399749755859375;0.003359375;5.00999998735097;502;100 mA
9.46229097611001;0.399749755859375;0.00337310791015625;5.01999998732572;503;100 mA
9.47229097608476;0.39971923828125;0.00332855224609375;5.02999998730047;504;100 mA
9.48229097605952;0.3997802734375;0.0033660888671875;5.03999998727522;505;100 mA
9.49229097603427;0.399749755859375;0.003359375;5.04999998724998;506;100 mA
9.50229097600902;0.399749755859375;0.00333740234375;5.05999998722473;507;100 mA
9.51229097598377;0.3997802734375;0.0033489990234375;5.06999998719948;508;100 mA
9.52229097595853;0.399810791015625;0.00333831787109375;5.07999998717423;509;100 mA
9.53229097593328;0.399688720703125;0.00338104248046875;5.08999998714899;510;100 mA
9.54229097590803;0.399810791015625;0.00329986572265625;5.09999998712374;511;100 mA
9.55229097588278;0.399688720703125;0.0033349609375;5.10999998709849;512;100 mA
9.56229097585754;0.3997802734375;0.0033306884765625;5.11999998707324;513;100 mA
9.57229097583229;0.399810791015625;0.00331390380859375;5.129999987048;514;100 mA
9.58229097580704;0.399688720703125;0.0033251953125;5.13999998702275;515;100 mA
9.59229097578179;0.399810791015625;0.00331634521484375;5.1499999869975;516;100 mA
9.60229097575655;0.399749755859375;0.003367919921875;5.15999998697225;517;100 mA
9.6122909757313;0.3997802734375;0.003365478515625;5.169999986947;518;100 mA
9.62229097570605;0.3997802734375;0.0033551025390625;5.17999998692176;519;100 mA
9.6322909756808;0.39971923828125;0.0033538818359375;5.18999998689651;520;100 mA
9.64229097565556;0.39971923828125;0.00334381103515625;5.19999998687126;521;100 mA
9.65229097563031;0.399688720703125;0.00335205078125;5.20999998684601;522;100 mA
9.66229097560506;0.399688720703125;0.0033209228515625;5.21999998682077;523;100 mA
9.67229097557981;0.399749755859375;0.003316650390625;5.22999998679552;524;100 mA
9.68229097555457;0.3997802734375;0.00333740234375;5.23999998677027;525;100 mA
9.69229097552932;0.39984130859375;0.0033392333984375;5.24999998674502;526;100 mA
9.70229097550407;0.399810791015625;0.00332489013671875;5.25999998671978;527;100 mA
9.71229097547882;0.3997802734375;0.00329132080078125;5.26999998669453;528;100 mA
9.72229097545357;0.399749755859375;0.00333221435546875;5.27999998666928;529;100 mA
9.73229097542833;0.399749755859375;0.00329742431640625;5.28999998664403;530;100 mA
9.74229097540308;0.39971923828125;0.00329071044921875;5.29999998661879;531;100 mA
9.75229097537783;0.399688720703125;0.0032763671875;5.30999998659354;532;100 mA
9.76229097535258;0.3997802734375;0.0032666015625;5.31999998656829;533;100 mA
9.77229097532734;0.399688720703125;0.00327972412109375;5.32999998654304;534;100 mA
9.78229097530209;0.399749755859375;0.00322113037109375;5.3399999865178;535;100 mA
9.79229097527684;0.399688720703125;0.00328277587890625;5.34999998649255;536;100 mA
9.80229097525159;0.399810791015625;0.00327911376953125;5.3599999864673;537;100 mA
9.81229097522635;0.399810791015625;0.00331146240234375;5.36999998644205;538;100 mA
9.8222909752011;0.39971923828125;0.00328521728515625;5.37999998641681;539;100 mA
9.83229097517585;0.3997802734375;0.00327239990234375;5.38999998639156;540;100 mA
9.8422909751506;0.3997802734375;0.0033099365234375;5.39999998636631;541;100 mA
9.85229097512536;0.399749755859375;0.0032720947265625;5.40999998634106;542;100 mA
9.86229097510011;0.3997802734375;0.00326171875;5.41999998631582;543;100 mA
9.87229097507486;0.3997802734375;0.0032415771484375;5.42999998629057;544;100 mA
9.88229097504961;0.39971923828125;0.00323974609375;5.43999998626532;545;100 mA
9.89229097502437;0.39971923828125;0.00325897216796875;5.44999998624007;546;100 mA
9.90229097499912;0.399810791015625;0.00320281982421875;5.45999998621483;547;100 mA
9.91229097497387;0.39971923828125;0.0032501220703125;5.46999998618958;548;100 mA
9.92229097494862;0.3997802734375;0.00325164794921875;5.47999998616433;549;100 mA
9.93229097492338;0.399810791015625;0.00323516845703125;5.48999998613908;550;100 mA
9.94229097489813;0.39984130859375;0.0032440185546875;5.49999998611383;551;100 mA
9.95229097487288;0.3997802734375;0.00320068359375;5.50999998608859;552;100 mA
9.96229097484763;0.3997802734375;0.00322601318359375;5.51999998606334;553;100 mA
9.97229097482239;0.399810791015625;0.00321441650390625;5.52999998603809;554;100 mA
9.98229097479714;0.399749755859375;0.00324676513671875;5.53999998601284;555;100 mA
9.99229097477189;0.399688720703125;0.0032586669921875;5.5499999859876;556;100 mA
10.0022909747466;0.3997802734375;0.00324798583984375;5.55999998596235;557;100 mA
10.0122909747214;0.399749755859375;0.00327972412109375;5.5699999859371;558;100 mA
10.0222909746961;0.399810791015625;0.00324981689453125;5.57999998591185;559;100 mA
10.0322909746709;0.399688720703125;0.003289794921875;5.58999998588661;560;100 mA
10.0422909746457;0.39984130859375;0.0032568359375;5.59999998586136;561;100 mA
10.0522909746204;0.39984130859375;0.0032525634765625;5.60999998583611;562;100 mA
10.0622909745952;0.3997802734375;0.003275146484375;5.61999998581086;563;100 mA
10.0722909745699;0.399810791015625;0.00329437255859375;5.62999998578562;564;100 mA
10.0822909745447;0.399810791015625;0.0033587646484375;5.63999998576037;565;100 mA
10.0922909745194;0.3997802734375;0.00335723876953125;5.64999998573512;566;100 mA
10.1022909744942;0.3997802734375;0.00333953857421875;5.65999998570987;567;100 mA
10.1122909744689;0.39971923828125;0.00335174560546875;5.66999998568463;568;100 mA
10.1222909744437;0.39971923828125;0.0033221435546875;5.67999998565938;569;100 mA
10.1322909744184;0.399688720703125;0.00337677001953125;5.68999998563413;570;100 mA
10.1422909743932;0.39971923828125;0.00335235595703125;5.69999998560888;571;100 mA
10.1522909743679;0.399810791015625;0.0033563232421875;5.70999998558364;572;100 mA
10.1622909743427;0.399749755859375;0.0033331298828125;5.71999998555839;573;100 mA
10.1722909743174;0.39971923828125;0.00330841064453125;5.72999998553314;574;100 mA
10.1822909742922;0.3997802734375;0.00332977294921875;5.73999998550789;575;100 mA
10.1922909742669;0.399749755859375;0.00330078125;5.74999998548265;576;100 mA
10.2022909742417;0.399749755859375;0.00328857421875;5.7599999854574;577;100 mA
10.2122909742164;0.399810791015625;0.00326263427734375;5.76999998543215;578;100 mA
10.2222909741912;0.3997802734375;0.0032568359375;5.7799999854069;579;100 mA
10.2322909741659;0.39984130859375;0.00326690673828125;5.78999998538166;580;100 mA
10.2422909741407;0.399749755859375;0.00323150634765625;5.79999998535641;581;100 mA
10.2522909741155;0.39971923828125;0.0032421875;5.80999998533116;582;100 mA
10.2622909740902;0.399749755859375;0.0032318115234375;5.81999998530591;583;100 mA
10.272290974065;0.399749755859375;0.00325958251953125;5.82999998528066;584;100 mA
10.2822909740397;0.399810791015625;0.0033050537109375;5.83999998525542;585;100 mA
10.2922909740145;0.399871826171875;0.00331298828125;5.84999998523017;586;100 mA
10.3022909739892;0.3997802734375;0.003321533203125;5.85999998520492;587;100 mA
10.312290973964;0.39984130859375;0.00330078125;5.86999998517967;588;100 mA
10.3222909739387;0.3997802734375;0.00332061767578125;5.87999998515443;589;100 mA
10.3322909739135;0.399810791015625;0.003260498046875;5.88999998512918;590;100 mA
10.3422909738882;0.39984130859375;0.00329254150390625;5.89999998510393;591;100 mA
10.352290973863;0.39971923828125;0.0032904052734375;5.90999998507868;592;100 mA
10.3622909738377;0.3997802734375;0.0032830810546875;5.91999998505344;593;100 mA
10.3722909738125;0.39971923828125;0.0033074951171875;5.92999998502819;594;100 mA
10.3822909737872;0.399749755859375;0.0032952880859375;5.93999998500294;595;100 mA
10.392290973762;0.39971923828125;0.00331634521484375;5.94999998497769;596;100 mA
10.4022909737367;0.3997802734375;0.00325042724609375;5.95999998495245;597;100 mA
10.4122909737115;0.3997802734375;0.0032177734375;5.9699999849272;598;100 mA
10.4222909736862;0.3997802734375;0.0032586669921875;5.97999998490195;599;100 mA
10.432290973661;0.39984130859375;0.00322540283203125;5.9899999848767;600;100 mA
10.4422909736357;0.3997802734375;0.00326904296875;5.99999998485146;601;100 mA
10.4522909736105;0.399810791015625;0.0032562255859375;6.00999998482621;602;100 mA
10.4622909735853;0.3997802734375;0.00326873779296875;6.01999998480096;603;100 mA
10.47229097356;0.399810791015625;0.00327972412109375;6.02999998477571;604;100 mA
10.4822909735348;0.399749755859375;0.00326446533203125;6.03999998475047;605;100 mA
10.4922909735095;0.399749755859375;0.00329315185546875;6.04999998472522;606;100 mA
10.5022909734843;0.39971923828125;0.0032867431640625;6.05999998469997;607;100 mA
10.512290973459;0.399749755859375;0.0033367919921875;6.06999998467472;608;100 mA
10.5222909734338;0.399749755859375;0.00328643798828125;6.07999998464948;609;100 mA
10.5322909734085;0.399810791015625;0.003218994140625;6.08999998462423;610;100 mA
10.5422909733833;0.3997802734375;0.00325103759765625;6.09999998459898;611;100 mA
10.552290973358;0.399749755859375;0.00323486328125;6.10999998457373;612;100 mA
10.5622909733328;0.3997802734375;0.00326904296875;6.11999998454849;613;100 mA
10.5722909733075;0.39984130859375;0.0032550048828125;6.12999998452324;614;100 mA
10.5822909732823;0.399810791015625;0.0032574462890625;6.13999998449799;615;100 mA
10.592290973257;0.39971923828125;0.00327728271484375;6.14999998447274;616;100 mA
10.6022909732318;0.3997802734375;0.0032476806640625;6.1599999844475;617;100 mA
10.6122909732065;0.39971923828125;0.00328338623046875;6.16999998442225;618;100 mA
10.6222909731813;0.399749755859375;0.00329071044921875;6.179999984397;619;100 mA
10.632290973156;0.39971923828125;0.0032952880859375;6.18999998437175;620;100 mA
10.6422909731308;0.39971923828125;0.0033282470703125;6.1999999843465;621;100 mA
10.6522909731056;0.399810791015625;0.00332733154296875;6.20999998432126;622;100 mA
10.6622909730803;0.39971923828125;0.00331573486328125;6.21999998429601;623;100 mA
10.6722909730551;0.3997802734375;0.00326416015625;6.22999998427076;624;100 mA
10.6822909730298;0.3997802734375;0.00325958251953125;6.23999998424551;625;100 mA
10.6922909730046;0.399810791015625;0.00326324462890625;6.24999998422027;626;100 mA
10.7022909729793;0.399749755859375;0.0032598876953125;6.25999998419502;627;100 mA
10.7122909729541;0.3997802734375;0.0032684326171875;6.26999998416977;628;100 mA
10.7222909729288;0.399810791015625;0.00326324462890625;6.27999998414452;629;100 mA
10.7322909729036;0.399749755859375;0.00329315185546875;6.28999998411928;630;100 mA
10.7422909728783;0.3997802734375;0.00328033447265625;6.29999998409403;631;100 mA
10.7522909728531;0.399810791015625;0.0033111572265625;6.30999998406878;632;100 mA
10.7622909728278;0.3997802734375;0.003311767578125;6.31999998404353;633;100 mA
10.7722909728026;0.399749755859375;0.00332550048828125;6.32999998401829;634;100 mA
10.7822909727773;0.399810791015625;0.00334197998046875;6.33999998399304;635;100 mA
10.7922909727521;0.39971923828125;0.00326507568359375;6.34999998396779;636;100 mA
10.8022909727268;0.399749755859375;0.00330963134765625;6.35999998394254;637;100 mA
10.8122909727016;0.39984130859375;0.0033294677734375;6.3699999839173;638;100 mA
10.8222909726763;0.3997802734375;0.00333404541015625;6.37999998389205;639;100 mA
10.8322909726511;0.39971923828125;0.003338623046875;6.3899999838668;640;100 mA
10.8422909726258;0.3997802734375;0.00331756591796875;6.39999998384155;641;100 mA
10.8522909726006;0.3997802734375;0.003319091796875;6.40999998381631;642;100 mA
10.8622909725754;0.399749755859375;0.00330047607421875;6.41999998379106;643;100 mA
10.8722909725501;0.399810791015625;0.00330596923828125;6.42999998376581;644;100 mA
10.8822909725249;0.399749755859375;0.003323974609375;6.43999998374056;645;100 mA
10.8922909724996;0.399749755859375;0.00331634521484375;6.44999998371532;646;100 mA
10.9022909724744;0.3997802734375;0.0033380126953125;6.45999998369007;647;100 mA
10.9122909724491;0.3997802734375;0.00328826904296875;6.46999998366482;648;100 mA
10.9222909724239;0.399749755859375;0.00328277587890625;6.47999998363957;649;100 mA
10.9322909723986;0.39971923828125;0.00325927734375;6.48999998361433;650;100 mA
10.9422909723734;0.399749755859375;0.003282470703125;6.49999998358908;651;100 mA
10.9522909723481;0.399749755859375;0.00329193115234375;6.50999998356383;652;100 mA
10.9622909723229;0.39971923828125;0.003271484375;6.51999998353858;653;100 mA
10.9722909722976;0.399688720703125;0.00332000732421875;6.52999998351333;654;100 mA
10.9822909722724;0.3997802734375;0.003314208984375;6.53999998348809;655;100 mA
10.9922909722471;0.3997802734375;0.00329833984375;6.54999998346284;656;100 mA
11.0022909722219;0.399749755859375;0.0033099365234375;6.55999998343759;657;100 mA
11.0122909721966;0.399749755859375;0.0033154296875;6.56999998341234;658;100 mA
11.0222909721714;0.3997802734375;0.003304443359375;6.5799999833871;659;100 mA
11.0322909721461;0.399749755859375;0.0032440185546875;6.58999998336185;660;100 mA
11.0422909721209;0.399749755859375;0.00330780029296875;6.5999999833366;661;100 mA
11.0522909720956;0.3997802734375;0.00332000732421875;6.60999998331135;662;100 mA
11.0622909720704;0.39971923828125;0.00333648681640625;6.61999998328611;663;100 mA
11.0722909720452;0.399749755859375;0.0033258056640625;6.62999998326086;664;100 mA
11.0822909720199;0.399749755859375;0.003291015625;6.63999998323561;665;100 mA
11.0922909719947;0.399749755859375;0.00331787109375;6.64999998321036;666;100 mA
11.1022909719694;0.3997802734375;0.00328369140625;6.65999998318512;667;100 mA
11.1122909719442;0.399749755859375;0.00326873779296875;6.66999998315987;668;100 mA
11.1222909719189;0.399749755859375;0.00326385498046875;6.67999998313462;669;100 mA
11.1322909718937;0.399871826171875;0.0032537841796875;6.68999998310937;670;100 mA
11.1422909718684;0.399749755859375;0.0032818603515625;6.69999998308413;671;100 mA
11.1522909718432;0.39971923828125;0.003250732421875;6.70999998305888;672;100 mA
11.1622909718179;0.39984130859375;0.00330078125;6.71999998303363;673;100 mA
11.1722909717927;0.3997802734375;0.0032818603515625;6.72999998300838;674;100 mA
11.1822909717674;0.399749755859375;0.00327789306640625;6.73999998298314;675;100 mA
11.1922909717422;0.39971923828125;0.00326812744140625;6.74999998295789;676;100 mA
11.2022909717169;0.39971923828125;0.00326141357421875;6.75999998293264;677;100 mA
11.2122909716917;0.399658203125;0.00328887939453125;6.76999998290739;678;100 mA
11.2222909716664;0.39971923828125;0.00329742431640625;6.77999998288215;679;100 mA
11.2322909716412;0.39971923828125;0.00331939697265625;6.7899999828569;680;100 mA
11.2422909716159;0.3997802734375;0.0033404541015625;6.79999998283165;681;100 mA
11.2522909715907;0.399810791015625;0.00332977294921875;6.8099999828064;682;100 mA
11.2622909715654;0.399749755859375;0.0033099365234375;6.81999998278116;683;100 mA
11.2722909715402;0.3997802734375;0.0032757568359375;6.82999998275591;684;100 mA
11.282290971515;0.39971923828125;0.00328216552734375;6.83999998273066;685;100 mA
11.2922909714897;0.399810791015625;0.003299560546875;6.84999998270541;686;100 mA
11.3022909714645;0.39971923828125;0.0033013916015625;6.85999998268016;687;100 mA
11.3122909714392;0.399749755859375;0.003311767578125;6.86999998265492;688;100 mA
11.322290971414;0.399749755859375;0.00331024169921875;6.87999998262967;689;100 mA
11.3322909713887;0.39971923828125;0.0033465576171875;6.88999998260442;690;100 mA
11.3422909713635;0.399688720703125;0.00330169677734375;6.89999998257917;691;100 mA
11.3522909713382;0.39971923828125;0.0033038330078125;6.90999998255393;692;100 mA
11.362290971313;0.39971923828125;0.0033111572265625;6.91999998252868;693;100 mA
11.3722909712877;0.39971923828125;0.0033294677734375;6.92999998250343;694;100 mA
11.3822909712625;0.3997802734375;0.00332977294921875;6.93999998247818;695;100 mA
11.3922909712372;0.39971923828125;0.003316650390625;6.94999998245294;696;100 mA
11.402290971212;0.3997802734375;0.00335357666015625;6.95999998242769;697;100 mA
11.4122909711867;0.399810791015625;0.0033453369140625;6.96999998240244;698;100 mA
11.4222909711615;0.3997802734375;0.00334014892578125;6.97999998237719;699;100 mA
11.4322909711362;0.39971923828125;0.0033203125;6.98999998235195;700;100 mA
