Time (s);WE(1).Potential (V);WE(1).Current (A);Corrected time (s);Index;Current range
11.910443969929;0.29986572265625;0.0020928955078125;0;1;100 mA
11.9204439699038;0.29986572265625;0.00234649658203125;0.00999999997475243;2;100 mA
11.9304439698785;0.29986572265625;0.00245330810546875;0.0199999999495049;3;100 mA
11.9404439698533;0.299896240234375;0.00252716064453125;0.0299999999242573;4;100 mA
11.950443969828;0.2998046875;0.0026123046875;0.0399999998990097;5;100 mA
11.9604439698028;0.299835205078125;0.0026324462890625;0.0499999998737621;6;100 mA
11.9704439697775;0.2998046875;0.00268768310546875;0.0599999998485146;7;100 mA
11.9804439697523;0.299835205078125;0.00268585205078125;0.069999999823267;8;100 mA
11.990443969727;0.2998046875;0.00269561767578125;0.0799999997980194;9;100 mA
12.0004439697018;0.2998046875;0.00271392822265625;0.0899999997727718;10;100 mA
12.0104439696765;0.299896240234375;0.0027484130859375;0.0999999997475243;11;100 mA
12.0204439696513;0.29986572265625;0.00280487060546875;0.109999999722277;12;100 mA
12.030443969626;0.299896240234375;0.00277099609375;0.119999999697029;13;100 mA
12.0404439696008;0.299896240234375;0.00277984619140625;0.129999999671782;14;100 mA
12.0504439695756;0.299835205078125;0.002796630859375;0.139999999646534;15;100 mA
12.0604439695503;0.29986572265625;0.00283355712890625;0.149999999621286;16;100 mA
12.0704439695251;0.299835205078125;0.002847900390625;0.159999999596039;17;100 mA
12.0804439694998;0.299835205078125;0.00284332275390625;0.169999999570791;18;100 mA
12.0904439694746;0.29986572265625;0.00285125732421875;0.179999999545544;19;100 mA
12.1004439694493;0.299835205078125;0.00283721923828125;0.189999999520296;20;100 mA
12.1104439694241;0.299835205078125;0.0028466796875;0.199999999495049;21;100 mA
12.1204439693988;0.299896240234375;0.0028466796875;0.209999999469801;22;100 mA
12.1304439693736;0.29986572265625;0.00284088134765625;0.219999999444553;23;100 mA
12.1404439693483;0.299835205078125;0.002845458984375;0.229999999419306;24;100 mA
12.1504439693231;0.299835205078125;0.00282867431640625;0.239999999394058;25;100 mA
12.1604439692978;0.29986572265625;0.0028564453125;0.249999999368811;26;100 mA
12.1704439692726;0.299835205078125;0.002835693359375;0.259999999343563;27;100 mA
12.1804439692473;0.29986572265625;0.00285003662109375;0.269999999318316;28;100 mA
12.1904439692221;0.29986572265625;0.0028472900390625;0.279999999293068;29;100 mA
12.2004439691968;0.299896240234375;0.00280029296875;0.28999999926782;30;100 mA
12.2104439691716;0.29986572265625;0.00289642333984375;0.299999999242573;31;100 mA
12.2204439691463;0.299896240234375;0.0028363037109375;0.309999999217325;32;100 mA
12.2304439691211;0.299835205078125;0.0028680419921875;0.319999999192078;33;100 mA
12.2404439690958;0.2998046875;0.0028570556640625;0.32999999916683;34;100 mA
12.2504439690706;0.29986572265625;0.00282867431640625;0.339999999141583;35;100 mA
12.2604439690454;0.29986572265625;0.002833251953125;0.349999999116335;36;100 mA
12.2704439690201;0.2998046875;0.00277984619140625;0.359999999091087;37;100 mA
12.2804439689949;0.299835205078125;0.002799072265625;0.36999999906584;38;100 mA
12.2904439689696;0.299896240234375;0.002803955078125;0.379999999040592;39;100 mA
12.3004439689444;0.299835205078125;0.0027825927734375;0.389999999015345;40;100 mA
12.3104439689191;0.2998046875;0.00278717041015625;0.399999998990097;41;100 mA
12.3204439688939;0.299835205078125;0.00276885986328125;0.40999999896485;42;100 mA
12.3304439688686;0.299835205078125;0.00279815673828125;0.419999998939602;43;100 mA
12.3404439688434;0.299896240234375;0.00280120849609375;0.429999998914354;44;100 mA
12.3504439688181;0.29986572265625;0.0028179931640625;0.439999998889107;45;100 mA
12.3604439687929;0.299835205078125;0.0028173828125;0.449999998863859;46;100 mA
12.3704439687676;0.2999267578125;0.00281951904296875;0.459999998838612;47;100 mA
12.3804439687424;0.299835205078125;0.00281005859375;0.469999998813364;48;100 mA
12.3904439687171;0.29986572265625;0.0027569580078125;0.479999998788116;49;100 mA
12.4004439686919;0.299835205078125;0.0027874755859375;0.489999998762869;50;100 mA
12.4104439686666;0.29986572265625;0.00280975341796875;0.499999998737621;51;100 mA
12.4204439686414;0.29986572265625;0.0028173828125;0.509999998712374;52;100 mA
12.4304439686161;0.299896240234375;0.0027984619140625;0.519999998687126;53;100 mA
12.4404439685909;0.2998046875;0.002794189453125;0.529999998661879;54;100 mA
12.4504439685657;0.29986572265625;0.002830810546875;0.539999998636631;55;100 mA
12.4604439685404;0.2998046875;0.00279388427734375;0.549999998611383;56;100 mA
12.4704439685152;0.299896240234375;0.00278411865234375;0.559999998586136;57;100 mA
12.4804439684899;0.299835205078125;0.00279205322265625;0.569999998560888;58;100 mA
12.4904439684647;0.2999267578125;0.0028057861328125;0.579999998535641;59;100 mA
12.5004439684394;0.29986572265625;0.0028607177734375;0.589999998510393;60;100 mA
12.5104439684142;0.299896240234375;0.00285247802734375;0.599999998485146;61;100 mA
12.5204439683889;0.299896240234375;0.00286102294921875;0.609999998459898;62;100 mA
12.5304439683637;0.29986572265625;0.0028765869140625;0.61999999843465;63;100 mA
12.5404439683384;0.29986572265625;0.00286529541015625;0.629999998409403;64;100 mA
12.5504439683132;0.29986572265625;0.002877197265625;0.639999998384155;65;100 mA
12.5604439682879;0.2998046875;0.00286895751953125;0.649999998358908;66;100 mA
12.5704439682627;0.299835205078125;0.00288543701171875;0.65999999833366;67;100 mA
12.5804439682374;0.299896240234375;0.00284942626953125;0.669999998308413;68;100 mA
12.5904439682122;0.299774169921875;0.00285797119140625;0.679999998283165;69;100 mA
12.6004439681869;0.29986572265625;0.00286834716796875;0.689999998257917;70;100 mA
12.6104439681617;0.2998046875;0.002857666015625;0.69999999823267;71;100 mA
12.6204439681364;0.299835205078125;0.00289947509765625;0.709999998207422;72;100 mA
12.6304439681112;0.29986572265625;0.00287689208984375;0.719999998182175;73;100 mA
12.6404439680859;0.2998046875;0.0028851318359375;0.729999998156927;74;100 mA
12.6504439680607;0.2999267578125;0.002877197265625;0.73999999813168;75;100 mA
12.6604439680355;0.299774169921875;0.002879638671875;0.749999998106432;76;100 mA
12.6704439680102;0.299774169921875;0.00284149169921875;0.759999998081184;77;100 mA
12.680443967985;0.29986572265625;0.0028692626953125;0.769999998055937;78;100 mA
12.6904439679597;0.29986572265625;0.002889404296875;0.779999998030689;79;100 mA
12.7004439679345;0.299774169921875;0.00285797119140625;0.789999998005442;80;100 mA
12.7104439679092;0.299835205078125;0.002857666015625;0.799999997980194;81;100 mA
12.720443967884;0.299896240234375;0.002852783203125;0.809999997954947;82;100 mA
12.7304439678587;0.299835205078125;0.00282196044921875;0.819999997929699;83;100 mA
12.7404439678335;0.2998046875;0.0028314208984375;0.829999997904451;84;100 mA
12.7504439678082;0.299896240234375;0.00282196044921875;0.839999997879204;85;100 mA
12.760443967783;0.299896240234375;0.0028662109375;0.849999997853956;86;100 mA
12.7704439677577;0.299835205078125;0.00286041259765625;0.859999997828709;87;100 mA
12.7804439677325;0.29986572265625;0.00284637451171875;0.869999997803461;88;100 mA
12.7904439677072;0.299896240234375;0.00283294677734375;0.879999997778214;89;100 mA
12.800443967682;0.299835205078125;0.0028131103515625;0.889999997752966;90;100 mA
12.8104439676567;0.2998046875;0.0028472900390625;0.899999997727718;91;100 mA
12.8204439676315;0.299896240234375;0.0028033447265625;0.909999997702471;92;100 mA
12.8304439676062;0.2998046875;0.00282257080078125;0.919999997677223;93;100 mA
12.840443967581;0.299835205078125;0.0028607177734375;0.929999997651976;94;100 mA
12.8504439675557;0.299835205078125;0.00287109375;0.939999997626728;95;100 mA
12.8604439675305;0.299957275390625;0.00288848876953125;0.949999997601481;96;100 mA
12.8704439675053;0.2999267578125;0.00286468505859375;0.959999997576233;97;100 mA
12.88044396748;0.299835205078125;0.0028759765625;0.969999997550985;98;100 mA
12.8904439674548;0.2999267578125;0.00288177490234375;0.979999997525738;99;100 mA
12.9004439674295;0.29986572265625;0.00286956787109375;0.98999999750049;100;100 mA
12.9104439674043;0.299835205078125;0.00286529541015625;0.999999997475243;101;100 mA
12.920443967379;0.299835205078125;0.0028472900390625;1.00999999745;102;100 mA
12.9304439673538;0.29986572265625;0.00284820556640625;1.01999999742475;103;100 mA
12.9404439673285;0.299835205078125;0.00283172607421875;1.0299999973995;104;100 mA
12.9504439673033;0.29986572265625;0.00284088134765625;1.03999999737425;105;100 mA
12.960443967278;0.29986572265625;0.0028839111328125;1.049999997349;106;100 mA
12.9704439672528;0.299896240234375;0.002886962890625;1.05999999732376;107;100 mA
12.9804439672275;0.299835205078125;0.00288330078125;1.06999999729851;108;100 mA
12.9904439672023;0.29986572265625;0.00288909912109375;1.07999999727326;109;100 mA
13.000443967177;0.29986572265625;0.0028955078125;1.08999999724801;110;100 mA
13.0104439671518;0.299835205078125;0.00288482666015625;1.09999999722277;111;100 mA
13.0204439671265;0.299835205078125;0.00287017822265625;1.10999999719752;112;100 mA
13.0304439671013;0.29986572265625;0.00289093017578125;1.11999999717227;113;100 mA
13.040443967076;0.299835205078125;0.0028973388671875;1.12999999714702;114;100 mA
13.0504439670508;0.299835205078125;0.00288665771484375;1.13999999712178;115;100 mA
13.0604439670255;0.299835205078125;0.002841796875;1.14999999709653;116;100 mA
13.0704439670003;0.2999267578125;0.0028564453125;1.15999999707128;117;100 mA
13.0804439669751;0.29986572265625;0.00287750244140625;1.16999999704603;118;100 mA
13.0904439669498;0.299835205078125;0.00290069580078125;1.17999999702079;119;100 mA
13.1004439669246;0.299896240234375;0.00288665771484375;1.18999999699554;120;100 mA
13.1104439668993;0.29986572265625;0.002864990234375;1.19999999697029;121;100 mA
13.1204439668741;0.29986572265625;0.002840576171875;1.20999999694504;122;100 mA
13.1304439668488;0.299835205078125;0.002850341796875;1.2199999969198;123;100 mA
13.1404439668236;0.29986572265625;0.002862548828125;1.22999999689455;124;100 mA
13.1504439667983;0.29986572265625;0.002896728515625;1.2399999968693;125;100 mA
13.1604439667731;0.2998046875;0.00291046142578125;1.24999999684405;126;100 mA
13.1704439667478;0.2998046875;0.00290252685546875;1.25999999681881;127;100 mA
13.1804439667226;0.299896240234375;0.002894287109375;1.26999999679356;128;100 mA
13.1904439666973;0.299835205078125;0.0029302978515625;1.27999999676831;129;100 mA
13.2004439666721;0.29986572265625;0.00292449951171875;1.28999999674306;130;100 mA
13.2104439666468;0.299896240234375;0.0029150390625;1.29999999671782;131;100 mA
13.2204439666216;0.299896240234375;0.0029205322265625;1.30999999669257;132;100 mA
13.2304439665963;0.29986572265625;0.002935791015625;1.31999999666732;133;100 mA
13.2404439665711;0.299896240234375;0.00293304443359375;1.32999999664207;134;100 mA
13.2504439665458;0.29986572265625;0.00290740966796875;1.33999999661683;135;100 mA
13.2604439665206;0.299835205078125;0.0028839111328125;1.34999999659158;136;100 mA
13.2704439664953;0.299835205078125;0.0029150390625;1.35999999656633;137;100 mA
13.2804439664701;0.299835205078125;0.00292694091796875;1.36999999654108;138;100 mA
13.2904439664449;0.299896240234375;0.00295745849609375;1.37999999651583;139;100 mA
13.3004439664196;0.299835205078125;0.00292877197265625;1.38999999649059;140;100 mA
13.3104439663944;0.29986572265625;0.00294158935546875;1.39999999646534;141;100 mA
13.3204439663691;0.29986572265625;0.00293212890625;1.40999999644009;142;100 mA
13.3304439663439;0.299835205078125;0.0029058837890625;1.41999999641484;143;100 mA
13.3404439663186;0.29986572265625;0.00291656494140625;1.4299999963896;144;100 mA
13.3504439662934;0.299896240234375;0.002908935546875;1.43999999636435;145;100 mA
13.3604439662681;0.29986572265625;0.00289154052734375;1.4499999963391;146;100 mA
13.3704439662429;0.299835205078125;0.002879638671875;1.45999999631385;147;100 mA
13.3804439662176;0.29986572265625;0.00290802001953125;1.46999999628861;148;100 mA
13.3904439661924;0.299896240234375;0.00294464111328125;1.47999999626336;149;100 mA
13.4004439661671;0.299835205078125;0.00292388916015625;1.48999999623811;150;100 mA
13.4104439661419;0.299835205078125;0.0028948974609375;1.49999999621286;151;100 mA
13.4204439661166;0.29986572265625;0.0028656005859375;1.50999999618762;152;100 mA
13.4304439660914;0.299835205078125;0.002869873046875;1.51999999616237;153;100 mA
13.4404439660661;0.29986572265625;0.00287109375;1.52999999613712;154;100 mA
13.4504439660409;0.299835205078125;0.00286834716796875;1.53999999611187;155;100 mA
13.4604439660156;0.299896240234375;0.0029229736328125;1.54999999608663;156;100 mA
13.4704439659904;0.299835205078125;0.00292022705078125;1.55999999606138;157;100 mA
13.4804439659652;0.299835205078125;0.00292724609375;1.56999999603613;158;100 mA
13.4904439659399;0.29986572265625;0.002886962890625;1.57999999601088;159;100 mA
13.5004439659147;0.299896240234375;0.00288818359375;1.58999999598564;160;100 mA
13.5104439658894;0.299835205078125;0.0028948974609375;1.59999999596039;161;100 mA
13.5204439658642;0.299835205078125;0.002890625;1.60999999593514;162;100 mA
13.5304439658389;0.29986572265625;0.0029180908203125;1.61999999590989;163;100 mA
13.5404439658137;0.299835205078125;0.00289093017578125;1.62999999588465;164;100 mA
13.5504439657884;0.299896240234375;0.00291168212890625;1.6399999958594;165;100 mA
13.5604439657632;0.29986572265625;0.00291229248046875;1.64999999583415;166;100 mA
13.5704439657379;0.299896240234375;0.00291534423828125;1.6599999958089;167;100 mA
13.5804439657127;0.299835205078125;0.00293121337890625;1.66999999578366;168;100 mA
13.5904439656874;0.29986572265625;0.00292449951171875;1.67999999575841;169;100 mA
13.6004439656622;0.29986572265625;0.0029193115234375;1.68999999573316;170;100 mA
13.6104439656369;0.29986572265625;0.002906494140625;1.69999999570791;171;100 mA
13.6204439656117;0.29986572265625;0.00290802001953125;1.70999999568267;172;100 mA
13.6304439655864;0.299835205078125;0.00291473388671875;1.71999999565742;173;100 mA
13.6404439655612;0.299835205078125;0.00286285400390625;1.72999999563217;174;100 mA
13.6504439655359;0.29986572265625;0.00287506103515625;1.73999999560692;175;100 mA
13.6604439655107;0.29986572265625;0.002864990234375;1.74999999558167;176;100 mA
13.6704439654854;0.29986572265625;0.00291168212890625;1.75999999555643;177;100 mA
13.6804439654602;0.299835205078125;0.00292205810546875;1.76999999553118;178;100 mA
13.690443965435;0.2998046875;0.00292144775390625;1.77999999550593;179;100 mA
13.7004439654097;0.299896240234375;0.002930908203125;1.78999999548068;180;100 mA
13.7104439653845;0.29986572265625;0.0029010009765625;1.79999999545544;181;100 mA
13.7204439653592;0.2998046875;0.00288726806640625;1.80999999543019;182;100 mA
13.730443965334;0.299835205078125;0.0028619384765625;1.81999999540494;183;100 mA
13.7404439653087;0.299896240234375;0.00288177490234375;1.82999999537969;184;100 mA
13.7504439652835;0.2998046875;0.00290374755859375;1.83999999535445;185;100 mA
13.7604439652582;0.2998046875;0.002882080078125;1.8499999953292;186;100 mA
13.770443965233;0.299835205078125;0.002891845703125;1.85999999530395;187;100 mA
13.7804439652077;0.29986572265625;0.002880859375;1.8699999952787;188;100 mA
13.7904439651825;0.29986572265625;0.0029010009765625;1.87999999525346;189;100 mA
13.8004439651572;0.299835205078125;0.00291290283203125;1.88999999522821;190;100 mA
13.810443965132;0.299835205078125;0.0028814697265625;1.89999999520296;191;100 mA
13.8204439651067;0.299835205078125;0.00291229248046875;1.90999999517771;192;100 mA
13.8304439650815;0.29986572265625;0.00293304443359375;1.91999999515247;193;100 mA
13.8404439650562;0.299896240234375;0.0029534912109375;1.92999999512722;194;100 mA
13.850443965031;0.299835205078125;0.00294677734375;1.93999999510197;195;100 mA
13.8604439650057;0.2998046875;0.00294952392578125;1.94999999507672;196;100 mA
13.8704439649805;0.299835205078125;0.00295928955078125;1.95999999505148;197;100 mA
13.8804439649552;0.29986572265625;0.00294830322265625;1.96999999502623;198;100 mA
13.89044396493;0.29986572265625;0.0029473876953125;1.97999999500098;199;100 mA
13.9004439649048;0.29986572265625;0.00290130615234375;1.98999999497573;200;100 mA
13.9104439648795;0.29986572265625;0.0029205322265625;1.99999999495049;201;100 mA
13.9204439648543;0.29986572265625;0.0029083251953125;2.00999999492524;202;100 mA
13.930443964829;0.2998046875;0.00293121337890625;2.01999999489999;203;100 mA
13.9404439648038;0.29986572265625;0.00296112060546875;2.02999999487474;204;100 mA
13.9504439647785;0.29986572265625;0.00295135498046875;2.0399999948495;205;100 mA
13.9604439647533;0.2999267578125;0.0029241943359375;2.04999999482425;206;100 mA
13.970443964728;0.29986572265625;0.00289794921875;2.059999994799;207;100 mA
13.9804439647028;0.29986572265625;0.0029229736328125;2.06999999477375;208;100 mA
13.9904439646775;0.299896240234375;0.002908935546875;2.0799999947485;209;100 mA
14.0004439646523;0.299896240234375;0.00288055419921875;2.08999999472326;210;100 mA
14.010443964627;0.2998046875;0.0029156494140625;2.09999999469801;211;100 mA
14.0204439646018;0.299896240234375;0.00292388916015625;2.10999999467276;212;100 mA
14.0304439645765;0.299896240234375;0.002938232421875;2.11999999464751;213;100 mA
14.0404439645513;0.299835205078125;0.0029034423828125;2.12999999462227;214;100 mA
14.050443964526;0.299896240234375;0.00290618896484375;2.13999999459702;215;100 mA
14.0604439645008;0.29986572265625;0.00292449951171875;2.14999999457177;216;100 mA
14.0704439644755;0.299835205078125;0.0029278564453125;2.15999999454652;217;100 mA
14.0804439644503;0.2998046875;0.002921142578125;2.16999999452128;218;100 mA
14.090443964425;0.29986572265625;0.00290130615234375;2.17999999449603;219;100 mA
14.1004439643998;0.29986572265625;0.00289337158203125;2.18999999447078;220;100 mA
14.1104439643746;0.29986572265625;0.0029071044921875;2.19999999444553;221;100 mA
14.1204439643493;0.2998046875;0.002896728515625;2.20999999442029;222;100 mA
14.1304439643241;0.299896240234375;0.00293243408203125;2.21999999439504;223;100 mA
14.1404439642988;0.299774169921875;0.00290924072265625;2.22999999436979;224;100 mA
14.1504439642736;0.29986572265625;0.00291961669921875;2.23999999434454;225;100 mA
14.1604439642483;0.29986572265625;0.00291534423828125;2.2499999943193;226;100 mA
14.1704439642231;0.299835205078125;0.00291534423828125;2.25999999429405;227;100 mA
14.1804439641978;0.2999267578125;0.00294647216796875;2.2699999942688;228;100 mA
14.1904439641726;0.2998046875;0.00290313720703125;2.27999999424355;229;100 mA
14.2004439641473;0.29986572265625;0.0029522705078125;2.28999999421831;230;100 mA
14.2104439641221;0.2998046875;0.00290130615234375;2.29999999419306;231;100 mA
14.2204439640968;0.299835205078125;0.00290557861328125;2.30999999416781;232;100 mA
14.2304439640716;0.29986572265625;0.002901611328125;2.31999999414256;233;100 mA
14.2404439640463;0.29986572265625;0.002889404296875;2.32999999411732;234;100 mA
14.2504439640211;0.299896240234375;0.0029278564453125;2.33999999409207;235;100 mA
14.2604439639958;0.299835205078125;0.0029046630859375;2.34999999406682;236;100 mA
14.2704439639706;0.29986572265625;0.0029168701171875;2.35999999404157;237;100 mA
14.2804439639453;0.299835205078125;0.00292236328125;2.36999999401633;238;100 mA
14.2904439639201;0.299896240234375;0.00293609619140625;2.37999999399108;239;100 mA
14.3004439638948;0.299957275390625;0.00293426513671875;2.38999999396583;240;100 mA
14.3104439638696;0.2998046875;0.00287750244140625;2.39999999394058;241;100 mA
14.3204439638444;0.299835205078125;0.00289764404296875;2.40999999391533;242;100 mA
14.3304439638191;0.29986572265625;0.00287078857421875;2.41999999389009;243;100 mA
14.3404439637939;0.299896240234375;0.00286468505859375;2.42999999386484;244;100 mA
14.3504439637686;0.299774169921875;0.002872314453125;2.43999999383959;245;100 mA
14.3604439637434;0.2998046875;0.00291839599609375;2.44999999381434;246;100 mA
14.3704439637181;0.299835205078125;0.00293853759765625;2.4599999937891;247;100 mA
14.3804439636929;0.29986572265625;0.00291961669921875;2.46999999376385;248;100 mA
14.3904439636676;0.299835205078125;0.00290985107421875;2.4799999937386;249;100 mA
14.4004439636424;0.2998046875;0.0029022216796875;2.48999999371335;250;100 mA
14.4104439636171;0.299896240234375;0.00291534423828125;2.49999999368811;251;100 mA
14.4204439635919;0.299896240234375;0.002939453125;2.50999999366286;252;100 mA
14.4304439635666;0.2999267578125;0.00287933349609375;2.51999999363761;253;100 mA
14.4404439635414;0.29986572265625;0.0028826904296875;2.52999999361236;254;100 mA
14.4504439635161;0.299835205078125;0.0028863525390625;2.53999999358712;255;100 mA
14.4604439634909;0.2998046875;0.0028997802734375;2.54999999356187;256;100 mA
14.4704439634656;0.29986572265625;0.00290924072265625;2.55999999353662;257;100 mA
14.4804439634404;0.299835205078125;0.0029266357421875;2.56999999351137;258;100 mA
14.4904439634151;0.299835205078125;0.00292572021484375;2.57999999348613;259;100 mA
14.5004439633899;0.299835205078125;0.002906494140625;2.58999999346088;260;100 mA
14.5104439633647;0.299835205078125;0.002899169921875;2.59999999343563;261;100 mA
14.5204439633394;0.299896240234375;0.00290252685546875;2.60999999341038;262;100 mA
14.5304439633142;0.299835205078125;0.0028717041015625;2.61999999338514;263;100 mA
14.5404439632889;0.299896240234375;0.00285797119140625;2.62999999335989;264;100 mA
14.5504439632637;0.29986572265625;0.00284271240234375;2.63999999333464;265;100 mA
14.5604439632384;0.299896240234375;0.002886962890625;2.64999999330939;266;100 mA
14.5704439632132;0.299774169921875;0.00292449951171875;2.65999999328415;267;100 mA
14.5804439631879;0.29986572265625;0.00291961669921875;2.6699999932589;268;100 mA
14.5904439631627;0.2999267578125;0.00291107177734375;2.67999999323365;269;100 mA
14.6004439631374;0.299835205078125;0.0028924560546875;2.6899999932084;270;100 mA
14.6104439631122;0.299835205078125;0.0028887939453125;2.69999999318316;271;100 mA
14.6204439630869;0.299835205078125;0.00286346435546875;2.70999999315791;272;100 mA
14.6304439630617;0.29986572265625;0.0028765869140625;2.71999999313266;273;100 mA
14.6404439630364;0.29986572265625;0.002916259765625;2.72999999310741;274;100 mA
14.6504439630112;0.299896240234375;0.0029315185546875;2.73999999308217;275;100 mA
14.6604439629859;0.2999267578125;0.00290924072265625;2.74999999305692;276;100 mA
14.6704439629607;0.2998046875;0.00288665771484375;2.75999999303167;277;100 mA
14.6804439629354;0.29986572265625;0.0029107666015625;2.76999999300642;278;100 mA
14.6904439629102;0.299896240234375;0.00291107177734375;2.77999999298117;279;100 mA
14.7004439628849;0.29986572265625;0.002890625;2.78999999295593;280;100 mA
14.7104439628597;0.299835205078125;0.0028814697265625;2.79999999293068;281;100 mA
14.7204439628345;0.29986572265625;0.002889404296875;2.80999999290543;282;100 mA
14.7304439628092;0.299835205078125;0.002906494140625;2.81999999288018;283;100 mA
14.740443962784;0.29986572265625;0.0028631591796875;2.82999999285494;284;100 mA
14.7504439627587;0.299835205078125;0.00287872314453125;2.83999999282969;285;100 mA
14.7604439627335;0.29986572265625;0.00291900634765625;2.84999999280444;286;100 mA
14.7704439627082;0.2998046875;0.00292205810546875;2.85999999277919;287;100 mA
14.780443962683;0.299896240234375;0.00290313720703125;2.86999999275395;288;100 mA
14.7904439626577;0.29986572265625;0.00289215087890625;2.8799999927287;289;100 mA
14.8004439626325;0.299896240234375;0.0028948974609375;2.88999999270345;290;100 mA
14.8104439626072;0.2998046875;0.002861328125;2.8999999926782;291;100 mA
14.820443962582;0.299835205078125;0.002857666015625;2.90999999265296;292;100 mA
14.8304439625567;0.29986572265625;0.0028704833984375;2.91999999262771;293;100 mA
14.8404439625315;0.299835205078125;0.00285125732421875;2.92999999260246;294;100 mA
14.8504439625062;0.29986572265625;0.00288360595703125;2.93999999257721;295;100 mA
14.860443962481;0.29986572265625;0.00287506103515625;2.94999999255197;296;100 mA
14.8704439624557;0.29986572265625;0.00292694091796875;2.95999999252672;297;100 mA
14.8804439624305;0.29986572265625;0.00294158935546875;2.96999999250147;298;100 mA
14.8904439624052;0.29986572265625;0.00290924072265625;2.97999999247622;299;100 mA
14.90044396238;0.299835205078125;0.0028924560546875;2.98999999245098;300;100 mA
14.9104439623547;0.299835205078125;0.00290679931640625;2.99999999242573;301;100 mA
14.9204439623295;0.299835205078125;0.002935791015625;3.00999999240048;302;100 mA
14.9304439623043;0.2999267578125;0.002890625;3.01999999237523;303;100 mA
14.940443962279;0.29986572265625;0.00287994384765625;3.02999999234999;304;100 mA
14.9504439622538;0.2998046875;0.002923583984375;3.03999999232474;305;100 mA
14.9604439622285;0.299835205078125;0.002911376953125;3.04999999229949;306;100 mA
14.9704439622033;0.29986572265625;0.0029010009765625;3.05999999227424;307;100 mA
14.980443962178;0.2998046875;0.0028546142578125;3.069999992249;308;100 mA
14.9904439621528;0.29986572265625;0.002867431640625;3.07999999222375;309;100 mA
15.0004439621275;0.299896240234375;0.002890625;3.0899999921985;310;100 mA
15.0104439621023;0.29986572265625;0.00288238525390625;3.09999999217325;311;100 mA
15.020443962077;0.299896240234375;0.00291839599609375;3.109999992148;312;100 mA
15.0304439620518;0.29986572265625;0.002960205078125;3.11999999212276;313;100 mA
15.0404439620265;0.29986572265625;0.002991943359375;3.12999999209751;314;100 mA
15.0504439620013;0.2999267578125;0.00298919677734375;3.13999999207226;315;100 mA
15.060443961976;0.29986572265625;0.00296966552734375;3.14999999204701;316;100 mA
15.0704439619508;0.29986572265625;0.0030047607421875;3.15999999202177;317;100 mA
15.0804439619255;0.299835205078125;0.00301483154296875;3.16999999199652;318;100 mA
15.0904439619003;0.299835205078125;0.00300933837890625;3.17999999197127;319;100 mA
15.100443961875;0.299835205078125;0.0029888916015625;3.18999999194602;320;100 mA
15.1104439618498;0.299896240234375;0.00297698974609375;3.19999999192078;321;100 mA
15.1204439618245;0.29986572265625;0.0029791259765625;3.20999999189553;322;100 mA
15.1304439617993;0.29986572265625;0.0029583740234375;3.21999999187028;323;100 mA
15.1404439617741;0.2999267578125;0.00296844482421875;3.22999999184503;324;100 mA
15.1504439617488;0.2998046875;0.00296875;3.23999999181979;325;100 mA
15.1604439617236;0.29986572265625;0.0029730224609375;3.24999999179454;326;100 mA
15.1704439616983;0.29986572265625;0.002940673828125;3.25999999176929;327;100 mA
15.1804439616731;0.299835205078125;0.0029248046875;3.26999999174404;328;100 mA
15.1904439616478;0.299835205078125;0.0029437255859375;3.2799999917188;329;100 mA
15.2004439616226;0.299774169921875;0.00292724609375;3.28999999169355;330;100 mA
15.2104439615973;0.2999267578125;0.00292877197265625;3.2999999916683;331;100 mA
15.2204439615721;0.299896240234375;0.00290313720703125;3.30999999164305;332;100 mA
15.2304439615468;0.299835205078125;0.002889404296875;3.31999999161781;333;100 mA
15.2404439615216;0.299835205078125;0.0028948974609375;3.32999999159256;334;100 mA
15.2504439614963;0.29986572265625;0.00287628173828125;3.33999999156731;335;100 mA
15.2604439614711;0.299835205078125;0.00289154052734375;3.34999999154206;336;100 mA
15.2704439614458;0.29986572265625;0.002899169921875;3.35999999151682;337;100 mA
15.2804439614206;0.29986572265625;0.0029254150390625;3.36999999149157;338;100 mA
15.2904439613953;0.299835205078125;0.00287689208984375;3.37999999146632;339;100 mA
15.3004439613701;0.299835205078125;0.0028802490234375;3.38999999144107;340;100 mA
15.3104439613448;0.299896240234375;0.0029290771484375;3.39999999141583;341;100 mA
15.3204439613196;0.2998046875;0.00291351318359375;3.40999999139058;342;100 mA
15.3304439612943;0.29986572265625;0.002926025390625;3.41999999136533;343;100 mA
15.3404439612691;0.29986572265625;0.00288360595703125;3.42999999134008;344;100 mA
15.3504439612439;0.29986572265625;0.00287506103515625;3.43999999131483;345;100 mA
15.3604439612186;0.299835205078125;0.00288482666015625;3.44999999128959;346;100 mA
15.3704439611934;0.299896240234375;0.00287078857421875;3.45999999126434;347;100 mA
15.3804439611681;0.299896240234375;0.00288818359375;3.46999999123909;348;100 mA
15.3904439611429;0.299896240234375;0.0028851318359375;3.47999999121384;349;100 mA
15.4004439611176;0.29986572265625;0.00288299560546875;3.4899999911886;350;100 mA
15.4104439610924;0.29986572265625;0.00288787841796875;3.49999999116335;351;100 mA
15.4204439610671;0.299835205078125;0.00288543701171875;3.5099999911381;352;100 mA
15.4304439610419;0.299835205078125;0.00288726806640625;3.51999999111285;353;100 mA
15.4404439610166;0.299774169921875;0.002852783203125;3.52999999108761;354;100 mA
15.4504439609914;0.299896240234375;0.00284454345703125;3.53999999106236;355;100 mA
15.4604439609661;0.299835205078125;0.00281768798828125;3.54999999103711;356;100 mA
15.4704439609409;0.29986572265625;0.002840576171875;3.55999999101186;357;100 mA
15.4804439609156;0.299896240234375;0.00282318115234375;3.56999999098662;358;100 mA
15.4904439608904;0.299835205078125;0.002830810546875;3.57999999096137;359;100 mA
15.5004439608651;0.2998046875;0.00284515380859375;3.58999999093612;360;100 mA
15.5104439608399;0.299896240234375;0.00280975341796875;3.59999999091087;361;100 mA
15.5204439608146;0.299835205078125;0.00282440185546875;3.60999999088563;362;100 mA
15.5304439607894;0.29986572265625;0.002823486328125;3.61999999086038;363;100 mA
15.5404439607642;0.299835205078125;0.00283905029296875;3.62999999083513;364;100 mA
15.5504439607389;0.299896240234375;0.0028546142578125;3.63999999080988;365;100 mA
15.5604439607137;0.299835205078125;0.00284637451171875;3.64999999078464;366;100 mA
15.5704439606884;0.29974365234375;0.00284820556640625;3.65999999075939;367;100 mA
15.5804439606632;0.29986572265625;0.0028857421875;3.66999999073414;368;100 mA
15.5904439606379;0.299835205078125;0.0028997802734375;3.67999999070889;369;100 mA
15.6004439606127;0.2998046875;0.00288604736328125;3.68999999068365;370;100 mA
15.6104439605874;0.299774169921875;0.0028826904296875;3.6999999906584;371;100 mA
15.6204439605622;0.2999267578125;0.00289794921875;3.70999999063315;372;100 mA
15.6304439605369;0.29986572265625;0.00286468505859375;3.7199999906079;373;100 mA
15.6404439605117;0.2999267578125;0.002867431640625;3.72999999058266;374;100 mA
15.6504439604864;0.29986572265625;0.00288665771484375;3.73999999055741;375;100 mA
15.6604439604612;0.29986572265625;0.00289093017578125;3.74999999053216;376;100 mA
15.6704439604359;0.299835205078125;0.00289459228515625;3.75999999050691;377;100 mA
15.6804439604107;0.299835205078125;0.0028656005859375;3.76999999048167;378;100 mA
15.6904439603854;0.29986572265625;0.00287689208984375;3.77999999045642;379;100 mA
15.7004439603602;0.299835205078125;0.00289093017578125;3.78999999043117;380;100 mA
15.7104439603349;0.299835205078125;0.00289794921875;3.79999999040592;381;100 mA
15.7204439603097;0.2999267578125;0.002864990234375;3.80999999038067;382;100 mA
15.7304439602844;0.299835205078125;0.00286865234375;3.81999999035543;383;100 mA
15.7404439602592;0.29986572265625;0.0028741455078125;3.82999999033018;384;100 mA
15.750443960234;0.299835205078125;0.0028521728515625;3.83999999030493;385;100 mA
15.7604439602087;0.299957275390625;0.0028466796875;3.84999999027968;386;100 mA
15.7704439601835;0.299835205078125;0.002841796875;3.85999999025444;387;100 mA
15.7804439601582;0.299835205078125;0.0028387451171875;3.86999999022919;388;100 mA
15.790443960133;0.299896240234375;0.00282501220703125;3.87999999020394;389;100 mA
15.8004439601077;0.299835205078125;0.00278106689453125;3.88999999017869;390;100 mA
15.8104439600825;0.299896240234375;0.0027923583984375;3.89999999015345;391;100 mA
15.8204439600572;0.299835205078125;0.00281341552734375;3.9099999901282;392;100 mA
15.830443960032;0.299835205078125;0.0028466796875;3.91999999010295;393;100 mA
15.8404439600067;0.299835205078125;0.0028509521484375;3.9299999900777;394;100 mA
15.8504439599815;0.29986572265625;0.00287384033203125;3.93999999005246;395;100 mA
15.8604439599562;0.299896240234375;0.00285614013671875;3.94999999002721;396;100 mA
15.870443959931;0.299835205078125;0.00281005859375;3.95999999000196;397;100 mA
15.8804439599057;0.29986572265625;0.00282501220703125;3.96999998997671;398;100 mA
15.8904439598805;0.299957275390625;0.00283782958984375;3.97999998995147;399;100 mA
15.9004439598552;0.29974365234375;0.0028582763671875;3.98999998992622;400;100 mA
15.91044395983;0.2998046875;0.0028631591796875;3.99999998990097;401;100 mA
15.9204439598047;0.2998046875;0.00283294677734375;4.00999998987572;402;100 mA
15.9304439597795;0.299835205078125;0.00283905029296875;4.01999998985048;403;100 mA
15.9404439597542;0.2998046875;0.0028057861328125;4.02999998982523;404;100 mA
15.950443959729;0.29986572265625;0.00281036376953125;4.03999998979998;405;100 mA
15.9604439597038;0.29986572265625;0.002821044921875;4.04999998977473;406;100 mA
15.9704439596785;0.29986572265625;0.00281890869140625;4.05999998974949;407;100 mA
15.9804439596533;0.299835205078125;0.0028631591796875;4.06999998972424;408;100 mA
15.990443959628;0.29986572265625;0.00284698486328125;4.07999998969899;409;100 mA
16.0004439596028;0.299957275390625;0.002880859375;4.08999998967374;410;100 mA
16.0104439595775;0.299835205078125;0.00288726806640625;4.0999999896485;411;100 mA
16.0204439595523;0.29986572265625;0.0028851318359375;4.10999998962325;412;100 mA
16.030443959527;0.2999267578125;0.00290435791015625;4.119999989598;413;100 mA
16.0404439595018;0.299835205078125;0.00288360595703125;4.12999998957275;414;100 mA
16.0504439594765;0.29986572265625;0.002899169921875;4.1399999895475;415;100 mA
16.0604439594513;0.299896240234375;0.00287689208984375;4.14999998952226;416;100 mA
16.070443959426;0.299896240234375;0.00286346435546875;4.15999998949701;417;100 mA
16.0804439594008;0.2998046875;0.0028582763671875;4.16999998947176;418;100 mA
16.0904439593755;0.299835205078125;0.002821044921875;4.17999998944651;419;100 mA
16.1004439593503;0.2999267578125;0.00283477783203125;4.18999998942127;420;100 mA
16.110443959325;0.299835205078125;0.002806396484375;4.19999998939602;421;100 mA
16.1204439592998;0.29986572265625;0.00282012939453125;4.20999998937077;422;100 mA
16.1304439592745;0.299835205078125;0.00281463623046875;4.21999998934552;423;100 mA
16.1404439592493;0.29986572265625;0.00281829833984375;4.22999998932028;424;100 mA
16.150443959224;0.299835205078125;0.0028131103515625;4.23999998929503;425;100 mA
16.1604439591988;0.299835205078125;0.0027947998046875;4.24999998926978;426;100 mA
16.1704439591736;0.299835205078125;0.0028271484375;4.25999998924453;427;100 mA
16.1804439591483;0.29986572265625;0.00281768798828125;4.26999998921929;428;100 mA
16.1904439591231;0.299835205078125;0.00282623291015625;4.27999998919404;429;100 mA
16.2004439590978;0.2999267578125;0.002840576171875;4.28999998916879;430;100 mA
16.2104439590726;0.299896240234375;0.00284423828125;4.29999998914354;431;100 mA
16.2204439590473;0.2999267578125;0.00283477783203125;4.3099999891183;432;100 mA
16.2304439590221;0.299774169921875;0.002828369140625;4.31999998909305;433;100 mA
16.2404439589968;0.29986572265625;0.00285797119140625;4.3299999890678;434;100 mA
16.2504439589716;0.2998046875;0.00287872314453125;4.33999998904255;435;100 mA
16.2604439589463;0.29986572265625;0.00289306640625;4.34999998901731;436;100 mA
16.2704439589211;0.299896240234375;0.00287841796875;4.35999998899206;437;100 mA
16.2804439588958;0.29986572265625;0.00286346435546875;4.36999998896681;438;100 mA
16.2904439588706;0.29986572265625;0.00288421630859375;4.37999998894156;439;100 mA
16.3004439588453;0.29986572265625;0.0028912353515625;4.38999998891632;440;100 mA
16.3104439588201;0.299896240234375;0.0028973388671875;4.39999998889107;441;100 mA
16.3204439587948;0.299896240234375;0.002930908203125;4.40999998886582;442;100 mA
16.3304439587696;0.299835205078125;0.00293487548828125;4.41999998884057;443;100 mA
16.3404439587443;0.29986572265625;0.0029559326171875;4.42999998881533;444;100 mA
16.3504439587191;0.299835205078125;0.00300323486328125;4.43999998879008;445;100 mA
16.3604439586938;0.299835205078125;0.00301116943359375;4.44999998876483;446;100 mA
16.3704439586686;0.299896240234375;0.00300750732421875;4.45999998873958;447;100 mA
16.3804439586434;0.299896240234375;0.002967529296875;4.46999998871433;448;100 mA
16.3904439586181;0.2998046875;0.0029681396484375;4.47999998868909;449;100 mA
16.4004439585929;0.299835205078125;0.00295867919921875;4.48999998866384;450;100 mA
16.4104439585676;0.2999267578125;0.00297454833984375;4.49999998863859;451;100 mA
16.4204439585424;0.299896240234375;0.0029498291015625;4.50999998861334;452;100 mA
16.4304439585171;0.29986572265625;0.0029376220703125;4.5199999885881;453;100 mA
16.4404439584919;0.29986572265625;0.0029718017578125;4.52999998856285;454;100 mA
16.4504439584666;0.29986572265625;0.00296661376953125;4.5399999885376;455;100 mA
16.4604439584414;0.299896240234375;0.00296966552734375;4.54999998851235;456;100 mA
16.4704439584161;0.29986572265625;0.00295623779296875;4.55999998848711;457;100 mA
16.4804439583909;0.299896240234375;0.00292633056640625;4.56999998846186;458;100 mA
16.4904439583656;0.299835205078125;0.00294921875;4.57999998843661;459;100 mA
16.5004439583404;0.2999267578125;0.0029486083984375;4.58999998841136;460;100 mA
16.5104439583151;0.299835205078125;0.00293670654296875;4.59999998838612;461;100 mA
16.5204439582899;0.299835205078125;0.0029095458984375;4.60999998836087;462;100 mA
16.5304439582646;0.29986572265625;0.002911376953125;4.61999998833562;463;100 mA
16.5404439582394;0.299835205078125;0.00290069580078125;4.62999998831037;464;100 mA
16.5504439582141;0.29986572265625;0.002960205078125;4.63999998828513;465;100 mA
16.5604439581889;0.29986572265625;0.00295440673828125;4.64999998825988;466;100 mA
16.5704439581637;0.29986572265625;0.0029254150390625;4.65999998823463;467;100 mA
16.5804439581384;0.29986572265625;0.00292236328125;4.66999998820938;468;100 mA
16.5904439581132;0.299835205078125;0.0029095458984375;4.67999998818414;469;100 mA
16.6004439580879;0.299835205078125;0.002923583984375;4.68999998815889;470;100 mA
16.6104439580627;0.299896240234375;0.002945556640625;4.69999998813364;471;100 mA
16.6204439580374;0.29986572265625;0.002938232421875;4.70999998810839;472;100 mA
16.6304439580122;0.299835205078125;0.00295257568359375;4.71999998808315;473;100 mA
16.6404439579869;0.299835205078125;0.0029522705078125;4.7299999880579;474;100 mA
16.6504439579617;0.299896240234375;0.0029638671875;4.73999998803265;475;100 mA
16.6604439579364;0.299835205078125;0.00292877197265625;4.7499999880074;476;100 mA
16.6704439579112;0.29986572265625;0.00293609619140625;4.75999998798216;477;100 mA
16.6804439578859;0.299896240234375;0.00296417236328125;4.76999998795691;478;100 mA
16.6904439578607;0.29986572265625;0.0029296875;4.77999998793166;479;100 mA
16.7004439578354;0.299896240234375;0.00292816162109375;4.78999998790641;480;100 mA
16.7104439578102;0.299835205078125;0.00292724609375;4.79999998788116;481;100 mA
16.7204439577849;0.29986572265625;0.00294403076171875;4.80999998785592;482;100 mA
16.7304439577597;0.299835205078125;0.002933349609375;4.81999998783067;483;100 mA
16.7404439577344;0.29986572265625;0.00290863037109375;4.82999998780542;484;100 mA
16.7504439577092;0.299835205078125;0.00290679931640625;4.83999998778017;485;100 mA
16.7604439576839;0.299774169921875;0.00289947509765625;4.84999998775493;486;100 mA
16.7704439576587;0.299896240234375;0.00291656494140625;4.85999998772968;487;100 mA
16.7804439576335;0.299835205078125;0.00290985107421875;4.86999998770443;488;100 mA
16.7904439576082;0.299835205078125;0.002918701171875;4.87999998767918;489;100 mA
16.800443957583;0.299835205078125;0.0029400634765625;4.88999998765394;490;100 mA
16.8104439575577;0.299896240234375;0.0029296875;4.89999998762869;491;100 mA
16.8204439575325;0.299835205078125;0.0029559326171875;4.90999998760344;492;100 mA
16.8304439575072;0.299896240234375;0.00294708251953125;4.91999998757819;493;100 mA
16.840443957482;0.299896240234375;0.00293792724609375;4.92999998755295;494;100 mA
16.8504439574567;0.299896240234375;0.00289337158203125;4.9399999875277;495;100 mA
16.8604439574315;0.299835205078125;0.002891845703125;4.94999998750245;496;100 mA
16.8704439574062;0.2998046875;0.00291046142578125;4.9599999874772;497;100 mA
16.880443957381;0.2998046875;0.0029229736328125;4.96999998745196;498;100 mA
16.8904439573557;0.2998046875;0.0029339599609375;4.97999998742671;499;100 mA
16.9004439573305;0.299774169921875;0.0029022216796875;4.98999998740146;500;100 mA
16.9104439573052;0.29986572265625;0.002906494140625;4.99999998737621;501;100 mA
16.92044395728;0.299835205078125;0.00291961669921875;5.00999998735097;502;100 mA
16.9304439572547;0.299896240234375;0.002891845703125;5.01999998732572;503;100 mA
16.9404439572295;0.299896240234375;0.0029046630859375;5.02999998730047;504;100 mA
16.9504439572042;0.29986572265625;0.0028839111328125;5.03999998727522;505;100 mA
16.960443957179;0.29986572265625;0.00292449951171875;5.04999998724998;506;100 mA
16.9704439571537;0.29986572265625;0.00290130615234375;5.05999998722473;507;100 mA
16.9804439571285;0.2998046875;0.00289947509765625;5.06999998719948;508;100 mA
16.9904439571033;0.29986572265625;0.00290771484375;5.07999998717423;509;100 mA
17.000443957078;0.29986572265625;0.0028936767578125;5.08999998714899;510;100 mA
17.0104439570528;0.29986572265625;0.00290069580078125;5.09999998712374;511;100 mA
17.0204439570275;0.29986572265625;0.0028509521484375;5.10999998709849;512;100 mA
17.0304439570023;0.299835205078125;0.0028741455078125;5.11999998707324;513;100 mA
17.040443956977;0.299896240234375;0.0028875732421875;5.129999987048;514;100 mA
17.0504439569518;0.2998046875;0.0028582763671875;5.13999998702275;515;100 mA
17.0604439569265;0.299896240234375;0.00286376953125;5.1499999869975;516;100 mA
17.0704439569013;0.299835205078125;0.0028717041015625;5.15999998697225;517;100 mA
17.080443956876;0.299835205078125;0.00292449951171875;5.169999986947;518;100 mA
17.0904439568508;0.29986572265625;0.00289093017578125;5.17999998692176;519;100 mA
17.1004439568255;0.299896240234375;0.00288726806640625;5.18999998689651;520;100 mA
17.1104439568003;0.299835205078125;0.0029290771484375;5.19999998687126;521;100 mA
17.120443956775;0.29974365234375;0.00291046142578125;5.20999998684601;522;100 mA
17.1304439567498;0.299835205078125;0.0029150390625;5.21999998682077;523;100 mA
17.1404439567245;0.299774169921875;0.0028875732421875;5.22999998679552;524;100 mA
17.1504439566993;0.299835205078125;0.0029193115234375;5.23999998677027;525;100 mA
17.160443956674;0.29986572265625;0.0029150390625;5.24999998674502;526;100 mA
17.1704439566488;0.29986572265625;0.0028607177734375;5.25999998671978;527;100 mA
17.1804439566235;0.29986572265625;0.00287994384765625;5.26999998669453;528;100 mA
17.1904439565983;0.29986572265625;0.00288482666015625;5.27999998666928;529;100 mA
17.2004439565731;0.2999267578125;0.0028802490234375;5.28999998664403;530;100 mA
17.2104439565478;0.299835205078125;0.00285003662109375;5.29999998661879;531;100 mA
17.2204439565226;0.299835205078125;0.00285247802734375;5.30999998659354;532;100 mA
17.2304439564973;0.299835205078125;0.00288604736328125;5.31999998656829;533;100 mA
17.2404439564721;0.299896240234375;0.00292205810546875;5.32999998654304;534;100 mA
17.2504439564468;0.299835205078125;0.00284912109375;5.3399999865178;535;100 mA
17.2604439564216;0.29986572265625;0.0028228759765625;5.34999998649255;536;100 mA
17.2704439563963;0.2998046875;0.00284271240234375;5.3599999864673;537;100 mA
17.2804439563711;0.299835205078125;0.00285980224609375;5.36999998644205;538;100 mA
17.2904439563458;0.29986572265625;0.002816162109375;5.37999998641681;539;100 mA
17.3004439563206;0.299896240234375;0.00281829833984375;5.38999998639156;540;100 mA
17.3104439562953;0.2999267578125;0.0028271484375;5.39999998636631;541;100 mA
17.3204439562701;0.29986572265625;0.0028460693359375;5.40999998634106;542;100 mA
17.3304439562448;0.299957275390625;0.00283660888671875;5.41999998631582;543;100 mA
17.3404439562196;0.29986572265625;0.00282928466796875;5.42999998629057;544;100 mA
17.3504439561943;0.299835205078125;0.00284759521484375;5.43999998626532;545;100 mA
17.3604439561691;0.299835205078125;0.00284912109375;5.44999998624007;546;100 mA
17.3704439561438;0.299835205078125;0.00284393310546875;5.45999998621483;547;100 mA
17.3804439561186;0.299835205078125;0.00279144287109375;5.46999998618958;548;100 mA
17.3904439560933;0.299835205078125;0.002799072265625;5.47999998616433;549;100 mA
17.4004439560681;0.299835205078125;0.0027911376953125;5.48999998613908;550;100 mA
17.4104439560429;0.29986572265625;0.0027899169921875;5.49999998611383;551;100 mA
17.4204439560176;0.29986572265625;0.0028106689453125;5.50999998608859;552;100 mA
17.4304439559924;0.29986572265625;0.002822265625;5.51999998606334;553;100 mA
17.4404439559671;0.299896240234375;0.00282501220703125;5.52999998603809;554;100 mA
17.4504439559419;0.299835205078125;0.002799072265625;5.53999998601284;555;100 mA
17.4604439559166;0.2998046875;0.00283935546875;5.5499999859876;556;100 mA
17.4704439558914;0.299835205078125;0.002822265625;5.55999998596235;557;100 mA
17.4804439558661;0.299896240234375;0.00277923583984375;5.5699999859371;558;100 mA
17.4904439558409;0.29986572265625;0.00279510498046875;5.57999998591185;559;100 mA
17.5004439558156;0.29986572265625;0.002811279296875;5.58999998588661;560;100 mA
17.5104439557904;0.29986572265625;0.002794189453125;5.59999998586136;561;100 mA
17.5204439557651;0.29986572265625;0.00279327392578125;5.60999998583611;562;100 mA
17.5304439557399;0.299896240234375;0.002794189453125;5.61999998581086;563;100 mA
17.5404439557146;0.2999267578125;0.002816162109375;5.62999998578562;564;100 mA
17.5504439556894;0.29986572265625;0.0028271484375;5.63999998576037;565;100 mA
17.5604439556641;0.2999267578125;0.00282684326171875;5.64999998573512;566;100 mA
17.5704439556389;0.299896240234375;0.00282440185546875;5.65999998570987;567;100 mA
17.5804439556136;0.299835205078125;0.00284027099609375;5.66999998568463;568;100 mA
17.5904439555884;0.29986572265625;0.0027850341796875;5.67999998565938;569;100 mA
17.6004439555632;0.2998046875;0.00274810791015625;5.68999998563413;570;100 mA
17.6104439555379;0.299835205078125;0.00276580810546875;5.69999998560888;571;100 mA
17.6204439555127;0.29986572265625;0.0027685546875;5.70999998558364;572;100 mA
17.6304439554874;0.29986572265625;0.00277252197265625;5.71999998555839;573;100 mA
17.6404439554622;0.29986572265625;0.00277618408203125;5.72999998553314;574;100 mA
17.6504439554369;0.2999267578125;0.002774658203125;5.73999998550789;575;100 mA
17.6604439554117;0.299896240234375;0.00280181884765625;5.74999998548265;576;100 mA
17.6704439553864;0.299835205078125;0.002803955078125;5.7599999854574;577;100 mA
17.6804439553612;0.299835205078125;0.00283721923828125;5.76999998543215;578;100 mA
17.6904439553359;0.29986572265625;0.00285919189453125;5.7799999854069;579;100 mA
17.7004439553107;0.2998046875;0.002838134765625;5.78999998538166;580;100 mA
17.7104439552854;0.2998046875;0.00282257080078125;5.79999998535641;581;100 mA
17.7204439552602;0.299835205078125;0.00281402587890625;5.80999998533116;582;100 mA
17.7304439552349;0.299896240234375;0.00281982421875;5.81999998530591;583;100 mA
17.7404439552097;0.29986572265625;0.00280670166015625;5.82999998528066;584;100 mA
17.7504439551844;0.299835205078125;0.00279876708984375;5.83999998525542;585;100 mA
17.7604439551592;0.299835205078125;0.002808837890625;5.84999998523017;586;100 mA
17.7704439551339;0.299835205078125;0.0028662109375;5.85999998520492;587;100 mA
17.7804439551087;0.299896240234375;0.0028485107421875;5.86999998517967;588;100 mA
17.7904439550834;0.299896240234375;0.00281890869140625;5.87999998515443;589;100 mA
17.8004439550582;0.299896240234375;0.00280487060546875;5.88999998512918;590;100 mA
17.810443955033;0.299835205078125;0.0028118896484375;5.89999998510393;591;100 mA
17.8204439550077;0.29986572265625;0.002825927734375;5.90999998507868;592;100 mA
17.8304439549825;0.299896240234375;0.002835693359375;5.91999998505344;593;100 mA
17.8404439549572;0.299835205078125;0.0027960205078125;5.92999998502819;594;100 mA
17.850443954932;0.299896240234375;0.0028271484375;5.93999998500294;595;100 mA
17.8604439549067;0.299896240234375;0.00281585693359375;5.94999998497769;596;100 mA
17.8704439548815;0.299896240234375;0.0028125;5.95999998495245;597;100 mA
17.8804439548562;0.29986572265625;0.00283355712890625;5.9699999849272;598;100 mA
17.890443954831;0.29986572265625;0.002823486328125;5.97999998490195;599;100 mA
17.9004439548057;0.29986572265625;0.0028277587890625;5.9899999848767;600;100 mA
17.9104439547805;0.29986572265625;0.00279022216796875;5.99999998485146;601;100 mA
17.9204439547552;0.29986572265625;0.00279296875;6.00999998482621;602;100 mA
17.93044395473;0.299835205078125;0.002806396484375;6.01999998480096;603;100 mA
17.9404439547047;0.299896240234375;0.00282257080078125;6.02999998477571;604;100 mA
17.9504439546795;0.299835205078125;0.00283416748046875;6.03999998475047;605;100 mA
17.9604439546542;0.29986572265625;0.0027862548828125;6.04999998472522;606;100 mA
17.970443954629;0.299896240234375;0.002811279296875;6.05999998469997;607;100 mA
17.9804439546037;0.299896240234375;0.00280181884765625;6.06999998467472;608;100 mA
17.9904439545785;0.299835205078125;0.0028118896484375;6.07999998464948;609;100 mA
18.0004439545532;0.299957275390625;0.00282562255859375;6.08999998462423;610;100 mA
18.010443954528;0.29986572265625;0.00281829833984375;6.09999998459898;611;100 mA
18.0204439545028;0.2999267578125;0.00287933349609375;6.10999998457373;612;100 mA
18.0304439544775;0.299896240234375;0.0028515625;6.11999998454849;613;100 mA
18.0404439544523;0.2999267578125;0.00287445068359375;6.12999998452324;614;100 mA
18.050443954427;0.29986572265625;0.00289825439453125;6.13999998449799;615;100 mA
18.0604439544018;0.29986572265625;0.00290130615234375;6.14999998447274;616;100 mA
18.0704439543765;0.2998046875;0.00286956787109375;6.1599999844475;617;100 mA
18.0804439543513;0.299896240234375;0.0028607177734375;6.16999998442225;618;100 mA
18.090443954326;0.2998046875;0.0028741455078125;6.179999984397;619;100 mA
18.1004439543008;0.299896240234375;0.00288726806640625;6.18999998437175;620;100 mA
18.1104439542755;0.299835205078125;0.002877197265625;6.1999999843465;621;100 mA
18.1204439542503;0.2998046875;0.0028692626953125;6.20999998432126;622;100 mA
18.130443954225;0.2998046875;0.0028631591796875;6.21999998429601;623;100 mA
18.1404439541998;0.2999267578125;0.00286865234375;6.22999998427076;624;100 mA
18.1504439541745;0.29986572265625;0.0028253173828125;6.23999998424551;625;100 mA
18.1604439541493;0.299896240234375;0.00287567138671875;6.24999998422027;626;100 mA
18.170443954124;0.299896240234375;0.00287933349609375;6.25999998419502;627;100 mA
18.1804439540988;0.29986572265625;0.00285675048828125;6.26999998416977;628;100 mA
18.1904439540735;0.299835205078125;0.00283721923828125;6.27999998414452;629;100 mA
18.2004439540483;0.299896240234375;0.00282440185546875;6.28999998411928;630;100 mA
18.210443954023;0.29986572265625;0.00281402587890625;6.29999998409403;631;100 mA
18.2204439539978;0.2998046875;0.00283203125;6.30999998406878;632;100 mA
18.2304439539726;0.2999267578125;0.00282989501953125;6.31999998404353;633;100 mA
18.2404439539473;0.2998046875;0.00282318115234375;6.32999998401829;634;100 mA
18.2504439539221;0.299835205078125;0.00279388427734375;6.33999998399304;635;100 mA
18.2604439538968;0.299896240234375;0.002803955078125;6.34999998396779;636;100 mA
18.2704439538716;0.299835205078125;0.00279022216796875;6.35999998394254;637;100 mA
18.2804439538463;0.299896240234375;0.00281005859375;6.3699999839173;638;100 mA
18.2904439538211;0.299896240234375;0.00282073974609375;6.37999998389205;639;100 mA
18.3004439537958;0.299896240234375;0.00281463623046875;6.3899999838668;640;100 mA
18.3104439537706;0.299896240234375;0.002816162109375;6.39999998384155;641;100 mA
18.3204439537453;0.299835205078125;0.00281890869140625;6.40999998381631;642;100 mA
18.3304439537201;0.29986572265625;0.002806396484375;6.41999998379106;643;100 mA
18.3404439536948;0.299835205078125;0.00276641845703125;6.42999998376581;644;100 mA
18.3504439536696;0.2998046875;0.00276275634765625;6.43999998374056;645;100 mA
18.3604439536443;0.299835205078125;0.00279693603515625;6.44999998371532;646;100 mA
18.3704439536191;0.29986572265625;0.0027972412109375;6.45999998369007;647;100 mA
18.3804439535938;0.299957275390625;0.00279693603515625;6.46999998366482;648;100 mA
18.3904439535686;0.299835205078125;0.00277496337890625;6.47999998363957;649;100 mA
18.4004439535433;0.2998046875;0.0027996826171875;6.48999998361433;650;100 mA
18.4104439535181;0.29986572265625;0.00278900146484375;6.49999998358908;651;100 mA
18.4204439534928;0.299896240234375;0.00278717041015625;6.50999998356383;652;100 mA
18.4304439534676;0.29974365234375;0.002774658203125;6.51999998353858;653;100 mA
18.4404439534424;0.29986572265625;0.002789306640625;6.52999998351333;654;100 mA
18.4504439534171;0.29986572265625;0.0028033447265625;6.53999998348809;655;100 mA
18.4604439533919;0.299774169921875;0.00276947021484375;6.54999998346284;656;100 mA
18.4704439533666;0.299896240234375;0.00279022216796875;6.55999998343759;657;100 mA
18.4804439533414;0.29986572265625;0.00280242919921875;6.56999998341234;658;100 mA
18.4904439533161;0.299835205078125;0.00282012939453125;6.5799999833871;659;100 mA
18.5004439532909;0.2998046875;0.00280975341796875;6.58999998336185;660;100 mA
18.5104439532656;0.29986572265625;0.00278778076171875;6.5999999833366;661;100 mA
18.5204439532404;0.299896240234375;0.00281982421875;6.60999998331135;662;100 mA
18.5304439532151;0.2998046875;0.0028253173828125;6.61999998328611;663;100 mA
18.5404439531899;0.2999267578125;0.00284820556640625;6.62999998326086;664;100 mA
18.5504439531646;0.299896240234375;0.0028802490234375;6.63999998323561;665;100 mA
18.5604439531394;0.2998046875;0.002969970703125;6.64999998321036;666;100 mA
18.5704439531141;0.299835205078125;0.00289306640625;6.65999998318512;667;100 mA
18.5804439530889;0.29986572265625;0.00286376953125;6.66999998315987;668;100 mA
18.5904439530636;0.29986572265625;0.0028692626953125;6.67999998313462;669;100 mA
18.6004439530384;0.2998046875;0.002886962890625;6.68999998310937;670;100 mA
18.6104439530131;0.29986572265625;0.00287200927734375;6.69999998308413;671;100 mA
18.6204439529879;0.299896240234375;0.00287933349609375;6.70999998305888;672;100 mA
18.6304439529627;0.299835205078125;0.00288055419921875;6.71999998303363;673;100 mA
18.6404439529374;0.29986572265625;0.002880859375;6.72999998300838;674;100 mA
18.6504439529122;0.299835205078125;0.00285736083984375;6.73999998298314;675;100 mA
18.6604439528869;0.29986572265625;0.0028582763671875;6.74999998295789;676;100 mA
18.6704439528617;0.29986572265625;0.00285125732421875;6.75999998293264;677;100 mA
18.6804439528364;0.299896240234375;0.00285064697265625;6.76999998290739;678;100 mA
18.6904439528112;0.299835205078125;0.00286834716796875;6.77999998288215;679;100 mA
18.7004439527859;0.29986572265625;0.00284027099609375;6.7899999828569;680;100 mA
18.7104439527607;0.29986572265625;0.00283294677734375;6.79999998283165;681;100 mA
18.7204439527354;0.29986572265625;0.0028350830078125;6.8099999828064;682;100 mA
18.7304439527102;0.299896240234375;0.00283050537109375;6.81999998278116;683;100 mA
18.7404439526849;0.29986572265625;0.00288238525390625;6.82999998275591;684;100 mA
18.7504439526597;0.299896240234375;0.0028924560546875;6.83999998273066;685;100 mA
18.7604439526344;0.299896240234375;0.00290069580078125;6.84999998270541;686;100 mA
18.7704439526092;0.299835205078125;0.0028607177734375;6.85999998268016;687;100 mA
18.7804439525839;0.299835205078125;0.00286102294921875;6.86999998265492;688;100 mA
18.7904439525587;0.29986572265625;0.002930908203125;6.87999998262967;689;100 mA
18.8004439525334;0.299835205078125;0.00293182373046875;6.88999998260442;690;100 mA
18.8104439525082;0.299835205078125;0.0029107666015625;6.89999998257917;691;100 mA
18.8204439524829;0.299896240234375;0.00285797119140625;6.90999998255393;692;100 mA
18.8304439524577;0.299835205078125;0.0028643798828125;6.91999998252868;693;100 mA
18.8404439524325;0.299835205078125;0.0028875732421875;6.92999998250343;694;100 mA
18.8504439524072;0.29986572265625;0.00289764404296875;6.93999998247818;695;100 mA
18.860443952382;0.29998779296875;0.00289825439453125;6.94999998245294;696;100 mA
18.8704439523567;0.29986572265625;0.00284637451171875;6.95999998242769;697;100 mA
18.8804439523315;0.299835205078125;0.002855224609375;6.96999998240244;698;100 mA
18.8904439523062;0.29986572265625;0.00289031982421875;6.97999998237719;699;100 mA
18.900443952281;0.299835205078125;0.00283966064453125;6.98999998235195;700;100 mA
