Time (s);WE(1).Potential (V);WE(1).Current (A);Corrected time (s);Index;Current range
19.3636689511114;0.199951171875;0.0016656494140625;0;1;100 mA
19.3736689510862;0.199951171875;0.00196990966796875;0.00999999997475243;2;100 mA
19.3836689510609;0.199951171875;0.0021075439453125;0.0199999999495049;3;100 mA
19.3936689510357;0.199951171875;0.00216888427734375;0.0299999999242573;4;100 mA
19.4036689510104;0.199981689453125;0.0022100830078125;0.0399999998990097;5;100 mA
19.4136689509852;0.20001220703125;0.0022454833984375;0.0499999998737621;6;100 mA
19.42366895096;0.199920654296875;0.00230499267578125;0.0599999998485146;7;100 mA
19.4336689509347;0.199981689453125;0.00230804443359375;0.069999999823267;8;100 mA
19.4436689509095;0.20001220703125;0.00231353759765625;0.0799999997980194;9;100 mA
19.4536689508842;0.199951171875;0.00234161376953125;0.0899999997727718;10;100 mA
19.463668950859;0.20001220703125;0.00236480712890625;0.0999999997475243;11;100 mA
19.4736689508337;0.200042724609375;0.0023809814453125;0.109999999722277;12;100 mA
19.4836689508085;0.20001220703125;0.0023785400390625;0.119999999697029;13;100 mA
19.4936689507832;0.199951171875;0.00238189697265625;0.129999999671782;14;100 mA
19.503668950758;0.20001220703125;0.00239227294921875;0.139999999646534;15;100 mA
19.5136689507327;0.199951171875;0.0023980712890625;0.149999999621286;16;100 mA
19.5236689507075;0.20001220703125;0.00241851806640625;0.159999999596039;17;100 mA
19.5336689506822;0.199981689453125;0.00240325927734375;0.169999999570791;18;100 mA
19.543668950657;0.20001220703125;0.00240875244140625;0.179999999545544;19;100 mA
19.5536689506317;0.199981689453125;0.00242950439453125;0.189999999520296;20;100 mA
19.5636689506065;0.199981689453125;0.00242401123046875;0.199999999495049;21;100 mA
19.5736689505812;0.200042724609375;0.00240814208984375;0.209999999469801;22;100 mA
19.583668950556;0.20001220703125;0.002379150390625;0.219999999444553;23;100 mA
19.5936689505307;0.2000732421875;0.00240203857421875;0.229999999419306;24;100 mA
19.6036689505055;0.199951171875;0.00240753173828125;0.239999999394058;25;100 mA
19.6136689504802;0.199981689453125;0.0024212646484375;0.249999999368811;26;100 mA
19.623668950455;0.199951171875;0.002430419921875;0.259999999343563;27;100 mA
19.6336689504298;0.199981689453125;0.0024346923828125;0.269999999318316;28;100 mA
19.6436689504045;0.20001220703125;0.00245880126953125;0.279999999293068;29;100 mA
19.6536689503793;0.20001220703125;0.0024468994140625;0.28999999926782;30;100 mA
19.663668950354;0.199981689453125;0.002445068359375;0.299999999242573;31;100 mA
19.6736689503288;0.199920654296875;0.0025262451171875;0.309999999217325;32;100 mA
19.6836689503035;0.199981689453125;0.0024853515625;0.319999999192078;33;100 mA
19.6936689502783;0.199981689453125;0.0024652099609375;0.32999999916683;34;100 mA
19.703668950253;0.199981689453125;0.0024798583984375;0.339999999141583;35;100 mA
19.7136689502278;0.199951171875;0.00248779296875;0.349999999116335;36;100 mA
19.7236689502025;0.199981689453125;0.002496337890625;0.359999999091087;37;100 mA
19.7336689501773;0.199951171875;0.00250701904296875;0.36999999906584;38;100 mA
19.743668950152;0.199951171875;0.0024688720703125;0.379999999040592;39;100 mA
19.7536689501268;0.20001220703125;0.00245269775390625;0.389999999015345;40;100 mA
19.7636689501015;0.199981689453125;0.0024609375;0.399999998990097;41;100 mA
19.7736689500763;0.199981689453125;0.00243682861328125;0.40999999896485;42;100 mA
19.783668950051;0.199981689453125;0.00243011474609375;0.419999998939602;43;100 mA
19.7936689500258;0.200042724609375;0.002408447265625;0.429999998914354;44;100 mA
19.8036689500005;0.199981689453125;0.002423095703125;0.439999998889107;45;100 mA
19.8136689499753;0.20001220703125;0.00243988037109375;0.449999998863859;46;100 mA
19.82366894995;0.199981689453125;0.0024365234375;0.459999998838612;47;100 mA
19.8336689499248;0.199981689453125;0.0024505615234375;0.469999998813364;48;100 mA
19.8436689498996;0.19989013671875;0.00247039794921875;0.479999998788116;49;100 mA
19.8536689498743;0.199951171875;0.0025006103515625;0.489999998762869;50;100 mA
19.8636689498491;0.20001220703125;0.00250762939453125;0.499999998737621;51;100 mA
19.8736689498238;0.199920654296875;0.00253173828125;0.509999998712374;52;100 mA
19.8836689497986;0.20001220703125;0.00254974365234375;0.519999998687126;53;100 mA
19.8936689497733;0.199951171875;0.0025213623046875;0.529999998661879;54;100 mA
19.9036689497481;0.20001220703125;0.00252471923828125;0.539999998636631;55;100 mA
19.9136689497228;0.20001220703125;0.00252777099609375;0.549999998611383;56;100 mA
19.9236689496976;0.20001220703125;0.0025518798828125;0.559999998586136;57;100 mA
19.9336689496723;0.199981689453125;0.0025103759765625;0.569999998560888;58;100 mA
19.9436689496471;0.20001220703125;0.00248779296875;0.579999998535641;59;100 mA
19.9536689496218;0.199951171875;0.002486572265625;0.589999998510393;60;100 mA
19.9636689495966;0.20001220703125;0.00246551513671875;0.599999998485146;61;100 mA
19.9736689495713;0.199981689453125;0.0024835205078125;0.609999998459898;62;100 mA
19.9836689495461;0.199981689453125;0.00248779296875;0.61999999843465;63;100 mA
19.9936689495208;0.20001220703125;0.00244781494140625;0.629999998409403;64;100 mA
20.0036689494956;0.200042724609375;0.00246246337890625;0.639999998384155;65;100 mA
20.0136689494703;0.20001220703125;0.00244384765625;0.649999998358908;66;100 mA
20.0236689494451;0.200042724609375;0.00248382568359375;0.65999999833366;67;100 mA
20.0336689494198;0.199981689453125;0.00248870849609375;0.669999998308413;68;100 mA
20.0436689493946;0.200042724609375;0.0024737548828125;0.679999998283165;69;100 mA
20.0536689493694;0.199981689453125;0.0024658203125;0.689999998257917;70;100 mA
20.0636689493441;0.20001220703125;0.00244171142578125;0.69999999823267;71;100 mA
20.0736689493189;0.199951171875;0.00244842529296875;0.709999998207422;72;100 mA
20.0836689492936;0.199951171875;0.0024365234375;0.719999998182175;73;100 mA
20.0936689492684;0.20001220703125;0.00242645263671875;0.729999998156927;74;100 mA
20.1036689492431;0.199981689453125;0.0024249267578125;0.73999999813168;75;100 mA
20.1136689492179;0.20001220703125;0.0024407958984375;0.749999998106432;76;100 mA
20.1236689491926;0.20001220703125;0.002451171875;0.759999998081184;77;100 mA
20.1336689491674;0.200042724609375;0.00243560791015625;0.769999998055937;78;100 mA
20.1436689491421;0.199981689453125;0.00246063232421875;0.779999998030689;79;100 mA
20.1536689491169;0.199951171875;0.00247589111328125;0.789999998005442;80;100 mA
20.1636689490916;0.199951171875;0.0024755859375;0.799999997980194;81;100 mA
20.1736689490664;0.20001220703125;0.0024798583984375;0.809999997954947;82;100 mA
20.1836689490411;0.20001220703125;0.002491455078125;0.819999997929699;83;100 mA
20.1936689490159;0.199981689453125;0.00249114990234375;0.829999997904451;84;100 mA
20.2036689489906;0.199981689453125;0.00247528076171875;0.839999997879204;85;100 mA
20.2136689489654;0.199981689453125;0.0024969482421875;0.849999997853956;86;100 mA
20.2236689489401;0.199920654296875;0.002537841796875;0.859999997828709;87;100 mA
20.2336689489149;0.199951171875;0.0025244140625;0.869999997803461;88;100 mA
20.2436689488896;0.2000732421875;0.00249755859375;0.879999997778214;89;100 mA
20.2536689488644;0.199920654296875;0.00246063232421875;0.889999997752966;90;100 mA
20.2636689488392;0.2000732421875;0.00247833251953125;0.899999997727718;91;100 mA
20.2736689488139;0.199981689453125;0.00244873046875;0.909999997702471;92;100 mA
20.2836689487887;0.199951171875;0.0024456787109375;0.919999997677223;93;100 mA
20.2936689487634;0.20001220703125;0.00245208740234375;0.929999997651976;94;100 mA
20.3036689487382;0.199951171875;0.00245941162109375;0.939999997626728;95;100 mA
20.3136689487129;0.20001220703125;0.002481689453125;0.949999997601481;96;100 mA
20.3236689486877;0.199951171875;0.00245880126953125;0.959999997576233;97;100 mA
20.3336689486624;0.200042724609375;0.0024639892578125;0.969999997550985;98;100 mA
20.3436689486372;0.20001220703125;0.00246429443359375;0.979999997525738;99;100 mA
20.3536689486119;0.20001220703125;0.00247161865234375;0.98999999750049;100;100 mA
20.3636689485867;0.199951171875;0.00245361328125;0.999999997475243;101;100 mA
20.3736689485614;0.20001220703125;0.002423095703125;1.00999999745;102;100 mA
20.3836689485362;0.200042724609375;0.0024462890625;1.01999999742475;103;100 mA
20.3936689485109;0.199920654296875;0.00243743896484375;1.0299999973995;104;100 mA
20.4036689484857;0.199981689453125;0.00245697021484375;1.03999999737425;105;100 mA
20.4136689484604;0.200042724609375;0.00247161865234375;1.049999997349;106;100 mA
20.4236689484352;0.199981689453125;0.00247344970703125;1.05999999732376;107;100 mA
20.4336689484099;0.199981689453125;0.00248992919921875;1.06999999729851;108;100 mA
20.4436689483847;0.199981689453125;0.00246551513671875;1.07999999727326;109;100 mA
20.4536689483595;0.199951171875;0.0024737548828125;1.08999999724801;110;100 mA
20.4636689483342;0.199981689453125;0.002476806640625;1.09999999722277;111;100 mA
20.473668948309;0.199951171875;0.00249114990234375;1.10999999719752;112;100 mA
20.4836689482837;0.200042724609375;0.0024847412109375;1.11999999717227;113;100 mA
20.4936689482585;0.199951171875;0.0024810791015625;1.12999999714702;114;100 mA
20.5036689482332;0.199951171875;0.002508544921875;1.13999999712178;115;100 mA
20.513668948208;0.20001220703125;0.00250244140625;1.14999999709653;116;100 mA
20.5236689481827;0.199951171875;0.002510986328125;1.15999999707128;117;100 mA
20.5336689481575;0.199920654296875;0.002518310546875;1.16999999704603;118;100 mA
20.5436689481322;0.199951171875;0.00250762939453125;1.17999999702079;119;100 mA
20.553668948107;0.199920654296875;0.00252105712890625;1.18999999699554;120;100 mA
20.5636689480817;0.199981689453125;0.0024932861328125;1.19999999697029;121;100 mA
20.5736689480565;0.20001220703125;0.00251556396484375;1.20999999694504;122;100 mA
20.5836689480312;0.199981689453125;0.00251678466796875;1.2199999969198;123;100 mA
20.593668948006;0.20001220703125;0.0024957275390625;1.22999999689455;124;100 mA
20.6036689479807;0.2000732421875;0.0024847412109375;1.2399999968693;125;100 mA
20.6136689479555;0.199981689453125;0.0024749755859375;1.24999999684405;126;100 mA
20.6236689479302;0.199981689453125;0.0024951171875;1.25999999681881;127;100 mA
20.633668947905;0.199981689453125;0.0025;1.26999999679356;128;100 mA
20.6436689478797;0.200042724609375;0.00250396728515625;1.27999999676831;129;100 mA
20.6536689478545;0.20001220703125;0.002520751953125;1.28999999674306;130;100 mA
20.6636689478293;0.20001220703125;0.00250885009765625;1.29999999671782;131;100 mA
20.673668947804;0.200042724609375;0.00251312255859375;1.30999999669257;132;100 mA
20.6836689477788;0.199981689453125;0.0024871826171875;1.31999999666732;133;100 mA
20.6936689477535;0.200042724609375;0.0025042724609375;1.32999999664207;134;100 mA
20.7036689477283;0.200042724609375;0.0025140380859375;1.33999999661683;135;100 mA
20.713668947703;0.199981689453125;0.00252227783203125;1.34999999659158;136;100 mA
20.7236689476778;0.200042724609375;0.0025189208984375;1.35999999656633;137;100 mA
20.7336689476525;0.199981689453125;0.00247650146484375;1.36999999654108;138;100 mA
20.7436689476273;0.20001220703125;0.00247161865234375;1.37999999651583;139;100 mA
20.753668947602;0.20001220703125;0.00243896484375;1.38999999649059;140;100 mA
20.7636689475768;0.20001220703125;0.00243927001953125;1.39999999646534;141;100 mA
20.7736689475515;0.199981689453125;0.0024755859375;1.40999999644009;142;100 mA
20.7836689475263;0.199951171875;0.002467041015625;1.41999999641484;143;100 mA
20.793668947501;0.199920654296875;0.00250457763671875;1.4299999963896;144;100 mA
20.8036689474758;0.199951171875;0.002452392578125;1.43999999636435;145;100 mA
20.8136689474505;0.199951171875;0.0024786376953125;1.4499999963391;146;100 mA
20.8236689474253;0.199981689453125;0.00250213623046875;1.45999999631385;147;100 mA
20.8336689474;0.199981689453125;0.00249664306640625;1.46999999628861;148;100 mA
20.8436689473748;0.199951171875;0.00248321533203125;1.47999999626336;149;100 mA
20.8536689473495;0.20001220703125;0.00248260498046875;1.48999999623811;150;100 mA
20.8636689473243;0.199981689453125;0.0025018310546875;1.49999999621286;151;100 mA
20.8736689472991;0.199951171875;0.00248046875;1.50999999618762;152;100 mA
20.8836689472738;0.19989013671875;0.00247589111328125;1.51999999616237;153;100 mA
20.8936689472486;0.200042724609375;0.002496337890625;1.52999999613712;154;100 mA
20.9036689472233;0.20001220703125;0.00247589111328125;1.53999999611187;155;100 mA
20.9136689471981;0.199951171875;0.0024554443359375;1.54999999608663;156;100 mA
20.9236689471728;0.199951171875;0.00241241455078125;1.55999999606138;157;100 mA
20.9336689471476;0.199951171875;0.0024407958984375;1.56999999603613;158;100 mA
20.9436689471223;0.199951171875;0.002452392578125;1.57999999601088;159;100 mA
20.9536689470971;0.199951171875;0.00246337890625;1.58999999598564;160;100 mA
20.9636689470718;0.199951171875;0.0024749755859375;1.59999999596039;161;100 mA
20.9736689470466;0.199981689453125;0.00248382568359375;1.60999999593514;162;100 mA
20.9836689470213;0.199981689453125;0.00249114990234375;1.61999999590989;163;100 mA
20.9936689469961;0.20001220703125;0.00246612548828125;1.62999999588465;164;100 mA
21.0036689469708;0.199981689453125;0.00246917724609375;1.6399999958594;165;100 mA
21.0136689469456;0.20001220703125;0.0024884033203125;1.64999999583415;166;100 mA
21.0236689469203;0.199951171875;0.0024957275390625;1.6599999958089;167;100 mA
21.0336689468951;0.199951171875;0.00249908447265625;1.66999999578366;168;100 mA
21.0436689468698;0.199920654296875;0.00243804931640625;1.67999999575841;169;100 mA
21.0536689468446;0.199981689453125;0.00244476318359375;1.68999999573316;170;100 mA
21.0636689468193;0.199981689453125;0.00243011474609375;1.69999999570791;171;100 mA
21.0736689467941;0.199981689453125;0.00241455078125;1.70999999568267;172;100 mA
21.0836689467689;0.20001220703125;0.00244293212890625;1.71999999565742;173;100 mA
21.0936689467436;0.20001220703125;0.002457275390625;1.72999999563217;174;100 mA
21.1036689467184;0.199981689453125;0.0024676513671875;1.73999999560692;175;100 mA
21.1136689466931;0.199981689453125;0.00244781494140625;1.74999999558167;176;100 mA
21.1236689466679;0.199981689453125;0.002445068359375;1.75999999555643;177;100 mA
21.1336689466426;0.199951171875;0.00245361328125;1.76999999553118;178;100 mA
21.1436689466174;0.199981689453125;0.00243072509765625;1.77999999550593;179;100 mA
21.1536689465921;0.199981689453125;0.00242645263671875;1.78999999548068;180;100 mA
21.1636689465669;0.199981689453125;0.00241790771484375;1.79999999545544;181;100 mA
21.1736689465416;0.200042724609375;0.00243133544921875;1.80999999543019;182;100 mA
21.1836689465164;0.20001220703125;0.00244171142578125;1.81999999540494;183;100 mA
21.1936689464911;0.199981689453125;0.00242645263671875;1.82999999537969;184;100 mA
21.2036689464659;0.199981689453125;0.00243255615234375;1.83999999535445;185;100 mA
21.2136689464406;0.199951171875;0.00241943359375;1.8499999953292;186;100 mA
21.2236689464154;0.199951171875;0.00243988037109375;1.85999999530395;187;100 mA
21.2336689463901;0.199951171875;0.00241058349609375;1.8699999952787;188;100 mA
21.2436689463649;0.199981689453125;0.00240325927734375;1.87999999525346;189;100 mA
21.2536689463396;0.20001220703125;0.002413330078125;1.88999999522821;190;100 mA
21.2636689463144;0.20001220703125;0.00241241455078125;1.89999999520296;191;100 mA
21.2736689462891;0.20001220703125;0.00242401123046875;1.90999999517771;192;100 mA
21.2836689462639;0.199981689453125;0.002430419921875;1.91999999515247;193;100 mA
21.2936689462387;0.199951171875;0.00244354248046875;1.92999999512722;194;100 mA
21.3036689462134;0.199920654296875;0.00246368408203125;1.93999999510197;195;100 mA
21.3136689461882;0.199981689453125;0.00244873046875;1.94999999507672;196;100 mA
21.3236689461629;0.20001220703125;0.00246368408203125;1.95999999505148;197;100 mA
21.3336689461377;0.199951171875;0.00246795654296875;1.96999999502623;198;100 mA
21.3436689461124;0.20001220703125;0.00246856689453125;1.97999999500098;199;100 mA
21.3536689460872;0.20001220703125;0.002454833984375;1.98999999497573;200;100 mA
21.3636689460619;0.199981689453125;0.002469482421875;1.99999999495049;201;100 mA
21.3736689460367;0.199920654296875;0.00250152587890625;2.00999999492524;202;100 mA
21.3836689460114;0.199981689453125;0.002496337890625;2.01999999489999;203;100 mA
21.3936689459862;0.20001220703125;0.002481689453125;2.02999999487474;204;100 mA
21.4036689459609;0.199981689453125;0.00249481201171875;2.0399999948495;205;100 mA
21.4136689459357;0.199951171875;0.002520751953125;2.04999999482425;206;100 mA
21.4236689459104;0.199981689453125;0.00249908447265625;2.059999994799;207;100 mA
21.4336689458852;0.199951171875;0.0024981689453125;2.06999999477375;208;100 mA
21.4436689458599;0.199981689453125;0.0025018310546875;2.0799999947485;209;100 mA
21.4536689458347;0.20001220703125;0.0025030517578125;2.08999999472326;210;100 mA
21.4636689458094;0.20001220703125;0.00251739501953125;2.09999999469801;211;100 mA
21.4736689457842;0.199981689453125;0.002489013671875;2.10999999467276;212;100 mA
21.483668945759;0.199951171875;0.0024951171875;2.11999999464751;213;100 mA
21.4936689457337;0.20001220703125;0.00251434326171875;2.12999999462227;214;100 mA
21.5036689457085;0.200042724609375;0.00252471923828125;2.13999999459702;215;100 mA
21.5136689456832;0.199981689453125;0.0025616455078125;2.14999999457177;216;100 mA
21.523668945658;0.20001220703125;0.00253875732421875;2.15999999454652;217;100 mA
21.5336689456327;0.199981689453125;0.0025762939453125;2.16999999452128;218;100 mA
21.5436689456075;0.200042724609375;0.00255126953125;2.17999999449603;219;100 mA
21.5536689455822;0.20001220703125;0.00253021240234375;2.18999999447078;220;100 mA
21.563668945557;0.2000732421875;0.0025531005859375;2.19999999444553;221;100 mA
21.5736689455317;0.199951171875;0.00254241943359375;2.20999999442029;222;100 mA
21.5836689455065;0.199981689453125;0.00253753662109375;2.21999999439504;223;100 mA
21.5936689454812;0.20001220703125;0.00252471923828125;2.22999999436979;224;100 mA
21.603668945456;0.199951171875;0.0025335693359375;2.23999999434454;225;100 mA
21.6136689454307;0.199951171875;0.00252288818359375;2.2499999943193;226;100 mA
21.6236689454055;0.199981689453125;0.00249359130859375;2.25999999429405;227;100 mA
21.6336689453802;0.199951171875;0.0025030517578125;2.2699999942688;228;100 mA
21.643668945355;0.199920654296875;0.00249267578125;2.27999999424355;229;100 mA
21.6536689453297;0.199981689453125;0.0025238037109375;2.28999999421831;230;100 mA
21.6636689453045;0.200042724609375;0.0025079345703125;2.29999999419306;231;100 mA
21.6736689452792;0.199981689453125;0.00250244140625;2.30999999416781;232;100 mA
21.683668945254;0.199981689453125;0.00251800537109375;2.31999999414256;233;100 mA
21.6936689452288;0.20001220703125;0.0024810791015625;2.32999999411732;234;100 mA
21.7036689452035;0.20001220703125;0.00246429443359375;2.33999999409207;235;100 mA
21.7136689451783;0.199981689453125;0.002457275390625;2.34999999406682;236;100 mA
21.723668945153;0.199951171875;0.0024737548828125;2.35999999404157;237;100 mA
21.7336689451278;0.2000732421875;0.002479248046875;2.36999999401633;238;100 mA
21.7436689451025;0.199981689453125;0.00245513916015625;2.37999999399108;239;100 mA
21.7536689450773;0.20001220703125;0.00248504638671875;2.38999999396583;240;100 mA
21.763668945052;0.199981689453125;0.002459716796875;2.39999999394058;241;100 mA
21.7736689450268;0.20001220703125;0.002469482421875;2.40999999391533;242;100 mA
21.7836689450015;0.199951171875;0.00245330810546875;2.41999999389009;243;100 mA
21.7936689449763;0.199951171875;0.00243621826171875;2.42999999386484;244;100 mA
21.803668944951;0.20001220703125;0.00246124267578125;2.43999999383959;245;100 mA
21.8136689449258;0.199920654296875;0.00245391845703125;2.44999999381434;246;100 mA
21.8236689449005;0.199951171875;0.00249420166015625;2.4599999937891;247;100 mA
21.8336689448753;0.20001220703125;0.00250152587890625;2.46999999376385;248;100 mA
21.84366894485;0.199981689453125;0.00249603271484375;2.4799999937386;249;100 mA
21.8536689448248;0.199951171875;0.0024908447265625;2.48999999371335;250;100 mA
21.8636689447995;0.199951171875;0.00246612548828125;2.49999999368811;251;100 mA
21.8736689447743;0.20001220703125;0.00250640869140625;2.50999999366286;252;100 mA
21.883668944749;0.199951171875;0.00252777099609375;2.51999999363761;253;100 mA
21.8936689447238;0.199951171875;0.00251312255859375;2.52999999361236;254;100 mA
21.9036689446986;0.200042724609375;0.00249755859375;2.53999999358712;255;100 mA
21.9136689446733;0.20001220703125;0.0025048828125;2.54999999356187;256;100 mA
21.9236689446481;0.20001220703125;0.00250030517578125;2.55999999353662;257;100 mA
21.9336689446228;0.200042724609375;0.00245269775390625;2.56999999351137;258;100 mA
21.9436689445976;0.199981689453125;0.0024560546875;2.57999999348613;259;100 mA
21.9536689445723;0.199951171875;0.00248565673828125;2.58999999346088;260;100 mA
21.9636689445471;0.199981689453125;0.00247772216796875;2.59999999343563;261;100 mA
21.9736689445218;0.199951171875;0.00247711181640625;2.60999999341038;262;100 mA
21.9836689444966;0.199981689453125;0.00247589111328125;2.61999999338514;263;100 mA
21.9936689444713;0.199981689453125;0.00249481201171875;2.62999999335989;264;100 mA
22.0036689444461;0.199981689453125;0.0024859619140625;2.63999999333464;265;100 mA
22.0136689444208;0.199981689453125;0.002479248046875;2.64999999330939;266;100 mA
22.0236689443956;0.199951171875;0.002479248046875;2.65999999328415;267;100 mA
22.0336689443703;0.199981689453125;0.00247406005859375;2.6699999932589;268;100 mA
22.0436689443451;0.199981689453125;0.0024761962890625;2.67999999323365;269;100 mA
22.0536689443198;0.199981689453125;0.002474365234375;2.6899999932084;270;100 mA
22.0636689442946;0.199981689453125;0.0024664306640625;2.69999999318316;271;100 mA
22.0736689442693;0.199981689453125;0.00248321533203125;2.70999999315791;272;100 mA
22.0836689442441;0.199981689453125;0.0025103759765625;2.71999999313266;273;100 mA
22.0936689442188;0.199981689453125;0.00250823974609375;2.72999999310741;274;100 mA
22.1036689441936;0.199981689453125;0.0024884033203125;2.73999999308217;275;100 mA
22.1136689441684;0.199951171875;0.002506103515625;2.74999999305692;276;100 mA
22.1236689441431;0.199981689453125;0.0025201416015625;2.75999999303167;277;100 mA
22.1336689441179;0.199981689453125;0.00251312255859375;2.76999999300642;278;100 mA
22.1436689440926;0.199981689453125;0.002498779296875;2.77999999298117;279;100 mA
22.1536689440674;0.20001220703125;0.0025238037109375;2.78999999295593;280;100 mA
22.1636689440421;0.199981689453125;0.0025006103515625;2.79999999293068;281;100 mA
22.1736689440169;0.199951171875;0.00249267578125;2.80999999290543;282;100 mA
22.1836689439916;0.20001220703125;0.0025103759765625;2.81999999288018;283;100 mA
22.1936689439664;0.199951171875;0.0025;2.82999999285494;284;100 mA
22.2036689439411;0.199951171875;0.0024951171875;2.83999999282969;285;100 mA
22.2136689439159;0.199981689453125;0.00247589111328125;2.84999999280444;286;100 mA
22.2236689438906;0.199951171875;0.00245880126953125;2.85999999277919;287;100 mA
22.2336689438654;0.199981689453125;0.00247955322265625;2.86999999275395;288;100 mA
22.2436689438401;0.199920654296875;0.00244476318359375;2.8799999927287;289;100 mA
22.2536689438149;0.20001220703125;0.00245574951171875;2.88999999270345;290;100 mA
22.2636689437896;0.20001220703125;0.00248046875;2.8999999926782;291;100 mA
22.2736689437644;0.199920654296875;0.00249969482421875;2.90999999265296;292;100 mA
22.2836689437391;0.199951171875;0.0024810791015625;2.91999999262771;293;100 mA
22.2936689437139;0.20001220703125;0.00244964599609375;2.92999999260246;294;100 mA
22.3036689436886;0.20001220703125;0.00246185302734375;2.93999999257721;295;100 mA
22.3136689436634;0.199951171875;0.00245513916015625;2.94999999255197;296;100 mA
22.3236689436382;0.199951171875;0.0024676513671875;2.95999999252672;297;100 mA
22.3336689436129;0.200042724609375;0.0024725341796875;2.96999999250147;298;100 mA
22.3436689435877;0.20001220703125;0.00245086669921875;2.97999999247622;299;100 mA
22.3536689435624;0.20001220703125;0.00245635986328125;2.98999999245098;300;100 mA
22.3636689435372;0.199920654296875;0.0024365234375;2.99999999242573;301;100 mA
22.3736689435119;0.199951171875;0.00244140625;3.00999999240048;302;100 mA
22.3836689434867;0.199951171875;0.00245391845703125;3.01999999237523;303;100 mA
22.3936689434614;0.20001220703125;0.002457275390625;3.02999999234999;304;100 mA
22.4036689434362;0.200042724609375;0.00246978759765625;3.03999999232474;305;100 mA
22.4136689434109;0.199951171875;0.0024456787109375;3.04999999229949;306;100 mA
22.4236689433857;0.199981689453125;0.002464599609375;3.05999999227424;307;100 mA
22.4336689433604;0.199981689453125;0.0024737548828125;3.069999992249;308;100 mA
22.4436689433352;0.199981689453125;0.00246551513671875;3.07999999222375;309;100 mA
22.4536689433099;0.199981689453125;0.00244781494140625;3.0899999921985;310;100 mA
22.4636689432847;0.20001220703125;0.002467041015625;3.09999999217325;311;100 mA
22.4736689432594;0.20001220703125;0.00249603271484375;3.109999992148;312;100 mA
22.4836689432342;0.19989013671875;0.00248870849609375;3.11999999212276;313;100 mA
22.4936689432089;0.20001220703125;0.0024969482421875;3.12999999209751;314;100 mA
22.5036689431837;0.20001220703125;0.00248809814453125;3.13999999207226;315;100 mA
22.5136689431585;0.199951171875;0.00246307373046875;3.14999999204701;316;100 mA
22.5236689431332;0.19989013671875;0.0024383544921875;3.15999999202177;317;100 mA
22.533668943108;0.199981689453125;0.00241302490234375;3.16999999199652;318;100 mA
22.5436689430827;0.20001220703125;0.00243408203125;3.17999999197127;319;100 mA
22.5536689430575;0.199981689453125;0.00245330810546875;3.18999999194602;320;100 mA
22.5636689430322;0.199920654296875;0.00244232177734375;3.19999999192078;321;100 mA
22.573668943007;0.20001220703125;0.002464599609375;3.20999999189553;322;100 mA
22.5836689429817;0.20001220703125;0.0024566650390625;3.21999999187028;323;100 mA
22.5936689429565;0.199981689453125;0.0024493408203125;3.22999999184503;324;100 mA
22.6036689429312;0.199981689453125;0.00243194580078125;3.23999999181979;325;100 mA
22.613668942906;0.20001220703125;0.0024334716796875;3.24999999179454;326;100 mA
22.6236689428807;0.199981689453125;0.00241455078125;3.25999999176929;327;100 mA
22.6336689428555;0.19989013671875;0.0024365234375;3.26999999174404;328;100 mA
22.6436689428302;0.200042724609375;0.00244232177734375;3.2799999917188;329;100 mA
22.653668942805;0.20001220703125;0.0024285888671875;3.28999999169355;330;100 mA
22.6636689427797;0.199981689453125;0.00243621826171875;3.2999999916683;331;100 mA
22.6736689427545;0.200042724609375;0.00240753173828125;3.30999999164305;332;100 mA
22.6836689427292;0.199920654296875;0.00243865966796875;3.31999999161781;333;100 mA
22.693668942704;0.199951171875;0.0024658203125;3.32999999159256;334;100 mA
22.7036689426787;0.20001220703125;0.00244964599609375;3.33999999156731;335;100 mA
22.7136689426535;0.199981689453125;0.00243438720703125;3.34999999154206;336;100 mA
22.7236689426283;0.19989013671875;0.00240386962890625;3.35999999151682;337;100 mA
22.733668942603;0.199981689453125;0.00241424560546875;3.36999999149157;338;100 mA
22.7436689425778;0.200042724609375;0.0024298095703125;3.37999999146632;339;100 mA
22.7536689425525;0.199981689453125;0.00246246337890625;3.38999999144107;340;100 mA
22.7636689425273;0.199981689453125;0.002425537109375;3.39999999141583;341;100 mA
22.773668942502;0.20001220703125;0.00239898681640625;3.40999999139058;342;100 mA
22.7836689424768;0.199951171875;0.0024212646484375;3.41999999136533;343;100 mA
22.7936689424515;0.199951171875;0.0023907470703125;3.42999999134008;344;100 mA
22.8036689424263;0.20001220703125;0.0024066162109375;3.43999999131483;345;100 mA
22.813668942401;0.199981689453125;0.00242584228515625;3.44999999128959;346;100 mA
22.8236689423758;0.20001220703125;0.00243438720703125;3.45999999126434;347;100 mA
22.8336689423505;0.20001220703125;0.002437744140625;3.46999999123909;348;100 mA
22.8436689423253;0.199981689453125;0.002393798828125;3.47999999121384;349;100 mA
22.8536689423;0.199951171875;0.00242645263671875;3.4899999911886;350;100 mA
22.8636689422748;0.199951171875;0.0024237060546875;3.49999999116335;351;100 mA
22.8736689422495;0.19989013671875;0.00239715576171875;3.5099999911381;352;100 mA
22.8836689422243;0.200042724609375;0.0024066162109375;3.51999999111285;353;100 mA
22.893668942199;0.199951171875;0.0024139404296875;3.52999999108761;354;100 mA
22.9036689421738;0.20001220703125;0.00243438720703125;3.53999999106236;355;100 mA
22.9136689421485;0.199951171875;0.0024261474609375;3.54999999103711;356;100 mA
22.9236689421233;0.200042724609375;0.0024432373046875;3.55999999101186;357;100 mA
22.9336689420981;0.199920654296875;0.00245208740234375;3.56999999098662;358;100 mA
22.9436689420728;0.199951171875;0.00246856689453125;3.57999999096137;359;100 mA
22.9536689420476;0.199981689453125;0.00246673583984375;3.58999999093612;360;100 mA
22.9636689420223;0.199981689453125;0.00245513916015625;3.59999999091087;361;100 mA
22.9736689419971;0.199951171875;0.00246429443359375;3.60999999088563;362;100 mA
22.9836689419718;0.20001220703125;0.00246490478515625;3.61999999086038;363;100 mA
22.9936689419466;0.20001220703125;0.0024713134765625;3.62999999083513;364;100 mA
23.0036689419213;0.20001220703125;0.0024542236328125;3.63999999080988;365;100 mA
23.0136689418961;0.199951171875;0.0024462890625;3.64999999078464;366;100 mA
23.0236689418708;0.199981689453125;0.002445068359375;3.65999999075939;367;100 mA
23.0336689418456;0.199920654296875;0.00242950439453125;3.66999999073414;368;100 mA
23.0436689418203;0.199951171875;0.0024407958984375;3.67999999070889;369;100 mA
23.0536689417951;0.199951171875;0.00246246337890625;3.68999999068365;370;100 mA
23.0636689417698;0.20001220703125;0.00246124267578125;3.6999999906584;371;100 mA
23.0736689417446;0.20001220703125;0.00247711181640625;3.70999999063315;372;100 mA
23.0836689417193;0.199951171875;0.00250579833984375;3.7199999906079;373;100 mA
23.0936689416941;0.199920654296875;0.00249298095703125;3.72999999058266;374;100 mA
23.1036689416688;0.20001220703125;0.0024713134765625;3.73999999055741;375;100 mA
23.1136689416436;0.20001220703125;0.0024627685546875;3.74999999053216;376;100 mA
23.1236689416183;0.20001220703125;0.0024810791015625;3.75999999050691;377;100 mA
23.1336689415931;0.20001220703125;0.00251129150390625;3.76999999048167;378;100 mA
23.1436689415679;0.20001220703125;0.00248321533203125;3.77999999045642;379;100 mA
23.1536689415426;0.199981689453125;0.0024566650390625;3.78999999043117;380;100 mA
23.1636689415174;0.199951171875;0.00246673583984375;3.79999999040592;381;100 mA
23.1736689414921;0.20001220703125;0.0024945068359375;3.80999999038067;382;100 mA
23.1836689414669;0.199981689453125;0.0024725341796875;3.81999999035543;383;100 mA
23.1936689414416;0.199981689453125;0.00251861572265625;3.82999999033018;384;100 mA
23.2036689414164;0.200042724609375;0.00248016357421875;3.83999999030493;385;100 mA
23.2136689413911;0.199981689453125;0.0024932861328125;3.84999999027968;386;100 mA
23.2236689413659;0.199981689453125;0.00249176025390625;3.85999999025444;387;100 mA
23.2336689413406;0.199981689453125;0.00247528076171875;3.86999999022919;388;100 mA
23.2436689413154;0.20001220703125;0.0024725341796875;3.87999999020394;389;100 mA
23.2536689412901;0.20001220703125;0.002486572265625;3.88999999017869;390;100 mA
23.2636689412649;0.199951171875;0.00249298095703125;3.89999999015345;391;100 mA
23.2736689412396;0.20001220703125;0.0024560546875;3.9099999901282;392;100 mA
23.2836689412144;0.199951171875;0.00247467041015625;3.91999999010295;393;100 mA
23.2936689411891;0.199920654296875;0.00248931884765625;3.9299999900777;394;100 mA
23.3036689411639;0.199981689453125;0.00246307373046875;3.93999999005246;395;100 mA
23.3136689411386;0.199981689453125;0.00248321533203125;3.94999999002721;396;100 mA
23.3236689411134;0.199920654296875;0.00250091552734375;3.95999999000196;397;100 mA
23.3336689410881;0.199981689453125;0.0025299072265625;3.96999998997671;398;100 mA
23.3436689410629;0.199951171875;0.00250152587890625;3.97999998995147;399;100 mA
23.3536689410377;0.199981689453125;0.00251678466796875;3.98999998992622;400;100 mA
23.3636689410124;0.199981689453125;0.0025408935546875;3.99999998990097;401;100 mA
23.3736689409872;0.200042724609375;0.00250274658203125;4.00999998987572;402;100 mA
23.3836689409619;0.199951171875;0.0025274658203125;4.01999998985048;403;100 mA
23.3936689409367;0.199981689453125;0.00252532958984375;4.02999998982523;404;100 mA
23.4036689409114;0.199951171875;0.00252777099609375;4.03999998979998;405;100 mA
23.4136689408862;0.20001220703125;0.00251495361328125;4.04999998977473;406;100 mA
23.4236689408609;0.199981689453125;0.0025115966796875;4.05999998974949;407;100 mA
23.4336689408357;0.199981689453125;0.00253753662109375;4.06999998972424;408;100 mA
23.4436689408104;0.199981689453125;0.0025506591796875;4.07999998969899;409;100 mA
23.4536689407852;0.199981689453125;0.00258453369140625;4.08999998967374;410;100 mA
23.4636689407599;0.199951171875;0.0025762939453125;4.0999999896485;411;100 mA
23.4736689407347;0.199951171875;0.00256103515625;4.10999998962325;412;100 mA
23.4836689407094;0.2000732421875;0.00258636474609375;4.119999989598;413;100 mA
23.4936689406842;0.199981689453125;0.00255828857421875;4.12999998957275;414;100 mA
23.5036689406589;0.200042724609375;0.00256134033203125;4.1399999895475;415;100 mA
23.5136689406337;0.199981689453125;0.00256927490234375;4.14999998952226;416;100 mA
23.5236689406084;0.199920654296875;0.0025738525390625;4.15999998949701;417;100 mA
23.5336689405832;0.20001220703125;0.002606201171875;4.16999998947176;418;100 mA
23.543668940558;0.20001220703125;0.0025634765625;4.17999998944651;419;100 mA
23.5536689405327;0.199920654296875;0.0025811767578125;4.18999998942127;420;100 mA
23.5636689405075;0.20001220703125;0.00259429931640625;4.19999998939602;421;100 mA
23.5736689404822;0.199951171875;0.00259521484375;4.20999998937077;422;100 mA
23.583668940457;0.2000732421875;0.00256591796875;4.21999998934552;423;100 mA
23.5936689404317;0.199981689453125;0.00256134033203125;4.22999998932028;424;100 mA
23.6036689404065;0.199981689453125;0.00256500244140625;4.23999998929503;425;100 mA
23.6136689403812;0.20001220703125;0.00254150390625;4.24999998926978;426;100 mA
23.623668940356;0.2000732421875;0.00255584716796875;4.25999998924453;427;100 mA
23.6336689403307;0.20001220703125;0.0025543212890625;4.26999998921929;428;100 mA
23.6436689403055;0.199981689453125;0.00254302978515625;4.27999998919404;429;100 mA
23.6536689402802;0.20001220703125;0.00252716064453125;4.28999998916879;430;100 mA
23.663668940255;0.199951171875;0.00250030517578125;4.29999998914354;431;100 mA
23.6736689402297;0.199951171875;0.0025091552734375;4.3099999891183;432;100 mA
23.6836689402045;0.199981689453125;0.00249725341796875;4.31999998909305;433;100 mA
23.6936689401792;0.20001220703125;0.00249725341796875;4.3299999890678;434;100 mA
23.703668940154;0.20001220703125;0.002467041015625;4.33999998904255;435;100 mA
23.7136689401287;0.199981689453125;0.00245330810546875;4.34999998901731;436;100 mA
23.7236689401035;0.199981689453125;0.00249237060546875;4.35999998899206;437;100 mA
23.7336689400782;0.199951171875;0.002484130859375;4.36999998896681;438;100 mA
23.743668940053;0.199951171875;0.00249725341796875;4.37999998894156;439;100 mA
23.7536689400278;0.20001220703125;0.0025091552734375;4.38999998891632;440;100 mA
23.7636689400025;0.199951171875;0.002503662109375;4.39999998889107;441;100 mA
23.7736689399773;0.199951171875;0.002496337890625;4.40999998886582;442;100 mA
23.783668939952;0.199951171875;0.00247100830078125;4.41999998884057;443;100 mA
23.7936689399268;0.199981689453125;0.0024932861328125;4.42999998881533;444;100 mA
23.8036689399015;0.20001220703125;0.0024737548828125;4.43999998879008;445;100 mA
23.8136689398763;0.199981689453125;0.00247802734375;4.44999998876483;446;100 mA
23.823668939851;0.199951171875;0.0024713134765625;4.45999998873958;447;100 mA
23.8336689398258;0.20001220703125;0.00247833251953125;4.46999998871433;448;100 mA
23.8436689398005;0.199951171875;0.00248687744140625;4.47999998868909;449;100 mA
23.8536689397753;0.20001220703125;0.00244232177734375;4.48999998866384;450;100 mA
23.86366893975;0.20001220703125;0.0024615478515625;4.49999998863859;451;100 mA
23.8736689397248;0.20001220703125;0.00248046875;4.50999998861334;452;100 mA
23.8836689396995;0.199981689453125;0.0024957275390625;4.5199999885881;453;100 mA
23.8936689396743;0.199951171875;0.002471923828125;4.52999998856285;454;100 mA
23.903668939649;0.200042724609375;0.00244659423828125;4.5399999885376;455;100 mA
23.9136689396238;0.199981689453125;0.0024755859375;4.54999998851235;456;100 mA
23.9236689395985;0.20001220703125;0.00247039794921875;4.55999998848711;457;100 mA
23.9336689395733;0.199981689453125;0.00245147705078125;4.56999998846186;458;100 mA
23.943668939548;0.199981689453125;0.00243682861328125;4.57999998843661;459;100 mA
23.9536689395228;0.199951171875;0.0024493408203125;4.58999998841136;460;100 mA
23.9636689394976;0.199981689453125;0.00243988037109375;4.59999998838612;461;100 mA
23.9736689394723;0.20001220703125;0.002420654296875;4.60999998836087;462;100 mA
23.9836689394471;0.199981689453125;0.002449951171875;4.61999998833562;463;100 mA
23.9936689394218;0.199981689453125;0.0024188232421875;4.62999998831037;464;100 mA
24.0036689393966;0.200042724609375;0.0024273681640625;4.63999998828513;465;100 mA
24.0136689393713;0.199951171875;0.00242645263671875;4.64999998825988;466;100 mA
24.0236689393461;0.199981689453125;0.00240753173828125;4.65999998823463;467;100 mA
24.0336689393208;0.199981689453125;0.00244384765625;4.66999998820938;468;100 mA
24.0436689392956;0.20001220703125;0.0024127197265625;4.67999998818414;469;100 mA
24.0536689392703;0.20001220703125;0.0024176025390625;4.68999998815889;470;100 mA
24.0636689392451;0.20001220703125;0.00242279052734375;4.69999998813364;471;100 mA
24.0736689392198;0.199981689453125;0.0024273681640625;4.70999998810839;472;100 mA
24.0836689391946;0.199981689453125;0.0024310302734375;4.71999998808315;473;100 mA
24.0936689391693;0.199951171875;0.00242279052734375;4.7299999880579;474;100 mA
24.1036689391441;0.20001220703125;0.0024395751953125;4.73999998803265;475;100 mA
24.1136689391188;0.199951171875;0.0024395751953125;4.7499999880074;476;100 mA
24.1236689390936;0.199981689453125;0.00244354248046875;4.75999998798216;477;100 mA
24.1336689390683;0.199981689453125;0.00242889404296875;4.76999998795691;478;100 mA
24.1436689390431;0.20001220703125;0.00241119384765625;4.77999998793166;479;100 mA
24.1536689390178;0.199981689453125;0.00244964599609375;4.78999998790641;480;100 mA
24.1636689389926;0.199951171875;0.00242401123046875;4.79999998788116;481;100 mA
24.1736689389674;0.199951171875;0.00243743896484375;4.80999998785592;482;100 mA
24.1836689389421;0.20001220703125;0.00247955322265625;4.81999998783067;483;100 mA
24.1936689389169;0.20001220703125;0.00248077392578125;4.82999998780542;484;100 mA
24.2036689388916;0.199951171875;0.00246246337890625;4.83999998778017;485;100 mA
24.2136689388664;0.20001220703125;0.00241973876953125;4.84999998775493;486;100 mA
24.2236689388411;0.20001220703125;0.0024212646484375;4.85999998772968;487;100 mA
24.2336689388159;0.199981689453125;0.002408447265625;4.86999998770443;488;100 mA
24.2436689387906;0.20001220703125;0.0024066162109375;4.87999998767918;489;100 mA
24.2536689387654;0.20001220703125;0.00243743896484375;4.88999998765394;490;100 mA
24.2636689387401;0.199951171875;0.00243804931640625;4.89999998762869;491;100 mA
24.2736689387149;0.199951171875;0.00244232177734375;4.90999998760344;492;100 mA
24.2836689386896;0.20001220703125;0.00242523193359375;4.91999998757819;493;100 mA
24.2936689386644;0.199951171875;0.002432861328125;4.92999998755295;494;100 mA
24.3036689386391;0.19989013671875;0.0024407958984375;4.9399999875277;495;100 mA
24.3136689386139;0.200042724609375;0.00244781494140625;4.94999998750245;496;100 mA
24.3236689385886;0.20001220703125;0.00243743896484375;4.9599999874772;497;100 mA
24.3336689385634;0.20001220703125;0.00240325927734375;4.96999998745196;498;100 mA
24.3436689385381;0.200042724609375;0.0024322509765625;4.97999998742671;499;100 mA
24.3536689385129;0.200042724609375;0.00242950439453125;4.98999998740146;500;100 mA
24.3636689384876;0.199920654296875;0.0024267578125;4.99999998737621;501;100 mA
24.3736689384624;0.20001220703125;0.00245361328125;5.00999998735097;502;100 mA
24.3836689384372;0.200042724609375;0.0024609375;5.01999998732572;503;100 mA
24.3936689384119;0.200042724609375;0.00246429443359375;5.02999998730047;504;100 mA
24.4036689383867;0.199951171875;0.002440185546875;5.03999998727522;505;100 mA
24.4136689383614;0.199951171875;0.002437744140625;5.04999998724998;506;100 mA
24.4236689383362;0.199981689453125;0.00241607666015625;5.05999998722473;507;100 mA
24.4336689383109;0.199981689453125;0.0024163818359375;5.06999998719948;508;100 mA
24.4436689382857;0.199981689453125;0.00241058349609375;5.07999998717423;509;100 mA
24.4536689382604;0.199981689453125;0.00239990234375;5.08999998714899;510;100 mA
24.4636689382352;0.20001220703125;0.002437744140625;5.09999998712374;511;100 mA
24.4736689382099;0.199981689453125;0.0024273681640625;5.10999998709849;512;100 mA
24.4836689381847;0.199951171875;0.00245452880859375;5.11999998707324;513;100 mA
24.4936689381594;0.199981689453125;0.00246734619140625;5.129999987048;514;100 mA
24.5036689381342;0.20001220703125;0.002467041015625;5.13999998702275;515;100 mA
24.5136689381089;0.20001220703125;0.0024578857421875;5.1499999869975;516;100 mA
24.5236689380837;0.20001220703125;0.00243896484375;5.15999998697225;517;100 mA
24.5336689380584;0.199981689453125;0.00244415283203125;5.169999986947;518;100 mA
24.5436689380332;0.199981689453125;0.00243896484375;5.17999998692176;519;100 mA
24.5536689380079;0.199920654296875;0.002449951171875;5.18999998689651;520;100 mA
24.5636689379827;0.200042724609375;0.0024664306640625;5.19999998687126;521;100 mA
24.5736689379574;0.20001220703125;0.0024774169921875;5.20999998684601;522;100 mA
24.5836689379322;0.199981689453125;0.0025128173828125;5.21999998682077;523;100 mA
24.593668937907;0.199981689453125;0.00250396728515625;5.22999998679552;524;100 mA
24.6036689378817;0.199981689453125;0.002491455078125;5.23999998677027;525;100 mA
24.6136689378565;0.199981689453125;0.00251251220703125;5.24999998674502;526;100 mA
24.6236689378312;0.199951171875;0.00251068115234375;5.25999998671978;527;100 mA
24.633668937806;0.20001220703125;0.00251953125;5.26999998669453;528;100 mA
24.6436689377807;0.199981689453125;0.0024853515625;5.27999998666928;529;100 mA
24.6536689377555;0.199920654296875;0.002501220703125;5.28999998664403;530;100 mA
24.6636689377302;0.199981689453125;0.0024993896484375;5.29999998661879;531;100 mA
24.673668937705;0.20001220703125;0.00249359130859375;5.30999998659354;532;100 mA
24.6836689376797;0.20001220703125;0.00249114990234375;5.31999998656829;533;100 mA
24.6936689376545;0.20001220703125;0.00250244140625;5.32999998654304;534;100 mA
24.7036689376292;0.199981689453125;0.00253936767578125;5.3399999865178;535;100 mA
24.713668937604;0.20001220703125;0.00252471923828125;5.34999998649255;536;100 mA
24.7236689375787;0.199951171875;0.0025238037109375;5.3599999864673;537;100 mA
24.7336689375535;0.199951171875;0.002529296875;5.36999998644205;538;100 mA
24.7436689375282;0.20001220703125;0.00249603271484375;5.37999998641681;539;100 mA
24.753668937503;0.199981689453125;0.00248565673828125;5.38999998639156;540;100 mA
24.7636689374777;0.199981689453125;0.00248077392578125;5.39999998636631;541;100 mA
24.7736689374525;0.199981689453125;0.00248779296875;5.40999998634106;542;100 mA
24.7836689374273;0.199981689453125;0.00248779296875;5.41999998631582;543;100 mA
24.793668937402;0.199951171875;0.0024786376953125;5.42999998629057;544;100 mA
24.8036689373768;0.199981689453125;0.00251129150390625;5.43999998626532;545;100 mA
24.8136689373515;0.199981689453125;0.0025286865234375;5.44999998624007;546;100 mA
24.8236689373263;0.199920654296875;0.00250946044921875;5.45999998621483;547;100 mA
24.833668937301;0.199920654296875;0.0024749755859375;5.46999998618958;548;100 mA
24.8436689372758;0.199981689453125;0.00247039794921875;5.47999998616433;549;100 mA
24.8536689372505;0.20001220703125;0.0024957275390625;5.48999998613908;550;100 mA
24.8636689372253;0.199981689453125;0.002467041015625;5.49999998611383;551;100 mA
24.8736689372;0.20001220703125;0.00247406005859375;5.50999998608859;552;100 mA
24.8836689371748;0.199981689453125;0.00247894287109375;5.51999998606334;553;100 mA
24.8936689371495;0.199920654296875;0.0025030517578125;5.52999998603809;554;100 mA
24.9036689371243;0.200042724609375;0.0024981689453125;5.53999998601284;555;100 mA
24.913668937099;0.199981689453125;0.0024749755859375;5.5499999859876;556;100 mA
24.9236689370738;0.199981689453125;0.00248016357421875;5.55999998596235;557;100 mA
24.9336689370485;0.199981689453125;0.00245758056640625;5.5699999859371;558;100 mA
24.9436689370233;0.199981689453125;0.00248046875;5.57999998591185;559;100 mA
24.953668936998;0.20001220703125;0.00243408203125;5.58999998588661;560;100 mA
24.9636689369728;0.199981689453125;0.00243011474609375;5.59999998586136;561;100 mA
24.9736689369475;0.199981689453125;0.00244384765625;5.60999998583611;562;100 mA
24.9836689369223;0.199951171875;0.00242279052734375;5.61999998581086;563;100 mA
24.9936689368971;0.199920654296875;0.0024493408203125;5.62999998578562;564;100 mA
25.0036689368718;0.199981689453125;0.00244110107421875;5.63999998576037;565;100 mA
25.0136689368466;0.20001220703125;0.00244049072265625;5.64999998573512;566;100 mA
25.0236689368213;0.20001220703125;0.00242218017578125;5.65999998570987;567;100 mA
25.0336689367961;0.20001220703125;0.00242218017578125;5.66999998568463;568;100 mA
25.0436689367708;0.199981689453125;0.00246551513671875;5.67999998565938;569;100 mA
25.0536689367456;0.20001220703125;0.002452392578125;5.68999998563413;570;100 mA
25.0636689367203;0.199951171875;0.002467041015625;5.69999998560888;571;100 mA
25.0736689366951;0.199981689453125;0.0024615478515625;5.70999998558364;572;100 mA
25.0836689366698;0.200042724609375;0.002459716796875;5.71999998555839;573;100 mA
25.0936689366446;0.199981689453125;0.0024737548828125;5.72999998553314;574;100 mA
25.1036689366193;0.200042724609375;0.0024481201171875;5.73999998550789;575;100 mA
25.1136689365941;0.199951171875;0.00243194580078125;5.74999998548265;576;100 mA
25.1236689365688;0.199981689453125;0.00245208740234375;5.7599999854574;577;100 mA
25.1336689365436;0.199951171875;0.0024481201171875;5.76999998543215;578;100 mA
25.1436689365183;0.199951171875;0.00244293212890625;5.7799999854069;579;100 mA
25.1536689364931;0.199981689453125;0.00243408203125;5.78999998538166;580;100 mA
25.1636689364678;0.199981689453125;0.0024676513671875;5.79999998535641;581;100 mA
25.1736689364426;0.199981689453125;0.00245269775390625;5.80999998533116;582;100 mA
25.1836689364173;0.199951171875;0.002486572265625;5.81999998530591;583;100 mA
25.1936689363921;0.199981689453125;0.00250091552734375;5.82999998528066;584;100 mA
25.2036689363669;0.199951171875;0.00250823974609375;5.83999998525542;585;100 mA
25.2136689363416;0.199951171875;0.0025311279296875;5.84999998523017;586;100 mA
25.2236689363164;0.20001220703125;0.002489013671875;5.85999998520492;587;100 mA
25.2336689362911;0.200042724609375;0.00250396728515625;5.86999998517967;588;100 mA
25.2436689362659;0.20001220703125;0.0025445556640625;5.87999998515443;589;100 mA
25.2536689362406;0.199981689453125;0.00253814697265625;5.88999998512918;590;100 mA
25.2636689362154;0.199981689453125;0.0024993896484375;5.89999998510393;591;100 mA
25.2736689361901;0.20001220703125;0.00250701904296875;5.90999998507868;592;100 mA
25.2836689361649;0.199920654296875;0.00249969482421875;5.91999998505344;593;100 mA
25.2936689361396;0.20001220703125;0.0024700927734375;5.92999998502819;594;100 mA
25.3036689361144;0.199951171875;0.002457275390625;5.93999998500294;595;100 mA
25.3136689360891;0.199920654296875;0.00246490478515625;5.94999998497769;596;100 mA
25.3236689360639;0.199981689453125;0.00248321533203125;5.95999998495245;597;100 mA
25.3336689360386;0.20001220703125;0.0024688720703125;5.9699999849272;598;100 mA
25.3436689360134;0.199951171875;0.00243194580078125;5.97999998490195;599;100 mA
25.3536689359881;0.199981689453125;0.0024725341796875;5.9899999848767;600;100 mA
25.3636689359629;0.20001220703125;0.00245635986328125;5.99999998485146;601;100 mA
25.3736689359376;0.199951171875;0.00247589111328125;6.00999998482621;602;100 mA
25.3836689359124;0.199981689453125;0.0024456787109375;6.01999998480096;603;100 mA
25.3936689358871;0.199981689453125;0.00244049072265625;6.02999998477571;604;100 mA
25.4036689358619;0.19989013671875;0.002457275390625;6.03999998475047;605;100 mA
25.4136689358367;0.199981689453125;0.00242584228515625;6.04999998472522;606;100 mA
25.4236689358114;0.199981689453125;0.00245330810546875;6.05999998469997;607;100 mA
25.4336689357862;0.200042724609375;0.0024920654296875;6.06999998467472;608;100 mA
25.4436689357609;0.199951171875;0.0024969482421875;6.07999998464948;609;100 mA
25.4536689357357;0.199981689453125;0.002469482421875;6.08999998462423;610;100 mA
25.4636689357104;0.199981689453125;0.0024267578125;6.09999998459898;611;100 mA
25.4736689356852;0.20001220703125;0.00246673583984375;6.10999998457373;612;100 mA
25.4836689356599;0.199951171875;0.00244171142578125;6.11999998454849;613;100 mA
25.4936689356347;0.199951171875;0.0024444580078125;6.12999998452324;614;100 mA
25.5036689356094;0.20001220703125;0.00244415283203125;6.13999998449799;615;100 mA
25.5136689355842;0.20001220703125;0.00243804931640625;6.14999998447274;616;100 mA
25.5236689355589;0.199981689453125;0.00245758056640625;6.1599999844475;617;100 mA
25.5336689355337;0.20001220703125;0.00243438720703125;6.16999998442225;618;100 mA
25.5436689355084;0.199981689453125;0.002467041015625;6.179999984397;619;100 mA
25.5536689354832;0.199981689453125;0.002449951171875;6.18999998437175;620;100 mA
25.5636689354579;0.199951171875;0.0024676513671875;6.1999999843465;621;100 mA
25.5736689354327;0.199920654296875;0.00244232177734375;6.20999998432126;622;100 mA
25.5836689354074;0.20001220703125;0.00243194580078125;6.21999998429601;623;100 mA
25.5936689353822;0.20001220703125;0.00243988037109375;6.22999998427076;624;100 mA
25.6036689353569;0.199981689453125;0.00241485595703125;6.23999998424551;625;100 mA
25.6136689353317;0.199981689453125;0.00243865966796875;6.24999998422027;626;100 mA
25.6236689353065;0.199981689453125;0.00243255615234375;6.25999998419502;627;100 mA
25.6336689352812;0.199951171875;0.00244293212890625;6.26999998416977;628;100 mA
25.643668935256;0.200042724609375;0.00244110107421875;6.27999998414452;629;100 mA
25.6536689352307;0.20001220703125;0.00240234375;6.28999998411928;630;100 mA
25.6636689352055;0.199981689453125;0.00243743896484375;6.29999998409403;631;100 mA
25.6736689351802;0.20001220703125;0.00246063232421875;6.30999998406878;632;100 mA
25.683668935155;0.20001220703125;0.002464599609375;6.31999998404353;633;100 mA
25.6936689351297;0.199951171875;0.00245758056640625;6.32999998401829;634;100 mA
25.7036689351045;0.20001220703125;0.0024249267578125;6.33999998399304;635;100 mA
25.7136689350792;0.199951171875;0.0024554443359375;6.34999998396779;636;100 mA
25.723668935054;0.199981689453125;0.00244140625;6.35999998394254;637;100 mA
25.7336689350287;0.199920654296875;0.00242828369140625;6.3699999839173;638;100 mA
25.7436689350035;0.199981689453125;0.00242584228515625;6.37999998389205;639;100 mA
25.7536689349782;0.199981689453125;0.00241943359375;6.3899999838668;640;100 mA
25.763668934953;0.20001220703125;0.00243743896484375;6.39999998384155;641;100 mA
25.7736689349277;0.199951171875;0.00243927001953125;6.40999998381631;642;100 mA
25.7836689349025;0.199981689453125;0.00246734619140625;6.41999998379106;643;100 mA
25.7936689348772;0.20001220703125;0.002462158203125;6.42999998376581;644;100 mA
25.803668934852;0.199951171875;0.0024755859375;6.43999998374056;645;100 mA
25.8136689348268;0.199951171875;0.0024578857421875;6.44999998371532;646;100 mA
25.8236689348015;0.200042724609375;0.00242919921875;6.45999998369007;647;100 mA
25.8336689347763;0.199951171875;0.002445068359375;6.46999998366482;648;100 mA
25.843668934751;0.199951171875;0.00240997314453125;6.47999998363957;649;100 mA
25.8536689347258;0.199920654296875;0.00242218017578125;6.48999998361433;650;100 mA
25.8636689347005;0.20001220703125;0.00244049072265625;6.49999998358908;651;100 mA
25.8736689346753;0.20001220703125;0.00242156982421875;6.50999998356383;652;100 mA
25.88366893465;0.20001220703125;0.00243804931640625;6.51999998353858;653;100 mA
25.8936689346248;0.200042724609375;0.00240478515625;6.52999998351333;654;100 mA
25.9036689345995;0.200042724609375;0.00246246337890625;6.53999998348809;655;100 mA
25.9136689345743;0.199920654296875;0.00244781494140625;6.54999998346284;656;100 mA
25.923668934549;0.199981689453125;0.002457275390625;6.55999998343759;657;100 mA
25.9336689345238;0.199981689453125;0.00245452880859375;6.56999998341234;658;100 mA
25.9436689344985;0.199981689453125;0.0024200439453125;6.5799999833871;659;100 mA
25.9536689344733;0.199951171875;0.00243621826171875;6.58999998336185;660;100 mA
25.963668934448;0.20001220703125;0.00240692138671875;6.5999999833366;661;100 mA
25.9736689344228;0.20001220703125;0.00239288330078125;6.60999998331135;662;100 mA
25.9836689343975;0.199981689453125;0.00240386962890625;6.61999998328611;663;100 mA
25.9936689343723;0.2000732421875;0.00240203857421875;6.62999998326086;664;100 mA
26.003668934347;0.20001220703125;0.00240081787109375;6.63999998323561;665;100 mA
26.0136689343218;0.199981689453125;0.0023748779296875;6.64999998321036;666;100 mA
26.0236689342966;0.199951171875;0.00239593505859375;6.65999998318512;667;100 mA
26.0336689342713;0.20001220703125;0.00238861083984375;6.66999998315987;668;100 mA
26.0436689342461;0.20001220703125;0.00239166259765625;6.67999998313462;669;100 mA
26.0536689342208;0.199951171875;0.00239044189453125;6.68999998310937;670;100 mA
26.0636689341956;0.199951171875;0.00238433837890625;6.69999998308413;671;100 mA
26.0736689341703;0.20001220703125;0.00243499755859375;6.70999998305888;672;100 mA
26.0836689341451;0.199951171875;0.00237762451171875;6.71999998303363;673;100 mA
26.0936689341198;0.199951171875;0.0023834228515625;6.72999998300838;674;100 mA
26.1036689340946;0.199981689453125;0.0023992919921875;6.73999998298314;675;100 mA
26.1136689340693;0.20001220703125;0.00240692138671875;6.74999998295789;676;100 mA
26.1236689340441;0.199951171875;0.00240997314453125;6.75999998293264;677;100 mA
26.1336689340188;0.200042724609375;0.00237274169921875;6.76999998290739;678;100 mA
26.1436689339936;0.20001220703125;0.00237701416015625;6.77999998288215;679;100 mA
26.1536689339683;0.199981689453125;0.00237030029296875;6.7899999828569;680;100 mA
26.1636689339431;0.199981689453125;0.00238250732421875;6.79999998283165;681;100 mA
26.1736689339178;0.2000732421875;0.00239471435546875;6.8099999828064;682;100 mA
26.1836689338926;0.200042724609375;0.00238525390625;6.81999998278116;683;100 mA
26.1936689338673;0.199981689453125;0.00241119384765625;6.82999998275591;684;100 mA
26.2036689338421;0.199981689453125;0.00238800048828125;6.83999998273066;685;100 mA
26.2136689338168;0.199951171875;0.00241058349609375;6.84999998270541;686;100 mA
26.2236689337916;0.199920654296875;0.00240997314453125;6.85999998268016;687;100 mA
26.2336689337664;0.199981689453125;0.0024212646484375;6.86999998265492;688;100 mA
26.2436689337411;0.199981689453125;0.00243072509765625;6.87999998262967;689;100 mA
26.2536689337159;0.199951171875;0.0024176025390625;6.88999998260442;690;100 mA
26.2636689336906;0.199951171875;0.00243133544921875;6.89999998257917;691;100 mA
26.2736689336654;0.199981689453125;0.002418212890625;6.90999998255393;692;100 mA
26.2836689336401;0.200042724609375;0.002431640625;6.91999998252868;693;100 mA
26.2936689336149;0.200042724609375;0.00244873046875;6.92999998250343;694;100 mA
26.3036689335896;0.199951171875;0.002454833984375;6.93999998247818;695;100 mA
26.3136689335644;0.199981689453125;0.002457275390625;6.94999998245294;696;100 mA
26.3236689335391;0.199981689453125;0.0024114990234375;6.95999998242769;697;100 mA
26.3336689335139;0.199951171875;0.00243682861328125;6.96999998240244;698;100 mA
26.3436689334886;0.199951171875;0.0024591064453125;6.97999998237719;699;100 mA
26.3536689334634;0.199981689453125;0.00245941162109375;6.98999998235195;700;100 mA
