Time (s);WE(1).Potential (V);WE(1).Current (A);Corrected time (s);Index;Current range
26.86989893216;-0.699951171875;-0.357025146484375;0;1;100 mA
26.8798989321348;-0.69921875;-0.266021728515625;0.00999999997475243;2;100 mA
26.8898989321095;-0.699432373046875;-0.2254638671875;0.0199999999495049;3;100 mA
26.8998989320843;-0.6995849609375;-0.20343017578125;0.0299999999242573;4;100 mA
26.909898932059;-0.699676513671875;-0.1947021484375;0.0399999998990097;5;100 mA
26.9198989320338;-0.69952392578125;-0.18560791015625;0.0499999998737621;6;100 mA
26.9298989320085;-0.699432373046875;-0.182952880859375;0.0599999998485146;7;100 mA
26.9398989319833;-0.699615478515625;-0.178802490234375;0.069999999823267;8;100 mA
26.949898931958;-0.69952392578125;-0.17828369140625;0.0799999997980194;9;100 mA
26.9598989319328;-0.699432373046875;-0.177581787109375;0.0899999997727718;10;100 mA
26.9698989319076;-0.699554443359375;-0.172882080078125;0.0999999997475243;11;100 mA
26.9798989318823;-0.699615478515625;-0.173126220703125;0.109999999722277;12;100 mA
26.9898989318571;-0.69964599609375;-0.17193603515625;0.119999999697029;13;100 mA
26.9998989318318;-0.699615478515625;-0.17303466796875;0.129999999671782;14;100 mA
27.0098989318066;-0.69952392578125;-0.16900634765625;0.139999999646534;15;100 mA
27.0198989317813;-0.699493408203125;-0.16961669921875;0.149999999621286;16;100 mA
27.0298989317561;-0.699493408203125;-0.171905517578125;0.159999999596039;17;100 mA
27.0398989317308;-0.699554443359375;-0.170074462890625;0.169999999570791;18;100 mA
27.0498989317056;-0.699432373046875;-0.171600341796875;0.179999999545544;19;100 mA
27.0598989316803;-0.699554443359375;-0.168975830078125;0.189999999520296;20;100 mA
27.0698989316551;-0.69952392578125;-0.171478271484375;0.199999999495049;21;100 mA
27.0798989316298;-0.699432373046875;-0.174163818359375;0.209999999469801;22;100 mA
27.0898989316046;-0.699554443359375;-0.1702880859375;0.219999999444553;23;100 mA
27.0998989315793;-0.69952392578125;-0.1722412109375;0.229999999419306;24;100 mA
27.1098989315541;-0.6995849609375;-0.1693115234375;0.239999999394058;25;100 mA
27.1198989315288;-0.699554443359375;-0.170501708984375;0.249999999368811;26;100 mA
27.1298989315036;-0.699493408203125;-0.17059326171875;0.259999999343563;27;100 mA
27.1398989314783;-0.699493408203125;-0.168731689453125;0.269999999318316;28;100 mA
27.1498989314531;-0.699462890625;-0.16973876953125;0.279999999293068;29;100 mA
27.1598989314278;-0.699493408203125;-0.16754150390625;0.28999999926782;30;100 mA
27.1698989314026;-0.699432373046875;-0.168975830078125;0.299999999242573;31;100 mA
27.1798989313774;-0.6995849609375;-0.168731689453125;0.309999999217325;32;100 mA
27.1898989313521;-0.699462890625;-0.16912841796875;0.319999999192078;33;100 mA
27.1998989313269;-0.699493408203125;-0.1685791015625;0.32999999916683;34;100 mA
27.2098989313016;-0.699493408203125;-0.165313720703125;0.339999999141583;35;100 mA
27.2198989312764;-0.699554443359375;-0.165618896484375;0.349999999116335;36;100 mA
27.2298989312511;-0.6995849609375;-0.164154052734375;0.359999999091087;37;100 mA
27.2398989312259;-0.69952392578125;-0.165679931640625;0.36999999906584;38;100 mA
27.2498989312006;-0.699554443359375;-0.164764404296875;0.379999999040592;39;100 mA
27.2598989311754;-0.699554443359375;-0.163818359375;0.389999999015345;40;100 mA
27.2698989311501;-0.699493408203125;-0.16644287109375;0.399999998990097;41;100 mA
27.2798989311249;-0.699554443359375;-0.16522216796875;0.40999999896485;42;100 mA
27.2898989310996;-0.699432373046875;-0.166900634765625;0.419999998939602;43;100 mA
27.2998989310744;-0.699615478515625;-0.165252685546875;0.429999998914354;44;100 mA
27.3098989310491;-0.69952392578125;-0.1649169921875;0.439999998889107;45;100 mA
27.3198989310239;-0.699554443359375;-0.166595458984375;0.449999998863859;46;100 mA
27.3298989309986;-0.699493408203125;-0.16461181640625;0.459999998838612;47;100 mA
27.3398989309734;-0.699554443359375;-0.166748046875;0.469999998813364;48;100 mA
27.3498989309481;-0.699615478515625;-0.16552734375;0.479999998788116;49;100 mA
27.3598989309229;-0.69952392578125;-0.167633056640625;0.489999998762869;50;100 mA
27.3698989308976;-0.6995849609375;-0.1671142578125;0.499999998737621;51;100 mA
27.3798989308724;-0.6995849609375;-0.16583251953125;0.509999998712374;52;100 mA
27.3898989308472;-0.699554443359375;-0.167572021484375;0.519999998687126;53;100 mA
27.3998989308219;-0.699615478515625;-0.164642333984375;0.529999998661879;54;100 mA
27.4098989307967;-0.699493408203125;-0.1673583984375;0.539999998636631;55;100 mA
27.4198989307714;-0.69964599609375;-0.165618896484375;0.549999998611383;56;100 mA
27.4298989307462;-0.69952392578125;-0.165679931640625;0.559999998586136;57;100 mA
27.4398989307209;-0.699493408203125;-0.167877197265625;0.569999998560888;58;100 mA
27.4498989306957;-0.6995849609375;-0.166107177734375;0.579999998535641;59;100 mA
27.4598989306704;-0.6995849609375;-0.16839599609375;0.589999998510393;60;100 mA
27.4698989306452;-0.69964599609375;-0.16766357421875;0.599999998485146;61;100 mA
27.4798989306199;-0.699462890625;-0.167572021484375;0.609999998459898;62;100 mA
27.4898989305947;-0.69952392578125;-0.167083740234375;0.61999999843465;63;100 mA
27.4998989305694;-0.699554443359375;-0.166534423828125;0.629999998409403;64;100 mA
27.5098989305442;-0.699554443359375;-0.16790771484375;0.639999998384155;65;100 mA
27.5198989305189;-0.6995849609375;-0.1640625;0.649999998358908;66;100 mA
27.5298989304937;-0.69952392578125;-0.165863037109375;0.65999999833366;67;100 mA
27.5398989304684;-0.699554443359375;-0.16534423828125;0.669999998308413;68;100 mA
27.5498989304432;-0.699554443359375;-0.165008544921875;0.679999998283165;69;100 mA
27.5598989304179;-0.699493408203125;-0.164642333984375;0.689999998257917;70;100 mA
27.5698989303927;-0.6995849609375;-0.1629638671875;0.69999999823267;71;100 mA
27.5798989303674;-0.699554443359375;-0.166168212890625;0.709999998207422;72;100 mA
27.5898989303422;-0.69952392578125;-0.164215087890625;0.719999998182175;73;100 mA
27.599898930317;-0.699432373046875;-0.164093017578125;0.729999998156927;74;100 mA
27.6098989302917;-0.6995849609375;-0.164794921875;0.73999999813168;75;100 mA
27.6198989302665;-0.69952392578125;-0.1641845703125;0.749999998106432;76;100 mA
27.6298989302412;-0.69952392578125;-0.166168212890625;0.759999998081184;77;100 mA
27.639898930216;-0.699493408203125;-0.16253662109375;0.769999998055937;78;100 mA
27.6498989301907;-0.6995849609375;-0.163909912109375;0.779999998030689;79;100 mA
27.6598989301655;-0.6995849609375;-0.1632080078125;0.789999998005442;80;100 mA
27.6698989301402;-0.699462890625;-0.163055419921875;0.799999997980194;81;100 mA
27.679898930115;-0.699554443359375;-0.162811279296875;0.809999997954947;82;100 mA
27.6898989300897;-0.6995849609375;-0.162017822265625;0.819999997929699;83;100 mA
27.6998989300645;-0.6995849609375;-0.164215087890625;0.829999997904451;84;100 mA
27.7098989300392;-0.699554443359375;-0.162506103515625;0.839999997879204;85;100 mA
27.719898930014;-0.699493408203125;-0.163055419921875;0.849999997853956;86;100 mA
27.7298989299887;-0.699554443359375;-0.163116455078125;0.859999997828709;87;100 mA
27.7398989299635;-0.69952392578125;-0.16253662109375;0.869999997803461;88;100 mA
27.7498989299382;-0.69952392578125;-0.163482666015625;0.879999997778214;89;100 mA
27.759898929913;-0.69964599609375;-0.1607666015625;0.889999997752966;90;100 mA
27.7698989298877;-0.699462890625;-0.162811279296875;0.899999997727718;91;100 mA
27.7798989298625;-0.699615478515625;-0.162567138671875;0.909999997702471;92;100 mA
27.7898989298372;-0.699462890625;-0.16217041015625;0.919999997677223;93;100 mA
27.799898929812;-0.699493408203125;-0.16119384765625;0.929999997651976;94;100 mA
27.8098989297868;-0.699615478515625;-0.159515380859375;0.939999997626728;95;100 mA
27.8198989297615;-0.69964599609375;-0.16217041015625;0.949999997601481;96;100 mA
27.8298989297363;-0.69964599609375;-0.160552978515625;0.959999997576233;97;100 mA
27.839898929711;-0.69952392578125;-0.161468505859375;0.969999997550985;98;100 mA
27.8498989296858;-0.699554443359375;-0.161773681640625;0.979999997525738;99;100 mA
27.8598989296605;-0.6995849609375;-0.16064453125;0.98999999750049;100;100 mA
27.8698989296353;-0.699462890625;-0.161895751953125;0.999999997475243;101;100 mA
27.87989892961;-0.69952392578125;-0.1597900390625;1.00999999745;102;100 mA
27.8898989295848;-0.69952392578125;-0.16046142578125;1.01999999742475;103;100 mA
27.8998989295595;-0.69964599609375;-0.1600341796875;1.0299999973995;104;100 mA
27.9098989295343;-0.699493408203125;-0.160614013671875;1.03999999737425;105;100 mA
27.919898929509;-0.6995849609375;-0.160491943359375;1.049999997349;106;100 mA
27.9298989294838;-0.699554443359375;-0.158782958984375;1.05999999732376;107;100 mA
27.9398989294585;-0.699554443359375;-0.16119384765625;1.06999999729851;108;100 mA
27.9498989294333;-0.699554443359375;-0.158905029296875;1.07999999727326;109;100 mA
27.959898929408;-0.699554443359375;-0.15850830078125;1.08999999724801;110;100 mA
27.9698989293828;-0.699554443359375;-0.159423828125;1.09999999722277;111;100 mA
27.9798989293575;-0.69952392578125;-0.15826416015625;1.10999999719752;112;100 mA
27.9898989293323;-0.699554443359375;-0.1597900390625;1.11999999717227;113;100 mA
27.9998989293071;-0.699493408203125;-0.157073974609375;1.12999999714702;114;100 mA
28.0098989292818;-0.69952392578125;-0.159027099609375;1.13999999712178;115;100 mA
28.0198989292566;-0.69952392578125;-0.15826416015625;1.14999999709653;116;100 mA
28.0298989292313;-0.699554443359375;-0.158538818359375;1.15999999707128;117;100 mA
28.0398989292061;-0.69952392578125;-0.158905029296875;1.16999999704603;118;100 mA
28.0498989291808;-0.69952392578125;-0.15740966796875;1.17999999702079;119;100 mA
28.0598989291556;-0.6995849609375;-0.15936279296875;1.18999999699554;120;100 mA
28.0698989291303;-0.6995849609375;-0.158599853515625;1.19999999697029;121;100 mA
28.0798989291051;-0.699493408203125;-0.1591796875;1.20999999694504;122;100 mA
28.0898989290798;-0.6995849609375;-0.158935546875;1.2199999969198;123;100 mA
28.0998989290546;-0.699493408203125;-0.15802001953125;1.22999999689455;124;100 mA
28.1098989290293;-0.699554443359375;-0.159149169921875;1.2399999968693;125;100 mA
28.1198989290041;-0.699554443359375;-0.15643310546875;1.24999999684405;126;100 mA
28.1298989289788;-0.69952392578125;-0.158233642578125;1.25999999681881;127;100 mA
28.1398989289536;-0.699615478515625;-0.157318115234375;1.26999999679356;128;100 mA
28.1498989289283;-0.69952392578125;-0.15679931640625;1.27999999676831;129;100 mA
28.1598989289031;-0.69952392578125;-0.157989501953125;1.28999999674306;130;100 mA
28.1698989288778;-0.699615478515625;-0.15692138671875;1.29999999671782;131;100 mA
28.1798989288526;-0.69970703125;-0.1578369140625;1.30999999669257;132;100 mA
28.1898989288273;-0.699615478515625;-0.15625;1.31999999666732;133;100 mA
28.1998989288021;-0.699493408203125;-0.15679931640625;1.32999999664207;134;100 mA
28.2098989287769;-0.699615478515625;-0.15802001953125;1.33999999661683;135;100 mA
28.2198989287516;-0.699554443359375;-0.157073974609375;1.34999999659158;136;100 mA
28.2298989287264;-0.699493408203125;-0.157257080078125;1.35999999656633;137;100 mA
28.2398989287011;-0.6995849609375;-0.154937744140625;1.36999999654108;138;100 mA
28.2498989286759;-0.6995849609375;-0.156280517578125;1.37999999651583;139;100 mA
28.2598989286506;-0.699493408203125;-0.155853271484375;1.38999999649059;140;100 mA
28.2698989286254;-0.69952392578125;-0.15582275390625;1.39999999646534;141;100 mA
28.2798989286001;-0.69952392578125;-0.15692138671875;1.40999999644009;142;100 mA
28.2898989285749;-0.699554443359375;-0.156402587890625;1.41999999641484;143;100 mA
28.2998989285496;-0.699493408203125;-0.157470703125;1.4299999963896;144;100 mA
28.3098989285244;-0.699493408203125;-0.15435791015625;1.43999999636435;145;100 mA
28.3198989284991;-0.699493408203125;-0.154510498046875;1.4499999963391;146;100 mA
28.3298989284739;-0.699554443359375;-0.15496826171875;1.45999999631385;147;100 mA
28.3398989284486;-0.6995849609375;-0.154449462890625;1.46999999628861;148;100 mA
28.3498989284234;-0.69952392578125;-0.15625;1.47999999626336;149;100 mA
28.3598989283981;-0.6995849609375;-0.15435791015625;1.48999999623811;150;100 mA
28.3698989283729;-0.699462890625;-0.1561279296875;1.49999999621286;151;100 mA
28.3798989283476;-0.699493408203125;-0.155853271484375;1.50999999618762;152;100 mA
28.3898989283224;-0.699554443359375;-0.15557861328125;1.51999999616237;153;100 mA
28.3998989282971;-0.699554443359375;-0.155517578125;1.52999999613712;154;100 mA
28.4098989282719;-0.6995849609375;-0.15447998046875;1.53999999611187;155;100 mA
28.4198989282467;-0.69964599609375;-0.15679931640625;1.54999999608663;156;100 mA
28.4298989282214;-0.699676513671875;-0.154754638671875;1.55999999606138;157;100 mA
28.4398989281962;-0.699493408203125;-0.1549072265625;1.56999999603613;158;100 mA
28.4498989281709;-0.699615478515625;-0.154449462890625;1.57999999601088;159;100 mA
28.4598989281457;-0.699615478515625;-0.15447998046875;1.58999999598564;160;100 mA
28.4698989281204;-0.69952392578125;-0.156005859375;1.59999999596039;161;100 mA
28.4798989280952;-0.6995849609375;-0.15423583984375;1.60999999593514;162;100 mA
28.4898989280699;-0.6995849609375;-0.155364990234375;1.61999999590989;163;100 mA
28.4998989280447;-0.699615478515625;-0.154388427734375;1.62999999588465;164;100 mA
28.5098989280194;-0.699493408203125;-0.15435791015625;1.6399999958594;165;100 mA
28.5198989279942;-0.699554443359375;-0.155609130859375;1.64999999583415;166;100 mA
28.5298989279689;-0.69964599609375;-0.15350341796875;1.6599999958089;167;100 mA
28.5398989279437;-0.699615478515625;-0.1551513671875;1.66999999578366;168;100 mA
28.5498989279184;-0.69964599609375;-0.153594970703125;1.67999999575841;169;100 mA
28.5598989278932;-0.699554443359375;-0.153656005859375;1.68999999573316;170;100 mA
28.5698989278679;-0.69964599609375;-0.1536865234375;1.69999999570791;171;100 mA
28.5798989278427;-0.69952392578125;-0.15325927734375;1.70999999568267;172;100 mA
28.5898989278174;-0.699615478515625;-0.154754638671875;1.71999999565742;173;100 mA
28.5998989277922;-0.6995849609375;-0.151397705078125;1.72999999563217;174;100 mA
28.6098989277669;-0.699432373046875;-0.152862548828125;1.73999999560692;175;100 mA
28.6198989277417;-0.699554443359375;-0.151947021484375;1.74999999558167;176;100 mA
28.6298989277165;-0.6995849609375;-0.15301513671875;1.75999999555643;177;100 mA
28.6398989276912;-0.69952392578125;-0.155975341796875;1.76999999553118;178;100 mA
28.649898927666;-0.699615478515625;-0.153656005859375;1.77999999550593;179;100 mA
28.6598989276407;-0.6995849609375;-0.15484619140625;1.78999999548068;180;100 mA
28.6698989276155;-0.6995849609375;-0.154296875;1.79999999545544;181;100 mA
28.6798989275902;-0.699493408203125;-0.155181884765625;1.80999999543019;182;100 mA
28.689898927565;-0.69964599609375;-0.154632568359375;1.81999999540494;183;100 mA
28.6998989275397;-0.699554443359375;-0.153778076171875;1.82999999537969;184;100 mA
28.7098989275145;-0.69952392578125;-0.154876708984375;1.83999999535445;185;100 mA
28.7198989274892;-0.6995849609375;-0.1536865234375;1.8499999953292;186;100 mA
28.729898927464;-0.69952392578125;-0.155731201171875;1.85999999530395;187;100 mA
28.7398989274387;-0.6995849609375;-0.15435791015625;1.8699999952787;188;100 mA
28.7498989274135;-0.69952392578125;-0.1551513671875;1.87999999525346;189;100 mA
28.7598989273882;-0.69952392578125;-0.156951904296875;1.88999999522821;190;100 mA
28.769898927363;-0.699615478515625;-0.156524658203125;1.89999999520296;191;100 mA
28.7798989273377;-0.699615478515625;-0.1578369140625;1.90999999517771;192;100 mA
28.7898989273125;-0.6995849609375;-0.156951904296875;1.91999999515247;193;100 mA
28.7998989272872;-0.699493408203125;-0.156890869140625;1.92999999512722;194;100 mA
28.809898927262;-0.6995849609375;-0.157379150390625;1.93999999510197;195;100 mA
28.8198989272367;-0.699554443359375;-0.1556396484375;1.94999999507672;196;100 mA
28.8298989272115;-0.6995849609375;-0.15704345703125;1.95999999505148;197;100 mA
28.8398989271863;-0.69964599609375;-0.15557861328125;1.96999999502623;198;100 mA
28.849898927161;-0.699615478515625;-0.15679931640625;1.97999999500098;199;100 mA
28.8598989271358;-0.699554443359375;-0.1556396484375;1.98999999497573;200;100 mA
28.8698989271105;-0.69952392578125;-0.155487060546875;1.99999999495049;201;100 mA
28.8798989270853;-0.699615478515625;-0.156646728515625;2.00999999492524;202;100 mA
28.88989892706;-0.69964599609375;-0.15472412109375;2.01999999489999;203;100 mA
28.8998989270348;-0.6995849609375;-0.155242919921875;2.02999999487474;204;100 mA
28.9098989270095;-0.69964599609375;-0.153564453125;2.0399999948495;205;100 mA
28.9198989269843;-0.69952392578125;-0.15325927734375;2.04999999482425;206;100 mA
28.929898926959;-0.69952392578125;-0.15240478515625;2.059999994799;207;100 mA
28.9398989269338;-0.69952392578125;-0.15155029296875;2.06999999477375;208;100 mA
28.9498989269085;-0.69952392578125;-0.153167724609375;2.0799999947485;209;100 mA
28.9598989268833;-0.6995849609375;-0.15234375;2.08999999472326;210;100 mA
28.969898926858;-0.69952392578125;-0.153961181640625;2.09999999469801;211;100 mA
28.9798989268328;-0.699676513671875;-0.15301513671875;2.10999999467276;212;100 mA
28.9898989268075;-0.699554443359375;-0.15289306640625;2.11999999464751;213;100 mA
28.9998989267823;-0.699493408203125;-0.155426025390625;2.12999999462227;214;100 mA
29.009898926757;-0.699615478515625;-0.154022216796875;2.13999999459702;215;100 mA
29.0198989267318;-0.69952392578125;-0.154510498046875;2.14999999457177;216;100 mA
29.0298989267066;-0.699554443359375;-0.15338134765625;2.15999999454652;217;100 mA
29.0398989266813;-0.699462890625;-0.154632568359375;2.16999999452128;218;100 mA
29.0498989266561;-0.6995849609375;-0.154571533203125;2.17999999449603;219;100 mA
29.0598989266308;-0.69952392578125;-0.154327392578125;2.18999999447078;220;100 mA
29.0698989266056;-0.699493408203125;-0.156280517578125;2.19999999444553;221;100 mA
29.0798989265803;-0.6995849609375;-0.15350341796875;2.20999999442029;222;100 mA
29.0898989265551;-0.699554443359375;-0.1533203125;2.21999999439504;223;100 mA
29.0998989265298;-0.699554443359375;-0.152862548828125;2.22999999436979;224;100 mA
29.1098989265046;-0.699493408203125;-0.152587890625;2.23999999434454;225;100 mA
29.1198989264793;-0.6995849609375;-0.1529541015625;2.2499999943193;226;100 mA
29.1298989264541;-0.6995849609375;-0.151336669921875;2.25999999429405;227;100 mA
29.1398989264288;-0.6995849609375;-0.15283203125;2.2699999942688;228;100 mA
29.1498989264036;-0.69964599609375;-0.15167236328125;2.27999999424355;229;100 mA
29.1598989263783;-0.69952392578125;-0.152557373046875;2.28999999421831;230;100 mA
29.1698989263531;-0.699554443359375;-0.153411865234375;2.29999999419306;231;100 mA
29.1798989263278;-0.699554443359375;-0.152099609375;2.30999999416781;232;100 mA
29.1898989263026;-0.699554443359375;-0.153228759765625;2.31999999414256;233;100 mA
29.1998989262773;-0.69964599609375;-0.151458740234375;2.32999999411732;234;100 mA
29.2098989262521;-0.699493408203125;-0.15301513671875;2.33999999409207;235;100 mA
29.2198989262268;-0.699615478515625;-0.152557373046875;2.34999999406682;236;100 mA
29.2298989262016;-0.69952392578125;-0.152374267578125;2.35999999404157;237;100 mA
29.2398989261764;-0.699554443359375;-0.153594970703125;2.36999999401633;238;100 mA
29.2498989261511;-0.69964599609375;-0.15093994140625;2.37999999399108;239;100 mA
29.2598989261259;-0.69964599609375;-0.1524658203125;2.38999999396583;240;100 mA
29.2698989261006;-0.699615478515625;-0.1531982421875;2.39999999394058;241;100 mA
29.2798989260754;-0.69952392578125;-0.153350830078125;2.40999999391533;242;100 mA
29.2898989260501;-0.6995849609375;-0.153778076171875;2.41999999389009;243;100 mA
29.2998989260249;-0.699554443359375;-0.15216064453125;2.42999999386484;244;100 mA
29.3098989259996;-0.699432373046875;-0.153961181640625;2.43999999383959;245;100 mA
29.3198989259744;-0.699615478515625;-0.152008056640625;2.44999999381434;246;100 mA
29.3298989259491;-0.699554443359375;-0.152130126953125;2.4599999937891;247;100 mA
29.3398989259239;-0.699554443359375;-0.15234375;2.46999999376385;248;100 mA
29.3498989258986;-0.699554443359375;-0.152313232421875;2.4799999937386;249;100 mA
29.3598989258734;-0.699554443359375;-0.15234375;2.48999999371335;250;100 mA
29.3698989258481;-0.699554443359375;-0.149566650390625;2.49999999368811;251;100 mA
29.3798989258229;-0.699554443359375;-0.1514892578125;2.50999999366286;252;100 mA
29.3898989257976;-0.699554443359375;-0.15130615234375;2.51999999363761;253;100 mA
29.3998989257724;-0.69952392578125;-0.151153564453125;2.52999999361236;254;100 mA
29.4098989257471;-0.69952392578125;-0.150726318359375;2.53999999358712;255;100 mA
29.4198989257219;-0.6995849609375;-0.150634765625;2.54999999356187;256;100 mA
29.4298989256966;-0.69952392578125;-0.15234375;2.55999999353662;257;100 mA
29.4398989256714;-0.6995849609375;-0.151092529296875;2.56999999351137;258;100 mA
29.4498989256462;-0.6995849609375;-0.15203857421875;2.57999999348613;259;100 mA
29.4598989256209;-0.699615478515625;-0.152252197265625;2.58999999346088;260;100 mA
29.4698989255957;-0.6995849609375;-0.151641845703125;2.59999999343563;261;100 mA
29.4798989255704;-0.699493408203125;-0.152679443359375;2.60999999341038;262;100 mA
29.4898989255452;-0.699554443359375;-0.152740478515625;2.61999999338514;263;100 mA
29.4998989255199;-0.69952392578125;-0.1546630859375;2.62999999335989;264;100 mA
29.5098989254947;-0.6995849609375;-0.152313232421875;2.63999999333464;265;100 mA
29.5198989254694;-0.699554443359375;-0.152313232421875;2.64999999330939;266;100 mA
29.5298989254442;-0.6995849609375;-0.152313232421875;2.65999999328415;267;100 mA
29.5398989254189;-0.6995849609375;-0.1514892578125;2.6699999932589;268;100 mA
29.5498989253937;-0.69952392578125;-0.152313232421875;2.67999999323365;269;100 mA
29.5598989253684;-0.6995849609375;-0.1494140625;2.6899999932084;270;100 mA
29.5698989253432;-0.6995849609375;-0.15118408203125;2.69999999318316;271;100 mA
29.5798989253179;-0.69964599609375;-0.152801513671875;2.70999999315791;272;100 mA
29.5898989252927;-0.699493408203125;-0.15301513671875;2.71999999313266;273;100 mA
29.5998989252674;-0.699554443359375;-0.154083251953125;2.72999999310741;274;100 mA
29.6098989252422;-0.69964599609375;-0.1524658203125;2.73999999308217;275;100 mA
29.6198989252169;-0.69952392578125;-0.154144287109375;2.74999999305692;276;100 mA
29.6298989251917;-0.6995849609375;-0.153076171875;2.75999999303167;277;100 mA
29.6398989251664;-0.699554443359375;-0.152313232421875;2.76999999300642;278;100 mA
29.6498989251412;-0.699493408203125;-0.1522216796875;2.77999999298117;279;100 mA
29.659898925116;-0.69952392578125;-0.15130615234375;2.78999999295593;280;100 mA
29.6698989250907;-0.699493408203125;-0.152435302734375;2.79999999293068;281;100 mA
29.6798989250655;-0.699615478515625;-0.15081787109375;2.80999999290543;282;100 mA
29.6898989250402;-0.699493408203125;-0.15228271484375;2.81999999288018;283;100 mA
29.699898925015;-0.6995849609375;-0.151641845703125;2.82999999285494;284;100 mA
29.7098989249897;-0.69952392578125;-0.15081787109375;2.83999999282969;285;100 mA
29.7198989249645;-0.6995849609375;-0.152496337890625;2.84999999280444;286;100 mA
29.7298989249392;-0.69964599609375;-0.151153564453125;2.85999999277919;287;100 mA
29.739898924914;-0.699615478515625;-0.15338134765625;2.86999999275395;288;100 mA
29.7498989248887;-0.699554443359375;-0.151763916015625;2.8799999927287;289;100 mA
29.7598989248635;-0.699493408203125;-0.15203857421875;2.88999999270345;290;100 mA
29.7698989248382;-0.699554443359375;-0.15179443359375;2.8999999926782;291;100 mA
29.779898924813;-0.69964599609375;-0.149566650390625;2.90999999265296;292;100 mA
29.7898989247877;-0.699462890625;-0.1513671875;2.91999999262771;293;100 mA
29.7998989247625;-0.69952392578125;-0.15057373046875;2.92999999260246;294;100 mA
29.8098989247372;-0.699554443359375;-0.1519775390625;2.93999999257721;295;100 mA
29.819898924712;-0.699554443359375;-0.150970458984375;2.94999999255197;296;100 mA
29.8298989246867;-0.699554443359375;-0.1510009765625;2.95999999252672;297;100 mA
29.8398989246615;-0.6995849609375;-0.15191650390625;2.96999999250147;298;100 mA
29.8498989246362;-0.699676513671875;-0.15020751953125;2.97999999247622;299;100 mA
29.859898924611;-0.6995849609375;-0.152191162109375;2.98999999245098;300;100 mA
29.8698989245858;-0.6995849609375;-0.14923095703125;2.99999999242573;301;100 mA
29.8798989245605;-0.699554443359375;-0.149139404296875;3.00999999240048;302;100 mA
29.8898989245353;-0.6995849609375;-0.14892578125;3.01999999237523;303;100 mA
29.89989892451;-0.6995849609375;-0.146881103515625;3.02999999234999;304;100 mA
29.9098989244848;-0.69952392578125;-0.148468017578125;3.03999999232474;305;100 mA
29.9198989244595;-0.699615478515625;-0.147247314453125;3.04999999229949;306;100 mA
29.9298989244343;-0.699615478515625;-0.1485595703125;3.05999999227424;307;100 mA
29.939898924409;-0.6995849609375;-0.148040771484375;3.069999992249;308;100 mA
29.9498989243838;-0.699554443359375;-0.1470947265625;3.07999999222375;309;100 mA
29.9598989243585;-0.69952392578125;-0.148101806640625;3.0899999921985;310;100 mA
29.9698989243333;-0.699615478515625;-0.146881103515625;3.09999999217325;311;100 mA
29.979898924308;-0.69964599609375;-0.147613525390625;3.109999992148;312;100 mA
29.9898989242828;-0.699615478515625;-0.146575927734375;3.11999999212276;313;100 mA
29.9998989242575;-0.69952392578125;-0.147125244140625;3.12999999209751;314;100 mA
30.0098989242323;-0.699615478515625;-0.148406982421875;3.13999999207226;315;100 mA
30.019898924207;-0.699554443359375;-0.147186279296875;3.14999999204701;316;100 mA
30.0298989241818;-0.699554443359375;-0.1484375;3.15999999202177;317;100 mA
30.0398989241565;-0.69964599609375;-0.148040771484375;3.16999999199652;318;100 mA
30.0498989241313;-0.6995849609375;-0.149261474609375;3.17999999197127;319;100 mA
30.0598989241061;-0.69964599609375;-0.147796630859375;3.18999999194602;320;100 mA
30.0698989240808;-0.699554443359375;-0.14654541015625;3.19999999192078;321;100 mA
30.0798989240556;-0.699554443359375;-0.147796630859375;3.20999999189553;322;100 mA
30.0898989240303;-0.699615478515625;-0.146331787109375;3.21999999187028;323;100 mA
30.0998989240051;-0.699615478515625;-0.14813232421875;3.22999999184503;324;100 mA
30.1098989239798;-0.69964599609375;-0.146209716796875;3.23999999181979;325;100 mA
30.1198989239546;-0.6995849609375;-0.14697265625;3.24999999179454;326;100 mA
30.1298989239293;-0.6995849609375;-0.1485595703125;3.25999999176929;327;100 mA
30.1398989239041;-0.6995849609375;-0.1478271484375;3.26999999174404;328;100 mA
30.1498989238788;-0.69952392578125;-0.1488037109375;3.2799999917188;329;100 mA
30.1598989238536;-0.6995849609375;-0.148193359375;3.28999999169355;330;100 mA
30.1698989238283;-0.699462890625;-0.149444580078125;3.2999999916683;331;100 mA
30.1798989238031;-0.699615478515625;-0.149383544921875;3.30999999164305;332;100 mA
30.1898989237778;-0.69952392578125;-0.148345947265625;3.31999999161781;333;100 mA
30.1998989237526;-0.69952392578125;-0.149444580078125;3.32999999159256;334;100 mA
30.2098989237273;-0.699615478515625;-0.149078369140625;3.33999999156731;335;100 mA
30.2198989237021;-0.6995849609375;-0.150390625;3.34999999154206;336;100 mA
30.2298989236768;-0.6995849609375;-0.148284912109375;3.35999999151682;337;100 mA
30.2398989236516;-0.699554443359375;-0.148590087890625;3.36999999149157;338;100 mA
30.2498989236263;-0.699554443359375;-0.14923095703125;3.37999999146632;339;100 mA
30.2598989236011;-0.6995849609375;-0.147796630859375;3.38999999144107;340;100 mA
30.2698989235759;-0.6995849609375;-0.148956298828125;3.39999999141583;341;100 mA
30.2798989235506;-0.699554443359375;-0.1473388671875;3.40999999139058;342;100 mA
30.2898989235254;-0.699554443359375;-0.1484375;3.41999999136533;343;100 mA
30.2998989235001;-0.6995849609375;-0.1484375;3.42999999134008;344;100 mA
30.3098989234749;-0.6995849609375;-0.147125244140625;3.43999999131483;345;100 mA
30.3198989234496;-0.699554443359375;-0.148651123046875;3.44999999128959;346;100 mA
30.3298989234244;-0.69964599609375;-0.1474609375;3.45999999126434;347;100 mA
30.3398989233991;-0.6995849609375;-0.14801025390625;3.46999999123909;348;100 mA
30.3498989233739;-0.69964599609375;-0.146881103515625;3.47999999121384;349;100 mA
30.3598989233486;-0.699615478515625;-0.147247314453125;3.4899999911886;350;100 mA
30.3698989233234;-0.699554443359375;-0.148162841796875;3.49999999116335;351;100 mA
30.3798989232981;-0.6995849609375;-0.147064208984375;3.5099999911381;352;100 mA
30.3898989232729;-0.699554443359375;-0.148223876953125;3.51999999111285;353;100 mA
30.3998989232476;-0.69952392578125;-0.146331787109375;3.52999999108761;354;100 mA
30.4098989232224;-0.699554443359375;-0.1468505859375;3.53999999106236;355;100 mA
30.4198989231971;-0.699615478515625;-0.1458740234375;3.54999999103711;356;100 mA
30.4298989231719;-0.699615478515625;-0.14520263671875;3.55999999101186;357;100 mA
30.4398989231466;-0.6995849609375;-0.145965576171875;3.56999999098662;358;100 mA
30.4498989231214;-0.6995849609375;-0.14508056640625;3.57999999096137;359;100 mA
30.4598989230961;-0.699615478515625;-0.14617919921875;3.58999999093612;360;100 mA
30.4698989230709;-0.69964599609375;-0.145477294921875;3.59999999091087;361;100 mA
30.4798989230457;-0.699554443359375;-0.145843505859375;3.60999999088563;362;100 mA
30.4898989230204;-0.69964599609375;-0.146270751953125;3.61999999086038;363;100 mA
30.4998989229952;-0.699554443359375;-0.1453857421875;3.62999999083513;364;100 mA
30.5098989229699;-0.699493408203125;-0.146240234375;3.63999999080988;365;100 mA
30.5198989229447;-0.6995849609375;-0.144927978515625;3.64999999078464;366;100 mA
30.5298989229194;-0.699554443359375;-0.145538330078125;3.65999999075939;367;100 mA
30.5398989228942;-0.699554443359375;-0.14459228515625;3.66999999073414;368;100 mA
30.5498989228689;-0.699554443359375;-0.144744873046875;3.67999999070889;369;100 mA
30.5598989228437;-0.699615478515625;-0.146270751953125;3.68999999068365;370;100 mA
30.5698989228184;-0.6995849609375;-0.14544677734375;3.6999999906584;371;100 mA
30.5798989227932;-0.699554443359375;-0.146942138671875;3.70999999063315;372;100 mA
30.5898989227679;-0.69964599609375;-0.146881103515625;3.7199999906079;373;100 mA
30.5998989227427;-0.699554443359375;-0.14715576171875;3.72999999058266;374;100 mA
30.6098989227174;-0.699554443359375;-0.14691162109375;3.73999999055741;375;100 mA
30.6198989226922;-0.6995849609375;-0.1463623046875;3.74999999053216;376;100 mA
30.6298989226669;-0.6995849609375;-0.14825439453125;3.75999999050691;377;100 mA
30.6398989226417;-0.699615478515625;-0.147613525390625;3.76999999048167;378;100 mA
30.6498989226164;-0.699493408203125;-0.148162841796875;3.77999999045642;379;100 mA
30.6598989225912;-0.6995849609375;-0.14886474609375;3.78999999043117;380;100 mA
30.6698989225659;-0.699493408203125;-0.148529052734375;3.79999999040592;381;100 mA
30.6798989225407;-0.69952392578125;-0.149261474609375;3.80999999038067;382;100 mA
30.6898989225155;-0.69964599609375;-0.14666748046875;3.81999999035543;383;100 mA
30.6998989224902;-0.699615478515625;-0.148040771484375;3.82999999033018;384;100 mA
30.709898922465;-0.699615478515625;-0.147216796875;3.83999999030493;385;100 mA
30.7198989224397;-0.699554443359375;-0.146636962890625;3.84999999027968;386;100 mA
30.7298989224145;-0.6995849609375;-0.146575927734375;3.85999999025444;387;100 mA
30.7398989223892;-0.699554443359375;-0.14544677734375;3.86999999022919;388;100 mA
30.749898922364;-0.69952392578125;-0.14691162109375;3.87999999020394;389;100 mA
30.7598989223387;-0.6995849609375;-0.14593505859375;3.88999999017869;390;100 mA
30.7698989223135;-0.699554443359375;-0.146514892578125;3.89999999015345;391;100 mA
30.7798989222882;-0.6995849609375;-0.14654541015625;3.9099999901282;392;100 mA
30.789898922263;-0.699554443359375;-0.14642333984375;3.91999999010295;393;100 mA
30.7998989222377;-0.699554443359375;-0.148223876953125;3.9299999900777;394;100 mA
30.8098989222125;-0.699554443359375;-0.14715576171875;3.93999999005246;395;100 mA
30.8198989221872;-0.69952392578125;-0.148284912109375;3.94999999002721;396;100 mA
30.829898922162;-0.699615478515625;-0.147430419921875;3.95999999000196;397;100 mA
30.8398989221367;-0.69952392578125;-0.146514892578125;3.96999998997671;398;100 mA
30.8498989221115;-0.699554443359375;-0.146209716796875;3.97999998995147;399;100 mA
30.8598989220862;-0.69952392578125;-0.145538330078125;3.98999998992622;400;100 mA
30.869898922061;-0.699554443359375;-0.1468505859375;3.99999998990097;401;100 mA
30.8798989220357;-0.699554443359375;-0.1458740234375;4.00999998987572;402;100 mA
30.8898989220105;-0.69952392578125;-0.1468505859375;4.01999998985048;403;100 mA
30.8998989219853;-0.6995849609375;-0.146942138671875;4.02999998982523;404;100 mA
30.90989892196;-0.69952392578125;-0.14666748046875;4.03999998979998;405;100 mA
30.9198989219348;-0.6995849609375;-0.147613525390625;4.04999998977473;406;100 mA
30.9298989219095;-0.699615478515625;-0.145477294921875;4.05999998974949;407;100 mA
30.9398989218843;-0.699615478515625;-0.146728515625;4.06999998972424;408;100 mA
30.949898921859;-0.699615478515625;-0.14630126953125;4.07999998969899;409;100 mA
30.9598989218338;-0.6995849609375;-0.146697998046875;4.08999998967374;410;100 mA
30.9698989218085;-0.6995849609375;-0.1470947265625;4.0999999896485;411;100 mA
30.9798989217833;-0.699554443359375;-0.147552490234375;4.10999998962325;412;100 mA
30.989898921758;-0.699554443359375;-0.14874267578125;4.119999989598;413;100 mA
30.9998989217328;-0.6995849609375;-0.146820068359375;4.12999998957275;414;100 mA
31.0098989217075;-0.6995849609375;-0.14715576171875;4.1399999895475;415;100 mA
31.0198989216823;-0.6995849609375;-0.147491455078125;4.14999998952226;416;100 mA
31.029898921657;-0.699554443359375;-0.1478271484375;4.15999998949701;417;100 mA
31.0398989216318;-0.6995849609375;-0.1488037109375;4.16999998947176;418;100 mA
31.0498989216065;-0.699615478515625;-0.1473388671875;4.17999998944651;419;100 mA
31.0598989215813;-0.699615478515625;-0.147705078125;4.18999998942127;420;100 mA
31.069898921556;-0.69964599609375;-0.146820068359375;4.19999998939602;421;100 mA
31.0798989215308;-0.6995849609375;-0.14776611328125;4.20999998937077;422;100 mA
31.0898989215056;-0.6995849609375;-0.14703369140625;4.21999998934552;423;100 mA
31.0998989214803;-0.69952392578125;-0.146087646484375;4.22999998932028;424;100 mA
31.1098989214551;-0.699554443359375;-0.147491455078125;4.23999998929503;425;100 mA
31.1198989214298;-0.69964599609375;-0.145477294921875;4.24999998926978;426;100 mA
31.1298989214046;-0.699493408203125;-0.14617919921875;4.25999998924453;427;100 mA
31.1398989213793;-0.6995849609375;-0.145477294921875;4.26999998921929;428;100 mA
31.1498989213541;-0.69952392578125;-0.14508056640625;4.27999998919404;429;100 mA
31.1598989213288;-0.699615478515625;-0.144622802734375;4.28999998916879;430;100 mA
31.1698989213036;-0.699615478515625;-0.1435546875;4.29999998914354;431;100 mA
31.1798989212783;-0.6995849609375;-0.14581298828125;4.3099999891183;432;100 mA
31.1898989212531;-0.69964599609375;-0.14556884765625;4.31999998909305;433;100 mA
31.1998989212278;-0.6995849609375;-0.1461181640625;4.3299999890678;434;100 mA
31.2098989212026;-0.69964599609375;-0.1461181640625;4.33999998904255;435;100 mA
31.2198989211773;-0.69952392578125;-0.145416259765625;4.34999998901731;436;100 mA
31.2298989211521;-0.699554443359375;-0.146697998046875;4.35999998899206;437;100 mA
31.2398989211268;-0.699554443359375;-0.144989013671875;4.36999998896681;438;100 mA
31.2498989211016;-0.69952392578125;-0.14495849609375;4.37999998894156;439;100 mA
31.2598989210763;-0.699554443359375;-0.14410400390625;4.38999998891632;440;100 mA
31.2698989210511;-0.699554443359375;-0.1435546875;4.39999998889107;441;100 mA
31.2798989210258;-0.6995849609375;-0.144195556640625;4.40999998886582;442;100 mA
31.2898989210006;-0.699676513671875;-0.143585205078125;4.41999998884057;443;100 mA
31.2998989209754;-0.6995849609375;-0.144134521484375;4.42999998881533;444;100 mA
31.3098989209501;-0.69952392578125;-0.1431884765625;4.43999998879008;445;100 mA
31.3198989209249;-0.6995849609375;-0.14337158203125;4.44999998876483;446;100 mA
31.3298989208996;-0.699554443359375;-0.1435546875;4.45999998873958;447;100 mA
31.3398989208744;-0.69952392578125;-0.1436767578125;4.46999998871433;448;100 mA
31.3498989208491;-0.6995849609375;-0.144561767578125;4.47999998868909;449;100 mA
31.3598989208239;-0.699554443359375;-0.14361572265625;4.48999998866384;450;100 mA
31.3698989207986;-0.699493408203125;-0.1444091796875;4.49999998863859;451;100 mA
31.3798989207734;-0.699615478515625;-0.14385986328125;4.50999998861334;452;100 mA
31.3898989207481;-0.699615478515625;-0.14385986328125;4.5199999885881;453;100 mA
31.3998989207229;-0.6995849609375;-0.14398193359375;4.52999998856285;454;100 mA
31.4098989206976;-0.699676513671875;-0.143585205078125;4.5399999885376;455;100 mA
31.4198989206724;-0.699615478515625;-0.14599609375;4.54999998851235;456;100 mA
31.4298989206471;-0.6995849609375;-0.14599609375;4.55999998848711;457;100 mA
31.4398989206219;-0.699615478515625;-0.14630126953125;4.56999998846186;458;100 mA
31.4498989205966;-0.6995849609375;-0.14654541015625;4.57999998843661;459;100 mA
31.4598989205714;-0.699554443359375;-0.146087646484375;4.58999998841136;460;100 mA
31.4698989205461;-0.69952392578125;-0.14678955078125;4.59999998838612;461;100 mA
31.4798989205209;-0.699615478515625;-0.14642333984375;4.60999998836087;462;100 mA
31.4898989204956;-0.699615478515625;-0.1480712890625;4.61999998833562;463;100 mA
31.4998989204704;-0.699615478515625;-0.147796630859375;4.62999998831037;464;100 mA
31.5098989204452;-0.699554443359375;-0.147735595703125;4.63999998828513;465;100 mA
31.5198989204199;-0.6995849609375;-0.14739990234375;4.64999998825988;466;100 mA
31.5298989203947;-0.699615478515625;-0.14599609375;4.65999998823463;467;100 mA
31.5398989203694;-0.699554443359375;-0.1468505859375;4.66999998820938;468;100 mA
31.5498989203442;-0.699615478515625;-0.14520263671875;4.67999998818414;469;100 mA
31.5598989203189;-0.69964599609375;-0.14483642578125;4.68999998815889;470;100 mA
31.5698989202937;-0.6995849609375;-0.144744873046875;4.69999998813364;471;100 mA
31.5798989202684;-0.699554443359375;-0.1434326171875;4.70999998810839;472;100 mA
31.5898989202432;-0.699554443359375;-0.144775390625;4.71999998808315;473;100 mA
31.5998989202179;-0.6995849609375;-0.144378662109375;4.7299999880579;474;100 mA
31.6098989201927;-0.699554443359375;-0.145721435546875;4.73999998803265;475;100 mA
31.6198989201674;-0.699493408203125;-0.144989013671875;4.7499999880074;476;100 mA
31.6298989201422;-0.699615478515625;-0.144195556640625;4.75999998798216;477;100 mA
31.6398989201169;-0.699554443359375;-0.14483642578125;4.76999998795691;478;100 mA
31.6498989200917;-0.699615478515625;-0.144287109375;4.77999998793166;479;100 mA
31.6598989200664;-0.6995849609375;-0.1453857421875;4.78999998790641;480;100 mA
31.6698989200412;-0.6995849609375;-0.144500732421875;4.79999998788116;481;100 mA
31.6798989200159;-0.6995849609375;-0.144287109375;4.80999998785592;482;100 mA
31.6898989199907;-0.6995849609375;-0.1446533203125;4.81999998783067;483;100 mA
31.6998989199654;-0.69952392578125;-0.14385986328125;4.82999998780542;484;100 mA
31.7098989199402;-0.6995849609375;-0.144805908203125;4.83999998778017;485;100 mA
31.719898919915;-0.699615478515625;-0.14300537109375;4.84999998775493;486;100 mA
31.7298989198897;-0.6995849609375;-0.144256591796875;4.85999998772968;487;100 mA
31.7398989198645;-0.69964599609375;-0.1441650390625;4.86999998770443;488;100 mA
31.7498989198392;-0.6995849609375;-0.144378662109375;4.87999998767918;489;100 mA
31.759898919814;-0.69964599609375;-0.14520263671875;4.88999998765394;490;100 mA
31.7698989197887;-0.69964599609375;-0.144500732421875;4.89999998762869;491;100 mA
31.7798989197635;-0.699615478515625;-0.1453857421875;4.90999998760344;492;100 mA
31.7898989197382;-0.69964599609375;-0.144134521484375;4.91999998757819;493;100 mA
31.799898919713;-0.6995849609375;-0.144195556640625;4.92999998755295;494;100 mA
31.8098989196877;-0.6995849609375;-0.144805908203125;4.9399999875277;495;100 mA
31.8198989196625;-0.69952392578125;-0.14385986328125;4.94999998750245;496;100 mA
31.8298989196372;-0.699554443359375;-0.14434814453125;4.9599999874772;497;100 mA
31.839898919612;-0.6995849609375;-0.14312744140625;4.96999998745196;498;100 mA
31.8498989195867;-0.6995849609375;-0.14410400390625;4.97999998742671;499;100 mA
31.8598989195615;-0.69964599609375;-0.143768310546875;4.98999998740146;500;100 mA
31.8698989195362;-0.69952392578125;-0.143585205078125;4.99999998737621;501;100 mA
31.879898919511;-0.699554443359375;-0.144805908203125;5.00999998735097;502;100 mA
31.8898989194857;-0.6995849609375;-0.14349365234375;5.01999998732572;503;100 mA
31.8998989194605;-0.699615478515625;-0.145263671875;5.02999998730047;504;100 mA
31.9098989194352;-0.69964599609375;-0.143585205078125;5.03999998727522;505;100 mA
31.91989891941;-0.69964599609375;-0.144073486328125;5.04999998724998;506;100 mA
31.9298989193848;-0.6995849609375;-0.144317626953125;5.05999998722473;507;100 mA
31.9398989193595;-0.6995849609375;-0.143157958984375;5.06999998719948;508;100 mA
31.9498989193343;-0.6995849609375;-0.1436767578125;5.07999998717423;509;100 mA
31.959898919309;-0.6995849609375;-0.14300537109375;5.08999998714899;510;100 mA
31.9698989192838;-0.6995849609375;-0.143096923828125;5.09999998712374;511;100 mA
31.9798989192585;-0.699554443359375;-0.142364501953125;5.10999998709849;512;100 mA
31.9898989192333;-0.69952392578125;-0.141510009765625;5.11999998707324;513;100 mA
31.999898919208;-0.69964599609375;-0.14202880859375;5.129999987048;514;100 mA
32.0098989191828;-0.699676513671875;-0.14129638671875;5.13999998702275;515;100 mA
32.0198989191575;-0.699615478515625;-0.143310546875;5.1499999869975;516;100 mA
32.0298989191323;-0.6995849609375;-0.1431884765625;5.15999998697225;517;100 mA
32.039898919107;-0.699554443359375;-0.1435546875;5.169999986947;518;100 mA
32.0498989190818;-0.699615478515625;-0.144378662109375;5.17999998692176;519;100 mA
32.0598989190565;-0.6995849609375;-0.144256591796875;5.18999998689651;520;100 mA
32.0698989190313;-0.69952392578125;-0.14501953125;5.19999998687126;521;100 mA
32.079898919006;-0.6995849609375;-0.144805908203125;5.20999998684601;522;100 mA
32.0898989189808;-0.699554443359375;-0.14520263671875;5.21999998682077;523;100 mA
32.0998989189555;-0.6995849609375;-0.144866943359375;5.22999998679552;524;100 mA
32.1098989189303;-0.699554443359375;-0.14410400390625;5.23999998677027;525;100 mA
32.1198989189051;-0.699615478515625;-0.144439697265625;5.24999998674502;526;100 mA
32.1298989188798;-0.69964599609375;-0.143798828125;5.25999998671978;527;100 mA
32.1398989188546;-0.699676513671875;-0.144927978515625;5.26999998669453;528;100 mA
32.1498989188293;-0.699615478515625;-0.144683837890625;5.27999998666928;529;100 mA
32.1598989188041;-0.699615478515625;-0.1456298828125;5.28999998664403;530;100 mA
32.1698989187788;-0.6995849609375;-0.146392822265625;5.29999998661879;531;100 mA
32.1798989187536;-0.699615478515625;-0.145233154296875;5.30999998659354;532;100 mA
32.1898989187283;-0.699554443359375;-0.145965576171875;5.31999998656829;533;100 mA
32.1998989187031;-0.6995849609375;-0.144989013671875;5.32999998654304;534;100 mA
32.2098989186778;-0.6995849609375;-0.1466064453125;5.3399999865178;535;100 mA
32.2198989186526;-0.699615478515625;-0.1470947265625;5.34999998649255;536;100 mA
32.2298989186273;-0.6995849609375;-0.147247314453125;5.3599999864673;537;100 mA
32.2398989186021;-0.6995849609375;-0.147125244140625;5.36999998644205;538;100 mA
32.2498989185768;-0.69964599609375;-0.145721435546875;5.37999998641681;539;100 mA
32.2598989185516;-0.699615478515625;-0.146392822265625;5.38999998639156;540;100 mA
32.2698989185263;-0.699554443359375;-0.145843505859375;5.39999998636631;541;100 mA
32.2798989185011;-0.699615478515625;-0.146820068359375;5.40999998634106;542;100 mA
32.2898989184758;-0.6995849609375;-0.1468505859375;5.41999998631582;543;100 mA
32.2998989184506;-0.69952392578125;-0.145904541015625;5.42999998629057;544;100 mA
32.3098989184253;-0.699554443359375;-0.14691162109375;5.43999998626532;545;100 mA
32.3198989184001;-0.6995849609375;-0.145965576171875;5.44999998624007;546;100 mA
32.3298989183749;-0.699554443359375;-0.14703369140625;5.45999998621483;547;100 mA
32.3398989183496;-0.699554443359375;-0.1463623046875;5.46999998618958;548;100 mA
32.3498989183244;-0.69952392578125;-0.14605712890625;5.47999998616433;549;100 mA
32.3598989182991;-0.6995849609375;-0.146331787109375;5.48999998613908;550;100 mA
32.3698989182739;-0.699615478515625;-0.1448974609375;5.49999998611383;551;100 mA
32.3798989182486;-0.6995849609375;-0.146392822265625;5.50999998608859;552;100 mA
32.3898989182234;-0.69964599609375;-0.14666748046875;5.51999998606334;553;100 mA
32.3998989181981;-0.6995849609375;-0.14727783203125;5.52999998603809;554;100 mA
32.4098989181729;-0.699554443359375;-0.147247314453125;5.53999998601284;555;100 mA
32.4198989181476;-0.699554443359375;-0.145660400390625;5.5499999859876;556;100 mA
32.4298989181224;-0.6995849609375;-0.14642333984375;5.55999998596235;557;100 mA
32.4398989180971;-0.6995849609375;-0.1458740234375;5.5699999859371;558;100 mA
32.4498989180719;-0.699554443359375;-0.146636962890625;5.57999998591185;559;100 mA
32.4598989180466;-0.6995849609375;-0.145843505859375;5.58999998588661;560;100 mA
32.4698989180214;-0.69952392578125;-0.145172119140625;5.59999998586136;561;100 mA
32.4798989179961;-0.699615478515625;-0.145904541015625;5.60999998583611;562;100 mA
32.4898989179709;-0.69964599609375;-0.144378662109375;5.61999998581086;563;100 mA
32.4998989179456;-0.699615478515625;-0.14532470703125;5.62999998578562;564;100 mA
32.5098989179204;-0.6995849609375;-0.1448974609375;5.63999998576037;565;100 mA
32.5198989178951;-0.69952392578125;-0.14556884765625;5.64999998573512;566;100 mA
32.5298989178699;-0.6995849609375;-0.1461181640625;5.65999998570987;567;100 mA
32.5398989178447;-0.69952392578125;-0.14569091796875;5.66999998568463;568;100 mA
32.5498989178194;-0.69952392578125;-0.146331787109375;5.67999998565938;569;100 mA
32.5598989177942;-0.69964599609375;-0.14495849609375;5.68999998563413;570;100 mA
32.5698989177689;-0.6995849609375;-0.145355224609375;5.69999998560888;571;100 mA
32.5798989177437;-0.699615478515625;-0.145111083984375;5.70999998558364;572;100 mA
32.5898989177184;-0.6995849609375;-0.144775390625;5.71999998555839;573;100 mA
32.5998989176932;-0.699554443359375;-0.14569091796875;5.72999998553314;574;100 mA
32.6098989176679;-0.699615478515625;-0.144378662109375;5.73999998550789;575;100 mA
32.6198989176427;-0.6995849609375;-0.1455078125;5.74999998548265;576;100 mA
32.6298989176174;-0.6995849609375;-0.145660400390625;5.7599999854574;577;100 mA
32.6398989175922;-0.699554443359375;-0.146514892578125;5.76999998543215;578;100 mA
32.6498989175669;-0.699615478515625;-0.146728515625;5.7799999854069;579;100 mA
32.6598989175417;-0.699554443359375;-0.145263671875;5.78999998538166;580;100 mA
32.6698989175164;-0.699493408203125;-0.145782470703125;5.79999998535641;581;100 mA
32.6798989174912;-0.699615478515625;-0.143310546875;5.80999998533116;582;100 mA
32.6898989174659;-0.6995849609375;-0.143646240234375;5.81999998530591;583;100 mA
32.6998989174407;-0.699615478515625;-0.14324951171875;5.82999998528066;584;100 mA
32.7098989174154;-0.699554443359375;-0.143310546875;5.83999998525542;585;100 mA
32.7198989173902;-0.699615478515625;-0.144561767578125;5.84999998523017;586;100 mA
32.7298989173649;-0.699615478515625;-0.143646240234375;5.85999998520492;587;100 mA
32.7398989173397;-0.6995849609375;-0.144927978515625;5.86999998517967;588;100 mA
32.7498989173145;-0.699615478515625;-0.144927978515625;5.87999998515443;589;100 mA
32.7598989172892;-0.699615478515625;-0.1455078125;5.88999998512918;590;100 mA
32.769898917264;-0.6995849609375;-0.14630126953125;5.89999998510393;591;100 mA
32.7798989172387;-0.69952392578125;-0.14605712890625;5.90999998507868;592;100 mA
32.7898989172135;-0.699615478515625;-0.14776611328125;5.91999998505344;593;100 mA
32.7998989171882;-0.699615478515625;-0.14581298828125;5.92999998502819;594;100 mA
32.809898917163;-0.699615478515625;-0.14581298828125;5.93999998500294;595;100 mA
32.8198989171377;-0.699554443359375;-0.1456298828125;5.94999998497769;596;100 mA
32.8298989171125;-0.699554443359375;-0.14532470703125;5.95999998495245;597;100 mA
32.8398989170872;-0.699615478515625;-0.145721435546875;5.9699999849272;598;100 mA
32.849898917062;-0.699676513671875;-0.144500732421875;5.97999998490195;599;100 mA
32.8598989170367;-0.6995849609375;-0.145172119140625;5.9899999848767;600;100 mA
32.8698989170115;-0.699615478515625;-0.14410400390625;5.99999998485146;601;100 mA
32.8798989169862;-0.699554443359375;-0.144378662109375;6.00999998482621;602;100 mA
32.889898916961;-0.699615478515625;-0.144378662109375;6.01999998480096;603;100 mA
32.8998989169357;-0.699554443359375;-0.143310546875;6.02999998477571;604;100 mA
32.9098989169105;-0.699615478515625;-0.1446533203125;6.03999998475047;605;100 mA
32.9198989168852;-0.6995849609375;-0.1436767578125;6.04999998472522;606;100 mA
32.92989891686;-0.699554443359375;-0.14422607421875;6.05999998469997;607;100 mA
32.9398989168347;-0.6995849609375;-0.144683837890625;6.06999998467472;608;100 mA
32.9498989168095;-0.69952392578125;-0.1448974609375;6.07999998464948;609;100 mA
32.9598989167843;-0.6995849609375;-0.145111083984375;6.08999998462423;610;100 mA
32.969898916759;-0.6995849609375;-0.14324951171875;6.09999998459898;611;100 mA
32.9798989167338;-0.6995849609375;-0.144012451171875;6.10999998457373;612;100 mA
32.9898989167085;-0.69964599609375;-0.143310546875;6.11999998454849;613;100 mA
32.9998989166833;-0.699615478515625;-0.143463134765625;6.12999998452324;614;100 mA
33.009898916658;-0.699615478515625;-0.143646240234375;6.13999998449799;615;100 mA
33.0198989166328;-0.6995849609375;-0.142913818359375;6.14999998447274;616;100 mA
33.0298989166075;-0.6995849609375;-0.14398193359375;6.1599999844475;617;100 mA
33.0398989165823;-0.699554443359375;-0.143341064453125;6.16999998442225;618;100 mA
33.049898916557;-0.699554443359375;-0.143585205078125;6.179999984397;619;100 mA
33.0598989165318;-0.699615478515625;-0.143310546875;6.18999998437175;620;100 mA
33.0698989165065;-0.6995849609375;-0.142547607421875;6.1999999843465;621;100 mA
33.0798989164813;-0.69964599609375;-0.142852783203125;6.20999998432126;622;100 mA
33.089898916456;-0.699737548828125;-0.142059326171875;6.21999998429601;623;100 mA
33.0998989164308;-0.699554443359375;-0.1436767578125;6.22999998427076;624;100 mA
33.1098989164055;-0.699615478515625;-0.143402099609375;6.23999998424551;625;100 mA
33.1198989163803;-0.699554443359375;-0.1436767578125;6.24999998422027;626;100 mA
33.129898916355;-0.699554443359375;-0.1436767578125;6.25999998419502;627;100 mA
33.1398989163298;-0.6995849609375;-0.142578125;6.26999998416977;628;100 mA
33.1498989163046;-0.69964599609375;-0.1431884765625;6.27999998414452;629;100 mA
33.1598989162793;-0.699554443359375;-0.142333984375;6.28999998411928;630;100 mA
33.1698989162541;-0.69952392578125;-0.142730712890625;6.29999998409403;631;100 mA
33.1798989162288;-0.699615478515625;-0.142822265625;6.30999998406878;632;100 mA
33.1898989162036;-0.699676513671875;-0.14276123046875;6.31999998404353;633;100 mA
33.1998989161783;-0.6995849609375;-0.143463134765625;6.32999998401829;634;100 mA
33.2098989161531;-0.699615478515625;-0.14337158203125;6.33999998399304;635;100 mA
33.2198989161278;-0.69964599609375;-0.1446533203125;6.34999998396779;636;100 mA
33.2298989161026;-0.69964599609375;-0.144561767578125;6.35999998394254;637;100 mA
33.2398989160773;-0.699554443359375;-0.144378662109375;6.3699999839173;638;100 mA
33.2498989160521;-0.699615478515625;-0.144195556640625;6.37999998389205;639;100 mA
33.2598989160268;-0.6995849609375;-0.143524169921875;6.3899999838668;640;100 mA
33.2698989160016;-0.699554443359375;-0.144256591796875;6.39999998384155;641;100 mA
33.2798989159763;-0.699615478515625;-0.143218994140625;6.40999998381631;642;100 mA
33.2898989159511;-0.6995849609375;-0.144134521484375;6.41999998379106;643;100 mA
33.2998989159258;-0.699615478515625;-0.14373779296875;6.42999998376581;644;100 mA
33.3098989159006;-0.69952392578125;-0.143890380859375;6.43999998374056;645;100 mA
33.3198989158753;-0.699615478515625;-0.143890380859375;6.44999998371532;646;100 mA
33.3298989158501;-0.699615478515625;-0.142822265625;6.45999998369007;647;100 mA
33.3398989158248;-0.699493408203125;-0.1436767578125;6.46999998366482;648;100 mA
33.3498989157996;-0.6995849609375;-0.1434326171875;6.47999998363957;649;100 mA
33.3598989157744;-0.6995849609375;-0.1444091796875;6.48999998361433;650;100 mA
33.3698989157491;-0.6995849609375;-0.144805908203125;6.49999998358908;651;100 mA
33.3798989157239;-0.699615478515625;-0.144500732421875;6.50999998356383;652;100 mA
33.3898989156986;-0.6995849609375;-0.145111083984375;6.51999998353858;653;100 mA
33.3998989156734;-0.6995849609375;-0.143524169921875;6.52999998351333;654;100 mA
33.4098989156481;-0.699493408203125;-0.14471435546875;6.53999998348809;655;100 mA
33.4198989156229;-0.6995849609375;-0.144073486328125;6.54999998346284;656;100 mA
33.4298989155976;-0.6995849609375;-0.14361572265625;6.55999998343759;657;100 mA
33.4398989155724;-0.699493408203125;-0.143829345703125;6.56999998341234;658;100 mA
33.4498989155471;-0.699615478515625;-0.1422119140625;6.5799999833871;659;100 mA
33.4598989155219;-0.6995849609375;-0.143035888671875;6.58999998336185;660;100 mA
33.4698989154966;-0.69964599609375;-0.142120361328125;6.5999999833366;661;100 mA
33.4798989154714;-0.6995849609375;-0.141998291015625;6.60999998331135;662;100 mA
33.4898989154461;-0.6995849609375;-0.1427001953125;6.61999998328611;663;100 mA
33.4998989154209;-0.6995849609375;-0.142486572265625;6.62999998326086;664;100 mA
33.5098989153956;-0.69952392578125;-0.143035888671875;6.63999998323561;665;100 mA
33.5198989153704;-0.69964599609375;-0.1414794921875;6.64999998321036;666;100 mA
33.5298989153451;-0.6995849609375;-0.141815185546875;6.65999998318512;667;100 mA
33.5398989153199;-0.6995849609375;-0.1414794921875;6.66999998315987;668;100 mA
33.5498989152946;-0.6995849609375;-0.141510009765625;6.67999998313462;669;100 mA
33.5598989152694;-0.69964599609375;-0.141998291015625;6.68999998310937;670;100 mA
33.5698989152442;-0.6995849609375;-0.142547607421875;6.69999998308413;671;100 mA
33.5798989152189;-0.69952392578125;-0.144927978515625;6.70999998305888;672;100 mA
33.5898989151937;-0.6995849609375;-0.144805908203125;6.71999998303363;673;100 mA
33.5998989151684;-0.699554443359375;-0.144927978515625;6.72999998300838;674;100 mA
33.6098989151432;-0.699554443359375;-0.14453125;6.73999998298314;675;100 mA
33.6198989151179;-0.6995849609375;-0.14349365234375;6.74999998295789;676;100 mA
33.6298989150927;-0.699554443359375;-0.144378662109375;6.75999998293264;677;100 mA
33.6398989150674;-0.699615478515625;-0.14300537109375;6.76999998290739;678;100 mA
33.6498989150422;-0.699554443359375;-0.1441650390625;6.77999998288215;679;100 mA
33.6598989150169;-0.699554443359375;-0.143707275390625;6.7899999828569;680;100 mA
33.6698989149917;-0.699554443359375;-0.1434326171875;6.79999998283165;681;100 mA
33.6798989149664;-0.6995849609375;-0.144073486328125;6.8099999828064;682;100 mA
33.6898989149412;-0.6995849609375;-0.14276123046875;6.81999998278116;683;100 mA
33.6998989149159;-0.699615478515625;-0.14361572265625;6.82999998275591;684;100 mA
33.7098989148907;-0.699615478515625;-0.14306640625;6.83999998273066;685;100 mA
33.7198989148654;-0.699615478515625;-0.14324951171875;6.84999998270541;686;100 mA
33.7298989148402;-0.699554443359375;-0.144012451171875;6.85999998268016;687;100 mA
33.7398989148149;-0.6995849609375;-0.143463134765625;6.86999998265492;688;100 mA
33.7498989147897;-0.69952392578125;-0.14404296875;6.87999998262967;689;100 mA
33.7598989147644;-0.699615478515625;-0.142578125;6.88999998260442;690;100 mA
33.7698989147392;-0.6995849609375;-0.143463134765625;6.89999998257917;691;100 mA
33.779898914714;-0.699554443359375;-0.142822265625;6.90999998255393;692;100 mA
33.7898989146887;-0.69952392578125;-0.142364501953125;6.91999998252868;693;100 mA
33.7998989146635;-0.699615478515625;-0.14312744140625;6.92999998250343;694;100 mA
33.8098989146382;-0.69964599609375;-0.14202880859375;6.93999998247818;695;100 mA
33.819898914613;-0.6995849609375;-0.142608642578125;6.94999998245294;696;100 mA
33.8298989145877;-0.699554443359375;-0.142059326171875;6.95999998242769;697;100 mA
33.8398989145625;-0.699615478515625;-0.142791748046875;6.96999998240244;698;100 mA
33.8498989145372;-0.6995849609375;-0.143218994140625;6.97999998237719;699;100 mA
33.859898914512;-0.699554443359375;-0.14239501953125;6.98999998235195;700;100 mA
