Time (s);WE(1).Potential (V);WE(1).Current (A);Corrected time (s);Index;Current range
49.504166875014;-0.8001708984375;-0.32281494140625;0;1;100 mA
49.5141668749887;-0.79925537109375;-0.24835205078125;0.00999999997475243;2;100 mA
49.5241668749635;-0.79986572265625;-0.218963623046875;0.0199999999495049;3;100 mA
49.5341668749383;-0.79986572265625;-0.198944091796875;0.0299999999242573;4;100 mA
49.544166874913;-0.79986572265625;-0.189910888671875;0.0399999998990097;5;100 mA
49.5541668748878;-0.79986572265625;-0.1839599609375;0.0499999998737621;6;100 mA
49.5641668748625;-0.79986572265625;-0.17926025390625;0.0599999998485146;7;100 mA
49.5741668748373;-0.799560546875;-0.178497314453125;0.069999999823267;8;100 mA
49.584166874812;-0.799560546875;-0.173980712890625;0.0799999997980194;9;100 mA
49.5941668747868;-0.799560546875;-0.1749267578125;0.0899999997727718;10;100 mA
49.6041668747615;-0.79925537109375;-0.17376708984375;0.0999999997475243;11;100 mA
49.6141668747363;-0.799560546875;-0.173187255859375;0.109999999722277;12;100 mA
49.624166874711;-0.799560546875;-0.171417236328125;0.119999999697029;13;100 mA
49.6341668746858;-0.79986572265625;-0.17144775390625;0.129999999671782;14;100 mA
49.6441668746605;-0.799560546875;-0.172515869140625;0.139999999646534;15;100 mA
49.6541668746353;-0.79986572265625;-0.168853759765625;0.149999999621286;16;100 mA
49.66416687461;-0.79986572265625;-0.16998291015625;0.159999999596039;17;100 mA
49.6741668745848;-0.799560546875;-0.167755126953125;0.169999999570791;18;100 mA
49.6841668745595;-0.7989501953125;-0.169158935546875;0.179999999545544;19;100 mA
49.6941668745343;-0.799560546875;-0.168426513671875;0.189999999520296;20;100 mA
49.704166874509;-0.799560546875;-0.166259765625;0.199999999495049;21;100 mA
49.7141668744838;-0.79986572265625;-0.171417236328125;0.209999999469801;22;100 mA
49.7241668744585;-0.79925537109375;-0.169586181640625;0.219999999444553;23;100 mA
49.7341668744333;-0.79986572265625;-0.16925048828125;0.229999999419306;24;100 mA
49.7441668744081;-0.79925537109375;-0.170257568359375;0.239999999394058;25;100 mA
49.7541668743828;-0.79986572265625;-0.16876220703125;0.249999999368811;26;100 mA
49.7641668743576;-0.799560546875;-0.17095947265625;0.259999999343563;27;100 mA
49.7741668743323;-0.79986572265625;-0.1671142578125;0.269999999318316;28;100 mA
49.7841668743071;-0.799560546875;-0.168670654296875;0.279999999293068;29;100 mA
49.7941668742818;-0.799560546875;-0.16650390625;0.28999999926782;30;100 mA
49.8041668742566;-0.79986572265625;-0.166168212890625;0.299999999242573;31;100 mA
49.8141668742313;-0.799560546875;-0.165496826171875;0.309999999217325;32;100 mA
49.8241668742061;-0.79925537109375;-0.163726806640625;0.319999999192078;33;100 mA
49.8341668741808;-0.799560546875;-0.168121337890625;0.32999999916683;34;100 mA
49.8441668741556;-0.79925537109375;-0.167877197265625;0.339999999141583;35;100 mA
49.8541668741303;-0.799560546875;-0.167633056640625;0.349999999116335;36;100 mA
49.8641668741051;-0.79986572265625;-0.167205810546875;0.359999999091087;37;100 mA
49.8741668740798;-0.79986572265625;-0.167083740234375;0.36999999906584;38;100 mA
49.8841668740546;-0.799560546875;-0.16802978515625;0.379999999040592;39;100 mA
49.8941668740293;-0.79925537109375;-0.165985107421875;0.389999999015345;40;100 mA
49.9041668740041;-0.799560546875;-0.16766357421875;0.399999998990097;41;100 mA
49.9141668739788;-0.79925537109375;-0.166290283203125;0.40999999896485;42;100 mA
49.9241668739536;-0.799560546875;-0.164764404296875;0.419999998939602;43;100 mA
49.9341668739283;-0.7989501953125;-0.165618896484375;0.429999998914354;44;100 mA
49.9441668739031;-0.799560546875;-0.16314697265625;0.439999998889107;45;100 mA
49.9541668738779;-0.79925537109375;-0.16558837890625;0.449999998863859;46;100 mA
49.9641668738526;-0.799560546875;-0.1644287109375;0.459999998838612;47;100 mA
49.9741668738274;-0.79925537109375;-0.163177490234375;0.469999998813364;48;100 mA
49.9841668738021;-0.799560546875;-0.163787841796875;0.479999998788116;49;100 mA
49.9941668737769;-0.8001708984375;-0.165496826171875;0.489999998762869;50;100 mA
50.0041668737516;-0.79986572265625;-0.166473388671875;0.499999998737621;51;100 mA
50.0141668737264;-0.799560546875;-0.16314697265625;0.509999998712374;52;100 mA
50.0241668737011;-0.79986572265625;-0.1646728515625;0.519999998687126;53;100 mA
50.0341668736759;-0.799560546875;-0.164215087890625;0.529999998661879;54;100 mA
50.0441668736506;-0.8001708984375;-0.163177490234375;0.539999998636631;55;100 mA
50.0541668736254;-0.79925537109375;-0.1649169921875;0.549999998611383;56;100 mA
50.0641668736001;-0.8001708984375;-0.162841796875;0.559999998586136;57;100 mA
50.0741668735749;-0.79986572265625;-0.16424560546875;0.569999998560888;58;100 mA
50.0841668735496;-0.79986572265625;-0.16253662109375;0.579999998535641;59;100 mA
50.0941668735244;-0.79925537109375;-0.16436767578125;0.589999998510393;60;100 mA
50.1041668734991;-0.799560546875;-0.166259765625;0.599999998485146;61;100 mA
50.1141668734739;-0.79925537109375;-0.165618896484375;0.609999998459898;62;100 mA
50.1241668734486;-0.79925537109375;-0.168304443359375;0.61999999843465;63;100 mA
50.1341668734234;-0.79986572265625;-0.165496826171875;0.629999998409403;64;100 mA
50.1441668733981;-0.8001708984375;-0.166961669921875;0.639999998384155;65;100 mA
50.1541668733729;-0.799560546875;-0.1650390625;0.649999998358908;66;100 mA
50.1641668733477;-0.79986572265625;-0.1651611328125;0.65999999833366;67;100 mA
50.1741668733224;-0.79986572265625;-0.16571044921875;0.669999998308413;68;100 mA
50.1841668732972;-0.799560546875;-0.164031982421875;0.679999998283165;69;100 mA
50.1941668732719;-0.799560546875;-0.16632080078125;0.689999998257917;70;100 mA
50.2041668732467;-0.799560546875;-0.16644287109375;0.69999999823267;71;100 mA
50.2141668732214;-0.79925537109375;-0.166595458984375;0.709999998207422;72;100 mA
50.2241668731962;-0.799560546875;-0.1669921875;0.719999998182175;73;100 mA
50.2341668731709;-0.79925537109375;-0.16485595703125;0.729999998156927;74;100 mA
50.2441668731457;-0.79925537109375;-0.1656494140625;0.73999999813168;75;100 mA
50.2541668731204;-0.799560546875;-0.16351318359375;0.749999998106432;76;100 mA
50.2641668730952;-0.79925537109375;-0.163665771484375;0.759999998081184;77;100 mA
50.2741668730699;-0.799560546875;-0.162109375;0.769999998055937;78;100 mA
50.2841668730447;-0.799560546875;-0.161163330078125;0.779999998030689;79;100 mA
50.2941668730194;-0.799560546875;-0.1614990234375;0.789999998005442;80;100 mA
50.3041668729942;-0.799560546875;-0.160797119140625;0.799999997980194;81;100 mA
50.3141668729689;-0.799560546875;-0.16314697265625;0.809999997954947;82;100 mA
50.3241668729437;-0.7989501953125;-0.161224365234375;0.819999997929699;83;100 mA
50.3341668729184;-0.79925537109375;-0.162017822265625;0.829999997904451;84;100 mA
50.3441668728932;-0.799560546875;-0.162750244140625;0.839999997879204;85;100 mA
50.3541668728679;-0.79986572265625;-0.162689208984375;0.849999997853956;86;100 mA
50.3641668728427;-0.799560546875;-0.16387939453125;0.859999997828709;87;100 mA
50.3741668728175;-0.799560546875;-0.162933349609375;0.869999997803461;88;100 mA
50.3841668727922;-0.79986572265625;-0.16546630859375;0.879999997778214;89;100 mA
50.394166872767;-0.79986572265625;-0.166229248046875;0.889999997752966;90;100 mA
50.4041668727417;-0.79986572265625;-0.164306640625;0.899999997727718;91;100 mA
50.4141668727165;-0.799560546875;-0.16473388671875;0.909999997702471;92;100 mA
50.4241668726912;-0.79925537109375;-0.163726806640625;0.919999997677223;93;100 mA
50.434166872666;-0.799560546875;-0.16455078125;0.929999997651976;94;100 mA
50.4441668726407;-0.79986572265625;-0.161529541015625;0.939999997626728;95;100 mA
50.4541668726155;-0.79925537109375;-0.162872314453125;0.949999997601481;96;100 mA
50.4641668725902;-0.79925537109375;-0.162506103515625;0.959999997576233;97;100 mA
50.474166872565;-0.799560546875;-0.16192626953125;0.969999997550985;98;100 mA
50.4841668725397;-0.79986572265625;-0.163543701171875;0.979999997525738;99;100 mA
50.4941668725145;-0.8001708984375;-0.160308837890625;0.98999999750049;100;100 mA
50.5041668724892;-0.79986572265625;-0.161224365234375;0.999999997475243;101;100 mA
50.514166872464;-0.799560546875;-0.162322998046875;1.00999999745;102;100 mA
50.5241668724387;-0.799560546875;-0.163421630859375;1.01999999742475;103;100 mA
50.5341668724135;-0.799560546875;-0.165130615234375;1.0299999973995;104;100 mA
50.5441668723882;-0.799560546875;-0.163604736328125;1.03999999737425;105;100 mA
50.554166872363;-0.79925537109375;-0.1634521484375;1.049999997349;106;100 mA
50.5641668723378;-0.79925537109375;-0.160888671875;1.05999999732376;107;100 mA
50.5741668723125;-0.799560546875;-0.161468505859375;1.06999999729851;108;100 mA
50.5841668722873;-0.79986572265625;-0.162200927734375;1.07999999727326;109;100 mA
50.594166872262;-0.799560546875;-0.160614013671875;1.08999999724801;110;100 mA
50.6041668722368;-0.799560546875;-0.16351318359375;1.09999999722277;111;100 mA
50.6141668722115;-0.7989501953125;-0.1614990234375;1.10999999719752;112;100 mA
50.6241668721863;-0.79925537109375;-0.162353515625;1.11999999717227;113;100 mA
50.634166872161;-0.7989501953125;-0.16107177734375;1.12999999714702;114;100 mA
50.6441668721358;-0.799560546875;-0.16058349609375;1.13999999712178;115;100 mA
50.6541668721105;-0.79986572265625;-0.16162109375;1.14999999709653;116;100 mA
50.6641668720853;-0.799560546875;-0.159210205078125;1.15999999707128;117;100 mA
50.67416687206;-0.8001708984375;-0.16021728515625;1.16999999704603;118;100 mA
50.6841668720348;-0.79986572265625;-0.1588134765625;1.17999999702079;119;100 mA
50.6941668720095;-0.79925537109375;-0.158782958984375;1.18999999699554;120;100 mA
50.7041668719843;-0.79986572265625;-0.158447265625;1.19999999697029;121;100 mA
50.714166871959;-0.8001708984375;-0.158416748046875;1.20999999694504;122;100 mA
50.7241668719338;-0.79986572265625;-0.1600341796875;1.2199999969198;123;100 mA
50.7341668719085;-0.79925537109375;-0.159454345703125;1.22999999689455;124;100 mA
50.7441668718833;-0.79986572265625;-0.15960693359375;1.2399999968693;125;100 mA
50.754166871858;-0.79986572265625;-0.15875244140625;1.24999999684405;126;100 mA
50.7641668718328;-0.799560546875;-0.159271240234375;1.25999999681881;127;100 mA
50.7741668718076;-0.799560546875;-0.159912109375;1.26999999679356;128;100 mA
50.7841668717823;-0.7989501953125;-0.15777587890625;1.27999999676831;129;100 mA
50.7941668717571;-0.8001708984375;-0.158294677734375;1.28999999674306;130;100 mA
50.8041668717318;-0.799560546875;-0.1575927734375;1.29999999671782;131;100 mA
50.8141668717066;-0.799560546875;-0.158355712890625;1.30999999669257;132;100 mA
50.8241668716813;-0.799560546875;-0.158843994140625;1.31999999666732;133;100 mA
50.8341668716561;-0.799560546875;-0.158172607421875;1.32999999664207;134;100 mA
50.8441668716308;-0.79925537109375;-0.160400390625;1.33999999661683;135;100 mA
50.8541668716056;-0.799560546875;-0.157958984375;1.34999999659158;136;100 mA
50.8641668715803;-0.799560546875;-0.159423828125;1.35999999656633;137;100 mA
50.8741668715551;-0.799560546875;-0.16033935546875;1.36999999654108;138;100 mA
50.8841668715298;-0.799560546875;-0.160888671875;1.37999999651583;139;100 mA
50.8941668715046;-0.79925537109375;-0.1627197265625;1.38999999649059;140;100 mA
50.9041668714793;-0.79925537109375;-0.160980224609375;1.39999999646534;141;100 mA
50.9141668714541;-0.799560546875;-0.16168212890625;1.40999999644009;142;100 mA
50.9241668714288;-0.799560546875;-0.159576416015625;1.41999999641484;143;100 mA
50.9341668714036;-0.799560546875;-0.158294677734375;1.4299999963896;144;100 mA
50.9441668713783;-0.799560546875;-0.157623291015625;1.43999999636435;145;100 mA
50.9541668713531;-0.79986572265625;-0.157196044921875;1.4499999963391;146;100 mA
50.9641668713278;-0.79925537109375;-0.15936279296875;1.45999999631385;147;100 mA
50.9741668713026;-0.79925537109375;-0.158447265625;1.46999999628861;148;100 mA
50.9841668712774;-0.799560546875;-0.158782958984375;1.47999999626336;149;100 mA
50.9941668712521;-0.79864501953125;-0.158111572265625;1.48999999623811;150;100 mA
51.0041668712269;-0.79925537109375;-0.15924072265625;1.49999999621286;151;100 mA
51.0141668712016;-0.79986572265625;-0.159423828125;1.50999999618762;152;100 mA
51.0241668711764;-0.799560546875;-0.157257080078125;1.51999999616237;153;100 mA
51.0341668711511;-0.799560546875;-0.157501220703125;1.52999999613712;154;100 mA
51.0441668711259;-0.79925537109375;-0.15576171875;1.53999999611187;155;100 mA
51.0541668711006;-0.79986572265625;-0.155853271484375;1.54999999608663;156;100 mA
51.0641668710754;-0.79925537109375;-0.155303955078125;1.55999999606138;157;100 mA
51.0741668710501;-0.799560546875;-0.154876708984375;1.56999999603613;158;100 mA
51.0841668710249;-0.799560546875;-0.157012939453125;1.57999999601088;159;100 mA
51.0941668709996;-0.79925537109375;-0.157012939453125;1.58999999598564;160;100 mA
51.1041668709744;-0.799560546875;-0.1573486328125;1.59999999596039;161;100 mA
51.1141668709491;-0.79986572265625;-0.156494140625;1.60999999593514;162;100 mA
51.1241668709239;-0.799560546875;-0.155242919921875;1.61999999590989;163;100 mA
51.1341668708986;-0.799560546875;-0.15484619140625;1.62999999588465;164;100 mA
51.1441668708734;-0.79986572265625;-0.154571533203125;1.6399999958594;165;100 mA
51.1541668708481;-0.799560546875;-0.156524658203125;1.64999999583415;166;100 mA
51.1641668708229;-0.79986572265625;-0.15631103515625;1.6599999958089;167;100 mA
51.1741668707976;-0.799560546875;-0.156402587890625;1.66999999578366;168;100 mA
51.1841668707724;-0.79925537109375;-0.156158447265625;1.67999999575841;169;100 mA
51.1941668707472;-0.79925537109375;-0.156463623046875;1.68999999573316;170;100 mA
51.2041668707219;-0.799560546875;-0.15789794921875;1.69999999570791;171;100 mA
51.2141668706967;-0.79986572265625;-0.1575927734375;1.70999999568267;172;100 mA
51.2241668706714;-0.799560546875;-0.157440185546875;1.71999999565742;173;100 mA
51.2341668706462;-0.79986572265625;-0.15814208984375;1.72999999563217;174;100 mA
51.2441668706209;-0.79925537109375;-0.159271240234375;1.73999999560692;175;100 mA
51.2541668705957;-0.79925537109375;-0.16015625;1.74999999558167;176;100 mA
51.2641668705704;-0.79925537109375;-0.15924072265625;1.75999999555643;177;100 mA
51.2741668705452;-0.7989501953125;-0.15948486328125;1.76999999553118;178;100 mA
51.2841668705199;-0.79986572265625;-0.15728759765625;1.77999999550593;179;100 mA
51.2941668704947;-0.79986572265625;-0.15740966796875;1.78999999548068;180;100 mA
51.3041668704694;-0.79925537109375;-0.15533447265625;1.79999999545544;181;100 mA
51.3141668704442;-0.79986572265625;-0.155059814453125;1.80999999543019;182;100 mA
51.3241668704189;-0.79986572265625;-0.158905029296875;1.81999999540494;183;100 mA
51.3341668703937;-0.8001708984375;-0.156768798828125;1.82999999537969;184;100 mA
51.3441668703684;-0.79986572265625;-0.156707763671875;1.83999999535445;185;100 mA
51.3541668703432;-0.799560546875;-0.156463623046875;1.8499999953292;186;100 mA
51.3641668703179;-0.799560546875;-0.15716552734375;1.85999999530395;187;100 mA
51.3741668702927;-0.79925537109375;-0.157318115234375;1.8699999952787;188;100 mA
51.3841668702674;-0.799560546875;-0.15576171875;1.87999999525346;189;100 mA
51.3941668702422;-0.799560546875;-0.15673828125;1.88999999522821;190;100 mA
51.404166870217;-0.79925537109375;-0.15618896484375;1.89999999520296;191;100 mA
51.4141668701917;-0.799560546875;-0.156097412109375;1.90999999517771;192;100 mA
51.4241668701665;-0.79925537109375;-0.15740966796875;1.91999999515247;193;100 mA
51.4341668701412;-0.79986572265625;-0.157745361328125;1.92999999512722;194;100 mA
51.444166870116;-0.799560546875;-0.158538818359375;1.93999999510197;195;100 mA
51.4541668700907;-0.799560546875;-0.156646728515625;1.94999999507672;196;100 mA
51.4641668700655;-0.799560546875;-0.157257080078125;1.95999999505148;197;100 mA
51.4741668700402;-0.79925537109375;-0.157440185546875;1.96999999502623;198;100 mA
51.484166870015;-0.799560546875;-0.156707763671875;1.97999999500098;199;100 mA
51.4941668699897;-0.7989501953125;-0.156646728515625;1.98999999497573;200;100 mA
51.5041668699645;-0.79986572265625;-0.1552734375;1.99999999495049;201;100 mA
51.5141668699392;-0.799560546875;-0.15753173828125;2.00999999492524;202;100 mA
51.524166869914;-0.799560546875;-0.156768798828125;2.01999999489999;203;100 mA
51.5341668698887;-0.79925537109375;-0.156982421875;2.02999999487474;204;100 mA
51.5441668698635;-0.79986572265625;-0.15777587890625;2.0399999948495;205;100 mA
51.5541668698382;-0.79925537109375;-0.156951904296875;2.04999999482425;206;100 mA
51.564166869813;-0.7989501953125;-0.157012939453125;2.059999994799;207;100 mA
51.5741668697877;-0.799560546875;-0.1553955078125;2.06999999477375;208;100 mA
51.5841668697625;-0.799560546875;-0.156402587890625;2.0799999947485;209;100 mA
51.5941668697373;-0.799560546875;-0.15582275390625;2.08999999472326;210;100 mA
51.604166869712;-0.79986572265625;-0.156646728515625;2.09999999469801;211;100 mA
51.6141668696868;-0.79986572265625;-0.157806396484375;2.10999999467276;212;100 mA
51.6241668696615;-0.79925537109375;-0.156585693359375;2.11999999464751;213;100 mA
51.6341668696363;-0.79925537109375;-0.158447265625;2.12999999462227;214;100 mA
51.644166869611;-0.799560546875;-0.15625;2.13999999459702;215;100 mA
51.6541668695858;-0.799560546875;-0.154937744140625;2.14999999457177;216;100 mA
51.6641668695605;-0.799560546875;-0.155242919921875;2.15999999454652;217;100 mA
51.6741668695353;-0.799560546875;-0.154449462890625;2.16999999452128;218;100 mA
51.68416686951;-0.79925537109375;-0.156646728515625;2.17999999449603;219;100 mA
51.6941668694848;-0.79925537109375;-0.1552734375;2.18999999447078;220;100 mA
51.7041668694595;-0.79925537109375;-0.15594482421875;2.19999999444553;221;100 mA
51.7141668694343;-0.79925537109375;-0.155609130859375;2.20999999442029;222;100 mA
51.724166869409;-0.799560546875;-0.15472412109375;2.21999999439504;223;100 mA
51.7341668693838;-0.79925537109375;-0.15484619140625;2.22999999436979;224;100 mA
51.7441668693585;-0.799560546875;-0.15582275390625;2.23999999434454;225;100 mA
51.7541668693333;-0.79925537109375;-0.15771484375;2.2499999943193;226;100 mA
51.764166869308;-0.79986572265625;-0.156219482421875;2.25999999429405;227;100 mA
51.7741668692828;-0.79986572265625;-0.156005859375;2.2699999942688;228;100 mA
51.7841668692575;-0.79986572265625;-0.1563720703125;2.27999999424355;229;100 mA
51.7941668692323;-0.799560546875;-0.155517578125;2.28999999421831;230;100 mA
51.8041668692071;-0.799560546875;-0.1561279296875;2.29999999419306;231;100 mA
51.8141668691818;-0.79986572265625;-0.15374755859375;2.30999999416781;232;100 mA
51.8241668691566;-0.799560546875;-0.154388427734375;2.31999999414256;233;100 mA
51.8341668691313;-0.799560546875;-0.15399169921875;2.32999999411732;234;100 mA
51.8441668691061;-0.79925537109375;-0.153900146484375;2.33999999409207;235;100 mA
51.8541668690808;-0.799560546875;-0.1541748046875;2.34999999406682;236;100 mA
51.8641668690556;-0.799560546875;-0.15179443359375;2.35999999404157;237;100 mA
51.8741668690303;-0.799560546875;-0.1529541015625;2.36999999401633;238;100 mA
51.8841668690051;-0.799560546875;-0.151031494140625;2.37999999399108;239;100 mA
51.8941668689798;-0.799560546875;-0.15191650390625;2.38999999396583;240;100 mA
51.9041668689546;-0.79925537109375;-0.152496337890625;2.39999999394058;241;100 mA
51.9141668689293;-0.799560546875;-0.1519775390625;2.40999999391533;242;100 mA
51.9241668689041;-0.79986572265625;-0.153076171875;2.41999999389009;243;100 mA
51.9341668688788;-0.79925537109375;-0.151824951171875;2.42999999386484;244;100 mA
51.9441668688536;-0.79925537109375;-0.15289306640625;2.43999999383959;245;100 mA
51.9541668688283;-0.79925537109375;-0.151763916015625;2.44999999381434;246;100 mA
51.9641668688031;-0.799560546875;-0.151947021484375;2.4599999937891;247;100 mA
51.9741668687778;-0.799560546875;-0.152618408203125;2.46999999376385;248;100 mA
51.9841668687526;-0.79986572265625;-0.151092529296875;2.4799999937386;249;100 mA
51.9941668687273;-0.7989501953125;-0.151947021484375;2.48999999371335;250;100 mA
52.0041668687021;-0.799560546875;-0.150665283203125;2.49999999368811;251;100 mA
52.0141668686769;-0.799560546875;-0.151611328125;2.50999999366286;252;100 mA
52.0241668686516;-0.799560546875;-0.1529541015625;2.51999999363761;253;100 mA
52.0341668686264;-0.79986572265625;-0.15228271484375;2.52999999361236;254;100 mA
52.0441668686011;-0.79925537109375;-0.15350341796875;2.53999999358712;255;100 mA
52.0541668685759;-0.79925537109375;-0.151092529296875;2.54999999356187;256;100 mA
52.0641668685506;-0.799560546875;-0.150787353515625;2.55999999353662;257;100 mA
52.0741668685254;-0.799560546875;-0.15020751953125;2.56999999351137;258;100 mA
52.0841668685001;-0.799560546875;-0.149627685546875;2.57999999348613;259;100 mA
52.0941668684749;-0.79986572265625;-0.14971923828125;2.58999999346088;260;100 mA
52.1041668684496;-0.79986572265625;-0.14935302734375;2.59999999343563;261;100 mA
52.1141668684244;-0.79925537109375;-0.151580810546875;2.60999999341038;262;100 mA
52.1241668683991;-0.79986572265625;-0.152313232421875;2.61999999338514;263;100 mA
52.1341668683739;-0.799560546875;-0.154296875;2.62999999335989;264;100 mA
52.1441668683486;-0.79925537109375;-0.15380859375;2.63999999333464;265;100 mA
52.1541668683234;-0.7989501953125;-0.1527099609375;2.64999999330939;266;100 mA
52.1641668682981;-0.799560546875;-0.154205322265625;2.65999999328415;267;100 mA
52.1741668682729;-0.799560546875;-0.1527099609375;2.6699999932589;268;100 mA
52.1841668682476;-0.79986572265625;-0.1536865234375;2.67999999323365;269;100 mA
52.1941668682224;-0.79986572265625;-0.15228271484375;2.6899999932084;270;100 mA
52.2041668681971;-0.799560546875;-0.15130615234375;2.69999999318316;271;100 mA
52.2141668681719;-0.799560546875;-0.1517333984375;2.70999999315791;272;100 mA
52.2241668681467;-0.799560546875;-0.15057373046875;2.71999999313266;273;100 mA
52.2341668681214;-0.79986572265625;-0.152191162109375;2.72999999310741;274;100 mA
52.2441668680962;-0.79925537109375;-0.151336669921875;2.73999999308217;275;100 mA
52.2541668680709;-0.799560546875;-0.151763916015625;2.74999999305692;276;100 mA
52.2641668680457;-0.79925537109375;-0.15191650390625;2.75999999303167;277;100 mA
52.2741668680204;-0.79925537109375;-0.150390625;2.76999999300642;278;100 mA
52.2841668679952;-0.799560546875;-0.151824951171875;2.77999999298117;279;100 mA
52.2941668679699;-0.799560546875;-0.1512451171875;2.78999999295593;280;100 mA
52.3041668679447;-0.7989501953125;-0.15185546875;2.79999999293068;281;100 mA
52.3141668679194;-0.799560546875;-0.15155029296875;2.80999999290543;282;100 mA
52.3241668678942;-0.79925537109375;-0.150848388671875;2.81999999288018;283;100 mA
52.3341668678689;-0.799560546875;-0.150787353515625;2.82999999285494;284;100 mA
52.3441668678437;-0.79986572265625;-0.149566650390625;2.83999999282969;285;100 mA
52.3541668678184;-0.799560546875;-0.149993896484375;2.84999999280444;286;100 mA
52.3641668677932;-0.79925537109375;-0.150604248046875;2.85999999277919;287;100 mA
52.3741668677679;-0.79925537109375;-0.151580810546875;2.86999999275395;288;100 mA
52.3841668677427;-0.8001708984375;-0.1522216796875;2.8799999927287;289;100 mA
52.3941668677174;-0.799560546875;-0.15167236328125;2.88999999270345;290;100 mA
52.4041668676922;-0.799560546875;-0.152374267578125;2.8999999926782;291;100 mA
52.4141668676669;-0.79986572265625;-0.15155029296875;2.90999999265296;292;100 mA
52.4241668676417;-0.79925537109375;-0.151702880859375;2.91999999262771;293;100 mA
52.4341668676165;-0.79925537109375;-0.149688720703125;2.92999999260246;294;100 mA
52.4441668675912;-0.799560546875;-0.149871826171875;2.93999999257721;295;100 mA
52.454166867566;-0.79986572265625;-0.151092529296875;2.94999999255197;296;100 mA
52.4641668675407;-0.79986572265625;-0.150848388671875;2.95999999252672;297;100 mA
52.4741668675155;-0.79925537109375;-0.152618408203125;2.96999999250147;298;100 mA
52.4841668674902;-0.799560546875;-0.150634765625;2.97999999247622;299;100 mA
52.494166867465;-0.79986572265625;-0.149566650390625;2.98999999245098;300;100 mA
52.5041668674397;-0.799560546875;-0.149383544921875;2.99999999242573;301;100 mA
52.5141668674145;-0.799560546875;-0.148956298828125;3.00999999240048;302;100 mA
52.5241668673892;-0.799560546875;-0.15093994140625;3.01999999237523;303;100 mA
52.534166867364;-0.799560546875;-0.149200439453125;3.02999999234999;304;100 mA
52.5441668673387;-0.799560546875;-0.149658203125;3.03999999232474;305;100 mA
52.5541668673135;-0.79925537109375;-0.15106201171875;3.04999999229949;306;100 mA
52.5641668672882;-0.79925537109375;-0.150054931640625;3.05999999227424;307;100 mA
52.574166867263;-0.79925537109375;-0.151702880859375;3.069999992249;308;100 mA
52.5841668672377;-0.7989501953125;-0.151763916015625;3.07999999222375;309;100 mA
52.5941668672125;-0.8001708984375;-0.152099609375;3.0899999921985;310;100 mA
52.6041668671872;-0.79925537109375;-0.15093994140625;3.09999999217325;311;100 mA
52.614166867162;-0.799560546875;-0.151763916015625;3.109999992148;312;100 mA
52.6241668671368;-0.79925537109375;-0.1513671875;3.11999999212276;313;100 mA
52.6341668671115;-0.79986572265625;-0.1502685546875;3.12999999209751;314;100 mA
52.6441668670863;-0.799560546875;-0.151397705078125;3.13999999207226;315;100 mA
52.654166867061;-0.79925537109375;-0.150115966796875;3.14999999204701;316;100 mA
52.6641668670358;-0.799560546875;-0.150665283203125;3.15999999202177;317;100 mA
52.6741668670105;-0.8001708984375;-0.150299072265625;3.16999999199652;318;100 mA
52.6841668669853;-0.799560546875;-0.1490478515625;3.17999999197127;319;100 mA
52.69416686696;-0.79925537109375;-0.150421142578125;3.18999999194602;320;100 mA
52.7041668669348;-0.79925537109375;-0.1495361328125;3.19999999192078;321;100 mA
52.7141668669095;-0.79925537109375;-0.149871826171875;3.20999999189553;322;100 mA
52.7241668668843;-0.79986572265625;-0.149169921875;3.21999999187028;323;100 mA
52.734166866859;-0.79986572265625;-0.148681640625;3.22999999184503;324;100 mA
52.7441668668338;-0.799560546875;-0.148956298828125;3.23999999181979;325;100 mA
52.7541668668085;-0.79925537109375;-0.148223876953125;3.24999999179454;326;100 mA
52.7641668667833;-0.79925537109375;-0.148651123046875;3.25999999176929;327;100 mA
52.774166866758;-0.8001708984375;-0.1484375;3.26999999174404;328;100 mA
52.7841668667328;-0.799560546875;-0.149444580078125;3.2799999917188;329;100 mA
52.7941668667075;-0.799560546875;-0.14947509765625;3.28999999169355;330;100 mA
52.8041668666823;-0.79925537109375;-0.14959716796875;3.2999999916683;331;100 mA
52.814166866657;-0.79986572265625;-0.15008544921875;3.30999999164305;332;100 mA
52.8241668666318;-0.79986572265625;-0.148193359375;3.31999999161781;333;100 mA
52.8341668666066;-0.79986572265625;-0.14947509765625;3.32999999159256;334;100 mA
52.8441668665813;-0.799560546875;-0.14959716796875;3.33999999156731;335;100 mA
52.8541668665561;-0.799560546875;-0.150482177734375;3.34999999154206;336;100 mA
52.8641668665308;-0.79986572265625;-0.150665283203125;3.35999999151682;337;100 mA
52.8741668665056;-0.79925537109375;-0.14947509765625;3.36999999149157;338;100 mA
52.8841668664803;-0.79986572265625;-0.1502685546875;3.37999999146632;339;100 mA
52.8941668664551;-0.79925537109375;-0.149505615234375;3.38999999144107;340;100 mA
52.9041668664298;-0.799560546875;-0.150054931640625;3.39999999141583;341;100 mA
52.9141668664046;-0.79986572265625;-0.149749755859375;3.40999999139058;342;100 mA
52.9241668663793;-0.79925537109375;-0.148681640625;3.41999999136533;343;100 mA
52.9341668663541;-0.8001708984375;-0.147735595703125;3.42999999134008;344;100 mA
52.9441668663288;-0.799560546875;-0.146942138671875;3.43999999131483;345;100 mA
52.9541668663036;-0.799560546875;-0.148223876953125;3.44999999128959;346;100 mA
52.9641668662783;-0.79986572265625;-0.148345947265625;3.45999999126434;347;100 mA
52.9741668662531;-0.799560546875;-0.149658203125;3.46999999123909;348;100 mA
52.9841668662278;-0.799560546875;-0.149383544921875;3.47999999121384;349;100 mA
52.9941668662026;-0.799560546875;-0.1494140625;3.4899999911886;350;100 mA
53.0041668661773;-0.799560546875;-0.149688720703125;3.49999999116335;351;100 mA
53.0141668661521;-0.799560546875;-0.1473388671875;3.5099999911381;352;100 mA
53.0241668661268;-0.799560546875;-0.14794921875;3.51999999111285;353;100 mA
53.0341668661016;-0.799560546875;-0.14764404296875;3.52999999108761;354;100 mA
53.0441668660764;-0.799560546875;-0.14697265625;3.53999999106236;355;100 mA
53.0541668660511;-0.799560546875;-0.14642333984375;3.54999999103711;356;100 mA
53.0641668660259;-0.79986572265625;-0.14422607421875;3.55999999101186;357;100 mA
53.0741668660006;-0.799560546875;-0.14495849609375;3.56999999098662;358;100 mA
53.0841668659754;-0.79925537109375;-0.143646240234375;3.57999999096137;359;100 mA
53.0941668659501;-0.79925537109375;-0.14447021484375;3.58999999093612;360;100 mA
53.1041668659249;-0.79986572265625;-0.144927978515625;3.59999999091087;361;100 mA
53.1141668658996;-0.799560546875;-0.145111083984375;3.60999999088563;362;100 mA
53.1241668658744;-0.799560546875;-0.14605712890625;3.61999999086038;363;100 mA
53.1341668658491;-0.79925537109375;-0.14544677734375;3.62999999083513;364;100 mA
53.1441668658239;-0.7989501953125;-0.146087646484375;3.63999999080988;365;100 mA
53.1541668657986;-0.79986572265625;-0.146270751953125;3.64999999078464;366;100 mA
53.1641668657734;-0.79986572265625;-0.1458740234375;3.65999999075939;367;100 mA
53.1741668657481;-0.799560546875;-0.14605712890625;3.66999999073414;368;100 mA
53.1841668657229;-0.799560546875;-0.14544677734375;3.67999999070889;369;100 mA
53.1941668656976;-0.799560546875;-0.1470947265625;3.68999999068365;370;100 mA
53.2041668656724;-0.799560546875;-0.14617919921875;3.6999999906584;371;100 mA
53.2141668656471;-0.799560546875;-0.14593505859375;3.70999999063315;372;100 mA
53.2241668656219;-0.79925537109375;-0.145843505859375;3.7199999906079;373;100 mA
53.2341668655966;-0.79925537109375;-0.14556884765625;3.72999999058266;374;100 mA
53.2441668655714;-0.79986572265625;-0.146575927734375;3.73999999055741;375;100 mA
53.2541668655462;-0.799560546875;-0.145660400390625;3.74999999053216;376;100 mA
53.2641668655209;-0.79925537109375;-0.146759033203125;3.75999999050691;377;100 mA
53.2741668654957;-0.799560546875;-0.146514892578125;3.76999999048167;378;100 mA
53.2841668654704;-0.79925537109375;-0.14599609375;3.77999999045642;379;100 mA
53.2941668654452;-0.799560546875;-0.1451416015625;3.78999999043117;380;100 mA
53.3041668654199;-0.79925537109375;-0.144134521484375;3.79999999040592;381;100 mA
53.3141668653947;-0.79986572265625;-0.1455078125;3.80999999038067;382;100 mA
53.3241668653694;-0.799560546875;-0.14556884765625;3.81999999035543;383;100 mA
53.3341668653442;-0.799560546875;-0.14556884765625;3.82999999033018;384;100 mA
53.3441668653189;-0.799560546875;-0.146820068359375;3.83999999030493;385;100 mA
53.3541668652937;-0.7989501953125;-0.14630126953125;3.84999999027968;386;100 mA
53.3641668652684;-0.79986572265625;-0.147308349609375;3.85999999025444;387;100 mA
53.3741668652432;-0.799560546875;-0.146331787109375;3.86999999022919;388;100 mA
53.3841668652179;-0.799560546875;-0.147186279296875;3.87999999020394;389;100 mA
53.3941668651927;-0.79925537109375;-0.147430419921875;3.88999999017869;390;100 mA
53.4041668651674;-0.799560546875;-0.147216796875;3.89999999015345;391;100 mA
53.4141668651422;-0.79925537109375;-0.146087646484375;3.9099999901282;392;100 mA
53.4241668651169;-0.79986572265625;-0.145263671875;3.91999999010295;393;100 mA
53.4341668650917;-0.7989501953125;-0.1463623046875;3.9299999900777;394;100 mA
53.4441668650664;-0.799560546875;-0.14593505859375;3.93999999005246;395;100 mA
53.4541668650412;-0.79986572265625;-0.145538330078125;3.94999999002721;396;100 mA
53.464166865016;-0.79986572265625;-0.145904541015625;3.95999999000196;397;100 mA
53.4741668649907;-0.8001708984375;-0.146392822265625;3.96999998997671;398;100 mA
53.4841668649655;-0.79986572265625;-0.147552490234375;3.97999998995147;399;100 mA
53.4941668649402;-0.79925537109375;-0.146575927734375;3.98999998992622;400;100 mA
53.504166864915;-0.79986572265625;-0.147064208984375;3.99999998990097;401;100 mA
53.5141668648897;-0.799560546875;-0.14697265625;4.00999998987572;402;100 mA
53.5241668648645;-0.799560546875;-0.146453857421875;4.01999998985048;403;100 mA
53.5341668648392;-0.79925537109375;-0.1468505859375;4.02999998982523;404;100 mA
53.544166864814;-0.7989501953125;-0.146728515625;4.03999998979998;405;100 mA
53.5541668647887;-0.79925537109375;-0.148284912109375;4.04999998977473;406;100 mA
53.5641668647635;-0.79925537109375;-0.147491455078125;4.05999998974949;407;100 mA
53.5741668647382;-0.79925537109375;-0.146575927734375;4.06999998972424;408;100 mA
53.584166864713;-0.7989501953125;-0.14599609375;4.07999998969899;409;100 mA
53.5941668646877;-0.79986572265625;-0.145843505859375;4.08999998967374;410;100 mA
53.6041668646625;-0.79925537109375;-0.146728515625;4.0999999896485;411;100 mA
53.6141668646372;-0.79925537109375;-0.14599609375;4.10999998962325;412;100 mA
53.624166864612;-0.799560546875;-0.146636962890625;4.119999989598;413;100 mA
53.6341668645867;-0.799560546875;-0.14654541015625;4.12999998957275;414;100 mA
53.6441668645615;-0.799560546875;-0.14605712890625;4.1399999895475;415;100 mA
53.6541668645363;-0.799560546875;-0.14544677734375;4.14999998952226;416;100 mA
53.664166864511;-0.79925537109375;-0.144561767578125;4.15999998949701;417;100 mA
53.6741668644858;-0.79986572265625;-0.145538330078125;4.16999998947176;418;100 mA
53.6841668644605;-0.79925537109375;-0.14447021484375;4.17999998944651;419;100 mA
53.6941668644353;-0.799560546875;-0.144378662109375;4.18999998942127;420;100 mA
53.70416686441;-0.799560546875;-0.1451416015625;4.19999998939602;421;100 mA
53.7141668643848;-0.79925537109375;-0.145111083984375;4.20999998937077;422;100 mA
53.7241668643595;-0.79986572265625;-0.144744873046875;4.21999998934552;423;100 mA
53.7341668643343;-0.79925537109375;-0.14434814453125;4.22999998932028;424;100 mA
53.744166864309;-0.79925537109375;-0.14508056640625;4.23999998929503;425;100 mA
53.7541668642838;-0.799560546875;-0.144927978515625;4.24999998926978;426;100 mA
53.7641668642585;-0.79925537109375;-0.144683837890625;4.25999998924453;427;100 mA
53.7741668642333;-0.79925537109375;-0.145782470703125;4.26999998921929;428;100 mA
53.784166864208;-0.79925537109375;-0.145477294921875;4.27999998919404;429;100 mA
53.7941668641828;-0.8001708984375;-0.14581298828125;4.28999998916879;430;100 mA
53.8041668641575;-0.8001708984375;-0.1444091796875;4.29999998914354;431;100 mA
53.8141668641323;-0.8001708984375;-0.1444091796875;4.3099999891183;432;100 mA
53.824166864107;-0.799560546875;-0.1455078125;4.31999998909305;433;100 mA
53.8341668640818;-0.79925537109375;-0.145050048828125;4.3299999890678;434;100 mA
53.8441668640565;-0.79925537109375;-0.145050048828125;4.33999998904255;435;100 mA
53.8541668640313;-0.79986572265625;-0.1436767578125;4.34999998901731;436;100 mA
53.8641668640061;-0.79986572265625;-0.143798828125;4.35999998899206;437;100 mA
53.8741668639808;-0.799560546875;-0.14288330078125;4.36999998896681;438;100 mA
53.8841668639556;-0.799560546875;-0.1427001953125;4.37999998894156;439;100 mA
53.8941668639303;-0.8001708984375;-0.14324951171875;4.38999998891632;440;100 mA
53.9041668639051;-0.79925537109375;-0.14300537109375;4.39999998889107;441;100 mA
53.9141668638798;-0.79986572265625;-0.14410400390625;4.40999998886582;442;100 mA
53.9241668638546;-0.79986572265625;-0.14410400390625;4.41999998884057;443;100 mA
53.9341668638293;-0.799560546875;-0.144317626953125;4.42999998881533;444;100 mA
53.9441668638041;-0.79925537109375;-0.144134521484375;4.43999998879008;445;100 mA
53.9541668637788;-0.799560546875;-0.14453125;4.44999998876483;446;100 mA
53.9641668637536;-0.799560546875;-0.145721435546875;4.45999998873958;447;100 mA
53.9741668637283;-0.799560546875;-0.1453857421875;4.46999998871433;448;100 mA
53.9841668637031;-0.79925537109375;-0.147369384765625;4.47999998868909;449;100 mA
53.9941668636778;-0.79925537109375;-0.145965576171875;4.48999998866384;450;100 mA
54.0041668636526;-0.79925537109375;-0.144195556640625;4.49999998863859;451;100 mA
54.0141668636273;-0.799560546875;-0.1439208984375;4.50999998861334;452;100 mA
54.0241668636021;-0.799560546875;-0.14117431640625;4.5199999885881;453;100 mA
54.0341668635768;-0.8001708984375;-0.141357421875;4.52999998856285;454;100 mA
54.0441668635516;-0.79925537109375;-0.1407470703125;4.5399999885376;455;100 mA
54.0541668635263;-0.79925537109375;-0.141632080078125;4.54999998851235;456;100 mA
54.0641668635011;-0.799560546875;-0.1424560546875;4.55999998848711;457;100 mA
54.0741668634759;-0.799560546875;-0.142120361328125;4.56999998846186;458;100 mA
54.0841668634506;-0.79925537109375;-0.142364501953125;4.57999998843661;459;100 mA
54.0941668634254;-0.799560546875;-0.140869140625;4.58999998841136;460;100 mA
54.1041668634001;-0.799560546875;-0.140899658203125;4.59999998838612;461;100 mA
54.1141668633749;-0.79925537109375;-0.140289306640625;4.60999998836087;462;100 mA
54.1241668633496;-0.799560546875;-0.140411376953125;4.61999998833562;463;100 mA
54.1341668633244;-0.79986572265625;-0.13983154296875;4.62999998831037;464;100 mA
54.1441668632991;-0.79986572265625;-0.13812255859375;4.63999998828513;465;100 mA
54.1541668632739;-0.79925537109375;-0.139678955078125;4.64999998825988;466;100 mA
54.1641668632486;-0.79925537109375;-0.140533447265625;4.65999998823463;467;100 mA
54.1741668632234;-0.799560546875;-0.1417236328125;4.66999998820938;468;100 mA
54.1841668631981;-0.79986572265625;-0.14215087890625;4.67999998818414;469;100 mA
54.1941668631729;-0.79925537109375;-0.14178466796875;4.68999998815889;470;100 mA
54.2041668631476;-0.79925537109375;-0.143463134765625;4.69999998813364;471;100 mA
54.2141668631224;-0.799560546875;-0.1424560546875;4.70999998810839;472;100 mA
54.2241668630971;-0.799560546875;-0.142730712890625;4.71999998808315;473;100 mA
54.2341668630719;-0.79925537109375;-0.141021728515625;4.7299999880579;474;100 mA
54.2441668630466;-0.79925537109375;-0.14093017578125;4.73999998803265;475;100 mA
54.2541668630214;-0.79925537109375;-0.141754150390625;4.7499999880074;476;100 mA
54.2641668629961;-0.799560546875;-0.141143798828125;4.75999998798216;477;100 mA
54.2741668629709;-0.79925537109375;-0.141448974609375;4.76999998795691;478;100 mA
54.2841668629457;-0.79986572265625;-0.140838623046875;4.77999998793166;479;100 mA
54.2941668629204;-0.79986572265625;-0.14154052734375;4.78999998790641;480;100 mA
54.3041668628952;-0.799560546875;-0.14251708984375;4.79999998788116;481;100 mA
54.3141668628699;-0.799560546875;-0.142822265625;4.80999998785592;482;100 mA
54.3241668628447;-0.799560546875;-0.1434326171875;4.81999998783067;483;100 mA
54.3341668628194;-0.799560546875;-0.1434326171875;4.82999998780542;484;100 mA
54.3441668627942;-0.799560546875;-0.1444091796875;4.83999998778017;485;100 mA
54.3541668627689;-0.799560546875;-0.14404296875;4.84999998775493;486;100 mA
54.3641668627437;-0.79925537109375;-0.14373779296875;4.85999998772968;487;100 mA
54.3741668627184;-0.799560546875;-0.144256591796875;4.86999998770443;488;100 mA
54.3841668626932;-0.79925537109375;-0.1429443359375;4.87999998767918;489;100 mA
54.3941668626679;-0.799560546875;-0.143096923828125;4.88999998765394;490;100 mA
54.4041668626427;-0.8001708984375;-0.14239501953125;4.89999998762869;491;100 mA
54.4141668626174;-0.799560546875;-0.142730712890625;4.90999998760344;492;100 mA
54.4241668625922;-0.799560546875;-0.143585205078125;4.91999998757819;493;100 mA
54.4341668625669;-0.79925537109375;-0.142730712890625;4.92999998755295;494;100 mA
54.4441668625417;-0.799560546875;-0.142974853515625;4.9399999875277;495;100 mA
54.4541668625164;-0.799560546875;-0.14215087890625;4.94999998750245;496;100 mA
54.4641668624912;-0.799560546875;-0.14202880859375;4.9599999874772;497;100 mA
54.4741668624659;-0.79925537109375;-0.141632080078125;4.96999998745196;498;100 mA
54.4841668624407;-0.79925537109375;-0.1414794921875;4.97999998742671;499;100 mA
54.4941668624155;-0.79864501953125;-0.142486572265625;4.98999998740146;500;100 mA
54.5041668623902;-0.79986572265625;-0.142333984375;4.99999998737621;501;100 mA
54.514166862365;-0.799560546875;-0.142425537109375;5.00999998735097;502;100 mA
54.5241668623397;-0.799560546875;-0.14202880859375;5.01999998732572;503;100 mA
54.5341668623145;-0.79986572265625;-0.141876220703125;5.02999998730047;504;100 mA
54.5441668622892;-0.79986572265625;-0.140380859375;5.03999998727522;505;100 mA
54.554166862264;-0.799560546875;-0.139129638671875;5.04999998724998;506;100 mA
54.5641668622387;-0.79925537109375;-0.139556884765625;5.05999998722473;507;100 mA
54.5741668622135;-0.79925537109375;-0.138458251953125;5.06999998719948;508;100 mA
54.5841668621882;-0.79925537109375;-0.139129638671875;5.07999998717423;509;100 mA
54.594166862163;-0.799560546875;-0.138336181640625;5.08999998714899;510;100 mA
54.6041668621377;-0.79925537109375;-0.13848876953125;5.09999998712374;511;100 mA
54.6141668621125;-0.799560546875;-0.138824462890625;5.10999998709849;512;100 mA
54.6241668620872;-0.79986572265625;-0.138397216796875;5.11999998707324;513;100 mA
54.634166862062;-0.799560546875;-0.1387939453125;5.129999987048;514;100 mA
54.6441668620367;-0.799560546875;-0.139129638671875;5.13999998702275;515;100 mA
54.6541668620115;-0.799560546875;-0.139434814453125;5.1499999869975;516;100 mA
54.6641668619862;-0.79986572265625;-0.13916015625;5.15999998697225;517;100 mA
54.674166861961;-0.799560546875;-0.13909912109375;5.169999986947;518;100 mA
54.6841668619358;-0.79925537109375;-0.139434814453125;5.17999998692176;519;100 mA
54.6941668619105;-0.799560546875;-0.13885498046875;5.18999998689651;520;100 mA
54.7041668618853;-0.799560546875;-0.139801025390625;5.19999998687126;521;100 mA
54.71416686186;-0.79925537109375;-0.13958740234375;5.20999998684601;522;100 mA
54.7241668618348;-0.799560546875;-0.1397705078125;5.21999998682077;523;100 mA
54.7341668618095;-0.79986572265625;-0.140899658203125;5.22999998679552;524;100 mA
54.7441668617843;-0.799560546875;-0.1412353515625;5.23999998677027;525;100 mA
54.754166861759;-0.799560546875;-0.141632080078125;5.24999998674502;526;100 mA
54.7641668617338;-0.799560546875;-0.14129638671875;5.25999998671978;527;100 mA
54.7741668617085;-0.79986572265625;-0.141265869140625;5.26999998669453;528;100 mA
54.7841668616833;-0.799560546875;-0.14178466796875;5.27999998666928;529;100 mA
54.794166861658;-0.799560546875;-0.140869140625;5.28999998664403;530;100 mA
54.8041668616328;-0.79986572265625;-0.141204833984375;5.29999998661879;531;100 mA
54.8141668616075;-0.79925537109375;-0.1395263671875;5.30999998659354;532;100 mA
54.8241668615823;-0.79925537109375;-0.13922119140625;5.31999998656829;533;100 mA
54.834166861557;-0.79925537109375;-0.138946533203125;5.32999998654304;534;100 mA
54.8441668615318;-0.799560546875;-0.138946533203125;5.3399999865178;535;100 mA
54.8541668615065;-0.799560546875;-0.13983154296875;5.34999998649255;536;100 mA
54.8641668614813;-0.8001708984375;-0.13916015625;5.3599999864673;537;100 mA
54.874166861456;-0.79925537109375;-0.139495849609375;5.36999998644205;538;100 mA
54.8841668614308;-0.799560546875;-0.139312744140625;5.37999998641681;539;100 mA
54.8941668614056;-0.79986572265625;-0.139495849609375;5.38999998639156;540;100 mA
54.9041668613803;-0.79925537109375;-0.1395263671875;5.39999998636631;541;100 mA
54.9141668613551;-0.799560546875;-0.139068603515625;5.40999998634106;542;100 mA
54.9241668613298;-0.799560546875;-0.1395263671875;5.41999998631582;543;100 mA
54.9341668613046;-0.799560546875;-0.139068603515625;5.42999998629057;544;100 mA
54.9441668612793;-0.799560546875;-0.139373779296875;5.43999998626532;545;100 mA
54.9541668612541;-0.79986572265625;-0.139617919921875;5.44999998624007;546;100 mA
54.9641668612288;-0.7989501953125;-0.139678955078125;5.45999998621483;547;100 mA
54.9741668612036;-0.799560546875;-0.14093017578125;5.46999998618958;548;100 mA
54.9841668611783;-0.799560546875;-0.14031982421875;5.47999998616433;549;100 mA
54.9941668611531;-0.799560546875;-0.141021728515625;5.48999998613908;550;100 mA
55.0041668611278;-0.799560546875;-0.1400146484375;5.49999998611383;551;100 mA
55.0141668611026;-0.799560546875;-0.140411376953125;5.50999998608859;552;100 mA
55.0241668610773;-0.79986572265625;-0.140655517578125;5.51999998606334;553;100 mA
55.0341668610521;-0.79986572265625;-0.140289306640625;5.52999998603809;554;100 mA
55.0441668610268;-0.79925537109375;-0.14068603515625;5.53999998601284;555;100 mA
55.0541668610016;-0.8001708984375;-0.13983154296875;5.5499999859876;556;100 mA
55.0641668609763;-0.799560546875;-0.1400146484375;5.55999998596235;557;100 mA
55.0741668609511;-0.8001708984375;-0.14031982421875;5.5699999859371;558;100 mA
55.0841668609258;-0.79925537109375;-0.1405029296875;5.57999998591185;559;100 mA
55.0941668609006;-0.799560546875;-0.140167236328125;5.58999998588661;560;100 mA
55.1041668608754;-0.79925537109375;-0.13958740234375;5.59999998586136;561;100 mA
55.1141668608501;-0.79925537109375;-0.140350341796875;5.60999998583611;562;100 mA
55.1241668608249;-0.79986572265625;-0.13946533203125;5.61999998581086;563;100 mA
55.1341668607996;-0.799560546875;-0.139373779296875;5.62999998578562;564;100 mA
55.1441668607744;-0.79925537109375;-0.13909912109375;5.63999998576037;565;100 mA
55.1541668607491;-0.799560546875;-0.13763427734375;5.64999998573512;566;100 mA
55.1641668607239;-0.799560546875;-0.137847900390625;5.65999998570987;567;100 mA
55.1741668606986;-0.79925537109375;-0.13800048828125;5.66999998568463;568;100 mA
55.1841668606734;-0.7989501953125;-0.139251708984375;5.67999998565938;569;100 mA
55.1941668606481;-0.79986572265625;-0.13916015625;5.68999998563413;570;100 mA
55.2041668606229;-0.799560546875;-0.1397705078125;5.69999998560888;571;100 mA
55.2141668605976;-0.799560546875;-0.14007568359375;5.70999998558364;572;100 mA
55.2241668605724;-0.79925537109375;-0.139678955078125;5.71999998555839;573;100 mA
55.2341668605471;-0.79925537109375;-0.14007568359375;5.72999998553314;574;100 mA
55.2441668605219;-0.799560546875;-0.1395263671875;5.73999998550789;575;100 mA
55.2541668604966;-0.799560546875;-0.139617919921875;5.74999998548265;576;100 mA
55.2641668604714;-0.79986572265625;-0.139404296875;5.7599999854574;577;100 mA
55.2741668604461;-0.799560546875;-0.139190673828125;5.76999998543215;578;100 mA
55.2841668604209;-0.7989501953125;-0.139984130859375;5.7799999854069;579;100 mA
55.2941668603956;-0.79986572265625;-0.1396484375;5.78999998538166;580;100 mA
55.3041668603704;-0.799560546875;-0.140289306640625;5.79999998535641;581;100 mA
55.3141668603452;-0.79925537109375;-0.1405029296875;5.80999998533116;582;100 mA
55.3241668603199;-0.799560546875;-0.14068603515625;5.81999998530591;583;100 mA
55.3341668602947;-0.8001708984375;-0.141693115234375;5.82999998528066;584;100 mA
55.3441668602694;-0.79925537109375;-0.14129638671875;5.83999998525542;585;100 mA
55.3541668602442;-0.79925537109375;-0.141357421875;5.84999998523017;586;100 mA
55.3641668602189;-0.799560546875;-0.139862060546875;5.85999998520492;587;100 mA
55.3741668601937;-0.7989501953125;-0.140045166015625;5.86999998517967;588;100 mA
55.3841668601684;-0.799560546875;-0.140167236328125;5.87999998515443;589;100 mA
55.3941668601432;-0.79925537109375;-0.139984130859375;5.88999998512918;590;100 mA
55.4041668601179;-0.79925537109375;-0.1405029296875;5.89999998510393;591;100 mA
55.4141668600927;-0.799560546875;-0.1400146484375;5.90999998507868;592;100 mA
55.4241668600674;-0.79925537109375;-0.14019775390625;5.91999998505344;593;100 mA
55.4341668600422;-0.799560546875;-0.139678955078125;5.92999998502819;594;100 mA
55.4441668600169;-0.799560546875;-0.139129638671875;5.93999998500294;595;100 mA
55.4541668599917;-0.7989501953125;-0.139434814453125;5.94999998497769;596;100 mA
55.4641668599664;-0.79986572265625;-0.138824462890625;5.95999998495245;597;100 mA
55.4741668599412;-0.799560546875;-0.139190673828125;5.9699999849272;598;100 mA
55.4841668599159;-0.7989501953125;-0.139129638671875;5.97999998490195;599;100 mA
55.4941668598907;-0.79925537109375;-0.13946533203125;5.9899999848767;600;100 mA
55.5041668598654;-0.8001708984375;-0.13995361328125;5.99999998485146;601;100 mA
55.5141668598402;-0.79925537109375;-0.140350341796875;6.00999998482621;602;100 mA
55.524166859815;-0.799560546875;-0.140167236328125;6.01999998480096;603;100 mA
55.5341668597897;-0.79986572265625;-0.1396484375;6.02999998477571;604;100 mA
55.5441668597645;-0.799560546875;-0.139892578125;6.03999998475047;605;100 mA
55.5541668597392;-0.799560546875;-0.14007568359375;6.04999998472522;606;100 mA
55.564166859714;-0.799560546875;-0.140625;6.05999998469997;607;100 mA
55.5741668596887;-0.799560546875;-0.140716552734375;6.06999998467472;608;100 mA
55.5841668596635;-0.79986572265625;-0.139495849609375;6.07999998464948;609;100 mA
55.5941668596382;-0.79986572265625;-0.139984130859375;6.08999998462423;610;100 mA
55.604166859613;-0.799560546875;-0.13897705078125;6.09999998459898;611;100 mA
55.6141668595877;-0.799560546875;-0.13934326171875;6.10999998457373;612;100 mA
55.6241668595625;-0.79925537109375;-0.13922119140625;6.11999998454849;613;100 mA
55.6341668595372;-0.799560546875;-0.13775634765625;6.12999998452324;614;100 mA
55.644166859512;-0.799560546875;-0.13818359375;6.13999998449799;615;100 mA
55.6541668594867;-0.79925537109375;-0.137664794921875;6.14999998447274;616;100 mA
55.6641668594615;-0.79925537109375;-0.1380615234375;6.1599999844475;617;100 mA
55.6741668594362;-0.7989501953125;-0.138427734375;6.16999998442225;618;100 mA
55.684166859411;-0.799560546875;-0.1387939453125;6.179999984397;619;100 mA
55.6941668593857;-0.799560546875;-0.139434814453125;6.18999998437175;620;100 mA
55.7041668593605;-0.799560546875;-0.139404296875;6.1999999843465;621;100 mA
55.7141668593353;-0.799560546875;-0.140594482421875;6.20999998432126;622;100 mA
55.72416685931;-0.79986572265625;-0.1397705078125;6.21999998429601;623;100 mA
55.7341668592848;-0.79925537109375;-0.140533447265625;6.22999998427076;624;100 mA
55.7441668592595;-0.79925537109375;-0.14105224609375;6.23999998424551;625;100 mA
55.7541668592343;-0.799560546875;-0.140625;6.24999998422027;626;100 mA
55.764166859209;-0.79925537109375;-0.14178466796875;6.25999998419502;627;100 mA
55.7741668591838;-0.799560546875;-0.140655517578125;6.26999998416977;628;100 mA
55.7841668591585;-0.79925537109375;-0.14105224609375;6.27999998414452;629;100 mA
55.7941668591333;-0.799560546875;-0.14068603515625;6.28999998411928;630;100 mA
55.804166859108;-0.799560546875;-0.13970947265625;6.29999998409403;631;100 mA
55.8141668590828;-0.79986572265625;-0.140045166015625;6.30999998406878;632;100 mA
55.8241668590575;-0.79986572265625;-0.139923095703125;6.31999998404353;633;100 mA
55.8341668590323;-0.799560546875;-0.140411376953125;6.32999998401829;634;100 mA
55.844166859007;-0.79986572265625;-0.139739990234375;6.33999998399304;635;100 mA
55.8541668589818;-0.799560546875;-0.13958740234375;6.34999998396779;636;100 mA
55.8641668589565;-0.79986572265625;-0.140167236328125;6.35999998394254;637;100 mA
55.8741668589313;-0.79986572265625;-0.14007568359375;6.3699999839173;638;100 mA
55.884166858906;-0.79925537109375;-0.140380859375;6.37999998389205;639;100 mA
55.8941668588808;-0.799560546875;-0.14019775390625;6.3899999838668;640;100 mA
55.9041668588555;-0.79986572265625;-0.140777587890625;6.39999998384155;641;100 mA
55.9141668588303;-0.79986572265625;-0.140106201171875;6.40999998381631;642;100 mA
55.9241668588051;-0.79925537109375;-0.13970947265625;6.41999998379106;643;100 mA
55.9341668587798;-0.79925537109375;-0.139984130859375;6.42999998376581;644;100 mA
55.9441668587546;-0.799560546875;-0.139892578125;6.43999998374056;645;100 mA
55.9541668587293;-0.79925537109375;-0.14044189453125;6.44999998371532;646;100 mA
55.9641668587041;-0.799560546875;-0.139556884765625;6.45999998369007;647;100 mA
55.9741668586788;-0.799560546875;-0.139862060546875;6.46999998366482;648;100 mA
55.9841668586536;-0.79925537109375;-0.14019775390625;6.47999998363957;649;100 mA
55.9941668586283;-0.7989501953125;-0.139129638671875;6.48999998361433;650;100 mA
56.0041668586031;-0.8001708984375;-0.139739990234375;6.49999998358908;651;100 mA
56.0141668585778;-0.79986572265625;-0.138946533203125;6.50999998356383;652;100 mA
56.0241668585526;-0.79925537109375;-0.1395263671875;6.51999998353858;653;100 mA
56.0341668585273;-0.79986572265625;-0.138702392578125;6.52999998351333;654;100 mA
56.0441668585021;-0.799560546875;-0.1385498046875;6.53999998348809;655;100 mA
56.0541668584768;-0.799560546875;-0.138946533203125;6.54999998346284;656;100 mA
56.0641668584516;-0.799560546875;-0.138519287109375;6.55999998343759;657;100 mA
56.0741668584263;-0.799560546875;-0.139373779296875;6.56999998341234;658;100 mA
56.0841668584011;-0.79925537109375;-0.13946533203125;6.5799999833871;659;100 mA
56.0941668583758;-0.799560546875;-0.139617919921875;6.58999998336185;660;100 mA
56.1041668583506;-0.799560546875;-0.13946533203125;6.5999999833366;661;100 mA
56.1141668583253;-0.799560546875;-0.13885498046875;6.60999998331135;662;100 mA
56.1241668583001;-0.799560546875;-0.139434814453125;6.61999998328611;663;100 mA
56.1341668582749;-0.79925537109375;-0.138824462890625;6.62999998326086;664;100 mA
56.1441668582496;-0.79925537109375;-0.139068603515625;6.63999998323561;665;100 mA
56.1541668582244;-0.79986572265625;-0.139373779296875;6.64999998321036;666;100 mA
56.1641668581991;-0.79986572265625;-0.139007568359375;6.65999998318512;667;100 mA
56.1741668581739;-0.79986572265625;-0.13861083984375;6.66999998315987;668;100 mA
56.1841668581486;-0.79986572265625;-0.136932373046875;6.67999998313462;669;100 mA
56.1941668581234;-0.79925537109375;-0.13702392578125;6.68999998310937;670;100 mA
56.2041668580981;-0.79925537109375;-0.13702392578125;6.69999998308413;671;100 mA
56.2141668580729;-0.8001708984375;-0.136260986328125;6.70999998305888;672;100 mA
56.2241668580476;-0.799560546875;-0.137481689453125;6.71999998303363;673;100 mA
56.2341668580224;-0.799560546875;-0.13726806640625;6.72999998300838;674;100 mA
56.2441668579971;-0.799560546875;-0.13800048828125;6.73999998298314;675;100 mA
56.2541668579719;-0.79986572265625;-0.138336181640625;6.74999998295789;676;100 mA
56.2641668579466;-0.79986572265625;-0.138824462890625;6.75999998293264;677;100 mA
56.2741668579214;-0.799560546875;-0.139923095703125;6.76999998290739;678;100 mA
56.2841668578961;-0.799560546875;-0.140838623046875;6.77999998288215;679;100 mA
56.2941668578709;-0.7989501953125;-0.141204833984375;6.7899999828569;680;100 mA
56.3041668578456;-0.799560546875;-0.140380859375;6.79999998283165;681;100 mA
56.3141668578204;-0.799560546875;-0.140594482421875;6.8099999828064;682;100 mA
56.3241668577951;-0.799560546875;-0.1397705078125;6.81999998278116;683;100 mA
56.3341668577699;-0.79925537109375;-0.1402587890625;6.82999998275591;684;100 mA
56.3441668577447;-0.799560546875;-0.139556884765625;6.83999998273066;685;100 mA
56.3541668577194;-0.79925537109375;-0.1380615234375;6.84999998270541;686;100 mA
56.3641668576942;-0.799560546875;-0.13861083984375;6.85999998268016;687;100 mA
56.3741668576689;-0.799560546875;-0.13800048828125;6.86999998265492;688;100 mA
56.3841668576437;-0.799560546875;-0.138641357421875;6.87999998262967;689;100 mA
56.3941668576184;-0.799560546875;-0.1385498046875;6.88999998260442;690;100 mA
56.4041668575932;-0.799560546875;-0.138336181640625;6.89999998257917;691;100 mA
56.4141668575679;-0.79925537109375;-0.13885498046875;6.90999998255393;692;100 mA
56.4241668575427;-0.79986572265625;-0.138397216796875;6.91999998252868;693;100 mA
56.4341668575174;-0.79986572265625;-0.139007568359375;6.92999998250343;694;100 mA
56.4441668574922;-0.79986572265625;-0.138946533203125;6.93999998247818;695;100 mA
56.4541668574669;-0.799560546875;-0.13897705078125;6.94999998245294;696;100 mA
56.4641668574417;-0.79864501953125;-0.138153076171875;6.95999998242769;697;100 mA
56.4741668574164;-0.799560546875;-0.137298583984375;6.96999998240244;698;100 mA
56.4841668573912;-0.79986572265625;-0.137847900390625;6.97999998237719;699;100 mA
56.4941668573659;-0.79925537109375;-0.137420654296875;6.98999998235195;700;100 mA
