Time (s);WE(1).Potential (V);WE(1).Current (A);Corrected time (s);Index;Current range
72.3667418172915;-0.89996337890625;-0.32110595703125;0;1;100 mA
72.3767418172663;-0.89935302734375;-0.2515869140625;0.00999999997475243;2;100 mA
72.386741817241;-0.89935302734375;-0.2159423828125;0.0199999999495049;3;100 mA
72.3967418172158;-0.89996337890625;-0.201324462890625;0.0299999999242573;4;100 mA
72.4067418171906;-0.899658203125;-0.189697265625;0.0399999998990097;5;100 mA
72.4167418171653;-0.899658203125;-0.182891845703125;0.0499999998737621;6;100 mA
72.4267418171401;-0.899658203125;-0.180816650390625;0.0599999998485146;7;100 mA
72.4367418171148;-0.89935302734375;-0.178009033203125;0.069999999823267;8;100 mA
72.4467418170896;-0.899658203125;-0.17803955078125;0.0799999997980194;9;100 mA
72.4567418170643;-0.899658203125;-0.174774169921875;0.0899999997727718;10;100 mA
72.4667418170391;-0.8990478515625;-0.1729736328125;0.0999999997475243;11;100 mA
72.4767418170138;-0.8990478515625;-0.173858642578125;0.109999999722277;12;100 mA
72.4867418169886;-0.8990478515625;-0.171295166015625;0.119999999697029;13;100 mA
72.4967418169633;-0.89996337890625;-0.17315673828125;0.129999999671782;14;100 mA
72.5067418169381;-0.89935302734375;-0.171539306640625;0.139999999646534;15;100 mA
72.5167418169128;-0.89935302734375;-0.17340087890625;0.149999999621286;16;100 mA
72.5267418168876;-0.89935302734375;-0.17364501953125;0.159999999596039;17;100 mA
72.5367418168623;-0.89935302734375;-0.172637939453125;0.169999999570791;18;100 mA
72.5467418168371;-0.89935302734375;-0.175384521484375;0.179999999545544;19;100 mA
72.5567418168118;-0.89935302734375;-0.171722412109375;0.189999999520296;20;100 mA
72.5667418167866;-0.89996337890625;-0.17376708984375;0.199999999495049;21;100 mA
72.5767418167613;-0.899658203125;-0.170806884765625;0.209999999469801;22;100 mA
72.5867418167361;-0.89996337890625;-0.170623779296875;0.219999999444553;23;100 mA
72.5967418167108;-0.89935302734375;-0.170501708984375;0.229999999419306;24;100 mA
72.6067418166856;-0.89935302734375;-0.1669921875;0.239999999394058;25;100 mA
72.6167418166604;-0.899658203125;-0.168212890625;0.249999999368811;26;100 mA
72.6267418166351;-0.899658203125;-0.16741943359375;0.259999999343563;27;100 mA
72.6367418166099;-0.899658203125;-0.167877197265625;0.269999999318316;28;100 mA
72.6467418165846;-0.89935302734375;-0.165863037109375;0.279999999293068;29;100 mA
72.6567418165594;-0.899658203125;-0.165313720703125;0.28999999926782;30;100 mA
72.6667418165341;-0.8990478515625;-0.1671142578125;0.299999999242573;31;100 mA
72.6767418165089;-0.89935302734375;-0.166229248046875;0.309999999217325;32;100 mA
72.6867418164836;-0.89935302734375;-0.16778564453125;0.319999999192078;33;100 mA
72.6967418164584;-0.9002685546875;-0.16461181640625;0.32999999916683;34;100 mA
72.7067418164331;-0.89935302734375;-0.165679931640625;0.339999999141583;35;100 mA
72.7167418164079;-0.899658203125;-0.166595458984375;0.349999999116335;36;100 mA
72.7267418163826;-0.899658203125;-0.163604736328125;0.359999999091087;37;100 mA
72.7367418163574;-0.899658203125;-0.168060302734375;0.36999999906584;38;100 mA
72.7467418163321;-0.89996337890625;-0.167327880859375;0.379999999040592;39;100 mA
72.7567418163069;-0.89935302734375;-0.1676025390625;0.389999999015345;40;100 mA
72.7667418162816;-0.89935302734375;-0.167327880859375;0.399999998990097;41;100 mA
72.7767418162564;-0.8990478515625;-0.166748046875;0.40999999896485;42;100 mA
72.7867418162311;-0.89935302734375;-0.1676025390625;0.419999998939602;43;100 mA
72.7967418162059;-0.89935302734375;-0.164215087890625;0.429999998914354;44;100 mA
72.8067418161806;-0.899658203125;-0.164764404296875;0.439999998889107;45;100 mA
72.8167418161554;-0.899658203125;-0.16497802734375;0.449999998863859;46;100 mA
72.8267418161302;-0.89935302734375;-0.16619873046875;0.459999998838612;47;100 mA
72.8367418161049;-0.899658203125;-0.166656494140625;0.469999998813364;48;100 mA
72.8467418160797;-0.89935302734375;-0.1641845703125;0.479999998788116;49;100 mA
72.8567418160544;-0.899658203125;-0.16693115234375;0.489999998762869;50;100 mA
72.8667418160292;-0.89935302734375;-0.165130615234375;0.499999998737621;51;100 mA
72.8767418160039;-0.899658203125;-0.16455078125;0.509999998712374;52;100 mA
72.8867418159787;-0.8990478515625;-0.1632080078125;0.519999998687126;53;100 mA
72.8967418159534;-0.899658203125;-0.16375732421875;0.529999998661879;54;100 mA
72.9067418159282;-0.89935302734375;-0.164703369140625;0.539999998636631;55;100 mA
72.9167418159029;-0.8990478515625;-0.16241455078125;0.549999998611383;56;100 mA
72.9267418158777;-0.89935302734375;-0.16558837890625;0.559999998586136;57;100 mA
72.9367418158524;-0.899658203125;-0.165435791015625;0.569999998560888;58;100 mA
72.9467418158272;-0.899658203125;-0.165008544921875;0.579999998535641;59;100 mA
72.9567418158019;-0.8990478515625;-0.163787841796875;0.589999998510393;60;100 mA
72.9667418157767;-0.89935302734375;-0.161376953125;0.599999998485146;61;100 mA
72.9767418157514;-0.899658203125;-0.164825439453125;0.609999998459898;62;100 mA
72.9867418157262;-0.89996337890625;-0.16375732421875;0.61999999843465;63;100 mA
72.9967418157009;-0.89935302734375;-0.164459228515625;0.629999998409403;64;100 mA
73.0067418156757;-0.8990478515625;-0.165130615234375;0.639999998384155;65;100 mA
73.0167418156504;-0.89935302734375;-0.165740966796875;0.649999998358908;66;100 mA
73.0267418156252;-0.89935302734375;-0.166046142578125;0.65999999833366;67;100 mA
73.0367418156;-0.899658203125;-0.163604736328125;0.669999998308413;68;100 mA
73.0467418155747;-0.899658203125;-0.16619873046875;0.679999998283165;69;100 mA
73.0567418155495;-0.89935302734375;-0.1639404296875;0.689999998257917;70;100 mA
73.0667418155242;-0.89935302734375;-0.16448974609375;0.69999999823267;71;100 mA
73.076741815499;-0.89935302734375;-0.16497802734375;0.709999998207422;72;100 mA
73.0867418154737;-0.8990478515625;-0.1639404296875;0.719999998182175;73;100 mA
73.0967418154485;-0.899658203125;-0.165374755859375;0.729999998156927;74;100 mA
73.1067418154232;-0.89996337890625;-0.16192626953125;0.73999999813168;75;100 mA
73.116741815398;-0.899658203125;-0.163665771484375;0.749999998106432;76;100 mA
73.1267418153727;-0.89996337890625;-0.164154052734375;0.759999998081184;77;100 mA
73.1367418153475;-0.89935302734375;-0.1640625;0.769999998055937;78;100 mA
73.1467418153222;-0.89935302734375;-0.166046142578125;0.779999998030689;79;100 mA
73.156741815297;-0.899658203125;-0.164581298828125;0.789999998005442;80;100 mA
73.1667418152717;-0.89935302734375;-0.1668701171875;0.799999997980194;81;100 mA
73.1767418152465;-0.89935302734375;-0.165008544921875;0.809999997954947;82;100 mA
73.1867418152212;-0.899658203125;-0.16650390625;0.819999997929699;83;100 mA
73.196741815196;-0.899658203125;-0.1680908203125;0.829999997904451;84;100 mA
73.2067418151707;-0.899658203125;-0.166839599609375;0.839999997879204;85;100 mA
73.2167418151455;-0.899658203125;-0.169189453125;0.849999997853956;86;100 mA
73.2267418151202;-0.89935302734375;-0.166717529296875;0.859999997828709;87;100 mA
73.236741815095;-0.899658203125;-0.1668701171875;0.869999997803461;88;100 mA
73.2467418150698;-0.8990478515625;-0.166259765625;0.879999997778214;89;100 mA
73.2567418150445;-0.89935302734375;-0.165283203125;0.889999997752966;90;100 mA
73.2667418150193;-0.89996337890625;-0.1668701171875;0.899999997727718;91;100 mA
73.276741814994;-0.899658203125;-0.165557861328125;0.909999997702471;92;100 mA
73.2867418149688;-0.89935302734375;-0.1683349609375;0.919999997677223;93;100 mA
73.2967418149435;-0.899658203125;-0.168243408203125;0.929999997651976;94;100 mA
73.3067418149183;-0.8990478515625;-0.166778564453125;0.939999997626728;95;100 mA
73.316741814893;-0.89935302734375;-0.1676025390625;0.949999997601481;96;100 mA
73.3267418148678;-0.89996337890625;-0.164459228515625;0.959999997576233;97;100 mA
73.3367418148425;-0.899658203125;-0.165863037109375;0.969999997550985;98;100 mA
73.3467418148173;-0.89935302734375;-0.163330078125;0.979999997525738;99;100 mA
73.356741814792;-0.8990478515625;-0.16448974609375;0.98999999750049;100;100 mA
73.3667418147668;-0.89935302734375;-0.16595458984375;0.999999997475243;101;100 mA
73.3767418147415;-0.8990478515625;-0.1646728515625;1.00999999745;102;100 mA
73.3867418147163;-0.899658203125;-0.16497802734375;1.01999999742475;103;100 mA
73.396741814691;-0.89935302734375;-0.161712646484375;1.0299999973995;104;100 mA
73.4067418146658;-0.89996337890625;-0.162750244140625;1.03999999737425;105;100 mA
73.4167418146405;-0.899658203125;-0.161468505859375;1.049999997349;106;100 mA
73.4267418146153;-0.899658203125;-0.163482666015625;1.05999999732376;107;100 mA
73.4367418145901;-0.899658203125;-0.164764404296875;1.06999999729851;108;100 mA
73.4467418145648;-0.899658203125;-0.16259765625;1.07999999727326;109;100 mA
73.4567418145396;-0.89935302734375;-0.16534423828125;1.08999999724801;110;100 mA
73.4667418145143;-0.89996337890625;-0.163909912109375;1.09999999722277;111;100 mA
73.4767418144891;-0.899658203125;-0.165130615234375;1.10999999719752;112;100 mA
73.4867418144638;-0.899658203125;-0.16650390625;1.11999999717227;113;100 mA
73.4967418144386;-0.899658203125;-0.163482666015625;1.12999999714702;114;100 mA
73.5067418144133;-0.89935302734375;-0.16473388671875;1.13999999712178;115;100 mA
73.5167418143881;-0.89935302734375;-0.16107177734375;1.14999999709653;116;100 mA
73.5267418143628;-0.89996337890625;-0.1619873046875;1.15999999707128;117;100 mA
73.5367418143376;-0.89935302734375;-0.162750244140625;1.16999999704603;118;100 mA
73.5467418143123;-0.899658203125;-0.1630859375;1.17999999702079;119;100 mA
73.5567418142871;-0.899658203125;-0.162078857421875;1.18999999699554;120;100 mA
73.5667418142618;-0.899658203125;-0.16058349609375;1.19999999697029;121;100 mA
73.5767418142366;-0.899658203125;-0.162322998046875;1.20999999694504;122;100 mA
73.5867418142113;-0.899658203125;-0.160888671875;1.2199999969198;123;100 mA
73.5967418141861;-0.899658203125;-0.161956787109375;1.22999999689455;124;100 mA
73.6067418141608;-0.899658203125;-0.1611328125;1.2399999968693;125;100 mA
73.6167418141356;-0.899658203125;-0.161468505859375;1.24999999684405;126;100 mA
73.6267418141103;-0.89935302734375;-0.162872314453125;1.25999999681881;127;100 mA
73.6367418140851;-0.89935302734375;-0.159820556640625;1.26999999679356;128;100 mA
73.6467418140599;-0.89935302734375;-0.161529541015625;1.27999999676831;129;100 mA
73.6567418140346;-0.899658203125;-0.159820556640625;1.28999999674306;130;100 mA
73.6667418140094;-0.899658203125;-0.1590576171875;1.29999999671782;131;100 mA
73.6767418139841;-0.89935302734375;-0.16046142578125;1.30999999669257;132;100 mA
73.6867418139589;-0.899658203125;-0.157379150390625;1.31999999666732;133;100 mA
73.6967418139336;-0.8990478515625;-0.158416748046875;1.32999999664207;134;100 mA
73.7067418139084;-0.89935302734375;-0.15802001953125;1.33999999661683;135;100 mA
73.7167418138831;-0.899658203125;-0.159088134765625;1.34999999659158;136;100 mA
73.7267418138579;-0.899658203125;-0.160430908203125;1.35999999656633;137;100 mA
73.7367418138326;-0.899658203125;-0.16058349609375;1.36999999654108;138;100 mA
73.7467418138074;-0.89935302734375;-0.16180419921875;1.37999999651583;139;100 mA
73.7567418137821;-0.89996337890625;-0.162109375;1.38999999649059;140;100 mA
73.7667418137569;-0.8990478515625;-0.163299560546875;1.39999999646534;141;100 mA
73.7767418137316;-0.89996337890625;-0.161773681640625;1.40999999644009;142;100 mA
73.7867418137064;-0.89874267578125;-0.161346435546875;1.41999999641484;143;100 mA
73.7967418136811;-0.89935302734375;-0.161834716796875;1.4299999963896;144;100 mA
73.8067418136559;-0.89996337890625;-0.158721923828125;1.43999999636435;145;100 mA
73.8167418136306;-0.899658203125;-0.1612548828125;1.4499999963391;146;100 mA
73.8267418136054;-0.8990478515625;-0.1597900390625;1.45999999631385;147;100 mA
73.8367418135801;-0.899658203125;-0.159698486328125;1.46999999628861;148;100 mA
73.8467418135549;-0.89935302734375;-0.159637451171875;1.47999999626336;149;100 mA
73.8567418135297;-0.89935302734375;-0.158935546875;1.48999999623811;150;100 mA
73.8667418135044;-0.89935302734375;-0.16021728515625;1.49999999621286;151;100 mA
73.8767418134792;-0.89935302734375;-0.15924072265625;1.50999999618762;152;100 mA
73.8867418134539;-0.8990478515625;-0.160858154296875;1.51999999616237;153;100 mA
73.8967418134287;-0.8990478515625;-0.159698486328125;1.52999999613712;154;100 mA
73.9067418134034;-0.8990478515625;-0.159515380859375;1.53999999611187;155;100 mA
73.9167418133782;-0.899658203125;-0.1602783203125;1.54999999608663;156;100 mA
73.9267418133529;-0.89935302734375;-0.158721923828125;1.55999999606138;157;100 mA
73.9367418133277;-0.89935302734375;-0.159454345703125;1.56999999603613;158;100 mA
73.9467418133024;-0.899658203125;-0.158447265625;1.57999999601088;159;100 mA
73.9567418132772;-0.89935302734375;-0.160919189453125;1.58999999598564;160;100 mA
73.9667418132519;-0.89935302734375;-0.161407470703125;1.59999999596039;161;100 mA
73.9767418132267;-0.89935302734375;-0.1595458984375;1.60999999593514;162;100 mA
73.9867418132014;-0.8990478515625;-0.161102294921875;1.61999999590989;163;100 mA
73.9967418131762;-0.899658203125;-0.159912109375;1.62999999588465;164;100 mA
74.0067418131509;-0.899658203125;-0.160186767578125;1.6399999958594;165;100 mA
74.0167418131257;-0.899658203125;-0.1583251953125;1.64999999583415;166;100 mA
74.0267418131004;-0.899658203125;-0.157867431640625;1.6599999958089;167;100 mA
74.0367418130752;-0.899658203125;-0.1593017578125;1.66999999578366;168;100 mA
74.0467418130499;-0.9002685546875;-0.157867431640625;1.67999999575841;169;100 mA
74.0567418130247;-0.899658203125;-0.159210205078125;1.68999999573316;170;100 mA
74.0667418129995;-0.89935302734375;-0.158172607421875;1.69999999570791;171;100 mA
74.0767418129742;-0.89996337890625;-0.15899658203125;1.70999999568267;172;100 mA
74.086741812949;-0.89935302734375;-0.158935546875;1.71999999565742;173;100 mA
74.0967418129237;-0.899658203125;-0.158111572265625;1.72999999563217;174;100 mA
74.1067418128985;-0.899658203125;-0.15924072265625;1.73999999560692;175;100 mA
74.1167418128732;-0.8990478515625;-0.157623291015625;1.74999999558167;176;100 mA
74.126741812848;-0.89935302734375;-0.15826416015625;1.75999999555643;177;100 mA
74.1367418128227;-0.899658203125;-0.15814208984375;1.76999999553118;178;100 mA
74.1467418127975;-0.89935302734375;-0.159088134765625;1.77999999550593;179;100 mA
74.1567418127722;-0.899658203125;-0.1600341796875;1.78999999548068;180;100 mA
74.166741812747;-0.899658203125;-0.157684326171875;1.79999999545544;181;100 mA
74.1767418127217;-0.89935302734375;-0.15960693359375;1.80999999543019;182;100 mA
74.1867418126965;-0.89935302734375;-0.15911865234375;1.81999999540494;183;100 mA
74.1967418126712;-0.89935302734375;-0.160064697265625;1.82999999537969;184;100 mA
74.206741812646;-0.899658203125;-0.160125732421875;1.83999999535445;185;100 mA
74.2167418126207;-0.899658203125;-0.159759521484375;1.8499999953292;186;100 mA
74.2267418125955;-0.899658203125;-0.1619873046875;1.85999999530395;187;100 mA
74.2367418125702;-0.89935302734375;-0.160308837890625;1.8699999952787;188;100 mA
74.246741812545;-0.899658203125;-0.159759521484375;1.87999999525346;189;100 mA
74.2567418125197;-0.89996337890625;-0.158538818359375;1.88999999522821;190;100 mA
74.2667418124945;-0.89935302734375;-0.15899658203125;1.89999999520296;191;100 mA
74.2767418124693;-0.89935302734375;-0.159515380859375;1.90999999517771;192;100 mA
74.286741812444;-0.899658203125;-0.157318115234375;1.91999999515247;193;100 mA
74.2967418124188;-0.89935302734375;-0.158294677734375;1.92999999512722;194;100 mA
74.3067418123935;-0.899658203125;-0.156341552734375;1.93999999510197;195;100 mA
74.3167418123683;-0.899658203125;-0.15625;1.94999999507672;196;100 mA
74.326741812343;-0.89935302734375;-0.156829833984375;1.95999999505148;197;100 mA
74.3367418123178;-0.89935302734375;-0.1552734375;1.96999999502623;198;100 mA
74.3467418122925;-0.899658203125;-0.157867431640625;1.97999999500098;199;100 mA
74.3567418122673;-0.899658203125;-0.157806396484375;1.98999999497573;200;100 mA
74.366741812242;-0.899658203125;-0.160064697265625;1.99999999495049;201;100 mA
74.3767418122168;-0.8990478515625;-0.15936279296875;2.00999999492524;202;100 mA
74.3867418121915;-0.899658203125;-0.159820556640625;2.01999999489999;203;100 mA
74.3967418121663;-0.89935302734375;-0.161102294921875;2.02999999487474;204;100 mA
74.406741812141;-0.899658203125;-0.159576416015625;2.0399999948495;205;100 mA
74.4167418121158;-0.899658203125;-0.16229248046875;2.04999999482425;206;100 mA
74.4267418120905;-0.89935302734375;-0.16229248046875;2.059999994799;207;100 mA
74.4367418120653;-0.899658203125;-0.162078857421875;2.06999999477375;208;100 mA
74.44674181204;-0.899658203125;-0.159912109375;2.0799999947485;209;100 mA
74.4567418120148;-0.89935302734375;-0.15948486328125;2.08999999472326;210;100 mA
74.4667418119896;-0.899658203125;-0.16162109375;2.09999999469801;211;100 mA
74.4767418119643;-0.899658203125;-0.16082763671875;2.10999999467276;212;100 mA
74.4867418119391;-0.89935302734375;-0.16119384765625;2.11999999464751;213;100 mA
74.4967418119138;-0.89935302734375;-0.161407470703125;2.12999999462227;214;100 mA
74.5067418118886;-0.89996337890625;-0.160552978515625;2.13999999459702;215;100 mA
74.5167418118633;-0.8990478515625;-0.1624755859375;2.14999999457177;216;100 mA
74.5267418118381;-0.89935302734375;-0.161590576171875;2.15999999454652;217;100 mA
74.5367418118128;-0.899658203125;-0.161834716796875;2.16999999452128;218;100 mA
74.5467418117876;-0.8990478515625;-0.161529541015625;2.17999999449603;219;100 mA
74.5567418117623;-0.8990478515625;-0.16094970703125;2.18999999447078;220;100 mA
74.5667418117371;-0.899658203125;-0.1611328125;2.19999999444553;221;100 mA
74.5767418117118;-0.89935302734375;-0.16082763671875;2.20999999442029;222;100 mA
74.5867418116866;-0.899658203125;-0.163177490234375;2.21999999439504;223;100 mA
74.5967418116613;-0.89996337890625;-0.161651611328125;2.22999999436979;224;100 mA
74.6067418116361;-0.89935302734375;-0.161590576171875;2.23999999434454;225;100 mA
74.6167418116108;-0.899658203125;-0.161956787109375;2.2499999943193;226;100 mA
74.6267418115856;-0.89874267578125;-0.161590576171875;2.25999999429405;227;100 mA
74.6367418115603;-0.899658203125;-0.1622314453125;2.2699999942688;228;100 mA
74.6467418115351;-0.8990478515625;-0.160308837890625;2.27999999424355;229;100 mA
74.6567418115098;-0.8990478515625;-0.161834716796875;2.28999999421831;230;100 mA
74.6667418114846;-0.89996337890625;-0.161224365234375;2.29999999419306;231;100 mA
74.6767418114594;-0.8990478515625;-0.161651611328125;2.30999999416781;232;100 mA
74.6867418114341;-0.89874267578125;-0.16217041015625;2.31999999414256;233;100 mA
74.6967418114089;-0.89935302734375;-0.160980224609375;2.32999999411732;234;100 mA
74.7067418113836;-0.899658203125;-0.1622314453125;2.33999999409207;235;100 mA
74.7167418113584;-0.89935302734375;-0.15802001953125;2.34999999406682;236;100 mA
74.7267418113331;-0.8990478515625;-0.15777587890625;2.35999999404157;237;100 mA
74.7367418113079;-0.899658203125;-0.157989501953125;2.36999999401633;238;100 mA
74.7467418112826;-0.89996337890625;-0.158477783203125;2.37999999399108;239;100 mA
74.7567418112574;-0.899658203125;-0.15887451171875;2.38999999396583;240;100 mA
74.7667418112321;-0.89996337890625;-0.157257080078125;2.39999999394058;241;100 mA
74.7767418112069;-0.89935302734375;-0.16131591796875;2.40999999391533;242;100 mA
74.7867418111816;-0.89874267578125;-0.16143798828125;2.41999999389009;243;100 mA
74.7967418111564;-0.899658203125;-0.161865234375;2.42999999386484;244;100 mA
74.8067418111311;-0.89996337890625;-0.16064453125;2.43999999383959;245;100 mA
74.8167418111059;-0.89935302734375;-0.15899658203125;2.44999999381434;246;100 mA
74.8267418110806;-0.89935302734375;-0.1611328125;2.4599999937891;247;100 mA
74.8367418110554;-0.899658203125;-0.158721923828125;2.46999999376385;248;100 mA
74.8467418110301;-0.899658203125;-0.159149169921875;2.4799999937386;249;100 mA
74.8567418110049;-0.8990478515625;-0.1588134765625;2.48999999371335;250;100 mA
74.8667418109796;-0.899658203125;-0.15924072265625;2.49999999368811;251;100 mA
74.8767418109544;-0.89996337890625;-0.16021728515625;2.50999999366286;252;100 mA
74.8867418109292;-0.899658203125;-0.1580810546875;2.51999999363761;253;100 mA
74.8967418109039;-0.89996337890625;-0.159759521484375;2.52999999361236;254;100 mA
74.9067418108787;-0.899658203125;-0.157623291015625;2.53999999358712;255;100 mA
74.9167418108534;-0.89996337890625;-0.157989501953125;2.54999999356187;256;100 mA
74.9267418108282;-0.8990478515625;-0.158843994140625;2.55999999353662;257;100 mA
74.9367418108029;-0.899658203125;-0.158966064453125;2.56999999351137;258;100 mA
74.9467418107777;-0.899658203125;-0.1612548828125;2.57999999348613;259;100 mA
74.9567418107524;-0.899658203125;-0.1590576171875;2.58999999346088;260;100 mA
74.9667418107272;-0.89935302734375;-0.16064453125;2.59999999343563;261;100 mA
74.9767418107019;-0.89996337890625;-0.160491943359375;2.60999999341038;262;100 mA
74.9867418106767;-0.8990478515625;-0.159515380859375;2.61999999338514;263;100 mA
74.9967418106514;-0.899658203125;-0.160186767578125;2.62999999335989;264;100 mA
75.0067418106262;-0.8990478515625;-0.15814208984375;2.63999999333464;265;100 mA
75.0167418106009;-0.899658203125;-0.160186767578125;2.64999999330939;266;100 mA
75.0267418105757;-0.89935302734375;-0.1580810546875;2.65999999328415;267;100 mA
75.0367418105504;-0.89935302734375;-0.157989501953125;2.6699999932589;268;100 mA
75.0467418105252;-0.8990478515625;-0.15814208984375;2.67999999323365;269;100 mA
75.0567418104999;-0.89935302734375;-0.157012939453125;2.6899999932084;270;100 mA
75.0667418104747;-0.89996337890625;-0.159912109375;2.69999999318316;271;100 mA
75.0767418104494;-0.899658203125;-0.15802001953125;2.70999999315791;272;100 mA
75.0867418104242;-0.899658203125;-0.158447265625;2.71999999313266;273;100 mA
75.096741810399;-0.8990478515625;-0.1578369140625;2.72999999310741;274;100 mA
75.1067418103737;-0.89996337890625;-0.157073974609375;2.73999999308217;275;100 mA
75.1167418103485;-0.89935302734375;-0.157196044921875;2.74999999305692;276;100 mA
75.1267418103232;-0.89935302734375;-0.155181884765625;2.75999999303167;277;100 mA
75.136741810298;-0.9002685546875;-0.15625;2.76999999300642;278;100 mA
75.1467418102727;-0.89935302734375;-0.155609130859375;2.77999999298117;279;100 mA
75.1567418102475;-0.89935302734375;-0.155242919921875;2.78999999295593;280;100 mA
75.1667418102222;-0.89996337890625;-0.15625;2.79999999293068;281;100 mA
75.176741810197;-0.899658203125;-0.15594482421875;2.80999999290543;282;100 mA
75.1867418101717;-0.899658203125;-0.156982421875;2.81999999288018;283;100 mA
75.1967418101465;-0.899658203125;-0.154693603515625;2.82999999285494;284;100 mA
75.2067418101212;-0.89935302734375;-0.155487060546875;2.83999999282969;285;100 mA
75.216741810096;-0.8990478515625;-0.155914306640625;2.84999999280444;286;100 mA
75.2267418100707;-0.89935302734375;-0.154571533203125;2.85999999277919;287;100 mA
75.2367418100455;-0.8990478515625;-0.15509033203125;2.86999999275395;288;100 mA
75.2467418100202;-0.899658203125;-0.154693603515625;2.8799999927287;289;100 mA
75.256741809995;-0.899658203125;-0.15679931640625;2.88999999270345;290;100 mA
75.2667418099697;-0.899658203125;-0.154632568359375;2.8999999926782;291;100 mA
75.2767418099445;-0.89935302734375;-0.15301513671875;2.90999999265296;292;100 mA
75.2867418099192;-0.89996337890625;-0.153289794921875;2.91999999262771;293;100 mA
75.296741809894;-0.89935302734375;-0.152801513671875;2.92999999260246;294;100 mA
75.3067418098688;-0.89996337890625;-0.15374755859375;2.93999999257721;295;100 mA
75.3167418098435;-0.89935302734375;-0.15386962890625;2.94999999255197;296;100 mA
75.3267418098183;-0.8990478515625;-0.15350341796875;2.95999999252672;297;100 mA
75.336741809793;-0.89996337890625;-0.15264892578125;2.96999999250147;298;100 mA
75.3467418097678;-0.89935302734375;-0.152801513671875;2.97999999247622;299;100 mA
75.3567418097425;-0.899658203125;-0.152984619140625;2.98999999245098;300;100 mA
75.3667418097173;-0.89935302734375;-0.151885986328125;2.99999999242573;301;100 mA
75.376741809692;-0.8990478515625;-0.15277099609375;3.00999999240048;302;100 mA
75.3867418096668;-0.89935302734375;-0.150482177734375;3.01999999237523;303;100 mA
75.3967418096415;-0.9002685546875;-0.150848388671875;3.02999999234999;304;100 mA
75.4067418096163;-0.8990478515625;-0.152099609375;3.03999999232474;305;100 mA
75.416741809591;-0.899658203125;-0.151031494140625;3.04999999229949;306;100 mA
75.4267418095658;-0.899658203125;-0.151763916015625;3.05999999227424;307;100 mA
75.4367418095405;-0.8990478515625;-0.1500244140625;3.069999992249;308;100 mA
75.4467418095153;-0.899658203125;-0.150146484375;3.07999999222375;309;100 mA
75.45674180949;-0.89935302734375;-0.150238037109375;3.0899999921985;310;100 mA
75.4667418094648;-0.899658203125;-0.149627685546875;3.09999999217325;311;100 mA
75.4767418094395;-0.899658203125;-0.15045166015625;3.109999992148;312;100 mA
75.4867418094143;-0.89935302734375;-0.150115966796875;3.11999999212276;313;100 mA
75.4967418093891;-0.89935302734375;-0.151336669921875;3.12999999209751;314;100 mA
75.5067418093638;-0.89935302734375;-0.151123046875;3.13999999207226;315;100 mA
75.5167418093386;-0.89935302734375;-0.15130615234375;3.14999999204701;316;100 mA
75.5267418093133;-0.89935302734375;-0.150970458984375;3.15999999202177;317;100 mA
75.5367418092881;-0.89935302734375;-0.149932861328125;3.16999999199652;318;100 mA
75.5467418092628;-0.89935302734375;-0.151214599609375;3.17999999197127;319;100 mA
75.5567418092376;-0.899658203125;-0.149932861328125;3.18999999194602;320;100 mA
75.5667418092123;-0.899658203125;-0.151947021484375;3.19999999192078;321;100 mA
75.5767418091871;-0.899658203125;-0.1522216796875;3.20999999189553;322;100 mA
75.5867418091618;-0.89935302734375;-0.152313232421875;3.21999999187028;323;100 mA
75.5967418091366;-0.89874267578125;-0.152618408203125;3.22999999184503;324;100 mA
75.6067418091113;-0.8990478515625;-0.151519775390625;3.23999999181979;325;100 mA
75.6167418090861;-0.8990478515625;-0.153228759765625;3.24999999179454;326;100 mA
75.6267418090608;-0.89935302734375;-0.1522216796875;3.25999999176929;327;100 mA
75.6367418090356;-0.89935302734375;-0.15130615234375;3.26999999174404;328;100 mA
75.6467418090103;-0.89935302734375;-0.151092529296875;3.2799999917188;329;100 mA
75.6567418089851;-0.8990478515625;-0.15020751953125;3.28999999169355;330;100 mA
75.6667418089598;-0.899658203125;-0.15069580078125;3.2999999916683;331;100 mA
75.6767418089346;-0.8990478515625;-0.150238037109375;3.30999999164305;332;100 mA
75.6867418089093;-0.899658203125;-0.151092529296875;3.31999999161781;333;100 mA
75.6967418088841;-0.899658203125;-0.1502685546875;3.32999999159256;334;100 mA
75.7067418088589;-0.89935302734375;-0.14990234375;3.33999999156731;335;100 mA
75.7167418088336;-0.899658203125;-0.15057373046875;3.34999999154206;336;100 mA
75.7267418088084;-0.89935302734375;-0.150848388671875;3.35999999151682;337;100 mA
75.7367418087831;-0.899658203125;-0.15167236328125;3.36999999149157;338;100 mA
75.7467418087579;-0.89996337890625;-0.15106201171875;3.37999999146632;339;100 mA
75.7567418087326;-0.899658203125;-0.15277099609375;3.38999999144107;340;100 mA
75.7667418087074;-0.899658203125;-0.15350341796875;3.39999999141583;341;100 mA
75.7767418086821;-0.899658203125;-0.152740478515625;3.40999999139058;342;100 mA
75.7867418086569;-0.899658203125;-0.153564453125;3.41999999136533;343;100 mA
75.7967418086316;-0.89935302734375;-0.15130615234375;3.42999999134008;344;100 mA
75.8067418086064;-0.89935302734375;-0.15106201171875;3.43999999131483;345;100 mA
75.8167418085811;-0.89935302734375;-0.15069580078125;3.44999999128959;346;100 mA
75.8267418085559;-0.89935302734375;-0.15020751953125;3.45999999126434;347;100 mA
75.8367418085306;-0.89996337890625;-0.15191650390625;3.46999999123909;348;100 mA
75.8467418085054;-0.89935302734375;-0.15093994140625;3.47999999121384;349;100 mA
75.8567418084801;-0.899658203125;-0.1513671875;3.4899999911886;350;100 mA
75.8667418084549;-0.89935302734375;-0.150604248046875;3.49999999116335;351;100 mA
75.8767418084296;-0.8990478515625;-0.1519775390625;3.5099999911381;352;100 mA
75.8867418084044;-0.89996337890625;-0.15325927734375;3.51999999111285;353;100 mA
75.8967418083791;-0.899658203125;-0.152587890625;3.52999999108761;354;100 mA
75.9067418083539;-0.89935302734375;-0.15386962890625;3.53999999106236;355;100 mA
75.9167418083287;-0.89935302734375;-0.152557373046875;3.54999999103711;356;100 mA
75.9267418083034;-0.899658203125;-0.152252197265625;3.55999999101186;357;100 mA
75.9367418082782;-0.8990478515625;-0.152191162109375;3.56999999098662;358;100 mA
75.9467418082529;-0.8990478515625;-0.151336669921875;3.57999999096137;359;100 mA
75.9567418082277;-0.89935302734375;-0.1519775390625;3.58999999093612;360;100 mA
75.9667418082024;-0.89935302734375;-0.150390625;3.59999999091087;361;100 mA
75.9767418081772;-0.899658203125;-0.151275634765625;3.60999999088563;362;100 mA
75.9867418081519;-0.8990478515625;-0.150115966796875;3.61999999086038;363;100 mA
75.9967418081267;-0.8990478515625;-0.14959716796875;3.62999999083513;364;100 mA
76.0067418081014;-0.89935302734375;-0.1485595703125;3.63999999080988;365;100 mA
76.0167418080762;-0.89935302734375;-0.1468505859375;3.64999999078464;366;100 mA
76.0267418080509;-0.89935302734375;-0.1474609375;3.65999999075939;367;100 mA
76.0367418080257;-0.899658203125;-0.146942138671875;3.66999999073414;368;100 mA
76.0467418080004;-0.89935302734375;-0.1485595703125;3.67999999070889;369;100 mA
76.0567418079752;-0.89935302734375;-0.149261474609375;3.68999999068365;370;100 mA
76.0667418079499;-0.89935302734375;-0.150726318359375;3.6999999906584;371;100 mA
76.0767418079247;-0.89935302734375;-0.151947021484375;3.70999999063315;372;100 mA
76.0867418078994;-0.899658203125;-0.151153564453125;3.7199999906079;373;100 mA
76.0967418078742;-0.89935302734375;-0.15118408203125;3.72999999058266;374;100 mA
76.1067418078489;-0.899658203125;-0.1500244140625;3.73999999055741;375;100 mA
76.1167418078237;-0.899658203125;-0.15057373046875;3.74999999053216;376;100 mA
76.1267418077985;-0.899658203125;-0.1495361328125;3.75999999050691;377;100 mA
76.1367418077732;-0.89996337890625;-0.14910888671875;3.76999999048167;378;100 mA
76.146741807748;-0.89996337890625;-0.151123046875;3.77999999045642;379;100 mA
76.1567418077227;-0.89935302734375;-0.150299072265625;3.78999999043117;380;100 mA
76.1667418076975;-0.8990478515625;-0.150604248046875;3.79999999040592;381;100 mA
76.1767418076722;-0.899658203125;-0.149688720703125;3.80999999038067;382;100 mA
76.186741807647;-0.899658203125;-0.149169921875;3.81999999035543;383;100 mA
76.1967418076217;-0.89935302734375;-0.149688720703125;3.82999999033018;384;100 mA
76.2067418075965;-0.899658203125;-0.148529052734375;3.83999999030493;385;100 mA
76.2167418075712;-0.899658203125;-0.148590087890625;3.84999999027968;386;100 mA
76.226741807546;-0.89935302734375;-0.1478271484375;3.85999999025444;387;100 mA
76.2367418075207;-0.89935302734375;-0.148223876953125;3.86999999022919;388;100 mA
76.2467418074955;-0.899658203125;-0.14788818359375;3.87999999020394;389;100 mA
76.2567418074702;-0.89996337890625;-0.1474609375;3.88999999017869;390;100 mA
76.266741807445;-0.89935302734375;-0.14910888671875;3.89999999015345;391;100 mA
76.2767418074197;-0.8990478515625;-0.148345947265625;3.9099999901282;392;100 mA
76.2867418073945;-0.89935302734375;-0.14794921875;3.91999999010295;393;100 mA
76.2967418073692;-0.89935302734375;-0.14752197265625;3.9299999900777;394;100 mA
76.306741807344;-0.899658203125;-0.1478271484375;3.93999999005246;395;100 mA
76.3167418073187;-0.89935302734375;-0.14794921875;3.94999999002721;396;100 mA
76.3267418072935;-0.899658203125;-0.1470947265625;3.95999999000196;397;100 mA
76.3367418072683;-0.89935302734375;-0.1484375;3.96999998997671;398;100 mA
76.346741807243;-0.899658203125;-0.1484375;3.97999998995147;399;100 mA
76.3567418072178;-0.899658203125;-0.14971923828125;3.98999998992622;400;100 mA
76.3667418071925;-0.89935302734375;-0.15008544921875;3.99999998990097;401;100 mA
76.3767418071673;-0.89935302734375;-0.148956298828125;4.00999998987572;402;100 mA
76.386741807142;-0.899658203125;-0.14947509765625;4.01999998985048;403;100 mA
76.3967418071168;-0.89935302734375;-0.14825439453125;4.02999998982523;404;100 mA
76.4067418070915;-0.899658203125;-0.14776611328125;4.03999998979998;405;100 mA
76.4167418070663;-0.9002685546875;-0.146484375;4.04999998977473;406;100 mA
76.426741807041;-0.8990478515625;-0.14642333984375;4.05999998974949;407;100 mA
76.4367418070158;-0.8990478515625;-0.147186279296875;4.06999998972424;408;100 mA
76.4467418069905;-0.89935302734375;-0.14678955078125;4.07999998969899;409;100 mA
76.4567418069653;-0.89935302734375;-0.148040771484375;4.08999998967374;410;100 mA
76.46674180694;-0.89935302734375;-0.14764404296875;4.0999999896485;411;100 mA
76.4767418069148;-0.89996337890625;-0.147857666015625;4.10999998962325;412;100 mA
76.4867418068895;-0.899658203125;-0.147247314453125;4.119999989598;413;100 mA
76.4967418068643;-0.89935302734375;-0.147491455078125;4.12999998957275;414;100 mA
76.506741806839;-0.89935302734375;-0.1478271484375;4.1399999895475;415;100 mA
76.5167418068138;-0.89935302734375;-0.14697265625;4.14999998952226;416;100 mA
76.5267418067886;-0.9002685546875;-0.147491455078125;4.15999998949701;417;100 mA
76.5367418067633;-0.89935302734375;-0.146392822265625;4.16999998947176;418;100 mA
76.5467418067381;-0.89996337890625;-0.146026611328125;4.17999998944651;419;100 mA
76.5567418067128;-0.89935302734375;-0.1470947265625;4.18999998942127;420;100 mA
76.5667418066876;-0.89935302734375;-0.14678955078125;4.19999998939602;421;100 mA
76.5767418066623;-0.89874267578125;-0.148040771484375;4.20999998937077;422;100 mA
76.5867418066371;-0.8990478515625;-0.146942138671875;4.21999998934552;423;100 mA
76.5967418066118;-0.899658203125;-0.14666748046875;4.22999998932028;424;100 mA
76.6067418065866;-0.8990478515625;-0.14593505859375;4.23999998929503;425;100 mA
76.6167418065613;-0.89935302734375;-0.14617919921875;4.24999998926978;426;100 mA
76.6267418065361;-0.8990478515625;-0.1468505859375;4.25999998924453;427;100 mA
76.6367418065108;-0.89935302734375;-0.145294189453125;4.26999998921929;428;100 mA
76.6467418064856;-0.89935302734375;-0.145751953125;4.27999998919404;429;100 mA
76.6567418064603;-0.899658203125;-0.146240234375;4.28999998916879;430;100 mA
76.6667418064351;-0.899658203125;-0.1470947265625;4.29999998914354;431;100 mA
76.6767418064098;-0.89996337890625;-0.146484375;4.3099999891183;432;100 mA
76.6867418063846;-0.89935302734375;-0.146209716796875;4.31999998909305;433;100 mA
76.6967418063593;-0.89935302734375;-0.146636962890625;4.3299999890678;434;100 mA
76.7067418063341;-0.89874267578125;-0.14569091796875;4.33999998904255;435;100 mA
76.7167418063088;-0.89996337890625;-0.14593505859375;4.34999998901731;436;100 mA
76.7267418062836;-0.899658203125;-0.1456298828125;4.35999998899206;437;100 mA
76.7367418062584;-0.899658203125;-0.145111083984375;4.36999998896681;438;100 mA
76.7467418062331;-0.899658203125;-0.14581298828125;4.37999998894156;439;100 mA
76.7567418062079;-0.899658203125;-0.144287109375;4.38999998891632;440;100 mA
76.7667418061826;-0.89935302734375;-0.14459228515625;4.39999998889107;441;100 mA
76.7767418061574;-0.899658203125;-0.1431884765625;4.40999998886582;442;100 mA
76.7867418061321;-0.899658203125;-0.143585205078125;4.41999998884057;443;100 mA
76.7967418061069;-0.89935302734375;-0.1446533203125;4.42999998881533;444;100 mA
76.8067418060816;-0.89935302734375;-0.144195556640625;4.43999998879008;445;100 mA
76.8167418060564;-0.899658203125;-0.144683837890625;4.44999998876483;446;100 mA
76.8267418060311;-0.899658203125;-0.143096923828125;4.45999998873958;447;100 mA
76.8367418060059;-0.899658203125;-0.143218994140625;4.46999998871433;448;100 mA
76.8467418059806;-0.8990478515625;-0.144073486328125;4.47999998868909;449;100 mA
76.8567418059554;-0.89935302734375;-0.143310546875;4.48999998866384;450;100 mA
76.8667418059301;-0.899658203125;-0.1439208984375;4.49999998863859;451;100 mA
76.8767418059049;-0.89996337890625;-0.143096923828125;4.50999998861334;452;100 mA
76.8867418058796;-0.9002685546875;-0.143768310546875;4.5199999885881;453;100 mA
76.8967418058544;-0.89935302734375;-0.144287109375;4.52999998856285;454;100 mA
76.9067418058291;-0.8990478515625;-0.1458740234375;4.5399999885376;455;100 mA
76.9167418058039;-0.899658203125;-0.1466064453125;4.54999998851235;456;100 mA
76.9267418057786;-0.899658203125;-0.1453857421875;4.55999998848711;457;100 mA
76.9367418057534;-0.89935302734375;-0.147430419921875;4.56999998846186;458;100 mA
76.9467418057282;-0.89935302734375;-0.14654541015625;4.57999998843661;459;100 mA
76.9567418057029;-0.89935302734375;-0.146759033203125;4.58999998841136;460;100 mA
76.9667418056777;-0.899658203125;-0.147003173828125;4.59999998838612;461;100 mA
76.9767418056524;-0.899658203125;-0.146575927734375;4.60999998836087;462;100 mA
76.9867418056272;-0.89935302734375;-0.14642333984375;4.61999998833562;463;100 mA
76.9967418056019;-0.8990478515625;-0.14532470703125;4.62999998831037;464;100 mA
77.0067418055767;-0.89874267578125;-0.14678955078125;4.63999998828513;465;100 mA
77.0167418055514;-0.89935302734375;-0.147705078125;4.64999998825988;466;100 mA
77.0267418055262;-0.89935302734375;-0.147674560546875;4.65999998823463;467;100 mA
77.0367418055009;-0.89935302734375;-0.14752197265625;4.66999998820938;468;100 mA
77.0467418054757;-0.899658203125;-0.14703369140625;4.67999998818414;469;100 mA
77.0567418054504;-0.899658203125;-0.148834228515625;4.68999998815889;470;100 mA
77.0667418054252;-0.89935302734375;-0.14874267578125;4.69999998813364;471;100 mA
77.0767418053999;-0.89996337890625;-0.1483154296875;4.70999998810839;472;100 mA
77.0867418053747;-0.899658203125;-0.1478271484375;4.71999998808315;473;100 mA
77.0967418053494;-0.89935302734375;-0.147064208984375;4.7299999880579;474;100 mA
77.1067418053242;-0.89935302734375;-0.148284912109375;4.73999998803265;475;100 mA
77.1167418052989;-0.899658203125;-0.1485595703125;4.7499999880074;476;100 mA
77.1267418052737;-0.89935302734375;-0.1495361328125;4.75999998798216;477;100 mA
77.1367418052484;-0.899658203125;-0.148162841796875;4.76999998795691;478;100 mA
77.1467418052232;-0.8990478515625;-0.148040771484375;4.77999998793166;479;100 mA
77.156741805198;-0.899658203125;-0.14923095703125;4.78999998790641;480;100 mA
77.1667418051727;-0.899658203125;-0.147735595703125;4.79999998788116;481;100 mA
77.1767418051475;-0.899658203125;-0.1485595703125;4.80999998785592;482;100 mA
77.1867418051222;-0.89935302734375;-0.14703369140625;4.81999998783067;483;100 mA
77.196741805097;-0.899658203125;-0.147216796875;4.82999998780542;484;100 mA
77.2067418050717;-0.899658203125;-0.14703369140625;4.83999998778017;485;100 mA
77.2167418050465;-0.89935302734375;-0.146087646484375;4.84999998775493;486;100 mA
77.2267418050212;-0.899658203125;-0.146514892578125;4.85999998772968;487;100 mA
77.236741804996;-0.8990478515625;-0.1455078125;4.86999998770443;488;100 mA
77.2467418049707;-0.89935302734375;-0.145538330078125;4.87999998767918;489;100 mA
77.2567418049455;-0.89935302734375;-0.144775390625;4.88999998765394;490;100 mA
77.2667418049202;-0.89935302734375;-0.1441650390625;4.89999998762869;491;100 mA
77.276741804895;-0.89996337890625;-0.14453125;4.90999998760344;492;100 mA
77.2867418048697;-0.899658203125;-0.14312744140625;4.91999998757819;493;100 mA
77.2967418048445;-0.89935302734375;-0.143157958984375;4.92999998755295;494;100 mA
77.3067418048192;-0.89935302734375;-0.14306640625;4.9399999875277;495;100 mA
77.316741804794;-0.899658203125;-0.143310546875;4.94999998750245;496;100 mA
77.3267418047687;-0.89935302734375;-0.142791748046875;4.9599999874772;497;100 mA
77.3367418047435;-0.8990478515625;-0.142486572265625;4.96999998745196;498;100 mA
77.3467418047182;-0.8990478515625;-0.143341064453125;4.97999998742671;499;100 mA
77.356741804693;-0.89996337890625;-0.14251708984375;4.98999998740146;500;100 mA
77.3667418046678;-0.899658203125;-0.14306640625;4.99999998737621;501;100 mA
77.3767418046425;-0.899658203125;-0.143157958984375;5.00999998735097;502;100 mA
77.3867418046173;-0.89935302734375;-0.143157958984375;5.01999998732572;503;100 mA
77.396741804592;-0.899658203125;-0.14373779296875;5.02999998730047;504;100 mA
77.4067418045668;-0.899658203125;-0.1424560546875;5.03999998727522;505;100 mA
77.4167418045415;-0.89996337890625;-0.143402099609375;5.04999998724998;506;100 mA
77.4267418045163;-0.899658203125;-0.142181396484375;5.05999998722473;507;100 mA
77.436741804491;-0.89996337890625;-0.14239501953125;5.06999998719948;508;100 mA
77.4467418044658;-0.8990478515625;-0.14337158203125;5.07999998717423;509;100 mA
77.4567418044405;-0.8990478515625;-0.143585205078125;5.08999998714899;510;100 mA
77.4667418044153;-0.89935302734375;-0.14447021484375;5.09999998712374;511;100 mA
77.47674180439;-0.899658203125;-0.143768310546875;5.10999998709849;512;100 mA
77.4867418043648;-0.89935302734375;-0.14520263671875;5.11999998707324;513;100 mA
77.4967418043395;-0.89935302734375;-0.144989013671875;5.129999987048;514;100 mA
77.5067418043143;-0.899658203125;-0.14544677734375;5.13999998702275;515;100 mA
77.516741804289;-0.89996337890625;-0.14642333984375;5.1499999869975;516;100 mA
77.5267418042638;-0.899658203125;-0.145294189453125;5.15999998697225;517;100 mA
77.5367418042385;-0.8990478515625;-0.145294189453125;5.169999986947;518;100 mA
77.5467418042133;-0.89996337890625;-0.14404296875;5.17999998692176;519;100 mA
77.5567418041881;-0.8990478515625;-0.1435546875;5.18999998689651;520;100 mA
77.5667418041628;-0.89935302734375;-0.14361572265625;5.19999998687126;521;100 mA
77.5767418041376;-0.89935302734375;-0.142791748046875;5.20999998684601;522;100 mA
77.5867418041123;-0.8990478515625;-0.143524169921875;5.21999998682077;523;100 mA
77.5967418040871;-0.89996337890625;-0.143768310546875;5.22999998679552;524;100 mA
77.6067418040618;-0.899658203125;-0.14447021484375;5.23999998677027;525;100 mA
77.6167418040366;-0.89996337890625;-0.1427001953125;5.24999998674502;526;100 mA
77.6267418040113;-0.899658203125;-0.14202880859375;5.25999998671978;527;100 mA
77.6367418039861;-0.899658203125;-0.14190673828125;5.26999998669453;528;100 mA
77.6467418039608;-0.89935302734375;-0.141265869140625;5.27999998666928;529;100 mA
77.6567418039356;-0.899658203125;-0.1424560546875;5.28999998664403;530;100 mA
77.6667418039103;-0.89935302734375;-0.142059326171875;5.29999998661879;531;100 mA
77.6767418038851;-0.899658203125;-0.14166259765625;5.30999998659354;532;100 mA
77.6867418038598;-0.8990478515625;-0.141082763671875;5.31999998656829;533;100 mA
77.6967418038346;-0.899658203125;-0.141357421875;5.32999998654304;534;100 mA
77.7067418038093;-0.899658203125;-0.14215087890625;5.3399999865178;535;100 mA
77.7167418037841;-0.899658203125;-0.14129638671875;5.34999998649255;536;100 mA
77.7267418037588;-0.89935302734375;-0.142364501953125;5.3599999864673;537;100 mA
77.7367418037336;-0.899658203125;-0.141571044921875;5.36999998644205;538;100 mA
77.7467418037083;-0.89935302734375;-0.141815185546875;5.37999998641681;539;100 mA
77.7567418036831;-0.899658203125;-0.14190673828125;5.38999998639156;540;100 mA
77.7667418036579;-0.89935302734375;-0.14111328125;5.39999998636631;541;100 mA
77.7767418036326;-0.89996337890625;-0.14166259765625;5.40999998634106;542;100 mA
77.7867418036074;-0.899658203125;-0.140350341796875;5.41999998631582;543;100 mA
77.7967418035821;-0.8990478515625;-0.140472412109375;5.42999998629057;544;100 mA
77.8067418035569;-0.89935302734375;-0.1409912109375;5.43999998626532;545;100 mA
77.8167418035316;-0.89935302734375;-0.140625;5.44999998624007;546;100 mA
77.8267418035064;-0.89935302734375;-0.14190673828125;5.45999998621483;547;100 mA
77.8367418034811;-0.89996337890625;-0.140472412109375;5.46999998618958;548;100 mA
77.8467418034559;-0.89935302734375;-0.1405029296875;5.47999998616433;549;100 mA
77.8567418034306;-0.8990478515625;-0.140350341796875;5.48999998613908;550;100 mA
77.8667418034054;-0.89935302734375;-0.14031982421875;5.49999998611383;551;100 mA
77.8767418033801;-0.89935302734375;-0.140167236328125;5.50999998608859;552;100 mA
77.8867418033549;-0.89996337890625;-0.1397705078125;5.51999998606334;553;100 mA
77.8967418033296;-0.89935302734375;-0.140411376953125;5.52999998603809;554;100 mA
77.9067418033044;-0.899658203125;-0.14093017578125;5.53999998601284;555;100 mA
77.9167418032791;-0.89935302734375;-0.1427001953125;5.5499999859876;556;100 mA
77.9267418032539;-0.89935302734375;-0.144012451171875;5.55999998596235;557;100 mA
77.9367418032286;-0.8990478515625;-0.1444091796875;5.5699999859371;558;100 mA
77.9467418032034;-0.899658203125;-0.1451416015625;5.57999998591185;559;100 mA
77.9567418031781;-0.89935302734375;-0.143096923828125;5.58999998588661;560;100 mA
77.9667418031529;-0.89935302734375;-0.14434814453125;5.59999998586136;561;100 mA
77.9767418031277;-0.89935302734375;-0.14471435546875;5.60999998583611;562;100 mA
77.9867418031024;-0.89935302734375;-0.144287109375;5.61999998581086;563;100 mA
77.9967418030772;-0.89935302734375;-0.144775390625;5.62999998578562;564;100 mA
78.0067418030519;-0.899658203125;-0.143585205078125;5.63999998576037;565;100 mA
78.0167418030267;-0.89996337890625;-0.14434814453125;5.64999998573512;566;100 mA
78.0267418030014;-0.899658203125;-0.143280029296875;5.65999998570987;567;100 mA
78.0367418029762;-0.89935302734375;-0.142852783203125;5.66999998568463;568;100 mA
78.0467418029509;-0.89935302734375;-0.14208984375;5.67999998565938;569;100 mA
78.0567418029257;-0.8990478515625;-0.141845703125;5.68999998563413;570;100 mA
78.0667418029004;-0.89935302734375;-0.14208984375;5.69999998560888;571;100 mA
78.0767418028752;-0.89935302734375;-0.141632080078125;5.70999998558364;572;100 mA
78.0867418028499;-0.89996337890625;-0.14154052734375;5.71999998555839;573;100 mA
78.0967418028247;-0.89935302734375;-0.1412353515625;5.72999998553314;574;100 mA
78.1067418027994;-0.89935302734375;-0.141876220703125;5.73999998550789;575;100 mA
78.1167418027742;-0.899658203125;-0.142303466796875;5.74999998548265;576;100 mA
78.1267418027489;-0.899658203125;-0.14166259765625;5.7599999854574;577;100 mA
78.1367418027237;-0.89935302734375;-0.142852783203125;5.76999998543215;578;100 mA
78.1467418026984;-0.899658203125;-0.141937255859375;5.7799999854069;579;100 mA
78.1567418026732;-0.899658203125;-0.142303466796875;5.78999998538166;580;100 mA
78.1667418026479;-0.9002685546875;-0.141937255859375;5.79999998535641;581;100 mA
78.1767418026227;-0.89996337890625;-0.141204833984375;5.80999998533116;582;100 mA
78.1867418025975;-0.89996337890625;-0.141448974609375;5.81999998530591;583;100 mA
78.1967418025722;-0.89935302734375;-0.140106201171875;5.82999998528066;584;100 mA
78.206741802547;-0.89935302734375;-0.14007568359375;5.83999998525542;585;100 mA
78.2167418025217;-0.899658203125;-0.139251708984375;5.84999998523017;586;100 mA
78.2267418024965;-0.89935302734375;-0.13873291015625;5.85999998520492;587;100 mA
78.2367418024712;-0.89935302734375;-0.138824462890625;5.86999998517967;588;100 mA
78.246741802446;-0.89935302734375;-0.13800048828125;5.87999998515443;589;100 mA
78.2567418024207;-0.89935302734375;-0.1390380859375;5.88999998512918;590;100 mA
78.2667418023955;-0.89935302734375;-0.138671875;5.89999998510393;591;100 mA
78.2767418023702;-0.899658203125;-0.139007568359375;5.90999998507868;592;100 mA
78.286741802345;-0.89935302734375;-0.139251708984375;5.91999998505344;593;100 mA
78.2967418023197;-0.89874267578125;-0.139312744140625;5.92999998502819;594;100 mA
78.3067418022945;-0.89935302734375;-0.1397705078125;5.93999998500294;595;100 mA
78.3167418022692;-0.89996337890625;-0.138580322265625;5.94999998497769;596;100 mA
78.326741802244;-0.89996337890625;-0.139251708984375;5.95999998495245;597;100 mA
78.3367418022187;-0.89935302734375;-0.13946533203125;5.9699999849272;598;100 mA
78.3467418021935;-0.89935302734375;-0.139739990234375;5.97999998490195;599;100 mA
78.3567418021682;-0.89935302734375;-0.139862060546875;5.9899999848767;600;100 mA
78.366741802143;-0.89935302734375;-0.13909912109375;5.99999998485146;601;100 mA
78.3767418021177;-0.8990478515625;-0.1395263671875;6.00999998482621;602;100 mA
78.3867418020925;-0.899658203125;-0.138275146484375;6.01999998480096;603;100 mA
78.3967418020673;-0.899658203125;-0.138153076171875;6.02999998477571;604;100 mA
78.406741802042;-0.8990478515625;-0.1375732421875;6.03999998475047;605;100 mA
78.4167418020168;-0.899658203125;-0.1365966796875;6.04999998472522;606;100 mA
78.4267418019915;-0.899658203125;-0.1368408203125;6.05999998469997;607;100 mA
78.4367418019663;-0.89935302734375;-0.135467529296875;6.06999998467472;608;100 mA
78.446741801941;-0.89935302734375;-0.1353759765625;6.07999998464948;609;100 mA
78.4567418019158;-0.899658203125;-0.135498046875;6.08999998462423;610;100 mA
78.4667418018905;-0.899658203125;-0.135955810546875;6.09999998459898;611;100 mA
78.4767418018653;-0.899658203125;-0.13641357421875;6.10999998457373;612;100 mA
78.48674180184;-0.89935302734375;-0.136444091796875;6.11999998454849;613;100 mA
78.4967418018148;-0.8990478515625;-0.137786865234375;6.12999998452324;614;100 mA
78.5067418017895;-0.8990478515625;-0.138336181640625;6.13999998449799;615;100 mA
78.5167418017643;-0.899658203125;-0.138671875;6.14999998447274;616;100 mA
78.526741801739;-0.899658203125;-0.13848876953125;6.1599999844475;617;100 mA
78.5367418017138;-0.89935302734375;-0.139190673828125;6.16999998442225;618;100 mA
78.5467418016885;-0.89996337890625;-0.14013671875;6.179999984397;619;100 mA
78.5567418016633;-0.899658203125;-0.139495849609375;6.18999998437175;620;100 mA
78.566741801638;-0.899658203125;-0.14080810546875;6.1999999843465;621;100 mA
78.5767418016128;-0.899658203125;-0.140869140625;6.20999998432126;622;100 mA
78.5867418015876;-0.89935302734375;-0.140655517578125;6.21999998429601;623;100 mA
78.5967418015623;-0.89874267578125;-0.14111328125;6.22999998427076;624;100 mA
78.6067418015371;-0.89935302734375;-0.14056396484375;6.23999998424551;625;100 mA
78.6167418015118;-0.899658203125;-0.140869140625;6.24999998422027;626;100 mA
78.6267418014866;-0.89996337890625;-0.13909912109375;6.25999998419502;627;100 mA
78.6367418014613;-0.89935302734375;-0.13824462890625;6.26999998416977;628;100 mA
78.6467418014361;-0.89996337890625;-0.13824462890625;6.27999998414452;629;100 mA
78.6567418014108;-0.899658203125;-0.137481689453125;6.28999998411928;630;100 mA
78.6667418013856;-0.89996337890625;-0.137237548828125;6.29999998409403;631;100 mA
78.6767418013603;-0.89935302734375;-0.136749267578125;6.30999998406878;632;100 mA
78.6867418013351;-0.89935302734375;-0.13690185546875;6.31999998404353;633;100 mA
78.6967418013098;-0.8990478515625;-0.136962890625;6.32999998401829;634;100 mA
78.7067418012846;-0.89935302734375;-0.13775634765625;6.33999998399304;635;100 mA
78.7167418012593;-0.899658203125;-0.138275146484375;6.34999998396779;636;100 mA
78.7267418012341;-0.89935302734375;-0.13787841796875;6.35999998394254;637;100 mA
78.7367418012088;-0.899658203125;-0.138153076171875;6.3699999839173;638;100 mA
78.7467418011836;-0.89935302734375;-0.137542724609375;6.37999998389205;639;100 mA
78.7567418011583;-0.8990478515625;-0.137908935546875;6.3899999838668;640;100 mA
78.7667418011331;-0.89935302734375;-0.13812255859375;6.39999998384155;641;100 mA
78.7767418011078;-0.89935302734375;-0.1373291015625;6.40999998381631;642;100 mA
78.7867418010826;-0.899658203125;-0.137939453125;6.41999998379106;643;100 mA
78.7967418010574;-0.899658203125;-0.13665771484375;6.42999998376581;644;100 mA
78.8067418010321;-0.8990478515625;-0.13714599609375;6.43999998374056;645;100 mA
78.8167418010069;-0.89935302734375;-0.136993408203125;6.44999998371532;646;100 mA
78.8267418009816;-0.899658203125;-0.1365966796875;6.45999998369007;647;100 mA
78.8367418009564;-0.89935302734375;-0.1375732421875;6.46999998366482;648;100 mA
78.8467418009311;-0.89996337890625;-0.13690185546875;6.47999998363957;649;100 mA
78.8567418009059;-0.89935302734375;-0.137451171875;6.48999998361433;650;100 mA
78.8667418008806;-0.89935302734375;-0.136932373046875;6.49999998358908;651;100 mA
78.8767418008554;-0.89935302734375;-0.137176513671875;6.50999998356383;652;100 mA
78.8867418008301;-0.899658203125;-0.138702392578125;6.51999998353858;653;100 mA
78.8967418008049;-0.899658203125;-0.13946533203125;6.52999998351333;654;100 mA
78.9067418007796;-0.89935302734375;-0.139251708984375;6.53999998348809;655;100 mA
78.9167418007544;-0.89935302734375;-0.138519287109375;6.54999998346284;656;100 mA
78.9267418007291;-0.89935302734375;-0.13848876953125;6.55999998343759;657;100 mA
78.9367418007039;-0.89935302734375;-0.137664794921875;6.56999998341234;658;100 mA
78.9467418006786;-0.89935302734375;-0.137481689453125;6.5799999833871;659;100 mA
78.9567418006534;-0.899658203125;-0.1376953125;6.58999998336185;660;100 mA
78.9667418006281;-0.899658203125;-0.13726806640625;6.5999999833366;661;100 mA
78.9767418006029;-0.89935302734375;-0.137298583984375;6.60999998331135;662;100 mA
78.9867418005776;-0.89935302734375;-0.13629150390625;6.61999998328611;663;100 mA
78.9967418005524;-0.899658203125;-0.136871337890625;6.62999998326086;664;100 mA
79.0067418005272;-0.89935302734375;-0.137359619140625;6.63999998323561;665;100 mA
79.0167418005019;-0.899658203125;-0.137664794921875;6.64999998321036;666;100 mA
79.0267418004767;-0.8990478515625;-0.138580322265625;6.65999998318512;667;100 mA
79.0367418004514;-0.89935302734375;-0.1375732421875;6.66999998315987;668;100 mA
79.0467418004262;-0.89935302734375;-0.138458251953125;6.67999998313462;669;100 mA
79.0567418004009;-0.89935302734375;-0.138580322265625;6.68999998310937;670;100 mA
79.0667418003757;-0.899658203125;-0.13916015625;6.69999998308413;671;100 mA
79.0767418003504;-0.89935302734375;-0.139678955078125;6.70999998305888;672;100 mA
79.0867418003252;-0.8990478515625;-0.14007568359375;6.71999998303363;673;100 mA
79.0967418002999;-0.89996337890625;-0.141021728515625;6.72999998300838;674;100 mA
79.1067418002747;-0.899658203125;-0.14068603515625;6.73999998298314;675;100 mA
79.1167418002494;-0.899658203125;-0.14080810546875;6.74999998295789;676;100 mA
79.1267418002242;-0.89935302734375;-0.14056396484375;6.75999998293264;677;100 mA
79.1367418001989;-0.89935302734375;-0.140167236328125;6.76999998290739;678;100 mA
79.1467418001737;-0.89935302734375;-0.139892578125;6.77999998288215;679;100 mA
79.1567418001484;-0.899658203125;-0.13934326171875;6.7899999828569;680;100 mA
79.1667418001232;-0.8990478515625;-0.140777587890625;6.79999998283165;681;100 mA
79.1767418000979;-0.8990478515625;-0.14080810546875;6.8099999828064;682;100 mA
79.1867418000727;-0.899658203125;-0.140533447265625;6.81999998278116;683;100 mA
79.1967418000474;-0.89935302734375;-0.140106201171875;6.82999998275591;684;100 mA
79.2067418000222;-0.8990478515625;-0.138885498046875;6.83999998273066;685;100 mA
79.216741799997;-0.89996337890625;-0.139129638671875;6.84999998270541;686;100 mA
79.2267417999717;-0.899658203125;-0.138519287109375;6.85999998268016;687;100 mA
79.2367417999465;-0.89935302734375;-0.138916015625;6.86999998265492;688;100 mA
79.2467417999212;-0.89996337890625;-0.13922119140625;6.87999998262967;689;100 mA
79.256741799896;-0.899658203125;-0.13909912109375;6.88999998260442;690;100 mA
79.2667417998707;-0.89996337890625;-0.13983154296875;6.89999998257917;691;100 mA
79.2767417998455;-0.899658203125;-0.139129638671875;6.90999998255393;692;100 mA
79.2867417998202;-0.899658203125;-0.139495849609375;6.91999998252868;693;100 mA
79.296741799795;-0.89996337890625;-0.138946533203125;6.92999998250343;694;100 mA
79.3067417997697;-0.89935302734375;-0.138702392578125;6.93999998247818;695;100 mA
79.3167417997445;-0.89996337890625;-0.13922119140625;6.94999998245294;696;100 mA
79.3267417997192;-0.89935302734375;-0.138153076171875;6.95999998242769;697;100 mA
79.336741799694;-0.89935302734375;-0.139129638671875;6.96999998240244;698;100 mA
79.3467417996687;-0.8990478515625;-0.138427734375;6.97999998237719;699;100 mA
79.3567417996435;-0.89935302734375;-0.13836669921875;6.98999998235195;700;100 mA
