Time (s);WE(1).Potential (V);WE(1).Current (A);Corrected time (s);Index;Current range
0.665223998320471;-0.399749755859375;-0.024365234375;0;1;1 A
0.675223998295223;-0.399749755859375;-0.020477294921875;0.00999999997475243;2;1 A
0.685223998269976;-0.3997802734375;-0.0181182861328125;0.0199999999495049;3;1 A
0.695223998244728;-0.399810791015625;-0.01661376953125;0.0299999999242573;4;1 A
0.705223998219481;-0.39971923828125;-0.0153839111328125;0.0399999998990097;5;1 A
0.715223998194233;-0.3997802734375;-0.014508056640625;0.0499999998737621;6;1 A
0.725223998168985;-0.39971923828125;-0.0139190673828125;0.0599999998485146;7;1 A
0.735223998143738;-0.399688720703125;-0.01326904296875;0.069999999823267;8;1 A
0.74522399811849;-0.399749755859375;-0.01282958984375;0.0799999997980194;9;1 A
0.755223998093243;-0.399688720703125;-0.0124908447265625;0.0899999997727718;10;1 A
0.765223998067995;-0.399810791015625;-0.0121002197265625;0.0999999997475243;11;1 A
0.775223998042748;-0.39971923828125;-0.01187744140625;0.109999999722277;12;1 A
0.7852239980175;-0.3997802734375;-0.01170654296875;0.119999999697029;13;1 A
0.795223997992252;-0.399810791015625;-0.011419677734375;0.129999999671782;14;1 A
0.805223997967005;-0.399749755859375;-0.0112823486328125;0.139999999646534;15;1 A
0.815223997941757;-0.39984130859375;-0.0112518310546875;0.149999999621286;16;1 A
0.82522399791651;-0.399749755859375;-0.01104736328125;0.159999999596039;17;1 A
0.835223997891262;-0.399749755859375;-0.010919189453125;0.169999999570791;18;1 A
0.845223997866015;-0.399810791015625;-0.010906982421875;0.179999999545544;19;1 A
0.855223997840767;-0.3997802734375;-0.0108062744140625;0.189999999520296;20;1 A
0.865223997815519;-0.399810791015625;-0.010723876953125;0.199999999495049;21;1 A
0.875223997790272;-0.399810791015625;-0.0107208251953125;0.209999999469801;22;1 A
0.885223997765024;-0.39971923828125;-0.0106292724609375;0.219999999444553;23;1 A
0.895223997739777;-0.3997802734375;-0.010614013671875;0.229999999419306;24;1 A
0.905223997714529;-0.3997802734375;-0.010662841796875;0.239999999394058;25;1 A
0.915223997689282;-0.399688720703125;-0.0105743408203125;0.249999999368811;26;1 A
0.925223997664034;-0.39971923828125;-0.0105621337890625;0.259999999343563;27;1 A
0.935223997638786;-0.39971923828125;-0.0105712890625;0.269999999318316;28;1 A
0.945223997613539;-0.399627685546875;-0.0104583740234375;0.279999999293068;29;1 A
0.955223997588291;-0.39971923828125;-0.0103973388671875;0.28999999926782;30;1 A
0.965223997563044;-0.39971923828125;-0.01046142578125;0.299999999242573;31;1 A
0.975223997537796;-0.399749755859375;-0.0103790283203125;0.309999999217325;32;1 A
0.985223997512549;-0.399749755859375;-0.0104736328125;0.319999999192078;33;1 A
0.995223997487301;-0.399688720703125;-0.01053466796875;0.32999999916683;34;1 A
1.00522399746205;-0.39971923828125;-0.010467529296875;0.339999999141583;35;1 A
1.01522399743681;-0.3997802734375;-0.01044921875;0.349999999116335;36;1 A
1.02522399741156;-0.39971923828125;-0.01046142578125;0.359999999091087;37;1 A
1.03522399738631;-0.3997802734375;-0.010357666015625;0.36999999906584;38;1 A
1.04522399736106;-0.39971923828125;-0.0103668212890625;0.379999999040592;39;1 A
1.05522399733582;-0.39971923828125;-0.0104461669921875;0.389999999015345;40;1 A
1.06522399731057;-0.399810791015625;-0.0104248046875;0.399999998990097;41;1 A
1.07522399728532;-0.399749755859375;-0.010430908203125;0.40999999896485;42;1 A
1.08522399726007;-0.399749755859375;-0.0104217529296875;0.419999998939602;43;1 A
1.09522399723483;-0.3997802734375;-0.0103302001953125;0.429999998914354;44;1 A
1.10522399720958;-0.3997802734375;-0.010321044921875;0.439999998889107;45;1 A
1.11522399718433;-0.399749755859375;-0.0103759765625;0.449999998863859;46;1 A
1.12522399715908;-0.399749755859375;-0.01029052734375;0.459999998838612;47;1 A
1.13522399713383;-0.3997802734375;-0.010308837890625;0.469999998813364;48;1 A
1.14522399710859;-0.399749755859375;-0.01036376953125;0.479999998788116;49;1 A
1.15522399708334;-0.39971923828125;-0.0103240966796875;0.489999998762869;50;1 A
1.16522399705809;-0.399749755859375;-0.0103240966796875;0.499999998737621;51;1 A
1.17522399703284;-0.39971923828125;-0.0103973388671875;0.509999998712374;52;1 A
1.1852239970076;-0.399749755859375;-0.010382080078125;0.519999998687126;53;1 A
1.19522399698235;-0.39971923828125;-0.0103912353515625;0.529999998661879;54;1 A
1.2052239969571;-0.39971923828125;-0.0103912353515625;0.539999998636631;55;1 A
1.21522399693185;-0.39971923828125;-0.0103057861328125;0.549999998611383;56;1 A
1.22522399690661;-0.399749755859375;-0.0102996826171875;0.559999998586136;57;1 A
1.23522399688136;-0.399749755859375;-0.010321044921875;0.569999998560888;58;1 A
1.24522399685611;-0.399688720703125;-0.010247802734375;0.579999998535641;59;1 A
1.25522399683086;-0.399749755859375;-0.01024169921875;0.589999998510393;60;1 A
1.26522399680562;-0.399688720703125;-0.01031494140625;0.599999998485146;61;1 A
1.27522399678037;-0.39971923828125;-0.0103302001953125;0.609999998459898;62;1 A
1.28522399675512;-0.39971923828125;-0.010345458984375;0.61999999843465;63;1 A
1.29522399672987;-0.399688720703125;-0.0104095458984375;0.629999998409403;64;1 A
1.30522399670463;-0.399749755859375;-0.010357666015625;0.639999998384155;65;1 A
1.31522399667938;-0.399749755859375;-0.010406494140625;0.649999998358908;66;1 A
1.32522399665413;-0.399688720703125;-0.0104339599609375;0.65999999833366;67;1 A
1.33522399662888;-0.3997802734375;-0.0103485107421875;0.669999998308413;68;1 A
1.34522399660364;-0.399749755859375;-0.010302734375;0.679999998283165;69;1 A
1.35522399657839;-0.3997802734375;-0.0102813720703125;0.689999998257917;70;1 A
1.36522399655314;-0.3997802734375;-0.010205078125;0.69999999823267;71;1 A
1.37522399652789;-0.399688720703125;-0.0102203369140625;0.709999998207422;72;1 A
1.38522399650265;-0.399810791015625;-0.010296630859375;0.719999998182175;73;1 A
1.3952239964774;-0.399749755859375;-0.0103057861328125;0.729999998156927;74;1 A
1.40522399645215;-0.399688720703125;-0.010333251953125;0.73999999813168;75;1 A
1.4152239964269;-0.39984130859375;-0.0103515625;0.749999998106432;76;1 A
1.42522399640166;-0.399749755859375;-0.0103118896484375;0.759999998081184;77;1 A
1.43522399637641;-0.399749755859375;-0.0102752685546875;0.769999998055937;78;1 A
1.44522399635116;-0.399749755859375;-0.0102447509765625;0.779999998030689;79;1 A
1.45522399632591;-0.399749755859375;-0.0101959228515625;0.789999998005442;80;1 A
1.46522399630067;-0.399749755859375;-0.0102264404296875;0.799999997980194;81;1 A
1.47522399627542;-0.399749755859375;-0.010302734375;0.809999997954947;82;1 A
1.48522399625017;-0.399627685546875;-0.01029052734375;0.819999997929699;83;1 A
1.49522399622492;-0.399749755859375;-0.01031494140625;0.829999997904451;84;1 A
1.50522399619967;-0.399749755859375;-0.010321044921875;0.839999997879204;85;1 A
1.51522399617443;-0.399688720703125;-0.0102874755859375;0.849999997853956;86;1 A
1.52522399614918;-0.39971923828125;-0.0103271484375;0.859999997828709;87;1 A
1.53522399612393;-0.39971923828125;-0.0103607177734375;0.869999997803461;88;1 A
1.54522399609868;-0.39971923828125;-0.010302734375;0.879999997778214;89;1 A
1.55522399607344;-0.3997802734375;-0.0103057861328125;0.889999997752966;90;1 A
1.56522399604819;-0.39971923828125;-0.0103271484375;0.899999997727718;91;1 A
1.57522399602294;-0.39971923828125;-0.01024169921875;0.909999997702471;92;1 A
1.58522399599769;-0.39971923828125;-0.01021728515625;0.919999997677223;93;1 A
1.59522399597245;-0.399688720703125;-0.0101959228515625;0.929999997651976;94;1 A
1.6052239959472;-0.3997802734375;-0.010162353515625;0.939999997626728;95;1 A
1.61522399592195;-0.399749755859375;-0.0101348876953125;0.949999997601481;96;1 A
1.6252239958967;-0.39971923828125;-0.010150146484375;0.959999997576233;97;1 A
1.63522399587146;-0.3997802734375;-0.0100921630859375;0.969999997550985;98;1 A
1.64522399584621;-0.39971923828125;-0.010113525390625;0.979999997525738;99;1 A
1.65522399582096;-0.3997802734375;-0.010101318359375;0.98999999750049;100;1 A
1.66522399579571;-0.399810791015625;-0.01005859375;0.999999997475243;101;1 A
1.67522399577047;-0.39971923828125;-0.0100921630859375;1.00999999745;102;1 A
1.68522399574522;-0.3997802734375;-0.0100921630859375;1.01999999742475;103;1 A
1.69522399571997;-0.399810791015625;-0.01002197265625;1.0299999973995;104;1 A
1.70522399569472;-0.399749755859375;-0.010015869140625;1.03999999737425;105;1 A
1.71522399566948;-0.399871826171875;-0.0100250244140625;1.049999997349;106;1 A
1.72522399564423;-0.399749755859375;-0.00997314453125001;1.05999999732376;107;1 A
1.73522399561898;-0.399749755859375;-0.00997009277343749;1.06999999729851;108;1 A
1.74522399559373;-0.399749755859375;-0.00999755859375;1.07999999727326;109;1 A
1.75522399556849;-0.399749755859375;-0.00989990234375;1.08999999724801;110;1 A
1.76522399554324;-0.399810791015625;-0.00987854003906249;1.09999999722277;111;1 A
1.77522399551799;-0.39971923828125;-0.0099212646484375;1.10999999719752;112;1 A
1.78522399549274;-0.399688720703125;-0.009869384765625;1.11999999717227;113;1 A
1.7952239954675;-0.399749755859375;-0.0098846435546875;1.12999999714702;114;1 A
1.80522399544225;-0.399688720703125;-0.0099334716796875;1.13999999712178;115;1 A
1.815223995417;-0.39971923828125;-0.009918212890625;1.14999999709653;116;1 A
1.82522399539175;-0.399749755859375;-0.00997314453125001;1.15999999707128;117;1 A
1.8352239953665;-0.39971923828125;-0.0100250244140625;1.16999999704603;118;1 A
1.84522399534126;-0.399688720703125;-0.010015869140625;1.17999999702079;119;1 A
1.85522399531601;-0.39971923828125;-0.0100738525390625;1.18999999699554;120;1 A
1.86522399529076;-0.399658203125;-0.0101593017578125;1.19999999697029;121;1 A
1.87522399526551;-0.39971923828125;-0.010162353515625;1.20999999694504;122;1 A
1.88522399524027;-0.399749755859375;-0.0101837158203125;1.2199999969198;123;1 A
1.89522399521502;-0.399688720703125;-0.01019287109375;1.22999999689455;124;1 A
1.90522399518977;-0.399749755859375;-0.01015625;1.2399999968693;125;1 A
1.91522399516452;-0.39971923828125;-0.0101898193359375;1.24999999684405;126;1 A
1.92522399513928;-0.399688720703125;-0.0101959228515625;1.25999999681881;127;1 A
1.93522399511403;-0.39984130859375;-0.010125732421875;1.26999999679356;128;1 A
1.94522399508878;-0.399749755859375;-0.0101806640625;1.27999999676831;129;1 A
1.95522399506353;-0.3997802734375;-0.010198974609375;1.28999999674306;130;1 A
1.96522399503829;-0.39984130859375;-0.0101318359375;1.29999999671782;131;1 A
1.97522399501304;-0.399749755859375;-0.010174560546875;1.30999999669257;132;1 A
1.98522399498779;-0.399810791015625;-0.0101898193359375;1.31999999666732;133;1 A
1.99522399496254;-0.399810791015625;-0.0101593017578125;1.32999999664207;134;1 A
2.0052239949373;-0.39971923828125;-0.0101715087890625;1.33999999661683;135;1 A
2.01522399491205;-0.399749755859375;-0.0101959228515625;1.34999999659158;136;1 A
2.0252239948868;-0.3997802734375;-0.0101409912109375;1.35999999656633;137;1 A
2.03522399486155;-0.3997802734375;-0.01015625;1.36999999654108;138;1 A
2.04522399483631;-0.3997802734375;-0.01016845703125;1.37999999651583;139;1 A
2.05522399481106;-0.399658203125;-0.0101318359375;1.38999999649059;140;1 A
2.06522399478581;-0.399749755859375;-0.0102020263671875;1.39999999646534;141;1 A
2.07522399476056;-0.3997802734375;-0.0102264404296875;1.40999999644009;142;1 A
2.08522399473532;-0.39971923828125;-0.010162353515625;1.41999999641484;143;1 A
2.09522399471007;-0.3997802734375;-0.01025390625;1.4299999963896;144;1 A
2.10522399468482;-0.39971923828125;-0.0102996826171875;1.43999999636435;145;1 A
2.11522399465957;-0.399627685546875;-0.01025390625;1.4499999963391;146;1 A
2.12522399463433;-0.39971923828125;-0.010272216796875;1.45999999631385;147;1 A
2.13522399460908;-0.399658203125;-0.01029052734375;1.46999999628861;148;1 A
2.14522399458383;-0.39971923828125;-0.0103118896484375;1.47999999626336;149;1 A
2.15522399455858;-0.399749755859375;-0.01041259765625;1.48999999623811;150;1 A
2.16522399453333;-0.399658203125;-0.010504150390625;1.49999999621286;151;1 A
2.17522399450809;-0.399749755859375;-0.010455322265625;1.50999999618762;152;1 A
2.18522399448284;-0.39971923828125;-0.01043701171875;1.51999999616237;153;1 A
2.19522399445759;-0.399749755859375;-0.0104278564453125;1.52999999613712;154;1 A
2.20522399443234;-0.3997802734375;-0.010357666015625;1.53999999611187;155;1 A
2.2152239944071;-0.39971923828125;-0.0103271484375;1.54999999608663;156;1 A
2.22522399438185;-0.399810791015625;-0.0103179931640625;1.55999999606138;157;1 A
2.2352239943566;-0.399749755859375;-0.0102142333984375;1.56999999603613;158;1 A
2.24522399433135;-0.399749755859375;-0.0102264404296875;1.57999999601088;159;1 A
2.25522399430611;-0.3997802734375;-0.0102996826171875;1.58999999598564;160;1 A
2.26522399428086;-0.399810791015625;-0.0102752685546875;1.59999999596039;161;1 A
2.27522399425561;-0.39971923828125;-0.0102813720703125;1.60999999593514;162;1 A
2.28522399423036;-0.399810791015625;-0.010272216796875;1.61999999590989;163;1 A
2.29522399420512;-0.399749755859375;-0.0102294921875;1.62999999588465;164;1 A
2.30522399417987;-0.39971923828125;-0.01021728515625;1.6399999958594;165;1 A
2.31522399415462;-0.399810791015625;-0.0101959228515625;1.64999999583415;166;1 A
2.32522399412937;-0.39971923828125;-0.01011962890625;1.6599999958089;167;1 A
2.33522399410413;-0.39971923828125;-0.0100982666015625;1.66999999578366;168;1 A
2.34522399407888;-0.399749755859375;-0.010113525390625;1.67999999575841;169;1 A
2.35522399405363;-0.39971923828125;-0.010064697265625;1.68999999573316;170;1 A
2.36522399402838;-0.39971923828125;-0.010113525390625;1.69999999570791;171;1 A
2.37522399400314;-0.399749755859375;-0.010174560546875;1.70999999568267;172;1 A
2.38522399397789;-0.399688720703125;-0.0101226806640625;1.71999999565742;173;1 A
2.39522399395264;-0.399749755859375;-0.0101470947265625;1.72999999563217;174;1 A
2.40522399392739;-0.399688720703125;-0.0101959228515625;1.73999999560692;175;1 A
2.41522399390215;-0.399688720703125;-0.0101654052734375;1.74999999558167;176;1 A
2.4252239938769;-0.39971923828125;-0.0101348876953125;1.75999999555643;177;1 A
2.43522399385165;-0.39971923828125;-0.0100799560546875;1.76999999553118;178;1 A
2.4452239938264;-0.39971923828125;-0.010015869140625;1.77999999550593;179;1 A
2.45522399380116;-0.39971923828125;-0.0100311279296875;1.78999999548068;180;1 A
2.46522399377591;-0.399688720703125;-0.01002197265625;1.79999999545544;181;1 A
2.47522399375066;-0.399749755859375;-0.0099517822265625;1.80999999543019;182;1 A
2.48522399372541;-0.39971923828125;-0.00994873046875;1.81999999540494;183;1 A
2.49522399370017;-0.399749755859375;-0.009930419921875;1.82999999537969;184;1 A
2.50522399367492;-0.399749755859375;-0.0098602294921875;1.83999999535445;185;1 A
2.51522399364967;-0.399688720703125;-0.0098602294921875;1.8499999953292;186;1 A
2.52522399362442;-0.399688720703125;-0.00988159179687501;1.85999999530395;187;1 A
2.53522399359917;-0.399810791015625;-0.00987548828125;1.8699999952787;188;1 A
2.54522399357393;-0.39971923828125;-0.00999755859375;1.87999999525346;189;1 A
2.55522399354868;-0.399810791015625;-0.010107421875;1.88999999522821;190;1 A
2.56522399352343;-0.39984130859375;-0.0100982666015625;1.89999999520296;191;1 A
2.57522399349818;-0.39971923828125;-0.0101409912109375;1.90999999517771;192;1 A
2.58522399347294;-0.399749755859375;-0.01015625;1.91999999515247;193;1 A
2.59522399344769;-0.3997802734375;-0.0100799560546875;1.92999999512722;194;1 A
2.60522399342244;-0.399749755859375;-0.0100799560546875;1.93999999510197;195;1 A
2.61522399339719;-0.39971923828125;-0.0101165771484375;1.94999999507672;196;1 A
2.62522399337195;-0.39971923828125;-0.0100799560546875;1.95999999505148;197;1 A
2.6352239933467;-0.39971923828125;-0.0101409912109375;1.96999999502623;198;1 A
2.64522399332145;-0.399810791015625;-0.0102081298828125;1.97999999500098;199;1 A
2.6552239932962;-0.39971923828125;-0.010186767578125;1.98999999497573;200;1 A
2.66522399327096;-0.399749755859375;-0.0102386474609375;1.99999999495049;201;1 A
2.67522399324571;-0.39971923828125;-0.01026611328125;2.00999999492524;202;1 A
2.68522399322046;-0.39971923828125;-0.01016845703125;2.01999999489999;203;1 A
2.69522399319521;-0.39971923828125;-0.010107421875;2.02999999487474;204;1 A
2.70522399316997;-0.399627685546875;-0.0100311279296875;2.0399999948495;205;1 A
2.71522399314472;-0.39971923828125;-0.00992736816406251;2.04999999482425;206;1 A
2.72522399311947;-0.399810791015625;-0.009906005859375;2.059999994799;207;1 A
2.73522399309422;-0.399688720703125;-0.009906005859375;2.06999999477375;208;1 A
2.74522399306898;-0.399658203125;-0.009869384765625;2.0799999947485;209;1 A
2.75522399304373;-0.3997802734375;-0.0099029541015625;2.08999999472326;210;1 A
2.76522399301848;-0.39971923828125;-0.0099456787109375;2.09999999469801;211;1 A
2.77522399299323;-0.3997802734375;-0.0098846435546875;2.10999999467276;212;1 A
2.78522399296799;-0.3997802734375;-0.009869384765625;2.11999999464751;213;1 A
2.79522399294274;-0.39971923828125;-0.00984802246093749;2.12999999462227;214;1 A
2.80522399291749;-0.3997802734375;-0.00978698730468749;2.13999999459702;215;1 A
2.81522399289224;-0.399749755859375;-0.00978698730468749;2.14999999457177;216;1 A
2.825223992867;-0.3997802734375;-0.00977172851562499;2.15999999454652;217;1 A
2.83522399284175;-0.399810791015625;-0.0097076416015625;2.16999999452128;218;1 A
2.8452239928165;-0.3997802734375;-0.0097381591796875;2.17999999449603;219;1 A
2.85522399279125;-0.399810791015625;-0.00975952148437501;2.18999999447078;220;1 A
2.865223992766;-0.399810791015625;-0.0097198486328125;2.19999999444553;221;1 A
2.87522399274076;-0.399749755859375;-0.00974426269531251;2.20999999442029;222;1 A
2.88522399271551;-0.3997802734375;-0.0097503662109375;2.21999999439504;223;1 A
2.89522399269026;-0.3997802734375;-0.0097015380859375;2.22999999436979;224;1 A
2.90522399266501;-0.399749755859375;-0.00970458984375;2.23999999434454;225;1 A
2.91522399263977;-0.399749755859375;-0.009735107421875;2.2499999943193;226;1 A
2.92522399261452;-0.39971923828125;-0.00969543457031249;2.25999999429405;227;1 A
2.93522399258927;-0.3997802734375;-0.00970458984375;2.2699999942688;228;1 A
2.94522399256402;-0.39971923828125;-0.0096923828125;2.27999999424355;229;1 A
2.95522399253878;-0.399627685546875;-0.0096405029296875;2.28999999421831;230;1 A
2.96522399251353;-0.3997802734375;-0.00966491699218749;2.29999999419306;231;1 A
2.97522399248828;-0.399749755859375;-0.00966796875000001;2.30999999416781;232;1 A
2.98522399246303;-0.3997802734375;-0.009613037109375;2.31999999414256;233;1 A
2.99522399243779;-0.399688720703125;-0.00965270996093751;2.32999999411732;234;1 A
3.00522399241254;-0.399658203125;-0.0097076416015625;2.33999999409207;235;1 A
3.01522399238729;-0.39971923828125;-0.00972900390625001;2.34999999406682;236;1 A
3.02522399236204;-0.399688720703125;-0.0097991943359375;2.35999999404157;237;1 A
3.0352239923368;-0.399749755859375;-0.00983276367187499;2.36999999401633;238;1 A
3.04522399231155;-0.3997802734375;-0.00980224609374999;2.37999999399108;239;1 A
3.0552239922863;-0.399749755859375;-0.0098876953125;2.38999999396583;240;1 A
3.06522399226105;-0.399810791015625;-0.0099639892578125;2.39999999394058;241;1 A
3.07522399223581;-0.399810791015625;-0.00989685058593751;2.40999999391533;242;1 A
3.08522399221056;-0.399688720703125;-0.00986633300781251;2.41999999389009;243;1 A
3.09522399218531;-0.399810791015625;-0.009857177734375;2.42999999386484;244;1 A
3.10522399216006;-0.3997802734375;-0.009808349609375;2.43999999383959;245;1 A
3.11522399213482;-0.3997802734375;-0.00988159179687501;2.44999999381434;246;1 A
3.12522399210957;-0.399810791015625;-0.0099365234375;2.4599999937891;247;1 A
3.13522399208432;-0.39971923828125;-0.0099456787109375;2.46999999376385;248;1 A
3.14522399205907;-0.39971923828125;-0.0100067138671875;2.4799999937386;249;1 A
3.15522399203383;-0.399749755859375;-0.010028076171875;2.48999999371335;250;1 A
3.16522399200858;-0.39971923828125;-0.0099761962890625;2.49999999368811;251;1 A
3.17522399198333;-0.39971923828125;-0.0099945068359375;2.50999999366286;252;1 A
3.18522399195808;-0.399658203125;-0.0100006103515625;2.51999999363761;253;1 A
3.19522399193283;-0.399688720703125;-0.00995788574218751;2.52999999361236;254;1 A
3.20522399190759;-0.399749755859375;-0.00999755859375;2.53999999358712;255;1 A
3.21522399188234;-0.399688720703125;-0.0100189208984375;2.54999999356187;256;1 A
3.22522399185709;-0.39971923828125;-0.00998535156249999;2.55999999353662;257;1 A
3.23522399183184;-0.39971923828125;-0.0100128173828125;2.56999999351137;258;1 A
3.2452239918066;-0.399749755859375;-0.01005859375;2.57999999348613;259;1 A
3.25522399178135;-0.39971923828125;-0.010015869140625;2.58999999346088;260;1 A
3.2652239917561;-0.399749755859375;-0.0100677490234375;2.59999999343563;261;1 A
3.27522399173085;-0.399749755859375;-0.0100921630859375;2.60999999341038;262;1 A
3.28522399170561;-0.39984130859375;-0.0100311279296875;2.61999999338514;263;1 A
3.29522399168036;-0.399688720703125;-0.010052490234375;2.62999999335989;264;1 A
3.30522399165511;-0.39984130859375;-0.0100372314453125;2.63999999333464;265;1 A
3.31522399162986;-0.399749755859375;-0.0099945068359375;2.64999999330939;266;1 A
3.32522399160462;-0.399749755859375;-0.0100372314453125;2.65999999328415;267;1 A
3.33522399157937;-0.3997802734375;-0.0101165771484375;2.6699999932589;268;1 A
3.34522399155412;-0.399749755859375;-0.01011962890625;2.67999999323365;269;1 A
3.35522399152887;-0.399810791015625;-0.0101409912109375;2.6899999932084;270;1 A
3.36522399150363;-0.399810791015625;-0.0101470947265625;2.69999999318316;271;1 A
3.37522399147838;-0.3997802734375;-0.0100830078125;2.70999999315791;272;1 A
3.38522399145313;-0.399749755859375;-0.010089111328125;2.71999999313266;273;1 A
3.39522399142788;-0.399749755859375;-0.0101226806640625;2.72999999310741;274;1 A
3.40522399140264;-0.399688720703125;-0.010107421875;2.73999999308217;275;1 A
3.41522399137739;-0.399688720703125;-0.010186767578125;2.74999999305692;276;1 A
3.42522399135214;-0.399688720703125;-0.0102569580078125;2.75999999303167;277;1 A
3.43522399132689;-0.39971923828125;-0.010247802734375;2.76999999300642;278;1 A
3.44522399130165;-0.399749755859375;-0.010247802734375;2.77999999298117;279;1 A
3.4552239912764;-0.399688720703125;-0.0102142333984375;2.78999999295593;280;1 A
3.46522399125115;-0.3997802734375;-0.010137939453125;2.79999999293068;281;1 A
3.4752239912259;-0.399658203125;-0.0101409912109375;2.80999999290543;282;1 A
3.48522399120066;-0.399688720703125;-0.010137939453125;2.81999999288018;283;1 A
3.49522399117541;-0.39971923828125;-0.0100494384765625;2.82999999285494;284;1 A
3.50522399115016;-0.399688720703125;-0.010040283203125;2.83999999282969;285;1 A
3.51522399112491;-0.399810791015625;-0.010040283203125;2.84999999280444;286;1 A
3.52522399109966;-0.3997802734375;-0.00997009277343749;2.85999999277919;287;1 A
3.53522399107442;-0.3997802734375;-0.00997314453125001;2.86999999275395;288;1 A
3.54522399104917;-0.399810791015625;-0.009991455078125;2.8799999927287;289;1 A
3.55522399102392;-0.3997802734375;-0.0099639892578125;2.88999999270345;290;1 A
3.56522399099867;-0.3997802734375;-0.010040283203125;2.8999999926782;291;1 A
3.57522399097343;-0.399749755859375;-0.010137939453125;2.90999999265296;292;1 A
3.58522399094818;-0.3997802734375;-0.010137939453125;2.91999999262771;293;1 A
3.59522399092293;-0.399749755859375;-0.0101715087890625;2.92999999260246;294;1 A
3.60522399089768;-0.399810791015625;-0.010137939453125;2.93999999257721;295;1 A
3.61522399087244;-0.399749755859375;-0.0100372314453125;2.94999999255197;296;1 A
3.62522399084719;-0.3997802734375;-0.010009765625;2.95999999252672;297;1 A
3.63522399082194;-0.399810791015625;-0.010028076171875;2.96999999250147;298;1 A
3.64522399079669;-0.399688720703125;-0.0100189208984375;2.97999999247622;299;1 A
3.65522399077145;-0.399688720703125;-0.010076904296875;2.98999999245098;300;1 A
3.6652239907462;-0.39971923828125;-0.010137939453125;2.99999999242573;301;1 A
3.67522399072095;-0.399658203125;-0.010113525390625;3.00999999240048;302;1 A
3.6852239906957;-0.39971923828125;-0.010150146484375;3.01999999237523;303;1 A
3.69522399067046;-0.399688720703125;-0.010186767578125;3.02999999234999;304;1 A
3.70522399064521;-0.39971923828125;-0.010101318359375;3.03999999232474;305;1 A
3.71522399061996;-0.399749755859375;-0.0100830078125;3.04999999229949;306;1 A
3.72522399059471;-0.399749755859375;-0.01009521484375;3.05999999227424;307;1 A
3.73522399056947;-0.399688720703125;-0.0100494384765625;3.069999992249;308;1 A
3.74522399054422;-0.399749755859375;-0.0101043701171875;3.07999999222375;309;1 A
3.75522399051897;-0.39971923828125;-0.010186767578125;3.0899999921985;310;1 A
3.76522399049372;-0.39984130859375;-0.010198974609375;3.09999999217325;311;1 A
3.77522399046848;-0.399688720703125;-0.0102630615234375;3.109999992148;312;1 A
3.78522399044323;-0.3997802734375;-0.010321044921875;3.11999999212276;313;1 A
3.79522399041798;-0.39984130859375;-0.0102874755859375;3.12999999209751;314;1 A
3.80522399039273;-0.39971923828125;-0.0103057861328125;3.13999999207226;315;1 A
3.81522399036749;-0.399749755859375;-0.010296630859375;3.14999999204701;316;1 A
3.82522399034224;-0.399749755859375;-0.0101776123046875;3.15999999202177;317;1 A
3.83522399031699;-0.399688720703125;-0.010101318359375;3.16999999199652;318;1 A
3.84522399029174;-0.399810791015625;-0.0100616455078125;3.17999999197127;319;1 A
3.8552239902665;-0.39971923828125;-0.010009765625;3.18999999194602;320;1 A
3.86522399024125;-0.39971923828125;-0.0100189208984375;3.19999999192078;321;1 A
3.875223990216;-0.39971923828125;-0.0100494384765625;3.20999999189553;322;1 A
3.88522399019075;-0.39971923828125;-0.00999755859375;3.21999999187028;323;1 A
3.8952239901655;-0.399749755859375;-0.009967041015625;3.22999999184503;324;1 A
3.90522399014026;-0.39971923828125;-0.009979248046875;3.23999999181979;325;1 A
3.91522399011501;-0.399749755859375;-0.00995788574218751;3.24999999179454;326;1 A
3.92522399008976;-0.39971923828125;-0.0099609375;3.25999999176929;327;1 A
3.93522399006451;-0.399627685546875;-0.009967041015625;3.26999999174404;328;1 A
3.94522399003927;-0.3997802734375;-0.00994262695312501;3.2799999917188;329;1 A
3.95522399001402;-0.39971923828125;-0.00992736816406251;3.28999999169355;330;1 A
3.96522398998877;-0.399749755859375;-0.009930419921875;3.2999999916683;331;1 A
3.97522398996352;-0.399749755859375;-0.0098724365234375;3.30999999164305;332;1 A
3.98522398993828;-0.399749755859375;-0.009906005859375;3.31999999161781;333;1 A
3.99522398991303;-0.399688720703125;-0.00992736816406251;3.32999999159256;334;1 A
4.00522398988778;-0.399810791015625;-0.0098907470703125;3.33999999156731;335;1 A
4.01522398986253;-0.39971923828125;-0.009918212890625;3.34999999154206;336;1 A
4.02522398983729;-0.3997802734375;-0.0099334716796875;3.35999999151682;337;1 A
4.03522398981204;-0.39984130859375;-0.00989990234375;3.36999999149157;338;1 A
4.04522398978679;-0.39971923828125;-0.0099151611328125;3.37999999146632;339;1 A
4.05522398976154;-0.3997802734375;-0.00990905761718749;3.38999999144107;340;1 A
4.0652239897363;-0.399749755859375;-0.00985107421875001;3.39999999141583;341;1 A
4.07522398971105;-0.3997802734375;-0.00985107421875001;3.40999999139058;342;1 A
4.0852239896858;-0.399810791015625;-0.0098236083984375;3.41999999136533;343;1 A
4.09522398966055;-0.39971923828125;-0.00979003906250001;3.42999999134008;344;1 A
4.10522398963531;-0.3997802734375;-0.009814453125;3.43999999131483;345;1 A
4.11522398961006;-0.399688720703125;-0.0098236083984375;3.44999999128959;346;1 A
4.12522398958481;-0.399688720703125;-0.0097808837890625;3.45999999126434;347;1 A
4.13522398955956;-0.399749755859375;-0.009796142578125;3.46999999123909;348;1 A
4.14522398953432;-0.399688720703125;-0.00981750488281249;3.47999999121384;349;1 A
4.15522398950907;-0.399688720703125;-0.00975952148437501;3.4899999911886;350;1 A
4.16522398948382;-0.39971923828125;-0.00977478027343751;3.49999999116335;351;1 A
4.17522398945857;-0.399688720703125;-0.009747314453125;3.5099999911381;352;1 A
4.18522398943333;-0.399810791015625;-0.0096893310546875;3.51999999111285;353;1 A
4.19522398940808;-0.39971923828125;-0.009747314453125;3.52999999108761;354;1 A
4.20522398938283;-0.399749755859375;-0.00980224609374999;3.53999999106236;355;1 A
4.21522398935758;-0.399749755859375;-0.009765625;3.54999999103711;356;1 A
4.22522398933233;-0.39971923828125;-0.00979003906250001;3.55999999101186;357;1 A
4.23522398930709;-0.399658203125;-0.00975646972656249;3.56999999098662;358;1 A
4.24522398928184;-0.399810791015625;-0.0096771240234375;3.57999999096137;359;1 A
4.25522398925659;-0.399688720703125;-0.0096710205078125;3.58999999093612;360;1 A
4.26522398923134;-0.399749755859375;-0.00965270996093751;3.59999999091087;361;1 A
4.2752239892061;-0.3997802734375;-0.0095855712890625;3.60999999088563;362;1 A
4.28522398918085;-0.399688720703125;-0.00960693359375001;3.61999999086038;363;1 A
4.2952239891556;-0.3997802734375;-0.0096466064453125;3.62999999083513;364;1 A
4.30522398913035;-0.399810791015625;-0.00966796875000001;3.63999999080988;365;1 A
4.31522398910511;-0.39971923828125;-0.00977783203125;3.64999999078464;366;1 A
4.32522398907986;-0.3997802734375;-0.00982666015625;3.65999999075939;367;1 A
4.33522398905461;-0.39971923828125;-0.0097686767578125;3.66999999073414;368;1 A
4.34522398902936;-0.399749755859375;-0.00977478027343751;3.67999999070889;369;1 A
4.35522398900412;-0.399749755859375;-0.009808349609375;3.68999999068365;370;1 A
4.36522398897887;-0.39971923828125;-0.00981750488281249;3.6999999906584;371;1 A
4.37522398895362;-0.39971923828125;-0.0098724365234375;3.70999999063315;372;1 A
4.38522398892837;-0.3997802734375;-0.0098846435546875;3.7199999906079;373;1 A
4.39522398890313;-0.399688720703125;-0.00987548828125;3.72999999058266;374;1 A
4.40522398887788;-0.399749755859375;-0.00997009277343749;3.73999999055741;375;1 A
4.41522398885263;-0.399627685546875;-0.0100555419921875;3.74999999053216;376;1 A
4.42522398882738;-0.399749755859375;-0.010052490234375;3.75999999050691;377;1 A
4.43522398880214;-0.39971923828125;-0.0101104736328125;3.76999999048167;378;1 A
4.44522398877689;-0.399688720703125;-0.0101470947265625;3.77999999045642;379;1 A
4.45522398875164;-0.399749755859375;-0.0101165771484375;3.78999999043117;380;1 A
4.46522398872639;-0.3997802734375;-0.01016845703125;3.79999999040592;381;1 A
4.47522398870115;-0.3997802734375;-0.01019287109375;3.80999999038067;382;1 A
4.4852239886759;-0.399810791015625;-0.010125732421875;3.81999999035543;383;1 A
4.49522398865065;-0.399810791015625;-0.0101165771484375;3.82999999033018;384;1 A
4.5052239886254;-0.3997802734375;-0.010150146484375;3.83999999030493;385;1 A
4.51522398860016;-0.399749755859375;-0.0101531982421875;3.84999999027968;386;1 A
4.52522398857491;-0.39971923828125;-0.0102081298828125;3.85999999025444;387;1 A
4.53522398854966;-0.399810791015625;-0.0102081298828125;3.86999999022919;388;1 A
4.54522398852441;-0.39971923828125;-0.0101348876953125;3.87999999020394;389;1 A
4.55522398849916;-0.3997802734375;-0.010125732421875;3.88999999017869;390;1 A
4.56522398847392;-0.3997802734375;-0.010125732421875;3.89999999015345;391;1 A
4.57522398844867;-0.399688720703125;-0.0100555419921875;3.9099999901282;392;1 A
4.58522398842342;-0.3997802734375;-0.01007080078125;3.91999999010295;393;1 A
4.59522398839817;-0.399749755859375;-0.010107421875;3.9299999900777;394;1 A
4.60522398837293;-0.399658203125;-0.010064697265625;3.93999999005246;395;1 A
4.61522398834768;-0.399810791015625;-0.0100860595703125;3.94999999002721;396;1 A
4.62522398832243;-0.39971923828125;-0.010107421875;3.95999999000196;397;1 A
4.63522398829718;-0.399688720703125;-0.0100433349609375;3.96999998997671;398;1 A
4.64522398827194;-0.39971923828125;-0.0100738525390625;3.97999998995147;399;1 A
4.65522398824669;-0.399749755859375;-0.010101318359375;3.98999998992622;400;1 A
4.66522398822144;-0.39971923828125;-0.0100555419921875;3.99999998990097;401;1 A
4.67522398819619;-0.39971923828125;-0.0100799560546875;4.00999998987572;402;1 A
4.68522398817095;-0.39971923828125;-0.01005859375;4.01999998985048;403;1 A
4.6952239881457;-0.399749755859375;-0.010003662109375;4.02999998982523;404;1 A
4.70522398812045;-0.399749755859375;-0.0100128173828125;4.03999998979998;405;1 A
4.7152239880952;-0.399749755859375;-0.0100311279296875;4.04999998977473;406;1 A
4.72522398806996;-0.3997802734375;-0.00998535156249999;4.05999998974949;407;1 A
4.73522398804471;-0.3997802734375;-0.0100067138671875;4.06999998972424;408;1 A
4.74522398801946;-0.3997802734375;-0.0100372314453125;4.07999998969899;409;1 A
4.75522398799421;-0.3997802734375;-0.00997009277343749;4.08999998967374;410;1 A
4.76522398796897;-0.399749755859375;-0.0100189208984375;4.0999999896485;411;1 A
4.77522398794372;-0.399749755859375;-0.010064697265625;4.10999998962325;412;1 A
4.78522398791847;-0.399749755859375;-0.010040283203125;4.119999989598;413;1 A
4.79522398789322;-0.399749755859375;-0.010089111328125;4.12999998957275;414;1 A
4.80522398786798;-0.399749755859375;-0.0101104736328125;4.1399999895475;415;1 A
4.81522398784273;-0.399688720703125;-0.010089111328125;4.14999998952226;416;1 A
4.82522398781748;-0.3997802734375;-0.0101104736328125;4.15999998949701;417;1 A
4.83522398779223;-0.39971923828125;-0.0101776123046875;4.16999998947176;418;1 A
4.84522398776699;-0.399688720703125;-0.0101837158203125;4.17999998944651;419;1 A
4.85522398774174;-0.39971923828125;-0.010235595703125;4.18999998942127;420;1 A
4.86522398771649;-0.39971923828125;-0.0102447509765625;4.19999998939602;421;1 A
4.87522398769124;-0.399688720703125;-0.0101959228515625;4.20999998937077;422;1 A
4.885223987666;-0.39971923828125;-0.010198974609375;4.21999998934552;423;1 A
4.89522398764075;-0.399688720703125;-0.010223388671875;4.22999998932028;424;1 A
4.9052239876155;-0.39971923828125;-0.0102142333984375;4.23999998929503;425;1 A
4.91522398759025;-0.399749755859375;-0.010296630859375;4.24999998926978;426;1 A
4.925223987565;-0.399688720703125;-0.010333251953125;4.25999998924453;427;1 A
4.93522398753976;-0.399810791015625;-0.0102783203125;4.26999998921929;428;1 A
4.94522398751451;-0.3997802734375;-0.010302734375;4.27999998919404;429;1 A
4.95522398748926;-0.3997802734375;-0.0103118896484375;4.28999998916879;430;1 A
4.96522398746401;-0.39984130859375;-0.0102752685546875;4.29999998914354;431;1 A
4.97522398743877;-0.399749755859375;-0.01025390625;4.3099999891183;432;1 A
4.98522398741352;-0.399810791015625;-0.0102142333984375;4.31999998909305;433;1 A
4.99522398738827;-0.399810791015625;-0.010137939453125;4.3299999890678;434;1 A
5.00522398736302;-0.39971923828125;-0.0101715087890625;4.33999998904255;435;1 A
5.01522398733778;-0.399810791015625;-0.010186767578125;4.34999998901731;436;1 A
5.02522398731253;-0.3997802734375;-0.0101318359375;4.35999998899206;437;1 A
5.03522398728728;-0.399688720703125;-0.0101470947265625;4.36999998896681;438;1 A
5.04522398726203;-0.399810791015625;-0.0101470947265625;4.37999998894156;439;1 A
5.05522398723679;-0.39971923828125;-0.0100677490234375;4.38999998891632;440;1 A
5.06522398721154;-0.399749755859375;-0.010040283203125;4.39999998889107;441;1 A
5.07522398718629;-0.3997802734375;-0.0099822998046875;4.40999998886582;442;1 A
5.08522398716104;-0.399627685546875;-0.0098846435546875;4.41999998884057;443;1 A
5.0952239871358;-0.3997802734375;-0.00995788574218751;4.42999998881533;444;1 A
5.10522398711055;-0.39971923828125;-0.010003662109375;4.43999998879008;445;1 A
5.1152239870853;-0.399658203125;-0.00998535156249999;4.44999998876483;446;1 A
5.12522398706005;-0.39971923828125;-0.0099761962890625;4.45999998873958;447;1 A
5.13522398703481;-0.399749755859375;-0.010009765625;4.46999998871433;448;1 A
5.14522398700956;-0.3997802734375;-0.0099822998046875;4.47999998868909;449;1 A
5.15522398698431;-0.39971923828125;-0.010052490234375;4.48999998866384;450;1 A
5.16522398695906;-0.399688720703125;-0.0101043701171875;4.49999998863859;451;1 A
5.17522398693382;-0.399749755859375;-0.0100830078125;4.50999998861334;452;1 A
5.18522398690857;-0.3997802734375;-0.010162353515625;4.5199999885881;453;1 A
5.19522398688332;-0.3997802734375;-0.0102447509765625;4.52999998856285;454;1 A
5.20522398685807;-0.3997802734375;-0.010247802734375;4.5399999885376;455;1 A
5.21522398683283;-0.399810791015625;-0.0102813720703125;4.54999998851235;456;1 A
5.22522398680758;-0.39984130859375;-0.0102691650390625;4.55999998848711;457;1 A
5.23522398678233;-0.399810791015625;-0.010150146484375;4.56999998846186;458;1 A
5.24522398675708;-0.3997802734375;-0.0100982666015625;4.57999998843661;459;1 A
5.25522398673183;-0.39984130859375;-0.01007080078125;4.58999998841136;460;1 A
5.26522398670659;-0.3997802734375;-0.00999755859375;4.59999998838612;461;1 A
5.27522398668134;-0.399749755859375;-0.0099945068359375;4.60999998836087;462;1 A
5.28522398665609;-0.399749755859375;-0.0100341796875;4.61999998833562;463;1 A
5.29522398663084;-0.399688720703125;-0.00999755859375;4.62999998831037;464;1 A
5.3052239866056;-0.39971923828125;-0.0100494384765625;4.63999998828513;465;1 A
5.31522398658035;-0.399749755859375;-0.0101318359375;4.64999998825988;466;1 A
5.3252239865551;-0.399658203125;-0.0101165771484375;4.65999998823463;467;1 A
5.33522398652985;-0.3997802734375;-0.01015625;4.66999998820938;468;1 A
5.34522398650461;-0.399658203125;-0.0101959228515625;4.67999998818414;469;1 A
5.35522398647936;-0.399688720703125;-0.0101470947265625;4.68999998815889;470;1 A
5.36522398645411;-0.3997802734375;-0.010150146484375;4.69999998813364;471;1 A
5.37522398642886;-0.39971923828125;-0.0101409912109375;4.70999998810839;472;1 A
5.38522398640362;-0.3997802734375;-0.0100616455078125;4.71999998808315;473;1 A
5.39522398637837;-0.399749755859375;-0.010101318359375;4.7299999880579;474;1 A
5.40522398635312;-0.399688720703125;-0.0101165771484375;4.73999998803265;475;1 A
5.41522398632787;-0.3997802734375;-0.0100860595703125;4.7499999880074;476;1 A
5.42522398630263;-0.399749755859375;-0.010089111328125;4.75999998798216;477;1 A
5.43522398627738;-0.3997802734375;-0.010076904296875;4.76999998795691;478;1 A
5.44522398625213;-0.399810791015625;-0.0100189208984375;4.77999998793166;479;1 A
5.45522398622688;-0.3997802734375;-0.0100311279296875;4.78999998790641;480;1 A
5.46522398620164;-0.39971923828125;-0.0100677490234375;4.79999998788116;481;1 A
5.47522398617639;-0.399810791015625;-0.01002197265625;4.80999998785592;482;1 A
5.48522398615114;-0.399749755859375;-0.00999755859375;4.81999998783067;483;1 A
5.49522398612589;-0.399810791015625;-0.0100006103515625;4.82999998780542;484;1 A
5.50522398610065;-0.399810791015625;-0.00995483398437499;4.83999998778017;485;1 A
5.5152239860754;-0.399749755859375;-0.00994262695312501;4.84999998775493;486;1 A
5.52522398605015;-0.3997802734375;-0.00993957519531249;4.85999998772968;487;1 A
5.5352239860249;-0.399749755859375;-0.00989685058593751;4.86999998770443;488;1 A
5.54522398599966;-0.3997802734375;-0.00994873046875;4.87999998767918;489;1 A
5.55522398597441;-0.399688720703125;-0.0100311279296875;4.88999998765394;490;1 A
5.56522398594916;-0.39971923828125;-0.0100494384765625;4.89999998762869;491;1 A
5.57522398592391;-0.3997802734375;-0.01009521484375;4.90999998760344;492;1 A
5.58522398589866;-0.39971923828125;-0.0100494384765625;4.91999998757819;493;1 A
5.59522398587342;-0.399688720703125;-0.0099517822265625;4.92999998755295;494;1 A
5.60522398584817;-0.399688720703125;-0.00989990234375;4.9399999875277;495;1 A
5.61522398582292;-0.39971923828125;-0.00991210937500001;4.94999998750245;496;1 A
5.62522398579767;-0.39971923828125;-0.0098846435546875;4.9599999874772;497;1 A
5.63522398577243;-0.399688720703125;-0.00994873046875;4.96999998745196;498;1 A
5.64522398574718;-0.39971923828125;-0.009991455078125;4.97999998742671;499;1 A
5.65522398572193;-0.399749755859375;-0.009967041015625;4.98999998740146;500;1 A
