Time (s);WE(1).Potential (V);WE(1).Current (A);Corrected time (s);Index;Current range
11.8495319700828;-0.599884033203125;-0.01336669921875;0;1;1 A
11.8595319700576;-0.59979248046875;-0.0122833251953125;0.00999999997475243;2;1 A
11.8695319700323;-0.60003662109375;-0.0117431640625;0.0199999999495049;3;1 A
11.8795319700071;-0.599761962890625;-0.01131591796875;0.0299999999242573;4;1 A
11.8895319699818;-0.599761962890625;-0.011212158203125;0.0399999998990097;5;1 A
11.8995319699566;-0.60003662109375;-0.0110809326171875;0.0499999998737621;6;1 A
11.9095319699313;-0.599761962890625;-0.010888671875;0.0599999998485146;7;1 A
11.9195319699061;-0.59979248046875;-0.010931396484375;0.069999999823267;8;1 A
11.9295319698808;-0.60003662109375;-0.010888671875;0.0799999997980194;9;1 A
11.9395319698556;-0.599853515625;-0.0107330322265625;0.0899999997727718;10;1 A
11.9495319698303;-0.599822998046875;-0.010748291015625;0.0999999997475243;11;1 A
11.9595319698051;-0.599945068359375;-0.010626220703125;0.109999999722277;12;1 A
11.9695319697798;-0.599853515625;-0.0104888916015625;0.119999999697029;13;1 A
11.9795319697546;-0.599853515625;-0.0105316162109375;0.129999999671782;14;1 A
11.9895319697293;-0.600006103515625;-0.010528564453125;0.139999999646534;15;1 A
11.9995319697041;-0.599822998046875;-0.0104827880859375;0.149999999621286;16;1 A
12.0095319696788;-0.59979248046875;-0.0105743408203125;0.159999999596039;17;1 A
12.0195319696536;-0.599884033203125;-0.0105926513671875;0.169999999570791;18;1 A
12.0295319696284;-0.599853515625;-0.0105712890625;0.179999999545544;19;1 A
12.0395319696031;-0.59979248046875;-0.0106689453125;0.189999999520296;20;1 A
12.0495319695779;-0.5999755859375;-0.0106201171875;0.199999999495049;21;1 A
12.0595319695526;-0.599822998046875;-0.01048583984375;0.209999999469801;22;1 A
12.0695319695274;-0.59979248046875;-0.010540771484375;0.219999999444553;23;1 A
12.0795319695021;-0.59991455078125;-0.010498046875;0.229999999419306;24;1 A
12.0895319694769;-0.599822998046875;-0.010357666015625;0.239999999394058;25;1 A
12.0995319694516;-0.599700927734375;-0.0104248046875;0.249999999368811;26;1 A
12.1095319694264;-0.599853515625;-0.0104034423828125;0.259999999343563;27;1 A
12.1195319694011;-0.59979248046875;-0.01033935546875;0.269999999318316;28;1 A
12.1295319693759;-0.5997314453125;-0.0103668212890625;0.279999999293068;29;1 A
12.1395319693506;-0.600006103515625;-0.0102935791015625;0.28999999926782;30;1 A
12.1495319693254;-0.5997314453125;-0.0102294921875;0.299999999242573;31;1 A
12.1595319693001;-0.599761962890625;-0.010302734375;0.309999999217325;32;1 A
12.1695319692749;-0.600067138671875;-0.0103057861328125;0.319999999192078;33;1 A
12.1795319692496;-0.599761962890625;-0.0102508544921875;0.32999999916683;34;1 A
12.1895319692244;-0.59979248046875;-0.0103515625;0.339999999141583;35;1 A
12.1995319691991;-0.600006103515625;-0.0103363037109375;0.349999999116335;36;1 A
12.2095319691739;-0.59979248046875;-0.0102630615234375;0.359999999091087;37;1 A
12.2195319691486;-0.59991455078125;-0.0103790283203125;0.36999999906584;38;1 A
12.2295319691234;-0.600006103515625;-0.0104095458984375;0.379999999040592;39;1 A
12.2395319690982;-0.59979248046875;-0.0103485107421875;0.389999999015345;40;1 A
12.2495319690729;-0.599822998046875;-0.010430908203125;0.399999998990097;41;1 A
12.2595319690477;-0.5999755859375;-0.0103973388671875;0.40999999896485;42;1 A
12.2695319690224;-0.599761962890625;-0.0103485107421875;0.419999998939602;43;1 A
12.2795319689972;-0.599822998046875;-0.0104095458984375;0.429999998914354;44;1 A
12.2895319689719;-0.60009765625;-0.010394287109375;0.439999998889107;45;1 A
12.2995319689467;-0.599853515625;-0.0103363037109375;0.449999998863859;46;1 A
12.3095319689214;-0.599822998046875;-0.0104217529296875;0.459999998838612;47;1 A
12.3195319688962;-0.599884033203125;-0.0103790283203125;0.469999998813364;48;1 A
12.3295319688709;-0.599822998046875;-0.0102447509765625;0.479999998788116;49;1 A
12.3395319688457;-0.599761962890625;-0.010284423828125;0.489999998762869;50;1 A
12.3495319688204;-0.600006103515625;-0.01026611328125;0.499999998737621;51;1 A
12.3595319687952;-0.599853515625;-0.01015625;0.509999998712374;52;1 A
12.3695319687699;-0.599700927734375;-0.010247802734375;0.519999998687126;53;1 A
12.3795319687447;-0.5999755859375;-0.0102569580078125;0.529999998661879;54;1 A
12.3895319687194;-0.599700927734375;-0.010186767578125;0.539999998636631;55;1 A
12.3995319686942;-0.599700927734375;-0.0102996826171875;0.549999998611383;56;1 A
12.4095319686689;-0.600006103515625;-0.010272216796875;0.559999998586136;57;1 A
12.4195319686437;-0.599700927734375;-0.0101898193359375;0.569999998560888;58;1 A
12.4295319686184;-0.599761962890625;-0.01025390625;0.579999998535641;59;1 A
12.4395319685932;-0.60003662109375;-0.0102325439453125;0.589999998510393;60;1 A
12.449531968568;-0.5997314453125;-0.0102081298828125;0.599999998485146;61;1 A
12.4595319685427;-0.59979248046875;-0.01025390625;0.609999998459898;62;1 A
12.4695319685175;-0.600067138671875;-0.010205078125;0.61999999843465;63;1 A
12.4795319684922;-0.59979248046875;-0.0101104736328125;0.629999998409403;64;1 A
12.489531968467;-0.599822998046875;-0.01016845703125;0.639999998384155;65;1 A
12.4995319684417;-0.60009765625;-0.0101654052734375;0.649999998358908;66;1 A
12.5095319684165;-0.599822998046875;-0.010113525390625;0.65999999833366;67;1 A
12.5195319683912;-0.599884033203125;-0.010235595703125;0.669999998308413;68;1 A
12.529531968366;-0.5999755859375;-0.0102508544921875;0.679999998283165;69;1 A
12.5395319683407;-0.599884033203125;-0.0101806640625;0.689999998257917;70;1 A
12.5495319683155;-0.599822998046875;-0.01026611328125;0.69999999823267;71;1 A
12.5595319682902;-0.60003662109375;-0.0102294921875;0.709999998207422;72;1 A
12.569531968265;-0.599884033203125;-0.0101470947265625;0.719999998182175;73;1 A
12.5795319682397;-0.5997314453125;-0.010211181640625;0.729999998156927;74;1 A
12.5895319682145;-0.600006103515625;-0.0101715087890625;0.73999999813168;75;1 A
12.5995319681892;-0.599884033203125;-0.0100982666015625;0.749999998106432;76;1 A
12.609531968164;-0.59979248046875;-0.01016845703125;0.759999998081184;77;1 A
12.6195319681387;-0.599945068359375;-0.01019287109375;0.769999998055937;78;1 A
12.6295319681135;-0.599761962890625;-0.010162353515625;0.779999998030689;79;1 A
12.6395319680882;-0.599761962890625;-0.0102691650390625;0.789999998005442;80;1 A
12.649531968063;-0.600006103515625;-0.0103118896484375;0.799999997980194;81;1 A
12.6595319680378;-0.599700927734375;-0.010247802734375;0.809999997954947;82;1 A
12.6695319680125;-0.59979248046875;-0.0103271484375;0.819999997929699;83;1 A
12.6795319679873;-0.60003662109375;-0.01026611328125;0.829999997904451;84;1 A
12.689531967962;-0.599700927734375;-0.010186767578125;0.839999997879204;85;1 A
12.6995319679368;-0.599761962890625;-0.0102447509765625;0.849999997853956;86;1 A
12.7095319679115;-0.60003662109375;-0.0102081298828125;0.859999997828709;87;1 A
12.7195319678863;-0.599761962890625;-0.01014404296875;0.869999997803461;88;1 A
12.729531967861;-0.599822998046875;-0.0102142333984375;0.879999997778214;89;1 A
12.7395319678358;-0.600006103515625;-0.010186767578125;0.889999997752966;90;1 A
12.7495319678105;-0.599761962890625;-0.010101318359375;0.899999997727718;91;1 A
12.7595319677853;-0.599822998046875;-0.0101776123046875;0.909999997702471;92;1 A
12.76953196776;-0.600067138671875;-0.010198974609375;0.919999997677223;93;1 A
12.7795319677348;-0.5997314453125;-0.0101776123046875;0.929999997651976;94;1 A
12.7895319677095;-0.59979248046875;-0.0102691650390625;0.939999997626728;95;1 A
12.7995319676843;-0.600067138671875;-0.0102996826171875;0.949999997601481;96;1 A
12.809531967659;-0.599822998046875;-0.01021728515625;0.959999997576233;97;1 A
12.8195319676338;-0.599853515625;-0.0102783203125;0.969999997550985;98;1 A
12.8295319676085;-0.60003662109375;-0.0102447509765625;0.979999997525738;99;1 A
12.8395319675833;-0.599822998046875;-0.0101409912109375;0.98999999750049;100;1 A
12.8495319675581;-0.599853515625;-0.0101654052734375;0.999999997475243;101;1 A
12.8595319675328;-0.600006103515625;-0.010101318359375;1.00999999745;102;1 A
12.8695319675076;-0.599822998046875;-0.0100616455078125;1.01999999742475;103;1 A
12.8795319674823;-0.59979248046875;-0.0101226806640625;1.0299999973995;104;1 A
12.8895319674571;-0.60003662109375;-0.0101043701171875;1.03999999737425;105;1 A
12.8995319674318;-0.599822998046875;-0.010009765625;1.049999997349;106;1 A
12.9095319674066;-0.5997314453125;-0.010015869140625;1.05999999732376;107;1 A
12.9195319673813;-0.60009765625;-0.00997009277343749;1.06999999729851;108;1 A
12.9295319673561;-0.59979248046875;-0.009930419921875;1.07999999727326;109;1 A
12.9395319673308;-0.5997314453125;-0.010015869140625;1.08999999724801;110;1 A
12.9495319673056;-0.600067138671875;-0.010009765625;1.09999999722277;111;1 A
12.9595319672803;-0.5997314453125;-0.00993957519531249;1.10999999719752;112;1 A
12.9695319672551;-0.5997314453125;-0.010028076171875;1.11999999717227;113;1 A
12.9795319672298;-0.60003662109375;-0.009979248046875;1.12999999714702;114;1 A
12.9895319672046;-0.59979248046875;-0.0099456787109375;1.13999999712178;115;1 A
12.9995319671793;-0.5997314453125;-0.0101104736328125;1.14999999709653;116;1 A
13.0095319671541;-0.60003662109375;-0.0101776123046875;1.15999999707128;117;1 A
13.0195319671288;-0.599761962890625;-0.010150146484375;1.16999999704603;118;1 A
13.0295319671036;-0.599822998046875;-0.010223388671875;1.17999999702079;119;1 A
13.0395319670783;-0.60009765625;-0.0102386474609375;1.18999999699554;120;1 A
13.0495319670531;-0.599761962890625;-0.0101715087890625;1.19999999697029;121;1 A
13.0595319670279;-0.599822998046875;-0.0102691650390625;1.20999999694504;122;1 A
13.0695319670026;-0.60009765625;-0.010235595703125;1.2199999969198;123;1 A
13.0795319669774;-0.599853515625;-0.0101348876953125;1.22999999689455;124;1 A
13.0895319669521;-0.59979248046875;-0.0101776123046875;1.2399999968693;125;1 A
13.0995319669269;-0.60003662109375;-0.010162353515625;1.24999999684405;126;1 A
13.1095319669016;-0.59979248046875;-0.0100799560546875;1.25999999681881;127;1 A
13.1195319668764;-0.599822998046875;-0.010107421875;1.26999999679356;128;1 A
13.1295319668511;-0.600006103515625;-0.010064697265625;1.27999999676831;129;1 A
13.1395319668259;-0.599884033203125;-0.0099609375;1.28999999674306;130;1 A
13.1495319668006;-0.59979248046875;-0.0100311279296875;1.29999999671782;131;1 A
13.1595319667754;-0.60003662109375;-0.0099945068359375;1.30999999669257;132;1 A
13.1695319667501;-0.59979248046875;-0.0099029541015625;1.31999999666732;133;1 A
13.1795319667249;-0.599761962890625;-0.00999755859375;1.32999999664207;134;1 A
13.1895319666996;-0.600006103515625;-0.0099945068359375;1.33999999661683;135;1 A
13.1995319666744;-0.59979248046875;-0.0099517822265625;1.34999999659158;136;1 A
13.2095319666491;-0.5997314453125;-0.0100494384765625;1.35999999656633;137;1 A
13.2195319666239;-0.600067138671875;-0.010064697265625;1.36999999654108;138;1 A
13.2295319665986;-0.5997314453125;-0.01002197265625;1.37999999651583;139;1 A
13.2395319665734;-0.59979248046875;-0.0100555419921875;1.38999999649059;140;1 A
13.2495319665481;-0.60009765625;-0.0100372314453125;1.39999999646534;141;1 A
13.2595319665229;-0.599700927734375;-0.0099945068359375;1.40999999644009;142;1 A
13.2695319664977;-0.599761962890625;-0.0101593017578125;1.41999999641484;143;1 A
13.2795319664724;-0.60003662109375;-0.0102630615234375;1.4299999963896;144;1 A
13.2895319664472;-0.599761962890625;-0.0102447509765625;1.43999999636435;145;1 A
13.2995319664219;-0.59979248046875;-0.01033935546875;1.4499999963391;146;1 A
13.3095319663967;-0.599884033203125;-0.010260009765625;1.45999999631385;147;1 A
13.3195319663714;-0.599761962890625;-0.0101409912109375;1.46999999628861;148;1 A
13.3295319663462;-0.59979248046875;-0.0101593017578125;1.47999999626336;149;1 A
13.3395319663209;-0.599945068359375;-0.0101318359375;1.48999999623811;150;1 A
13.3495319662957;-0.599822998046875;-0.010040283203125;1.49999999621286;151;1 A
13.3595319662704;-0.59979248046875;-0.0101043701171875;1.50999999618762;152;1 A
13.3695319662452;-0.599945068359375;-0.01015625;1.51999999616237;153;1 A
13.3795319662199;-0.59979248046875;-0.010107421875;1.52999999613712;154;1 A
13.3895319661947;-0.59979248046875;-0.0101776123046875;1.53999999611187;155;1 A
13.3995319661694;-0.5999755859375;-0.0101318359375;1.54999999608663;156;1 A
13.4095319661442;-0.599853515625;-0.0100128173828125;1.55999999606138;157;1 A
13.4195319661189;-0.599822998046875;-0.0100494384765625;1.56999999603613;158;1 A
13.4295319660937;-0.60003662109375;-0.009991455078125;1.57999999601088;159;1 A
13.4395319660684;-0.599761962890625;-0.0098876953125;1.58999999598564;160;1 A
13.4495319660432;-0.599761962890625;-0.0099609375;1.59999999596039;161;1 A
13.4595319660179;-0.600067138671875;-0.00993957519531249;1.60999999593514;162;1 A
13.4695319659927;-0.599761962890625;-0.0099029541015625;1.61999999590989;163;1 A
13.4795319659675;-0.59979248046875;-0.00998840332031251;1.62999999588465;164;1 A
13.4895319659422;-0.60003662109375;-0.01002197265625;1.6399999958594;165;1 A
13.499531965917;-0.599761962890625;-0.00997009277343749;1.64999999583415;166;1 A
13.5095319658917;-0.5997314453125;-0.0100372314453125;1.6599999958089;167;1 A
13.5195319658665;-0.600067138671875;-0.0100433349609375;1.66999999578366;168;1 A
13.5295319658412;-0.599700927734375;-0.0099639892578125;1.67999999575841;169;1 A
13.539531965816;-0.59979248046875;-0.0100067138671875;1.68999999573316;170;1 A
13.5495319657907;-0.600128173828125;-0.0099945068359375;1.69999999570791;171;1 A
13.5595319657655;-0.599761962890625;-0.0099517822265625;1.70999999568267;172;1 A
13.5695319657402;-0.59979248046875;-0.010064697265625;1.71999999565742;173;1 A
13.579531965715;-0.59991455078125;-0.010076904296875;1.72999999563217;174;1 A
13.5895319656897;-0.599700927734375;-0.0100128173828125;1.73999999560692;175;1 A
13.5995319656645;-0.599853515625;-0.010107421875;1.74999999558167;176;1 A
13.6095319656392;-0.599945068359375;-0.01009521484375;1.75999999555643;177;1 A
13.619531965614;-0.599822998046875;-0.0100341796875;1.76999999553118;178;1 A
13.6295319655887;-0.599853515625;-0.0100830078125;1.77999999550593;179;1 A
13.6395319655635;-0.599945068359375;-0.0100433349609375;1.78999999548068;180;1 A
13.6495319655382;-0.599822998046875;-0.009979248046875;1.79999999545544;181;1 A
13.659531965513;-0.599853515625;-0.0100341796875;1.80999999543019;182;1 A
13.6695319654877;-0.599945068359375;-0.010040283203125;1.81999999540494;183;1 A
13.6795319654625;-0.599853515625;-0.00997009277343749;1.82999999537969;184;1 A
13.6895319654373;-0.59979248046875;-0.01007080078125;1.83999999535445;185;1 A
13.699531965412;-0.5999755859375;-0.0100799560546875;1.8499999953292;186;1 A
13.7095319653868;-0.599884033203125;-0.0100128173828125;1.85999999530395;187;1 A
13.7195319653615;-0.5997314453125;-0.010125732421875;1.8699999952787;188;1 A
13.7295319653363;-0.600006103515625;-0.0101043701171875;1.87999999525346;189;1 A
13.739531965311;-0.599853515625;-0.0100341796875;1.88999999522821;190;1 A
13.7495319652858;-0.599700927734375;-0.0101409912109375;1.89999999520296;191;1 A
13.7595319652605;-0.600067138671875;-0.01011962890625;1.90999999517771;192;1 A
13.7695319652353;-0.599761962890625;-0.010076904296875;1.91999999515247;193;1 A
13.77953196521;-0.599761962890625;-0.0101806640625;1.92999999512722;194;1 A
13.7895319651848;-0.59991455078125;-0.0101806640625;1.93999999510197;195;1 A
13.7995319651595;-0.5997314453125;-0.0101531982421875;1.94999999507672;196;1 A
13.8095319651343;-0.599761962890625;-0.0102264404296875;1.95999999505148;197;1 A
13.819531965109;-0.60003662109375;-0.010223388671875;1.96999999502623;198;1 A
13.8295319650838;-0.5997314453125;-0.0101531982421875;1.97999999500098;199;1 A
13.8395319650585;-0.599822998046875;-0.010205078125;1.98999999497573;200;1 A
13.8495319650333;-0.599884033203125;-0.0101776123046875;1.99999999495049;201;1 A
13.859531965008;-0.59979248046875;-0.0100372314453125;2.00999999492524;202;1 A
13.8695319649828;-0.599884033203125;-0.01005859375;2.01999999489999;203;1 A
13.8795319649576;-0.599884033203125;-0.0100311279296875;2.02999999487474;204;1 A
13.8895319649323;-0.59979248046875;-0.0099517822265625;2.0399999948495;205;1 A
13.8995319649071;-0.599853515625;-0.010028076171875;2.04999999482425;206;1 A
13.9095319648818;-0.599822998046875;-0.010003662109375;2.059999994799;207;1 A
13.9195319648566;-0.599853515625;-0.009918212890625;2.06999999477375;208;1 A
13.9295319648313;-0.599822998046875;-0.009967041015625;2.0799999947485;209;1 A
13.9395319648061;-0.60003662109375;-0.009930419921875;2.08999999472326;210;1 A
13.9495319647808;-0.599853515625;-0.00985107421875001;2.09999999469801;211;1 A
13.9595319647556;-0.59979248046875;-0.0099151611328125;2.10999999467276;212;1 A
13.9695319647303;-0.599945068359375;-0.00993957519531249;2.11999999464751;213;1 A
13.9795319647051;-0.599884033203125;-0.0098602294921875;2.12999999462227;214;1 A
13.9895319646798;-0.599853515625;-0.00992431640624999;2.13999999459702;215;1 A
13.9995319646546;-0.599884033203125;-0.0099151611328125;2.14999999457177;216;1 A
14.0095319646293;-0.599822998046875;-0.00982666015625;2.15999999454652;217;1 A
14.0195319646041;-0.59979248046875;-0.0099029541015625;2.16999999452128;218;1 A
14.0295319645788;-0.599884033203125;-0.00988159179687501;2.17999999449603;219;1 A
14.0395319645536;-0.599761962890625;-0.009808349609375;2.18999999447078;220;1 A
14.0495319645283;-0.599761962890625;-0.0098907470703125;2.19999999444553;221;1 A
14.0595319645031;-0.59991455078125;-0.0099029541015625;2.20999999442029;222;1 A
14.0695319644778;-0.5997314453125;-0.0098724365234375;2.21999999439504;223;1 A
14.0795319644526;-0.599761962890625;-0.0099639892578125;2.22999999436979;224;1 A
14.0895319644274;-0.599945068359375;-0.00997009277343749;2.23999999434454;225;1 A
14.0995319644021;-0.599700927734375;-0.00992431640624999;2.2499999943193;226;1 A
14.1095319643769;-0.599761962890625;-0.0099945068359375;2.25999999429405;227;1 A
14.1195319643516;-0.599884033203125;-0.0100250244140625;2.2699999942688;228;1 A
14.1295319643264;-0.59979248046875;-0.0099334716796875;2.27999999424355;229;1 A
14.1395319643011;-0.599822998046875;-0.009991455078125;2.28999999421831;230;1 A
14.1495319642759;-0.59979248046875;-0.0100128173828125;2.29999999419306;231;1 A
14.1595319642506;-0.59979248046875;-0.00990905761718749;2.30999999416781;232;1 A
14.1695319642254;-0.599884033203125;-0.0099609375;2.31999999414256;233;1 A
14.1795319642001;-0.599761962890625;-0.009906005859375;2.32999999411732;234;1 A
14.1895319641749;-0.599822998046875;-0.00984802246093749;2.33999999409207;235;1 A
14.1995319641496;-0.599822998046875;-0.009930419921875;2.34999999406682;236;1 A
14.2095319641244;-0.599945068359375;-0.0098907470703125;2.35999999404157;237;1 A
14.2195319640991;-0.599853515625;-0.0098297119140625;2.36999999401633;238;1 A
14.2295319640739;-0.599822998046875;-0.00991210937500001;2.37999999399108;239;1 A
14.2395319640486;-0.599822998046875;-0.00992431640624999;2.38999999396583;240;1 A
14.2495319640234;-0.599853515625;-0.00986633300781251;2.39999999394058;241;1 A
14.2595319639981;-0.599761962890625;-0.00992736816406251;2.40999999391533;242;1 A
14.2695319639729;-0.599822998046875;-0.009918212890625;2.41999999389009;243;1 A
14.2795319639476;-0.599822998046875;-0.009844970703125;2.42999999386484;244;1 A
14.2895319639224;-0.59979248046875;-0.00990905761718749;2.43999999383959;245;1 A
14.2995319638972;-0.599822998046875;-0.00991210937500001;2.44999999381434;246;1 A
14.3095319638719;-0.59979248046875;-0.0098236083984375;2.4599999937891;247;1 A
14.3195319638467;-0.5997314453125;-0.00987854003906249;2.46999999376385;248;1 A
14.3295319638214;-0.599884033203125;-0.00986633300781251;2.4799999937386;249;1 A
14.3395319637962;-0.599761962890625;-0.0098236083984375;2.48999999371335;250;1 A
14.3495319637709;-0.5997314453125;-0.009918212890625;2.49999999368811;251;1 A
14.3595319637457;-0.599884033203125;-0.00990905761718749;2.50999999366286;252;1 A
14.3695319637204;-0.5997314453125;-0.0098602294921875;2.51999999363761;253;1 A
14.3795319636952;-0.59979248046875;-0.00994262695312501;2.52999999361236;254;1 A
14.3895319636699;-0.599761962890625;-0.0099456787109375;2.53999999358712;255;1 A
14.3995319636447;-0.5997314453125;-0.00986633300781251;2.54999999356187;256;1 A
14.4095319636194;-0.59979248046875;-0.00987548828125;2.55999999353662;257;1 A
14.4195319635942;-0.59991455078125;-0.00989990234375;2.56999999351137;258;1 A
14.4295319635689;-0.599761962890625;-0.0098602294921875;2.57999999348613;259;1 A
14.4395319635437;-0.599853515625;-0.00997314453125001;2.58999999346088;260;1 A
14.4495319635184;-0.599822998046875;-0.00999755859375;2.59999999343563;261;1 A
14.4595319634932;-0.599853515625;-0.0099334716796875;2.60999999341038;262;1 A
14.4695319634679;-0.599884033203125;-0.0100616455078125;2.61999999338514;263;1 A
14.4795319634427;-0.59979248046875;-0.010040283203125;2.62999999335989;264;1 A
14.4895319634174;-0.59979248046875;-0.0099609375;2.63999999333464;265;1 A
14.4995319633922;-0.599822998046875;-0.0100341796875;2.64999999330939;266;1 A
14.509531963367;-0.599853515625;-0.0100006103515625;2.65999999328415;267;1 A
14.5195319633417;-0.599822998046875;-0.00994262695312501;2.6699999932589;268;1 A
14.5295319633165;-0.599822998046875;-0.010009765625;2.67999999323365;269;1 A
14.5395319632912;-0.59991455078125;-0.0099945068359375;2.6899999932084;270;1 A
14.549531963266;-0.599822998046875;-0.00992431640624999;2.69999999318316;271;1 A
14.5595319632407;-0.599761962890625;-0.0099945068359375;2.70999999315791;272;1 A
14.5695319632155;-0.599822998046875;-0.0100067138671875;2.71999999313266;273;1 A
14.5795319631902;-0.599761962890625;-0.00992431640624999;2.72999999310741;274;1 A
14.589531963165;-0.59979248046875;-0.00998535156249999;2.73999999308217;275;1 A
14.5995319631397;-0.599761962890625;-0.00995788574218751;2.74999999305692;276;1 A
14.6095319631145;-0.59979248046875;-0.0098602294921875;2.75999999303167;277;1 A
14.6195319630892;-0.59979248046875;-0.00995483398437499;2.76999999300642;278;1 A
14.629531963064;-0.599822998046875;-0.0099609375;2.77999999298117;279;1 A
14.6395319630387;-0.5997314453125;-0.00989379882812499;2.78999999295593;280;1 A
14.6495319630135;-0.599700927734375;-0.01002197265625;2.79999999293068;281;1 A
14.6595319629882;-0.5999755859375;-0.0100250244140625;2.80999999290543;282;1 A
14.669531962963;-0.599700927734375;-0.00998840332031251;2.81999999288018;283;1 A
14.6795319629377;-0.599822998046875;-0.0100921630859375;2.82999999285494;284;1 A
14.6895319629125;-0.59991455078125;-0.010137939453125;2.83999999282969;285;1 A
14.6995319628872;-0.59979248046875;-0.0101043701171875;2.84999999280444;286;1 A
14.709531962862;-0.59979248046875;-0.0101593017578125;2.85999999277919;287;1 A
14.7195319628368;-0.599853515625;-0.01014404296875;2.86999999275395;288;1 A
14.7295319628115;-0.599761962890625;-0.0100341796875;2.8799999927287;289;1 A
14.7395319627863;-0.599853515625;-0.0100860595703125;2.88999999270345;290;1 A
14.749531962761;-0.59979248046875;-0.0101226806640625;2.8999999926782;291;1 A
14.7595319627358;-0.59979248046875;-0.0100738525390625;2.90999999265296;292;1 A
14.7695319627105;-0.599853515625;-0.0101531982421875;2.91999999262771;293;1 A
14.7795319626853;-0.599761962890625;-0.0101043701171875;2.92999999260246;294;1 A
14.78953196266;-0.599853515625;-0.01002197265625;2.93999999257721;295;1 A
14.7995319626348;-0.59979248046875;-0.010113525390625;2.94999999255197;296;1 A
14.8095319626095;-0.599822998046875;-0.010076904296875;2.95999999252672;297;1 A
14.8195319625843;-0.59979248046875;-0.010009765625;2.96999999250147;298;1 A
14.829531962559;-0.599853515625;-0.0100799560546875;2.97999999247622;299;1 A
14.8395319625338;-0.599761962890625;-0.0100738525390625;2.98999999245098;300;1 A
14.8495319625085;-0.599884033203125;-0.0100189208984375;2.99999999242573;301;1 A
14.8595319624833;-0.59979248046875;-0.0100982666015625;3.00999999240048;302;1 A
14.869531962458;-0.59979248046875;-0.010125732421875;3.01999999237523;303;1 A
14.8795319624328;-0.599822998046875;-0.010064697265625;3.02999999234999;304;1 A
14.8895319624075;-0.59979248046875;-0.0101104736328125;3.03999999232474;305;1 A
14.8995319623823;-0.599822998046875;-0.0100433349609375;3.04999999229949;306;1 A
14.9095319623571;-0.599761962890625;-0.0099212646484375;3.05999999227424;307;1 A
14.9195319623318;-0.59979248046875;-0.00999755859375;3.069999992249;308;1 A
14.9295319623066;-0.59979248046875;-0.00995788574218751;3.07999999222375;309;1 A
14.9395319622813;-0.599761962890625;-0.009869384765625;3.0899999921985;310;1 A
14.9495319622561;-0.599761962890625;-0.0099365234375;3.09999999217325;311;1 A
14.9595319622308;-0.599761962890625;-0.0099029541015625;3.109999992148;312;1 A
14.9695319622056;-0.5997314453125;-0.00986328124999999;3.11999999212276;313;1 A
14.9795319621803;-0.599761962890625;-0.0099334716796875;3.12999999209751;314;1 A
14.9895319621551;-0.599822998046875;-0.00993957519531249;3.13999999207226;315;1 A
14.9995319621298;-0.5997314453125;-0.0098846435546875;3.14999999204701;316;1 A
15.0095319621046;-0.599822998046875;-0.0099334716796875;3.15999999202177;317;1 A
15.0195319620793;-0.599853515625;-0.00995483398437499;3.16999999199652;318;1 A
15.0295319620541;-0.59979248046875;-0.00990905761718749;3.17999999197127;319;1 A
15.0395319620288;-0.599822998046875;-0.0099945068359375;3.18999999194602;320;1 A
15.0495319620036;-0.5997314453125;-0.009979248046875;3.19999999192078;321;1 A
15.0595319619783;-0.599822998046875;-0.00989379882812499;3.20999999189553;322;1 A
15.0695319619531;-0.599853515625;-0.0099639892578125;3.21999999187028;323;1 A
15.0795319619278;-0.59979248046875;-0.00998840332031251;3.22999999184503;324;1 A
15.0895319619026;-0.599822998046875;-0.0099334716796875;3.23999999181979;325;1 A
15.0995319618773;-0.599884033203125;-0.01004638671875;3.24999999179454;326;1 A
15.1095319618521;-0.599822998046875;-0.010064697265625;3.25999999176929;327;1 A
15.1195319618269;-0.599853515625;-0.010040283203125;3.26999999174404;328;1 A
15.1295319618016;-0.59979248046875;-0.0101104736328125;3.2799999917188;329;1 A
15.1395319617764;-0.599884033203125;-0.0101165771484375;3.28999999169355;330;1 A
15.1495319617511;-0.599822998046875;-0.0100799560546875;3.2999999916683;331;1 A
15.1595319617259;-0.5997314453125;-0.010162353515625;3.30999999164305;332;1 A
15.1695319617006;-0.599761962890625;-0.0101654052734375;3.31999999161781;333;1 A
15.1795319616754;-0.59979248046875;-0.0100738525390625;3.32999999159256;334;1 A
15.1895319616501;-0.599822998046875;-0.0101104736328125;3.33999999156731;335;1 A
15.1995319616249;-0.599761962890625;-0.01009521484375;3.34999999154206;336;1 A
15.2095319615996;-0.5997314453125;-0.00999755859375;3.35999999151682;337;1 A
15.2195319615744;-0.599761962890625;-0.010064697265625;3.36999999149157;338;1 A
15.2295319615491;-0.59979248046875;-0.0100555419921875;3.37999999146632;339;1 A
15.2395319615239;-0.599700927734375;-0.009979248046875;3.38999999144107;340;1 A
15.2495319614986;-0.59979248046875;-0.0100982666015625;3.39999999141583;341;1 A
15.2595319614734;-0.599853515625;-0.010101318359375;3.40999999139058;342;1 A
15.2695319614481;-0.59979248046875;-0.0100311279296875;3.41999999136533;343;1 A
15.2795319614229;-0.599822998046875;-0.01005859375;3.42999999134008;344;1 A
15.2895319613976;-0.59979248046875;-0.010003662109375;3.43999999131483;345;1 A
15.2995319613724;-0.599822998046875;-0.0099151611328125;3.44999999128959;346;1 A
15.3095319613471;-0.599822998046875;-0.009979248046875;3.45999999126434;347;1 A
15.3195319613219;-0.59979248046875;-0.010009765625;3.46999999123909;348;1 A
15.3295319612967;-0.59979248046875;-0.00992431640624999;3.47999999121384;349;1 A
15.3395319612714;-0.599822998046875;-0.0099639892578125;3.4899999911886;350;1 A
15.3495319612462;-0.599761962890625;-0.00994873046875;3.49999999116335;351;1 A
15.3595319612209;-0.59979248046875;-0.00986328124999999;3.5099999911381;352;1 A
15.3695319611957;-0.599853515625;-0.0099334716796875;3.51999999111285;353;1 A
15.3795319611704;-0.599761962890625;-0.00990905761718749;3.52999999108761;354;1 A
15.3895319611452;-0.599884033203125;-0.0097930908203125;3.53999999106236;355;1 A
15.3995319611199;-0.59979248046875;-0.00982666015625;3.54999999103711;356;1 A
15.4095319610947;-0.59979248046875;-0.009808349609375;3.55999999101186;357;1 A
15.4195319610694;-0.599822998046875;-0.0097625732421875;3.56999999098662;358;1 A
15.4295319610442;-0.599853515625;-0.00982055664062501;3.57999999096137;359;1 A
15.4395319610189;-0.59979248046875;-0.0097930908203125;3.58999999093612;360;1 A
15.4495319609937;-0.599761962890625;-0.0097320556640625;3.59999999091087;361;1 A
15.4595319609684;-0.599761962890625;-0.0098297119140625;3.60999999088563;362;1 A
15.4695319609432;-0.599761962890625;-0.00987854003906249;3.61999999086038;363;1 A
15.4795319609179;-0.599761962890625;-0.009783935546875;3.62999999083513;364;1 A
15.4895319608927;-0.59979248046875;-0.0097991943359375;3.63999999080988;365;1 A
15.4995319608674;-0.599761962890625;-0.0097503662109375;3.64999999078464;366;1 A
15.5095319608422;-0.599761962890625;-0.0096405029296875;3.65999999075939;367;1 A
15.5195319608169;-0.59979248046875;-0.00975341796875;3.66999999073414;368;1 A
15.5295319607917;-0.59979248046875;-0.0097808837890625;3.67999999070889;369;1 A
15.5395319607665;-0.5997314453125;-0.0097198486328125;3.68999999068365;370;1 A
15.5495319607412;-0.599761962890625;-0.00980529785156251;3.6999999906584;371;1 A
15.559531960716;-0.599761962890625;-0.00981750488281249;3.70999999063315;372;1 A
15.5695319606907;-0.599822998046875;-0.00975646972656249;3.7199999906079;373;1 A
15.5795319606655;-0.59979248046875;-0.00977783203125;3.72999999058266;374;1 A
15.5895319606402;-0.599761962890625;-0.00974121093749999;3.73999999055741;375;1 A
15.599531960615;-0.599761962890625;-0.009674072265625;3.74999999053216;376;1 A
15.6095319605897;-0.599884033203125;-0.009722900390625;3.75999999050691;377;1 A
15.6195319605645;-0.5997314453125;-0.0097381591796875;3.76999999048167;378;1 A
15.6295319605392;-0.59979248046875;-0.0097076416015625;3.77999999045642;379;1 A
15.639531960514;-0.599853515625;-0.009808349609375;3.78999999043117;380;1 A
15.6495319604887;-0.5997314453125;-0.0098236083984375;3.79999999040592;381;1 A
15.6595319604635;-0.599853515625;-0.0097503662109375;3.80999999038067;382;1 A
15.6695319604382;-0.599822998046875;-0.00980529785156251;3.81999999035543;383;1 A
15.679531960413;-0.5997314453125;-0.0097930908203125;3.82999999033018;384;1 A
15.6895319603877;-0.599822998046875;-0.0097625732421875;3.83999999030493;385;1 A
15.6995319603625;-0.599822998046875;-0.0098541259765625;3.84999999027968;386;1 A
15.7095319603372;-0.599761962890625;-0.0098388671875;3.85999999025444;387;1 A
15.719531960312;-0.599853515625;-0.009796142578125;3.86999999022919;388;1 A
15.7295319602867;-0.599822998046875;-0.0098602294921875;3.87999999020394;389;1 A
15.7395319602615;-0.599822998046875;-0.00981750488281249;3.88999999017869;390;1 A
15.7495319602363;-0.59979248046875;-0.0097198486328125;3.89999999015345;391;1 A
15.759531960211;-0.5997314453125;-0.00971374511718751;3.9099999901282;392;1 A
15.7695319601858;-0.5997314453125;-0.00971069335937499;3.91999999010295;393;1 A
15.7795319601605;-0.599761962890625;-0.009674072265625;3.9299999900777;394;1 A
15.7895319601353;-0.59979248046875;-0.009747314453125;3.93999999005246;395;1 A
15.79953196011;-0.599700927734375;-0.0097991943359375;3.94999999002721;396;1 A
15.8095319600848;-0.5997314453125;-0.00972900390625001;3.95999999000196;397;1 A
15.8195319600595;-0.59979248046875;-0.00980224609374999;3.96999998997671;398;1 A
15.8295319600343;-0.5997314453125;-0.00979003906250001;3.97999998995147;399;1 A
15.839531960009;-0.599700927734375;-0.00979003906250001;3.98999998992622;400;1 A
15.8495319599838;-0.599822998046875;-0.0099212646484375;3.99999998990097;401;1 A
15.8595319599585;-0.5997314453125;-0.010003662109375;4.00999998987572;402;1 A
15.8695319599333;-0.599761962890625;-0.00999755859375;4.01999998985048;403;1 A
15.879531959908;-0.599822998046875;-0.0100677490234375;4.02999998982523;404;1 A
15.8895319598828;-0.599822998046875;-0.010052490234375;4.03999998979998;405;1 A
15.8995319598575;-0.5997314453125;-0.010003662109375;4.04999998977473;406;1 A
15.9095319598323;-0.59991455078125;-0.0100677490234375;4.05999998974949;407;1 A
15.919531959807;-0.5997314453125;-0.010089111328125;4.06999998972424;408;1 A
15.9295319597818;-0.599853515625;-0.0100250244140625;4.07999998969899;409;1 A
15.9395319597566;-0.599853515625;-0.0100982666015625;4.08999998967374;410;1 A
15.9495319597313;-0.5997314453125;-0.0101226806640625;4.0999999896485;411;1 A
15.9595319597061;-0.599853515625;-0.0100372314453125;4.10999998962325;412;1 A
15.9695319596808;-0.59979248046875;-0.0101226806640625;4.119999989598;413;1 A
15.9795319596556;-0.5997314453125;-0.0100738525390625;4.12999998957275;414;1 A
15.9895319596303;-0.599853515625;-0.009967041015625;4.1399999895475;415;1 A
15.9995319596051;-0.599761962890625;-0.0100128173828125;4.14999998952226;416;1 A
16.0095319595798;-0.599761962890625;-0.0099945068359375;4.15999998949701;417;1 A
16.0195319595546;-0.599822998046875;-0.00995483398437499;4.16999998947176;418;1 A
16.0295319595293;-0.599761962890625;-0.0100433349609375;4.17999998944651;419;1 A
16.0395319595041;-0.5997314453125;-0.0100311279296875;4.18999998942127;420;1 A
16.0495319594788;-0.59979248046875;-0.0099334716796875;4.19999998939602;421;1 A
16.0595319594536;-0.599853515625;-0.00994873046875;4.20999998937077;422;1 A
16.0695319594283;-0.599700927734375;-0.009930419921875;4.21999998934552;423;1 A
16.0795319594031;-0.599761962890625;-0.00986328124999999;4.22999998932028;424;1 A
16.0895319593778;-0.599761962890625;-0.00995788574218751;4.23999998929503;425;1 A
16.0995319593526;-0.59967041015625;-0.0099945068359375;4.24999998926978;426;1 A
16.1095319593273;-0.599761962890625;-0.00989379882812499;4.25999998924453;427;1 A
16.1195319593021;-0.59979248046875;-0.00995788574218751;4.26999998921929;428;1 A
16.1295319592768;-0.599761962890625;-0.0099456787109375;4.27999998919404;429;1 A
16.1395319592516;-0.599761962890625;-0.00986633300781251;4.28999998916879;430;1 A
16.1495319592264;-0.599853515625;-0.00989990234375;4.29999998914354;431;1 A
16.1595319592011;-0.599700927734375;-0.00986328124999999;4.3099999891183;432;1 A
16.1695319591759;-0.59979248046875;-0.00977783203125;4.31999998909305;433;1 A
16.1795319591506;-0.599853515625;-0.009814453125;4.3299999890678;434;1 A
16.1895319591254;-0.599700927734375;-0.009808349609375;4.33999998904255;435;1 A
16.1995319591001;-0.599822998046875;-0.009765625;4.34999998901731;436;1 A
16.2095319590749;-0.59979248046875;-0.009857177734375;4.35999998899206;437;1 A
16.2195319590496;-0.5997314453125;-0.00983276367187499;4.36999998896681;438;1 A
16.2295319590244;-0.59979248046875;-0.009747314453125;4.37999998894156;439;1 A
16.2395319589991;-0.599884033203125;-0.0098419189453125;4.38999998891632;440;1 A
16.2495319589739;-0.599700927734375;-0.00989685058593751;4.39999998889107;441;1 A
16.2595319589486;-0.599822998046875;-0.0098388671875;4.40999998886582;442;1 A
16.2695319589234;-0.599853515625;-0.0099151611328125;4.41999998884057;443;1 A
16.2795319588981;-0.599761962890625;-0.0099029541015625;4.42999998881533;444;1 A
16.2895319588729;-0.59979248046875;-0.0098541259765625;4.43999998879008;445;1 A
16.2995319588476;-0.5997314453125;-0.0099456787109375;4.44999998876483;446;1 A
16.3095319588224;-0.5997314453125;-0.0099517822265625;4.45999998873958;447;1 A
16.3195319587971;-0.599822998046875;-0.00995483398437499;4.46999998871433;448;1 A
16.3295319587719;-0.59979248046875;-0.010076904296875;4.47999998868909;449;1 A
16.3395319587466;-0.599639892578125;-0.010125732421875;4.48999998866384;450;1 A
16.3495319587214;-0.599761962890625;-0.01007080078125;4.49999998863859;451;1 A
16.3595319586962;-0.59979248046875;-0.0101348876953125;4.50999998861334;452;1 A
16.3695319586709;-0.599700927734375;-0.0101104736328125;4.5199999885881;453;1 A
16.3795319586457;-0.59979248046875;-0.0099822998046875;4.52999998856285;454;1 A
16.3895319586204;-0.599822998046875;-0.0100006103515625;4.5399999885376;455;1 A
16.3995319585952;-0.5997314453125;-0.00998840332031251;4.54999998851235;456;1 A
16.4095319585699;-0.599700927734375;-0.0099151611328125;4.55999998848711;457;1 A
16.4195319585447;-0.59979248046875;-0.01002197265625;4.56999998846186;458;1 A
16.4295319585194;-0.5997314453125;-0.0100555419921875;4.57999998843661;459;1 A
16.4395319584942;-0.59979248046875;-0.0100006103515625;4.58999998841136;460;1 A
16.4495319584689;-0.59979248046875;-0.010028076171875;4.59999998838612;461;1 A
16.4595319584437;-0.599700927734375;-0.009979248046875;4.60999998836087;462;1 A
16.4695319584184;-0.59979248046875;-0.0099334716796875;4.61999998833562;463;1 A
16.4795319583932;-0.599853515625;-0.0100067138671875;4.62999998831037;464;1 A
16.4895319583679;-0.599761962890625;-0.0100372314453125;4.63999998828513;465;1 A
16.4995319583427;-0.59979248046875;-0.0099609375;4.64999998825988;466;1 A
16.5095319583174;-0.59991455078125;-0.0099517822265625;4.65999998823463;467;1 A
16.5195319582922;-0.599700927734375;-0.0099151611328125;4.66999998820938;468;1 A
16.5295319582669;-0.599853515625;-0.0098236083984375;4.67999998818414;469;1 A
16.5395319582417;-0.599853515625;-0.009857177734375;4.68999998815889;470;1 A
16.5495319582164;-0.599700927734375;-0.00986328124999999;4.69999998813364;471;1 A
16.5595319581912;-0.59979248046875;-0.00979003906250001;4.70999998810839;472;1 A
16.569531958166;-0.59979248046875;-0.0098846435546875;4.71999998808315;473;1 A
16.5795319581407;-0.5997314453125;-0.0099212646484375;4.7299999880579;474;1 A
16.5895319581155;-0.599822998046875;-0.009857177734375;4.73999998803265;475;1 A
16.5995319580902;-0.599761962890625;-0.009906005859375;4.7499999880074;476;1 A
16.609531958065;-0.59967041015625;-0.009844970703125;4.75999998798216;477;1 A
16.6195319580397;-0.59979248046875;-0.00978698730468749;4.76999998795691;478;1 A
16.6295319580145;-0.599761962890625;-0.00985107421875001;4.77999998793166;479;1 A
16.6395319579892;-0.599761962890625;-0.009906005859375;4.78999998790641;480;1 A
16.649531957964;-0.5997314453125;-0.0098602294921875;4.79999998788116;481;1 A
16.6595319579387;-0.59979248046875;-0.00989379882812499;4.80999998785592;482;1 A
16.6695319579135;-0.59967041015625;-0.009869384765625;4.81999998783067;483;1 A
16.6795319578882;-0.59967041015625;-0.00977172851562499;4.82999998780542;484;1 A
16.689531957863;-0.599761962890625;-0.0098236083984375;4.83999998778017;485;1 A
16.6995319578377;-0.599700927734375;-0.00982055664062501;4.84999998775493;486;1 A
16.7095319578125;-0.59979248046875;-0.00977172851562499;4.85999998772968;487;1 A
16.7195319577872;-0.599853515625;-0.00986633300781251;4.86999998770443;488;1 A
16.729531957762;-0.59967041015625;-0.00983581542968751;4.87999998767918;489;1 A
16.7395319577367;-0.599822998046875;-0.0097625732421875;4.88999998765394;490;1 A
16.7495319577115;-0.59991455078125;-0.00980529785156251;4.89999998762869;491;1 A
16.7595319576862;-0.5997314453125;-0.0097625732421875;4.90999998760344;492;1 A
16.769531957661;-0.599761962890625;-0.0096893310546875;4.91999998757819;493;1 A
16.7795319576358;-0.599822998046875;-0.009716796875;4.92999998755295;494;1 A
16.7895319576105;-0.5997314453125;-0.00968017578124999;4.9399999875277;495;1 A
16.7995319575853;-0.599853515625;-0.0096160888671875;4.94999998750245;496;1 A
16.80953195756;-0.599853515625;-0.0097015380859375;4.9599999874772;497;1 A
16.8195319575348;-0.5997314453125;-0.00980529785156251;4.96999998745196;498;1 A
16.8295319575095;-0.599822998046875;-0.00983276367187499;4.97999998742671;499;1 A
16.8395319574843;-0.599822998046875;-0.00992736816406251;4.98999998740146;500;1 A
