Time (s);WE(1).Potential (V);WE(1).Current (A);Corrected time (s);Index;Current range;Overload
60.0074828484957;-0.9002685546875;-2.34161376953125;0;1;1 A;Current overload
60.0174828484704;-0.966796875;-2.01690673828125;0.00999999997475243;2;1 A;Current overload
60.0274828484452;-1.05072021484375;-1.46209716796875;0.0199999999495049;3;1 A;
60.0374828484199;-1.0504150390625;-1.24053955078125;0.0299999999242573;4;1 A;
60.0474828483947;-1.04949951171875;-1.09954833984375;0.0399999998990097;5;1 A;
60.0574828483694;-1.04949951171875;-1.0186767578125;0.0499999998737621;6;1 A;
60.0674828483442;-1.0498046875;-0.947265625;0.0599999998485146;7;1 A;
60.0774828483189;-1.05010986328125;-0.88836669921875;0.069999999823267;8;1 A;
60.0874828482937;-1.04949951171875;-0.85845947265625;0.0799999997980194;9;1 A;
60.0974828482684;-1.05010986328125;-0.82794189453125;0.0899999997727718;10;1 A;
60.1074828482432;-1.0498046875;-0.794677734375;0.0999999997475243;11;1 A;
60.1174828482179;-1.0491943359375;-0.77850341796875;0.109999999722277;12;1 A;
60.1274828481927;-1.04949951171875;-0.76263427734375;0.119999999697029;13;1 A;
60.1374828481675;-1.04949951171875;-0.74798583984375;0.129999999671782;14;1 A;
60.1474828481422;-1.04949951171875;-0.7452392578125;0.139999999646534;15;1 A;
60.157482848117;-1.04949951171875;-0.73486328125;0.149999999621286;16;1 A;
60.1674828480917;-1.04949951171875;-0.72509765625;0.159999999596039;17;1 A;
60.1774828480665;-1.0498046875;-0.72357177734375;0.169999999570791;18;1 A;
60.1874828480412;-1.04949951171875;-0.718994140625;0.179999999545544;19;1 A;
60.197482848016;-1.0498046875;-0.71197509765625;0.189999999520296;20;1 A;
60.2074828479907;-1.0498046875;-0.71014404296875;0.199999999495049;21;1 A;
60.2174828479655;-1.0498046875;-0.7025146484375;0.209999999469801;22;1 A;
60.2274828479402;-1.04949951171875;-0.69732666015625;0.219999999444553;23;1 A;
60.237482847915;-1.04949951171875;-0.69610595703125;0.229999999419306;24;1 A;
60.2474828478897;-1.0498046875;-0.6939697265625;0.239999999394058;25;1 A;
60.2574828478645;-1.04949951171875;-0.69549560546875;0.249999999368811;26;1 A;
60.2674828478392;-1.0498046875;-0.70098876953125;0.259999999343563;27;1 A;
60.277482847814;-1.0491943359375;-0.69793701171875;0.269999999318316;28;1 A;
60.2874828477887;-1.04949951171875;-0.694580078125;0.279999999293068;29;1 A;
60.2974828477635;-1.04949951171875;-0.69793701171875;0.28999999926782;30;1 A;
60.3074828477382;-1.0498046875;-0.7000732421875;0.299999999242573;31;1 A;
60.317482847713;-1.0491943359375;-0.6982421875;0.309999999217325;32;1 A;
60.3274828476877;-1.0498046875;-0.70159912109375;0.319999999192078;33;1 A;
60.3374828476625;-1.04949951171875;-0.69671630859375;0.32999999916683;34;1 A;
60.3474828476373;-1.0498046875;-0.69610595703125;0.339999999141583;35;1 A;
60.357482847612;-1.0498046875;-0.69793701171875;0.349999999116335;36;1 A;
60.3674828475868;-1.04949951171875;-0.69793701171875;0.359999999091087;37;1 A;
60.3774828475615;-1.0491943359375;-0.70098876953125;0.36999999906584;38;1 A;
60.3874828475363;-1.0498046875;-0.70404052734375;0.379999999040592;39;1 A;
60.397482847511;-1.0498046875;-0.70159912109375;0.389999999015345;40;1 A;
60.4074828474858;-1.0498046875;-0.69732666015625;0.399999998990097;41;1 A;
60.4174828474605;-1.0491943359375;-0.69976806640625;0.40999999896485;42;1 A;
60.4274828474353;-1.04949951171875;-0.6982421875;0.419999998939602;43;1 A;
60.43748284741;-1.0498046875;-0.69732666015625;0.429999998914354;44;1 A;
60.4474828473848;-1.04949951171875;-0.7012939453125;0.439999998889107;45;1 A;
60.4574828473595;-1.0498046875;-0.70037841796875;0.449999998863859;46;1 A;
60.4674828473343;-1.04949951171875;-0.699462890625;0.459999998838612;47;1 A;
60.477482847309;-1.04949951171875;-0.70068359375;0.469999998813364;48;1 A;
60.4874828472838;-1.0498046875;-0.6951904296875;0.479999998788116;49;1 A;
60.4974828472585;-1.04949951171875;-0.692138671875;0.489999998762869;50;1 A;
60.5074828472333;-1.0498046875;-0.694580078125;0.499999998737621;51;1 A;
60.517482847208;-1.0498046875;-0.69549560546875;0.509999998712374;52;1 A;
60.5274828471828;-1.0498046875;-0.69580078125;0.519999998687126;53;1 A;
60.5374828471575;-1.05010986328125;-0.69580078125;0.529999998661879;54;1 A;
60.5474828471323;-1.0498046875;-0.69580078125;0.539999998636631;55;1 A;
60.5574828471071;-1.04888916015625;-0.6988525390625;0.549999998611383;56;1 A;
60.5674828470818;-1.0498046875;-0.69976806640625;0.559999998586136;57;1 A;
60.5774828470566;-1.0491943359375;-0.69793701171875;0.569999998560888;58;1 A;
60.5874828470313;-1.05010986328125;-0.69915771484375;0.579999998535641;59;1 A;
60.5974828470061;-1.0491943359375;-0.70037841796875;0.589999998510393;60;1 A;
60.6074828469808;-1.04949951171875;-0.6988525390625;0.599999998485146;61;1 A;
60.6174828469556;-1.0498046875;-0.69549560546875;0.609999998459898;62;1 A;
60.6274828469303;-1.04888916015625;-0.69671630859375;0.61999999843465;63;1 A;
60.6374828469051;-1.04949951171875;-0.69427490234375;0.629999998409403;64;1 A;
60.6474828468798;-1.04949951171875;-0.6964111328125;0.639999998384155;65;1 A;
60.6574828468546;-1.04949951171875;-0.69915771484375;0.649999998358908;66;1 A;
60.6674828468293;-1.0498046875;-0.69610595703125;0.65999999833366;67;1 A;
60.6774828468041;-1.0498046875;-0.6951904296875;0.669999998308413;68;1 A;
60.6874828467788;-1.0498046875;-0.6988525390625;0.679999998283165;69;1 A;
60.6974828467536;-1.0498046875;-0.69976806640625;0.689999998257917;70;1 A;
60.7074828467283;-1.04949951171875;-0.69793701171875;0.69999999823267;71;1 A;
60.7174828467031;-1.0498046875;-0.699462890625;0.709999998207422;72;1 A;
60.7274828466778;-1.0498046875;-0.69976806640625;0.719999998182175;73;1 A;
60.7374828466526;-1.04949951171875;-0.70037841796875;0.729999998156927;74;1 A;
60.7474828466273;-1.04949951171875;-0.70098876953125;0.73999999813168;75;1 A;
60.7574828466021;-1.04949951171875;-0.69366455078125;0.749999998106432;76;1 A;
60.7674828465769;-1.0498046875;-0.6903076171875;0.759999998081184;77;1 A;
60.7774828465516;-1.0498046875;-0.6878662109375;0.769999998055937;78;1 A;
60.7874828465264;-1.0498046875;-0.6829833984375;0.779999998030689;79;1 A;
60.7974828465011;-1.0491943359375;-0.682373046875;0.789999998005442;80;1 A;
60.8074828464759;-1.0491943359375;-0.68450927734375;0.799999997980194;81;1 A;
60.8174828464506;-1.04949951171875;-0.68634033203125;0.809999997954947;82;1 A;
60.8274828464254;-1.0498046875;-0.68939208984375;0.819999997929699;83;1 A;
60.8374828464001;-1.0498046875;-0.692138671875;0.829999997904451;84;1 A;
60.8474828463749;-1.0498046875;-0.6890869140625;0.839999997879204;85;1 A;
60.8574828463496;-1.0498046875;-0.69183349609375;0.849999997853956;86;1 A;
60.8674828463244;-1.04888916015625;-0.69610595703125;0.859999997828709;87;1 A;
60.8774828462991;-1.0498046875;-0.69610595703125;0.869999997803461;88;1 A;
60.8874828462739;-1.0498046875;-0.69732666015625;0.879999997778214;89;1 A;
60.8974828462486;-1.04949951171875;-0.70037841796875;0.889999997752966;90;1 A;
60.9074828462234;-1.04949951171875;-0.699462890625;0.899999997727718;91;1 A;
60.9174828461981;-1.04949951171875;-0.7012939453125;0.909999997702471;92;1 A;
60.9274828461729;-1.04949951171875;-0.7025146484375;0.919999997677223;93;1 A;
60.9374828461476;-1.04949951171875;-0.69915771484375;0.929999997651976;94;1 A;
60.9474828461224;-1.0498046875;-0.69671630859375;0.939999997626728;95;1 A;
60.9574828460972;-1.04949951171875;-0.6964111328125;0.949999997601481;96;1 A;
60.9674828460719;-1.0498046875;-0.69366455078125;0.959999997576233;97;1 A;
60.9774828460467;-1.04949951171875;-0.69366455078125;0.969999997550985;98;1 A;
60.9874828460214;-1.0498046875;-0.694580078125;0.979999997525738;99;1 A;
60.9974828459962;-1.0498046875;-0.69122314453125;0.98999999750049;100;1 A;
61.0074828459709;-1.0498046875;-0.6903076171875;0.999999997475243;101;1 A;
61.0174828459457;-1.0498046875;-0.6915283203125;1.00999999745;102;1 A;
61.0274828459204;-1.0498046875;-0.68878173828125;1.01999999742475;103;1 A;
61.0374828458952;-1.04949951171875;-0.69122314453125;1.0299999973995;104;1 A;
61.0474828458699;-1.0498046875;-0.69610595703125;1.03999999737425;105;1 A;
61.0574828458447;-1.0498046875;-0.69671630859375;1.049999997349;106;1 A;
61.0674828458194;-1.0498046875;-0.69915771484375;1.05999999732376;107;1 A;
61.0774828457942;-1.0498046875;-0.69976806640625;1.06999999729851;108;1 A;
61.0874828457689;-1.0491943359375;-0.6951904296875;1.07999999727326;109;1 A;
61.0974828457437;-1.04949951171875;-0.693359375;1.08999999724801;110;1 A;
61.1074828457184;-1.04949951171875;-0.693359375;1.09999999722277;111;1 A;
61.1174828456932;-1.0498046875;-0.69122314453125;1.10999999719752;112;1 A;
61.1274828456679;-1.0491943359375;-0.69671630859375;1.11999999717227;113;1 A;
61.1374828456427;-1.0498046875;-0.69915771484375;1.12999999714702;114;1 A;
61.1474828456174;-1.0498046875;-0.693359375;1.13999999712178;115;1 A;
61.1574828455922;-1.0491943359375;-0.693359375;1.14999999709653;116;1 A;
61.167482845567;-1.0491943359375;-0.69305419921875;1.15999999707128;117;1 A;
61.1774828455417;-1.04949951171875;-0.69091796875;1.16999999704603;118;1 A;
61.1874828455165;-1.04949951171875;-0.68939208984375;1.17999999702079;119;1 A;
61.1974828454912;-1.04949951171875;-0.69000244140625;1.18999999699554;120;1 A;
61.207482845466;-1.0491943359375;-0.69091796875;1.19999999697029;121;1 A;
61.2174828454407;-1.0491943359375;-0.69305419921875;1.20999999694504;122;1 A;
61.2274828454155;-1.0491943359375;-0.6951904296875;1.2199999969198;123;1 A;
61.2374828453902;-1.0498046875;-0.692138671875;1.22999999689455;124;1 A;
61.247482845365;-1.04949951171875;-0.68939208984375;1.2399999968693;125;1 A;
61.2574828453397;-1.04949951171875;-0.68939208984375;1.24999999684405;126;1 A;
61.2674828453145;-1.04949951171875;-0.6854248046875;1.25999999681881;127;1 A;
61.2774828452892;-1.04949951171875;-0.68695068359375;1.26999999679356;128;1 A;
61.287482845264;-1.0498046875;-0.69244384765625;1.27999999676831;129;1 A;
61.2974828452387;-1.0491943359375;-0.69305419921875;1.28999999674306;130;1 A;
61.3074828452135;-1.04949951171875;-0.69610595703125;1.29999999671782;131;1 A;
61.3174828451882;-1.0498046875;-0.70220947265625;1.30999999669257;132;1 A;
61.327482845163;-1.05010986328125;-0.70068359375;1.31999999666732;133;1 A;
61.3374828451377;-1.0498046875;-0.69976806640625;1.32999999664207;134;1 A;
61.3474828451125;-1.04888916015625;-0.70068359375;1.33999999661683;135;1 A;
61.3574828450872;-1.04949951171875;-0.694580078125;1.34999999659158;136;1 A;
61.367482845062;-1.05010986328125;-0.6927490234375;1.35999999656633;137;1 A;
61.3774828450368;-1.04949951171875;-0.694580078125;1.36999999654108;138;1 A;
61.3874828450115;-1.04949951171875;-0.693359375;1.37999999651583;139;1 A;
61.3974828449863;-1.0498046875;-0.69305419921875;1.38999999649059;140;1 A;
61.407482844961;-1.0491943359375;-0.6915283203125;1.39999999646534;141;1 A;
61.4174828449358;-1.0498046875;-0.68695068359375;1.40999999644009;142;1 A;
61.4274828449105;-1.04949951171875;-0.68389892578125;1.41999999641484;143;1 A;
61.4374828448853;-1.0491943359375;-0.6854248046875;1.4299999963896;144;1 A;
61.44748284486;-1.0491943359375;-0.68511962890625;1.43999999636435;145;1 A;
61.4574828448348;-1.0491943359375;-0.68817138671875;1.4499999963391;146;1 A;
61.4674828448095;-1.04949951171875;-0.6915283203125;1.45999999631385;147;1 A;
61.4774828447843;-1.0491943359375;-0.6915283203125;1.46999999628861;148;1 A;
61.487482844759;-1.04949951171875;-0.69244384765625;1.47999999626336;149;1 A;
61.4974828447338;-1.0498046875;-0.694580078125;1.48999999623811;150;1 A;
61.5074828447085;-1.04949951171875;-0.6927490234375;1.49999999621286;151;1 A;
61.5174828446833;-1.0498046875;-0.69244384765625;1.50999999618762;152;1 A;
61.527482844658;-1.04949951171875;-0.693359375;1.51999999616237;153;1 A;
61.5374828446328;-1.0498046875;-0.68878173828125;1.52999999613712;154;1 A;
61.5474828446075;-1.0498046875;-0.69091796875;1.53999999611187;155;1 A;
61.5574828445823;-1.0498046875;-0.68939208984375;1.54999999608663;156;1 A;
61.567482844557;-1.04949951171875;-0.68450927734375;1.55999999606138;157;1 A;
61.5774828445318;-1.0491943359375;-0.687255859375;1.56999999603613;158;1 A;
61.5874828445066;-1.0498046875;-0.69061279296875;1.57999999601088;159;1 A;
61.5974828444813;-1.0498046875;-0.69061279296875;1.58999999598564;160;1 A;
61.6074828444561;-1.0498046875;-0.69122314453125;1.59999999596039;161;1 A;
61.6174828444308;-1.0491943359375;-0.6927490234375;1.60999999593514;162;1 A;
61.6274828444056;-1.0491943359375;-0.69122314453125;1.61999999590989;163;1 A;
61.6374828443803;-1.04949951171875;-0.694580078125;1.62999999588465;164;1 A;
61.6474828443551;-1.0498046875;-0.69610595703125;1.6399999958594;165;1 A;
61.6574828443298;-1.0491943359375;-0.6976318359375;1.64999999583415;166;1 A;
61.6674828443046;-1.0498046875;-0.701904296875;1.6599999958089;167;1 A;
61.6774828442793;-1.04949951171875;-0.704345703125;1.66999999578366;168;1 A;
61.6874828442541;-1.0498046875;-0.7000732421875;1.67999999575841;169;1 A;
61.6974828442288;-1.0498046875;-0.70037841796875;1.68999999573316;170;1 A;
61.7074828442036;-1.04949951171875;-0.6976318359375;1.69999999570791;171;1 A;
61.7174828441783;-1.0491943359375;-0.6951904296875;1.70999999568267;172;1 A;
61.7274828441531;-1.0491943359375;-0.69549560546875;1.71999999565742;173;1 A;
61.7374828441278;-1.0498046875;-0.69366455078125;1.72999999563217;174;1 A;
61.7474828441026;-1.05010986328125;-0.69244384765625;1.73999999560692;175;1 A;
61.7574828440773;-1.04949951171875;-0.6964111328125;1.74999999558167;176;1 A;
61.7674828440521;-1.0498046875;-0.694580078125;1.75999999555643;177;1 A;
61.7774828440268;-1.04949951171875;-0.6927490234375;1.76999999553118;178;1 A;
61.7874828440016;-1.0498046875;-0.6903076171875;1.77999999550593;179;1 A;
61.7974828439764;-1.04949951171875;-0.68878173828125;1.78999999548068;180;1 A;
61.8074828439511;-1.0504150390625;-0.68634033203125;1.79999999545544;181;1 A;
61.8174828439259;-1.0498046875;-0.68603515625;1.80999999543019;182;1 A;
61.8274828439006;-1.0498046875;-0.6890869140625;1.81999999540494;183;1 A;
61.8374828438754;-1.04949951171875;-0.68572998046875;1.82999999537969;184;1 A;
61.8474828438501;-1.04949951171875;-0.69000244140625;1.83999999535445;185;1 A;
61.8574828438249;-1.05010986328125;-0.69671630859375;1.8499999953292;186;1 A;
61.8674828437996;-1.04949951171875;-0.69793701171875;1.85999999530395;187;1 A;
61.8774828437744;-1.04949951171875;-0.697021484375;1.8699999952787;188;1 A;
61.8874828437491;-1.04888916015625;-0.6964111328125;1.87999999525346;189;1 A;
61.8974828437239;-1.0491943359375;-0.6951904296875;1.88999999522821;190;1 A;
61.9074828436986;-1.0498046875;-0.70068359375;1.89999999520296;191;1 A;
61.9174828436734;-1.04949951171875;-0.70281982421875;1.90999999517771;192;1 A;
61.9274828436481;-1.0498046875;-0.7000732421875;1.91999999515247;193;1 A;
61.9374828436229;-1.04949951171875;-0.7012939453125;1.92999999512722;194;1 A;
61.9474828435976;-1.04949951171875;-0.70648193359375;1.93999999510197;195;1 A;
61.9574828435724;-1.04949951171875;-0.7086181640625;1.94999999507672;196;1 A;
61.9674828435471;-1.04949951171875;-0.7073974609375;1.95999999505148;197;1 A;
61.9774828435219;-1.05010986328125;-0.7049560546875;1.96999999502623;198;1 A;
61.9874828434967;-1.04949951171875;-0.6976318359375;1.97999999500098;199;1 A;
61.9974828434714;-1.0498046875;-0.69610595703125;1.98999999497573;200;1 A;
62.0074828434462;-1.0498046875;-0.69488525390625;1.99999999495049;201;1 A;
62.0174828434209;-1.0491943359375;-0.68603515625;2.00999999492524;202;1 A;
62.0274828433957;-1.04949951171875;-0.68267822265625;2.01999999489999;203;1 A;
62.0374828433704;-1.0491943359375;-0.68084716796875;2.02999999487474;204;1 A;
62.0474828433452;-1.04949951171875;-0.67718505859375;2.0399999948495;205;1 A;
62.0574828433199;-1.0498046875;-0.67718505859375;2.04999999482425;206;1 A;
62.0674828432947;-1.0491943359375;-0.68023681640625;2.059999994799;207;1 A;
62.0774828432694;-1.04949951171875;-0.67962646484375;2.06999999477375;208;1 A;
62.0874828432442;-1.0498046875;-0.68328857421875;2.0799999947485;209;1 A;
62.0974828432189;-1.04949951171875;-0.687255859375;2.08999999472326;210;1 A;
62.1074828431937;-1.0498046875;-0.68603515625;2.09999999469801;211;1 A;
62.1174828431684;-1.0498046875;-0.6884765625;2.10999999467276;212;1 A;
62.1274828431432;-1.0491943359375;-0.69305419921875;2.11999999464751;213;1 A;
62.1374828431179;-1.05010986328125;-0.69244384765625;2.12999999462227;214;1 A;
62.1474828430927;-1.0491943359375;-0.69366455078125;2.13999999459702;215;1 A;
62.1574828430674;-1.04888916015625;-0.697021484375;2.14999999457177;216;1 A;
62.1674828430422;-1.0498046875;-0.6915283203125;2.15999999454652;217;1 A;
62.1774828430169;-1.04888916015625;-0.68939208984375;2.16999999452128;218;1 A;
62.1874828429917;-1.05010986328125;-0.69061279296875;2.17999999449603;219;1 A;
62.1974828429665;-1.0498046875;-0.68939208984375;2.18999999447078;220;1 A;
62.2074828429412;-1.0498046875;-0.693359375;2.19999999444553;221;1 A;
62.217482842916;-1.0498046875;-0.6988525390625;2.20999999442029;222;1 A;
62.2274828428907;-1.04949951171875;-0.69671630859375;2.21999999439504;223;1 A;
62.2374828428655;-1.04949951171875;-0.6964111328125;2.22999999436979;224;1 A;
62.2474828428402;-1.04949951171875;-0.69854736328125;2.23999999434454;225;1 A;
62.257482842815;-1.04949951171875;-0.69793701171875;2.2499999943193;226;1 A;
62.2674828427897;-1.04949951171875;-0.7037353515625;2.25999999429405;227;1 A;
62.2774828427645;-1.0498046875;-0.7037353515625;2.2699999942688;228;1 A;
62.2874828427392;-1.04949951171875;-0.69915771484375;2.27999999424355;229;1 A;
62.297482842714;-1.04949951171875;-0.69915771484375;2.28999999421831;230;1 A;
62.3074828426887;-1.04949951171875;-0.701904296875;2.29999999419306;231;1 A;
62.3174828426635;-1.0498046875;-0.7000732421875;2.30999999416781;232;1 A;
62.3274828426382;-1.05010986328125;-0.69915771484375;2.31999999414256;233;1 A;
62.337482842613;-1.05010986328125;-0.69854736328125;2.32999999411732;234;1 A;
62.3474828425877;-1.0491943359375;-0.6951904296875;2.33999999409207;235;1 A;
62.3574828425625;-1.0498046875;-0.6964111328125;2.34999999406682;236;1 A;
62.3674828425372;-1.0498046875;-0.69915771484375;2.35999999404157;237;1 A;
62.377482842512;-1.04888916015625;-0.69915771484375;2.36999999401633;238;1 A;
62.3874828424867;-1.0498046875;-0.70068359375;2.37999999399108;239;1 A;
62.3974828424615;-1.04949951171875;-0.69915771484375;2.38999999396583;240;1 A;
62.4074828424363;-1.0498046875;-0.69671630859375;2.39999999394058;241;1 A;
62.417482842411;-1.0498046875;-0.7037353515625;2.40999999391533;242;1 A;
62.4274828423858;-1.04949951171875;-0.70556640625;2.41999999389009;243;1 A;
62.4374828423605;-1.04949951171875;-0.701904296875;2.42999999386484;244;1 A;
62.4474828423353;-1.0491943359375;-0.70404052734375;2.43999999383959;245;1 A;
62.45748284231;-1.04949951171875;-0.70281982421875;2.44999999381434;246;1 A;
62.4674828422848;-1.04949951171875;-0.69915771484375;2.4599999937891;247;1 A;
62.4774828422595;-1.04949951171875;-0.701904296875;2.46999999376385;248;1 A;
62.4874828422343;-1.04949951171875;-0.70098876953125;2.4799999937386;249;1 A;
62.497482842209;-1.04949951171875;-0.6964111328125;2.48999999371335;250;1 A;
62.5074828421838;-1.0498046875;-0.699462890625;2.49999999368811;251;1 A;
62.5174828421585;-1.04949951171875;-0.70343017578125;2.50999999366286;252;1 A;
62.5274828421333;-1.04949951171875;-0.70343017578125;2.51999999363761;253;1 A;
62.537482842108;-1.0498046875;-0.70831298828125;2.52999999361236;254;1 A;
62.5474828420828;-1.0498046875;-0.7098388671875;2.53999999358712;255;1 A;
62.5574828420575;-1.0498046875;-0.70892333984375;2.54999999356187;256;1 A;
62.5674828420323;-1.0498046875;-0.7110595703125;2.55999999353662;257;1 A;
62.577482842007;-1.04949951171875;-0.7110595703125;2.56999999351137;258;1 A;
62.5874828419818;-1.0491943359375;-0.706787109375;2.57999999348613;259;1 A;
62.5974828419565;-1.0491943359375;-0.71044921875;2.58999999346088;260;1 A;
62.6074828419313;-1.04949951171875;-0.7098388671875;2.59999999343563;261;1 A;
62.6174828419061;-1.0498046875;-0.70770263671875;2.60999999341038;262;1 A;
62.6274828418808;-1.04949951171875;-0.7086181640625;2.61999999338514;263;1 A;
62.6374828418556;-1.04949951171875;-0.70892333984375;2.62999999335989;264;1 A;
62.6474828418303;-1.0498046875;-0.7080078125;2.63999999333464;265;1 A;
62.6574828418051;-1.0498046875;-0.7122802734375;2.64999999330939;266;1 A;
62.6674828417798;-1.04949951171875;-0.71197509765625;2.65999999328415;267;1 A;
62.6774828417546;-1.0491943359375;-0.71136474609375;2.6699999932589;268;1 A;
62.6874828417293;-1.0498046875;-0.711669921875;2.67999999323365;269;1 A;
62.6974828417041;-1.04949951171875;-0.70953369140625;2.6899999932084;270;1 A;
62.7074828416788;-1.04949951171875;-0.71075439453125;2.69999999318316;271;1 A;
62.7174828416536;-1.0498046875;-0.71319580078125;2.70999999315791;272;1 A;
62.7274828416283;-1.0491943359375;-0.716552734375;2.71999999313266;273;1 A;
62.7374828416031;-1.04949951171875;-0.7147216796875;2.72999999310741;274;1 A;
62.7474828415778;-1.0498046875;-0.7147216796875;2.73999999308217;275;1 A;
62.7574828415526;-1.0498046875;-0.7122802734375;2.74999999305692;276;1 A;
62.7674828415273;-1.0498046875;-0.7086181640625;2.75999999303167;277;1 A;
62.7774828415021;-1.0498046875;-0.709228515625;2.76999999300642;278;1 A;
62.7874828414768;-1.04949951171875;-0.7061767578125;2.77999999298117;279;1 A;
62.7974828414516;-1.0498046875;-0.70098876953125;2.78999999295593;280;1 A;
62.8074828414263;-1.05010986328125;-0.7012939453125;2.79999999293068;281;1 A;
62.8174828414011;-1.04949951171875;-0.70098876953125;2.80999999290543;282;1 A;
62.8274828413759;-1.04949951171875;-0.6939697265625;2.81999999288018;283;1 A;
62.8374828413506;-1.0498046875;-0.69366455078125;2.82999999285494;284;1 A;
62.8474828413254;-1.05010986328125;-0.69671630859375;2.83999999282969;285;1 A;
62.8574828413001;-1.0498046875;-0.69580078125;2.84999999280444;286;1 A;
62.8674828412749;-1.0504150390625;-0.697021484375;2.85999999277919;287;1 A;
62.8774828412496;-1.0498046875;-0.69610595703125;2.86999999275395;288;1 A;
62.8874828412244;-1.04949951171875;-0.69183349609375;2.8799999927287;289;1 A;
62.8974828411991;-1.05010986328125;-0.6903076171875;2.88999999270345;290;1 A;
62.9074828411739;-1.04949951171875;-0.6927490234375;2.8999999926782;291;1 A;
62.9174828411486;-1.04949951171875;-0.6951904296875;2.90999999265296;292;1 A;
62.9274828411234;-1.0498046875;-0.69793701171875;2.91999999262771;293;1 A;
62.9374828410981;-1.04949951171875;-0.70098876953125;2.92999999260246;294;1 A;
62.9474828410729;-1.04949951171875;-0.69854736328125;2.93999999257721;295;1 A;
62.9574828410476;-1.04949951171875;-0.69915771484375;2.94999999255197;296;1 A;
62.9674828410224;-1.0491943359375;-0.6988525390625;2.95999999252672;297;1 A;
62.9774828409971;-1.04949951171875;-0.69732666015625;2.96999999250147;298;1 A;
62.9874828409719;-1.05010986328125;-0.6976318359375;2.97999999247622;299;1 A;
62.9974828409466;-1.04949951171875;-0.6939697265625;2.98999999245098;300;1 A;
63.0074828409214;-1.0498046875;-0.69427490234375;2.99999999242573;301;1 A;
63.0174828408962;-1.0491943359375;-0.697021484375;3.00999999240048;302;1 A;
63.0274828408709;-1.04949951171875;-0.6982421875;3.01999999237523;303;1 A;
63.0374828408457;-1.0498046875;-0.703125;3.02999999234999;304;1 A;
63.0474828408204;-1.0498046875;-0.71075439453125;3.03999999232474;305;1 A;
63.0574828407952;-1.0498046875;-0.71380615234375;3.04999999229949;306;1 A;
63.0674828407699;-1.04949951171875;-0.71014404296875;3.05999999227424;307;1 A;
63.0774828407447;-1.0491943359375;-0.7110595703125;3.069999992249;308;1 A;
63.0874828407194;-1.04949951171875;-0.71197509765625;3.07999999222375;309;1 A;
63.0974828406942;-1.0491943359375;-0.71258544921875;3.0899999921985;310;1 A;
63.1074828406689;-1.0491943359375;-0.71685791015625;3.09999999217325;311;1 A;
63.1174828406437;-1.0498046875;-0.71929931640625;3.109999992148;312;1 A;
63.1274828406184;-1.04949951171875;-0.7183837890625;3.11999999212276;313;1 A;
63.1374828405932;-1.0498046875;-0.7183837890625;3.12999999209751;314;1 A;
63.1474828405679;-1.04949951171875;-0.71502685546875;3.13999999207226;315;1 A;
63.1574828405427;-1.04949951171875;-0.7135009765625;3.14999999204701;316;1 A;
63.1674828405174;-1.05010986328125;-0.71685791015625;3.15999999202177;317;1 A;
63.1774828404922;-1.0491943359375;-0.71746826171875;3.16999999199652;318;1 A;
63.1874828404669;-1.0491943359375;-0.7147216796875;3.17999999197127;319;1 A;
63.1974828404417;-1.0491943359375;-0.71502685546875;3.18999999194602;320;1 A;
63.2074828404164;-1.05010986328125;-0.712890625;3.19999999192078;321;1 A;
63.2174828403912;-1.04949951171875;-0.7080078125;3.20999999189553;322;1 A;
63.227482840366;-1.04949951171875;-0.7098388671875;3.21999999187028;323;1 A;
63.2374828403407;-1.04949951171875;-0.70953369140625;3.22999999184503;324;1 A;
63.2474828403155;-1.0491943359375;-0.711669921875;3.23999999181979;325;1 A;
63.2574828402902;-1.05010986328125;-0.71319580078125;3.24999999179454;326;1 A;
63.267482840265;-1.0498046875;-0.7086181640625;3.25999999176929;327;1 A;
63.2774828402397;-1.0498046875;-0.70404052734375;3.26999999174404;328;1 A;
63.2874828402145;-1.0498046875;-0.7061767578125;3.2799999917188;329;1 A;
63.2974828401892;-1.05010986328125;-0.70281982421875;3.28999999169355;330;1 A;
63.307482840164;-1.0498046875;-0.70068359375;3.2999999916683;331;1 A;
63.3174828401387;-1.0498046875;-0.70220947265625;3.30999999164305;332;1 A;
63.3274828401135;-1.0498046875;-0.7025146484375;3.31999999161781;333;1 A;
63.3374828400882;-1.0498046875;-0.70526123046875;3.32999999159256;334;1 A;
63.347482840063;-1.05010986328125;-0.7098388671875;3.33999999156731;335;1 A;
63.3574828400377;-1.0498046875;-0.709228515625;3.34999999154206;336;1 A;
63.3674828400125;-1.0498046875;-0.7049560546875;3.35999999151682;337;1 A;
63.3774828399872;-1.04949951171875;-0.7110595703125;3.36999999149157;338;1 A;
63.387482839962;-1.0498046875;-0.71075439453125;3.37999999146632;339;1 A;
63.3974828399367;-1.04949951171875;-0.71380615234375;3.38999999144107;340;1 A;
63.4074828399115;-1.05010986328125;-0.71807861328125;3.39999999141583;341;1 A;
63.4174828398862;-1.04949951171875;-0.7196044921875;3.40999999139058;342;1 A;
63.427482839861;-1.0491943359375;-0.7208251953125;3.41999999136533;343;1 A;
63.4374828398358;-1.0498046875;-0.7275390625;3.42999999134008;344;1 A;
63.4474828398105;-1.04949951171875;-0.72662353515625;3.43999999131483;345;1 A;
63.4574828397853;-1.04949951171875;-0.7208251953125;3.44999999128959;346;1 A;
63.46748283976;-1.04949951171875;-0.7220458984375;3.45999999126434;347;1 A;
63.4774828397348;-1.0491943359375;-0.71502685546875;3.46999999123909;348;1 A;
63.4874828397095;-1.0491943359375;-0.7135009765625;3.47999999121384;349;1 A;
63.4974828396843;-1.04949951171875;-0.72021484375;3.4899999911886;350;1 A;
63.507482839659;-1.0498046875;-0.72265625;3.49999999116335;351;1 A;
63.5174828396338;-1.04888916015625;-0.72113037109375;3.5099999911381;352;1 A;
63.5274828396085;-1.04949951171875;-0.72601318359375;3.51999999111285;353;1 A;
63.5374828395833;-1.0491943359375;-0.72601318359375;3.52999999108761;354;1 A;
63.547482839558;-1.0491943359375;-0.7281494140625;3.53999999106236;355;1 A;
63.5574828395328;-1.04949951171875;-0.73150634765625;3.54999999103711;356;1 A;
63.5674828395075;-1.04949951171875;-0.72845458984375;3.55999999101186;357;1 A;
63.5774828394823;-1.04949951171875;-0.7257080078125;3.56999999098662;358;1 A;
63.587482839457;-1.04949951171875;-0.72784423828125;3.57999999096137;359;1 A;
63.5974828394318;-1.0491943359375;-0.72540283203125;3.58999999093612;360;1 A;
63.6074828394065;-1.0498046875;-0.71868896484375;3.59999999091087;361;1 A;
63.6174828393813;-1.04949951171875;-0.7208251953125;3.60999999088563;362;1 A;
63.627482839356;-1.0498046875;-0.7159423828125;3.61999999086038;363;1 A;
63.6374828393308;-1.04949951171875;-0.7159423828125;3.62999999083513;364;1 A;
63.6474828393056;-1.0498046875;-0.71929931640625;3.63999999080988;365;1 A;
63.6574828392803;-1.04949951171875;-0.7196044921875;3.64999999078464;366;1 A;
63.6674828392551;-1.04949951171875;-0.71746826171875;3.65999999075939;367;1 A;
63.6774828392298;-1.04949951171875;-0.7208251953125;3.66999999073414;368;1 A;
63.6874828392046;-1.0491943359375;-0.72265625;3.67999999070889;369;1 A;
63.6974828391793;-1.04949951171875;-0.72296142578125;3.68999999068365;370;1 A;
63.7074828391541;-1.04949951171875;-0.7232666015625;3.6999999906584;371;1 A;
63.7174828391288;-1.04949951171875;-0.7196044921875;3.70999999063315;372;1 A;
63.7274828391036;-1.04949951171875;-0.72021484375;3.7199999906079;373;1 A;
63.7374828390783;-1.0498046875;-0.7257080078125;3.72999999058266;374;1 A;
63.7474828390531;-1.04949951171875;-0.731201171875;3.73999999055741;375;1 A;
63.7574828390278;-1.04949951171875;-0.728759765625;3.74999999053216;376;1 A;
63.7674828390026;-1.0498046875;-0.73150634765625;3.75999999050691;377;1 A;
63.7774828389773;-1.04888916015625;-0.7342529296875;3.76999999048167;378;1 A;
63.7874828389521;-1.0498046875;-0.7373046875;3.77999999045642;379;1 A;
63.7974828389268;-1.0498046875;-0.74188232421875;3.78999999043117;380;1 A;
63.8074828389016;-1.0498046875;-0.74462890625;3.79999999040592;381;1 A;
63.8174828388763;-1.04949951171875;-0.74188232421875;3.80999999038067;382;1 A;
63.8274828388511;-1.0498046875;-0.745849609375;3.81999999035543;383;1 A;
63.8374828388258;-1.04949951171875;-0.74615478515625;3.82999999033018;384;1 A;
63.8474828388006;-1.0498046875;-0.74462890625;3.83999999030493;385;1 A;
63.8574828387754;-1.04949951171875;-0.74859619140625;3.84999999027968;386;1 A;
63.8674828387501;-1.04949951171875;-0.74493408203125;3.85999999025444;387;1 A;
63.8774828387249;-1.0498046875;-0.740966796875;3.86999999022919;388;1 A;
63.8874828386996;-1.04949951171875;-0.7440185546875;3.87999999020394;389;1 A;
63.8974828386744;-1.04949951171875;-0.743408203125;3.88999999017869;390;1 A;
63.9074828386491;-1.04949951171875;-0.7421875;3.89999999015345;391;1 A;
63.9174828386239;-1.0498046875;-0.74371337890625;3.9099999901282;392;1 A;
63.9274828385986;-1.04888916015625;-0.7415771484375;3.91999999010295;393;1 A;
63.9374828385734;-1.05010986328125;-0.7427978515625;3.9299999900777;394;1 A;
63.9474828385481;-1.0498046875;-0.74554443359375;3.93999999005246;395;1 A;
63.9574828385229;-1.0491943359375;-0.74066162109375;3.94999999002721;396;1 A;
63.9674828384976;-1.0491943359375;-0.73974609375;3.95999999000196;397;1 A;
63.9774828384724;-1.0491943359375;-0.74737548828125;3.96999998997671;398;1 A;
63.9874828384471;-1.0491943359375;-0.74798583984375;3.97999998995147;399;1 A;
63.9974828384219;-1.0491943359375;-0.74310302734375;3.98999998992622;400;1 A;
64.0074828383966;-1.04949951171875;-0.74920654296875;3.99999998990097;401;1 A;
64.0174828383714;-1.0491943359375;-0.74554443359375;4.00999998987572;402;1 A;
64.0274828383461;-1.05010986328125;-0.7452392578125;4.01999998985048;403;1 A;
64.0374828383209;-1.0498046875;-0.7525634765625;4.02999998982523;404;1 A;
64.0474828382957;-1.04949951171875;-0.7537841796875;4.03999998979998;405;1 A;
64.0574828382704;-1.0491943359375;-0.7513427734375;4.04999998977473;406;1 A;
64.0674828382452;-1.0498046875;-0.75714111328125;4.05999998974949;407;1 A;
64.0774828382199;-1.0498046875;-0.75225830078125;4.06999998972424;408;1 A;
64.0874828381947;-1.0491943359375;-0.74676513671875;4.07999998969899;409;1 A;
64.0974828381694;-1.04949951171875;-0.7489013671875;4.08999998967374;410;1 A;
64.1074828381442;-1.05010986328125;-0.7440185546875;4.0999999896485;411;1 A;
64.1174828381189;-1.0498046875;-0.745849609375;4.10999998962325;412;1 A;
64.1274828380937;-1.0498046875;-0.75927734375;4.119999989598;413;1 A;
64.1374828380684;-1.05010986328125;-0.7611083984375;4.12999998957275;414;1 A;
64.1474828380432;-1.04949951171875;-0.7562255859375;4.1399999895475;415;1 A;
64.1574828380179;-1.0498046875;-0.76202392578125;4.14999998952226;416;1 A;
64.1674828379927;-1.0491943359375;-0.7598876953125;4.15999998949701;417;1 A;
64.1774828379674;-1.04949951171875;-0.75592041015625;4.16999998947176;418;1 A;
64.1874828379422;-1.04949951171875;-0.758056640625;4.17999998944651;419;1 A;
64.1974828379169;-1.04949951171875;-0.75714111328125;4.18999998942127;420;1 A;
64.2074828378917;-1.0491943359375;-0.75775146484375;4.19999998939602;421;1 A;
64.2174828378664;-1.0498046875;-0.76751708984375;4.20999998937077;422;1 A;
64.2274828378412;-1.0498046875;-0.7720947265625;4.21999998934552;423;1 A;
64.2374828378159;-1.0498046875;-0.77606201171875;4.22999998932028;424;1 A;
64.2474828377907;-1.04949951171875;-0.78704833984375;4.23999998929503;425;1 A;
64.2574828377655;-1.04949951171875;-0.78765869140625;4.24999998926978;426;1 A;
64.2674828377402;-1.04949951171875;-0.78521728515625;4.25999998924453;427;1 A;
64.277482837715;-1.05010986328125;-0.794677734375;4.26999998921929;428;1 A;
64.2874828376897;-1.04949951171875;-0.79437255859375;4.27999998919404;429;1 A;
64.2974828376645;-1.0491943359375;-0.79071044921875;4.28999998916879;430;1 A;
64.3074828376392;-1.04949951171875;-0.79742431640625;4.29999998914354;431;1 A;
64.317482837614;-1.0498046875;-0.79254150390625;4.3099999891183;432;1 A;
64.3274828375887;-1.0498046875;-0.789794921875;4.31999998909305;433;1 A;
64.3374828375635;-1.0498046875;-0.7940673828125;4.3299999890678;434;1 A;
64.3474828375382;-1.0504150390625;-0.79193115234375;4.33999998904255;435;1 A;
64.357482837513;-1.05010986328125;-0.79010009765625;4.34999998901731;436;1 A;
64.3674828374877;-1.0491943359375;-0.79620361328125;4.35999998899206;437;1 A;
64.3774828374625;-1.04949951171875;-0.79925537109375;4.36999998896681;438;1 A;
64.3874828374372;-1.0498046875;-0.79345703125;4.37999998894156;439;1 A;
64.397482837412;-1.04949951171875;-0.7989501953125;4.38999998891632;440;1 A;
64.4074828373867;-1.04888916015625;-0.797119140625;4.39999998889107;441;1 A;
64.4174828373615;-1.0498046875;-0.79498291015625;4.40999998886582;442;1 A;
64.4274828373362;-1.05010986328125;-0.8026123046875;4.41999998884057;443;1 A;
64.437482837311;-1.04949951171875;-0.80291748046875;4.42999998881533;444;1 A;
64.4474828372857;-1.04949951171875;-0.79376220703125;4.43999998879008;445;1 A;
64.4574828372605;-1.04949951171875;-0.7965087890625;4.44999998876483;446;1 A;
64.4674828372353;-1.0498046875;-0.79345703125;4.45999998873958;447;1 A;
64.47748283721;-1.04949951171875;-0.789794921875;4.46999998871433;448;1 A;
64.4874828371848;-1.0491943359375;-0.7952880859375;4.47999998868909;449;1 A;
64.4974828371595;-1.0498046875;-0.79345703125;4.48999998866384;450;1 A;
64.5074828371343;-1.0491943359375;-0.79315185546875;4.49999998863859;451;1 A;
64.517482837109;-1.04949951171875;-0.7989501953125;4.50999998861334;452;1 A;
64.5274828370838;-1.0498046875;-0.79925537109375;4.5199999885881;453;1 A;
64.5374828370585;-1.04949951171875;-0.79437255859375;4.52999998856285;454;1 A;
64.5474828370333;-1.04888916015625;-0.8026123046875;4.5399999885376;455;1 A;
64.557482837008;-1.0491943359375;-0.80078125;4.54999998851235;456;1 A;
64.5674828369828;-1.0491943359375;-0.80047607421875;4.55999998848711;457;1 A;
64.5774828369575;-1.0498046875;-0.80474853515625;4.56999998846186;458;1 A;
64.5874828369323;-1.0498046875;-0.804443359375;4.57999998843661;459;1 A;
64.597482836907;-1.0491943359375;-0.80169677734375;4.58999998841136;460;1 A;
64.6074828368818;-1.04949951171875;-0.806884765625;4.59999998838612;461;1 A;
64.6174828368565;-1.0491943359375;-0.81024169921875;4.60999998836087;462;1 A;
64.6274828368313;-1.0491943359375;-0.81085205078125;4.61999998833562;463;1 A;
64.637482836806;-1.0491943359375;-0.819091796875;4.62999998831037;464;1 A;
64.6474828367808;-1.05010986328125;-0.82183837890625;4.63999998828513;465;1 A;
64.6574828367555;-1.04949951171875;-0.81878662109375;4.64999998825988;466;1 A;
64.6674828367303;-1.04949951171875;-0.8209228515625;4.65999998823463;467;1 A;
64.6774828367051;-1.05010986328125;-0.8221435546875;4.66999998820938;468;1 A;
64.6874828366798;-1.0498046875;-0.8172607421875;4.67999998818414;469;1 A;
64.6974828366546;-1.04949951171875;-0.823974609375;4.68999998815889;470;1 A;
64.7074828366293;-1.0498046875;-0.82763671875;4.69999998813364;471;1 A;
64.7174828366041;-1.0491943359375;-0.82763671875;4.70999998810839;472;1 A;
64.7274828365788;-1.04949951171875;-0.83282470703125;4.71999998808315;473;1 A;
64.7374828365536;-1.0491943359375;-0.8331298828125;4.7299999880579;474;1 A;
64.7474828365283;-1.0498046875;-0.8258056640625;4.73999998803265;475;1 A;
64.7574828365031;-1.0498046875;-0.830078125;4.7499999880074;476;1 A;
64.7674828364778;-1.0498046875;-0.8282470703125;4.75999998798216;477;1 A;
64.7774828364526;-1.0498046875;-0.82275390625;4.76999998795691;478;1 A;
64.7874828364273;-1.04949951171875;-0.8331298828125;4.77999998793166;479;1 A;
64.7974828364021;-1.04949951171875;-0.8331298828125;4.78999998790641;480;1 A;
64.8074828363768;-1.0498046875;-0.83038330078125;4.79999998788116;481;1 A;
64.8174828363516;-1.04949951171875;-0.8331298828125;4.80999998785592;482;1 A;
64.8274828363263;-1.0491943359375;-0.83160400390625;4.81999998783067;483;1 A;
64.8374828363011;-1.0498046875;-0.826416015625;4.82999998780542;484;1 A;
64.8474828362758;-1.0498046875;-0.83526611328125;4.83999998778017;485;1 A;
64.8574828362506;-1.04949951171875;-0.8404541015625;4.84999998775493;486;1 A;
64.8674828362253;-1.04949951171875;-0.841064453125;4.85999998772968;487;1 A;
64.8774828362001;-1.0491943359375;-0.84320068359375;4.86999998770443;488;1 A;
64.8874828361749;-1.0491943359375;-0.83709716796875;4.87999998767918;489;1 A;
64.8974828361496;-1.0504150390625;-0.8294677734375;4.88999998765394;490;1 A;
64.9074828361244;-1.04949951171875;-0.83343505859375;4.89999998762869;491;1 A;
64.9174828360991;-1.04949951171875;-0.83251953125;4.90999998760344;492;1 A;
64.9274828360739;-1.0491943359375;-0.82427978515625;4.91999998757819;493;1 A;
64.9374828360486;-1.04949951171875;-0.830078125;4.92999998755295;494;1 A;
64.9474828360234;-1.04949951171875;-0.8282470703125;4.9399999875277;495;1 A;
64.9574828359981;-1.05010986328125;-0.82550048828125;4.94999998750245;496;1 A;
64.9674828359729;-1.04949951171875;-0.8319091796875;4.9599999874772;497;1 A;
64.9774828359476;-1.0498046875;-0.8380126953125;4.96999998745196;498;1 A;
64.9874828359224;-1.05010986328125;-0.83343505859375;4.97999998742671;499;1 A;
64.9974828358971;-1.04949951171875;-0.84136962890625;4.98999998740146;500;1 A;
