Time (s);WE(1).Potential (V);WE(1).Current (A);Corrected time (s);Index;Current range;Overload
77.4176408045392;-0.8294677734375;-2.3382568359375;0;1;1 A;Current overload
77.427640804514;-0.880126953125;-2.2222900390625;0.00999999997475243;2;1 A;Current overload
77.4376408044888;-1.05133056640625;-1.57501220703125;0.0199999999495049;3;1 A;
77.4476408044635;-1.05010986328125;-1.30859375;0.0299999999242573;4;1 A;
77.4576408044383;-1.05010986328125;-1.14471435546875;0.0399999998990097;5;1 A;
77.467640804413;-1.0491943359375;-1.02935791015625;0.0499999998737621;6;1 A;
77.4776408043878;-1.0491943359375;-0.94268798828125;0.0599999998485146;7;1 A;
77.4876408043625;-1.05010986328125;-0.8740234375;0.069999999823267;8;1 A;
77.4976408043373;-1.04949951171875;-0.81817626953125;0.0799999997980194;9;1 A;
77.507640804312;-1.04949951171875;-0.771484375;0.0899999997727718;10;1 A;
77.5176408042868;-1.04949951171875;-0.7318115234375;0.0999999997475243;11;1 A;
77.5276408042615;-1.0498046875;-0.6976318359375;0.109999999722277;12;1 A;
77.5376408042363;-1.0498046875;-0.667724609375;0.119999999697029;13;1 A;
77.547640804211;-1.04949951171875;-0.64117431640625;0.129999999671782;14;1 A;
77.5576408041858;-1.04949951171875;-0.61767578125;0.139999999646534;15;1 A;
77.5676408041605;-1.04949951171875;-0.5963134765625;0.149999999621286;16;1 A;
77.5776408041353;-1.04949951171875;-0.57708740234375;0.159999999596039;17;1 A;
77.58764080411;-1.0498046875;-0.5596923828125;0.169999999570791;18;1 A;
77.5976408040848;-1.0498046875;-0.5438232421875;0.179999999545544;19;1 A;
77.6076408040595;-1.04949951171875;-0.5291748046875;0.189999999520296;20;1 A;
77.6176408040343;-1.0491943359375;-0.51544189453125;0.199999999495049;21;1 A;
77.627640804009;-1.04949951171875;-0.5029296875;0.209999999469801;22;1 A;
77.6376408039838;-1.0491943359375;-0.491180419921875;0.219999999444553;23;1 A;
77.6476408039586;-1.0498046875;-0.48028564453125;0.229999999419306;24;1 A;
77.6576408039333;-1.0491943359375;-0.47003173828125;0.239999999394058;25;1 A;
77.6676408039081;-1.0491943359375;-0.46038818359375;0.249999999368811;26;1 A;
77.6776408038828;-1.0498046875;-0.451385498046875;0.259999999343563;27;1 A;
77.6876408038576;-1.04949951171875;-0.442779541015625;0.269999999318316;28;1 A;
77.6976408038323;-1.04949951171875;-0.43475341796875;0.279999999293068;29;1 A;
77.7076408038071;-1.04949951171875;-0.427093505859375;0.28999999926782;30;1 A;
77.7176408037818;-1.0498046875;-0.419830322265625;0.299999999242573;31;1 A;
77.7276408037566;-1.0491943359375;-0.4129638671875;0.309999999217325;32;1 A;
77.7376408037313;-1.04949951171875;-0.4063720703125;0.319999999192078;33;1 A;
77.7476408037061;-1.04949951171875;-0.400146484375;0.32999999916683;34;1 A;
77.7576408036808;-1.04949951171875;-0.394134521484375;0.339999999141583;35;1 A;
77.7676408036556;-1.04949951171875;-0.388427734375;0.349999999116335;36;1 A;
77.7776408036303;-1.0498046875;-0.382965087890625;0.359999999091087;37;1 A;
77.7876408036051;-1.04949951171875;-0.377685546875;0.36999999906584;38;1 A;
77.7976408035798;-1.0498046875;-0.3726806640625;0.379999999040592;39;1 A;
77.8076408035546;-1.04949951171875;-0.3677978515625;0.389999999015345;40;1 A;
77.8176408035293;-1.04949951171875;-0.3631591796875;0.399999998990097;41;1 A;
77.8276408035041;-1.0498046875;-0.35870361328125;0.40999999896485;42;1 A;
77.8376408034788;-1.0491943359375;-0.3543701171875;0.419999998939602;43;1 A;
77.8476408034536;-1.0498046875;-0.350250244140625;0.429999998914354;44;1 A;
77.8576408034284;-1.04949951171875;-0.346221923828125;0.439999998889107;45;1 A;
77.8676408034031;-1.05010986328125;-0.34234619140625;0.449999998863859;46;1 A;
77.8776408033779;-1.04949951171875;-0.338623046875;0.459999998838612;47;1 A;
77.8876408033526;-1.04888916015625;-0.3349609375;0.469999998813364;48;1 A;
77.8976408033274;-1.0498046875;-0.331512451171875;0.479999998788116;49;1 A;
77.9076408033021;-1.04949951171875;-0.32806396484375;0.489999998762869;50;1 A;
77.9176408032769;-1.04949951171875;-0.324798583984375;0.499999998737621;51;1 A;
77.9276408032516;-1.04949951171875;-0.32159423828125;0.509999998712374;52;1 A;
77.9376408032264;-1.0491943359375;-0.3184814453125;0.519999998687126;53;1 A;
77.9476408032011;-1.0498046875;-0.31549072265625;0.529999998661879;54;1 A;
77.9576408031759;-1.0498046875;-0.312530517578125;0.539999998636631;55;1 A;
77.9676408031506;-1.04949951171875;-0.3096923828125;0.549999998611383;56;1 A;
77.9776408031254;-1.04949951171875;-0.30694580078125;0.559999998586136;57;1 A;
77.9876408031001;-1.0491943359375;-0.304229736328125;0.569999998560888;58;1 A;
77.9976408030749;-1.0491943359375;-0.3016357421875;0.579999998535641;59;1 A;
78.0076408030496;-1.0498046875;-0.299072265625;0.589999998510393;60;1 A;
78.0176408030244;-1.0491943359375;-0.296630859375;0.599999998485146;61;1 A;
78.0276408029991;-1.04949951171875;-0.294189453125;0.609999998459898;62;1 A;
78.0376408029739;-1.04949951171875;-0.29180908203125;0.61999999843465;63;1 A;
78.0476408029486;-1.04949951171875;-0.28955078125;0.629999998409403;64;1 A;
78.0576408029234;-1.0498046875;-0.287261962890625;0.639999998384155;65;1 A;
78.0676408028982;-1.0498046875;-0.28509521484375;0.649999998358908;66;1 A;
78.0776408028729;-1.0491943359375;-0.282928466796875;0.65999999833366;67;1 A;
78.0876408028477;-1.04949951171875;-0.28082275390625;0.669999998308413;68;1 A;
78.0976408028224;-1.0498046875;-0.27880859375;0.679999998283165;69;1 A;
78.1076408027972;-1.0498046875;-0.27679443359375;0.689999998257917;70;1 A;
78.1176408027719;-1.04949951171875;-0.274810791015625;0.69999999823267;71;1 A;
78.1276408027467;-1.04949951171875;-0.272918701171875;0.709999998207422;72;1 A;
78.1376408027214;-1.0498046875;-0.271026611328125;0.719999998182175;73;1 A;
78.1476408026962;-1.04949951171875;-0.26922607421875;0.729999998156927;74;1 A;
78.1576408026709;-1.0491943359375;-0.26739501953125;0.73999999813168;75;1 A;
78.1676408026457;-1.04949951171875;-0.265655517578125;0.749999998106432;76;1 A;
78.1776408026204;-1.04949951171875;-0.263946533203125;0.759999998081184;77;1 A;
78.1876408025952;-1.04949951171875;-0.262237548828125;0.769999998055937;78;1 A;
78.1976408025699;-1.04949951171875;-0.260589599609375;0.779999998030689;79;1 A;
78.2076408025447;-1.0491943359375;-0.258941650390625;0.789999998005442;80;1 A;
78.2176408025194;-1.04949951171875;-0.25738525390625;0.799999997980194;81;1 A;
78.2276408024942;-1.04949951171875;-0.255828857421875;0.809999997954947;82;1 A;
78.2376408024689;-1.0498046875;-0.2542724609375;0.819999997929699;83;1 A;
78.2476408024437;-1.04949951171875;-0.25274658203125;0.829999997904451;84;1 A;
78.2576408024185;-1.0498046875;-0.25128173828125;0.839999997879204;85;1 A;
78.2676408023932;-1.0491943359375;-0.249847412109375;0.849999997853956;86;1 A;
78.277640802368;-1.0498046875;-0.2484130859375;0.859999997828709;87;1 A;
78.2876408023427;-1.05010986328125;-0.24700927734375;0.869999997803461;88;1 A;
78.2976408023175;-1.0498046875;-0.245635986328125;0.879999997778214;89;1 A;
78.3076408022922;-1.0498046875;-0.244293212890625;0.889999997752966;90;1 A;
78.317640802267;-1.04949951171875;-0.242950439453125;0.899999997727718;91;1 A;
78.3276408022417;-1.04949951171875;-0.241668701171875;0.909999997702471;92;1 A;
78.3376408022165;-1.04949951171875;-0.2403564453125;0.919999997677223;93;1 A;
78.3476408021912;-1.0498046875;-0.239105224609375;0.929999997651976;94;1 A;
78.357640802166;-1.0498046875;-0.237884521484375;0.939999997626728;95;1 A;
78.3676408021407;-1.0491943359375;-0.236663818359375;0.949999997601481;96;1 A;
78.3776408021155;-1.0498046875;-0.235443115234375;0.959999997576233;97;1 A;
78.3876408020902;-1.04949951171875;-0.2342529296875;0.969999997550985;98;1 A;
78.397640802065;-1.04949951171875;-0.23309326171875;0.979999997525738;99;1 A;
78.4076408020397;-1.04949951171875;-0.231964111328125;0.98999999750049;100;1 A;
78.4176408020145;-1.04949951171875;-0.2308349609375;0.999999997475243;101;1 A;
78.4276408019892;-1.04949951171875;-0.229736328125;1.00999999745;102;1 A;
78.437640801964;-1.0498046875;-0.228607177734375;1.01999999742475;103;1 A;
78.4476408019387;-1.04949951171875;-0.227569580078125;1.0299999973995;104;1 A;
78.4576408019135;-1.04949951171875;-0.22650146484375;1.03999999737425;105;1 A;
78.4676408018883;-1.05010986328125;-0.2254638671875;1.049999997349;106;1 A;
78.477640801863;-1.0498046875;-0.224456787109375;1.05999999732376;107;1 A;
78.4876408018378;-1.0491943359375;-0.223388671875;1.06999999729851;108;1 A;
78.4976408018125;-1.0498046875;-0.222412109375;1.07999999727326;109;1 A;
78.5076408017873;-1.04949951171875;-0.221435546875;1.08999999724801;110;1 A;
78.517640801762;-1.04949951171875;-0.220458984375;1.09999999722277;111;1 A;
78.5276408017368;-1.04949951171875;-0.219512939453125;1.10999999719752;112;1 A;
78.5376408017115;-1.04949951171875;-0.218536376953125;1.11999999717227;113;1 A;
78.5476408016863;-1.04949951171875;-0.21759033203125;1.12999999714702;114;1 A;
78.557640801661;-1.04949951171875;-0.216705322265625;1.13999999712178;115;1 A;
78.5676408016358;-1.0498046875;-0.215789794921875;1.14999999709653;116;1 A;
78.5776408016105;-1.0491943359375;-0.21490478515625;1.15999999707128;117;1 A;
78.5876408015853;-1.04949951171875;-0.2139892578125;1.16999999704603;118;1 A;
78.59764080156;-1.05010986328125;-0.213134765625;1.17999999702079;119;1 A;
78.6076408015348;-1.0498046875;-0.2122802734375;1.18999999699554;120;1 A;
78.6176408015095;-1.05010986328125;-0.21142578125;1.19999999697029;121;1 A;
78.6276408014843;-1.0491943359375;-0.210601806640625;1.20999999694504;122;1 A;
78.637640801459;-1.04949951171875;-0.209747314453125;1.2199999969198;123;1 A;
78.6476408014338;-1.0498046875;-0.208953857421875;1.22999999689455;124;1 A;
78.6576408014085;-1.04888916015625;-0.208160400390625;1.2399999968693;125;1 A;
78.6676408013833;-1.0498046875;-0.20733642578125;1.24999999684405;126;1 A;
78.6776408013581;-1.04949951171875;-0.206573486328125;1.25999999681881;127;1 A;
78.6876408013328;-1.0491943359375;-0.205780029296875;1.26999999679356;128;1 A;
78.6976408013076;-1.04949951171875;-0.20501708984375;1.27999999676831;129;1 A;
78.7076408012823;-1.04949951171875;-0.20428466796875;1.28999999674306;130;1 A;
78.7176408012571;-1.0498046875;-0.2034912109375;1.29999999671782;131;1 A;
78.7276408012318;-1.0491943359375;-0.202789306640625;1.30999999669257;132;1 A;
78.7376408012066;-1.0491943359375;-0.2020263671875;1.31999999666732;133;1 A;
78.7476408011813;-1.0498046875;-0.201324462890625;1.32999999664207;134;1 A;
78.7576408011561;-1.0491943359375;-0.20062255859375;1.33999999661683;135;1 A;
78.7676408011308;-1.0491943359375;-0.19989013671875;1.34999999659158;136;1 A;
78.7776408011056;-1.04949951171875;-0.19921875;1.35999999656633;137;1 A;
78.7876408010803;-1.04949951171875;-0.198486328125;1.36999999654108;138;1 A;
78.7976408010551;-1.04949951171875;-0.197845458984375;1.37999999651583;139;1 A;
78.8076408010298;-1.04949951171875;-0.197174072265625;1.38999999649059;140;1 A;
78.8176408010046;-1.0491943359375;-0.19647216796875;1.39999999646534;141;1 A;
78.8276408009793;-1.04949951171875;-0.19586181640625;1.40999999644009;142;1 A;
78.8376408009541;-1.0498046875;-0.195159912109375;1.41999999641484;143;1 A;
78.8476408009288;-1.04949951171875;-0.194549560546875;1.4299999963896;144;1 A;
78.8576408009036;-1.0491943359375;-0.19390869140625;1.43999999636435;145;1 A;
78.8676408008783;-1.04949951171875;-0.193267822265625;1.4499999963391;146;1 A;
78.8776408008531;-1.04949951171875;-0.192657470703125;1.45999999631385;147;1 A;
78.8876408008279;-1.04949951171875;-0.1920166015625;1.46999999628861;148;1 A;
78.8976408008026;-1.0498046875;-0.191436767578125;1.47999999626336;149;1 A;
78.9076408007774;-1.04949951171875;-0.190826416015625;1.48999999623811;150;1 A;
78.9176408007521;-1.04949951171875;-0.190185546875;1.49999999621286;151;1 A;
78.9276408007269;-1.0498046875;-0.18963623046875;1.50999999618762;152;1 A;
78.9376408007016;-1.04949951171875;-0.18902587890625;1.51999999616237;153;1 A;
78.9476408006764;-1.0491943359375;-0.1884765625;1.52999999613712;154;1 A;
78.9576408006511;-1.05010986328125;-0.1878662109375;1.53999999611187;155;1 A;
78.9676408006259;-1.04949951171875;-0.187286376953125;1.54999999608663;156;1 A;
78.9776408006006;-1.04949951171875;-0.186767578125;1.55999999606138;157;1 A;
78.9876408005754;-1.0498046875;-0.1861572265625;1.56999999603613;158;1 A;
78.9976408005501;-1.04888916015625;-0.185638427734375;1.57999999601088;159;1 A;
79.0076408005249;-1.04888916015625;-0.185089111328125;1.58999999598564;160;1 A;
79.0176408004996;-1.04949951171875;-0.184539794921875;1.59999999596039;161;1 A;
79.0276408004744;-1.04949951171875;-0.18402099609375;1.60999999593514;162;1 A;
79.0376408004491;-1.04949951171875;-0.183441162109375;1.61999999590989;163;1 A;
79.0476408004239;-1.04949951171875;-0.182952880859375;1.62999999588465;164;1 A;
79.0576408003986;-1.0498046875;-0.18243408203125;1.6399999958594;165;1 A;
79.0676408003734;-1.0491943359375;-0.181915283203125;1.64999999583415;166;1 A;
79.0776408003481;-1.04949951171875;-0.181427001953125;1.6599999958089;167;1 A;
79.0876408003229;-1.04949951171875;-0.180877685546875;1.66999999578366;168;1 A;
79.0976408002977;-1.04949951171875;-0.180389404296875;1.67999999575841;169;1 A;
79.1076408002724;-1.048583984375;-0.179901123046875;1.68999999573316;170;1 A;
79.1176408002472;-1.0498046875;-0.179412841796875;1.69999999570791;171;1 A;
79.1276408002219;-1.0498046875;-0.178924560546875;1.70999999568267;172;1 A;
79.1376408001967;-1.04949951171875;-0.17840576171875;1.71999999565742;173;1 A;
79.1476408001714;-1.0498046875;-0.177978515625;1.72999999563217;174;1 A;
79.1576408001462;-1.04949951171875;-0.177459716796875;1.73999999560692;175;1 A;
79.1676408001209;-1.04949951171875;-0.177001953125;1.74999999558167;176;1 A;
79.1776408000957;-1.0491943359375;-0.176544189453125;1.75999999555643;177;1 A;
79.1876408000704;-1.0498046875;-0.176055908203125;1.76999999553118;178;1 A;
79.1976408000452;-1.0491943359375;-0.175628662109375;1.77999999550593;179;1 A;
79.2076408000199;-1.04949951171875;-0.1751708984375;1.78999999548068;180;1 A;
79.2176407999947;-1.0498046875;-0.174713134765625;1.79999999545544;181;1 A;
79.2276407999694;-1.04949951171875;-0.174285888671875;1.80999999543019;182;1 A;
79.2376407999442;-1.04949951171875;-0.173797607421875;1.81999999540494;183;1 A;
79.2476407999189;-1.04949951171875;-0.17340087890625;1.82999999537969;184;1 A;
79.2576407998937;-1.04949951171875;-0.172943115234375;1.83999999535445;185;1 A;
79.2676407998684;-1.04949951171875;-0.17254638671875;1.8499999953292;186;1 A;
79.2776407998432;-1.04949951171875;-0.172119140625;1.85999999530395;187;1 A;
79.287640799818;-1.0491943359375;-0.17169189453125;1.8699999952787;188;1 A;
79.2976407997927;-1.04949951171875;-0.1712646484375;1.87999999525346;189;1 A;
79.3076407997675;-1.0491943359375;-0.17083740234375;1.88999999522821;190;1 A;
79.3176407997422;-1.0491943359375;-0.170440673828125;1.89999999520296;191;1 A;
79.327640799717;-1.0498046875;-0.170013427734375;1.90999999517771;192;1 A;
79.3376407996917;-1.04949951171875;-0.169586181640625;1.91999999515247;193;1 A;
79.3476407996665;-1.04949951171875;-0.169219970703125;1.92999999512722;194;1 A;
79.3576407996412;-1.04949951171875;-0.168792724609375;1.93999999510197;195;1 A;
79.367640799616;-1.0491943359375;-0.168426513671875;1.94999999507672;196;1 A;
79.3776407995907;-1.0498046875;-0.16802978515625;1.95999999505148;197;1 A;
79.3876407995655;-1.0491943359375;-0.1676025390625;1.96999999502623;198;1 A;
79.3976407995402;-1.04949951171875;-0.167236328125;1.97999999500098;199;1 A;
79.407640799515;-1.04949951171875;-0.166839599609375;1.98999999497573;200;1 A;
79.4176407994897;-1.04949951171875;-0.166473388671875;1.99999999495049;201;1 A;
79.4276407994645;-1.04949951171875;-0.166107177734375;2.00999999492524;202;1 A;
79.4376407994392;-1.04949951171875;-0.16571044921875;2.01999999489999;203;1 A;
79.447640799414;-1.04949951171875;-0.165374755859375;2.02999999487474;204;1 A;
79.4576407993887;-1.04949951171875;-0.16497802734375;2.0399999948495;205;1 A;
79.4676407993635;-1.05010986328125;-0.16461181640625;2.04999999482425;206;1 A;
79.4776407993382;-1.04949951171875;-0.16424560546875;2.059999994799;207;1 A;
79.487640799313;-1.0498046875;-0.16387939453125;2.06999999477375;208;1 A;
79.4976407992878;-1.04949951171875;-0.163543701171875;2.0799999947485;209;1 A;
79.5076407992625;-1.0491943359375;-0.163177490234375;2.08999999472326;210;1 A;
79.5176407992373;-1.04949951171875;-0.162811279296875;2.09999999469801;211;1 A;
79.527640799212;-1.04949951171875;-0.1624755859375;2.10999999467276;212;1 A;
79.5376407991868;-1.04949951171875;-0.162109375;2.11999999464751;213;1 A;
79.5476407991615;-1.04888916015625;-0.161834716796875;2.12999999462227;214;1 A;
79.5576407991363;-1.04949951171875;-0.1614990234375;2.13999999459702;215;1 A;
79.567640799111;-1.04949951171875;-0.1611328125;2.14999999457177;216;1 A;
79.5776407990858;-1.05010986328125;-0.160858154296875;2.15999999454652;217;1 A;
79.5876407990605;-1.04949951171875;-0.1605224609375;2.16999999452128;218;1 A;
79.5976407990353;-1.0491943359375;-0.16021728515625;2.17999999449603;219;1 A;
79.60764079901;-1.0498046875;-0.159912109375;2.18999999447078;220;1 A;
79.6176407989848;-1.0491943359375;-0.159576416015625;2.19999999444553;221;1 A;
79.6276407989595;-1.0491943359375;-0.1593017578125;2.20999999442029;222;1 A;
79.6376407989343;-1.0491943359375;-0.158935546875;2.21999999439504;223;1 A;
79.647640798909;-1.04949951171875;-0.15863037109375;2.22999999436979;224;1 A;
79.6576407988838;-1.04888916015625;-0.1583251953125;2.23999999434454;225;1 A;
79.6676407988585;-1.04888916015625;-0.157989501953125;2.2499999943193;226;1 A;
79.6776407988333;-1.0491943359375;-0.157684326171875;2.25999999429405;227;1 A;
79.687640798808;-1.0491943359375;-0.1573486328125;2.2699999942688;228;1 A;
79.6976407987828;-1.04949951171875;-0.157073974609375;2.27999999424355;229;1 A;
79.7076407987576;-1.0491943359375;-0.156768798828125;2.28999999421831;230;1 A;
79.7176407987323;-1.04949951171875;-0.15643310546875;2.29999999419306;231;1 A;
79.7276407987071;-1.04888916015625;-0.156158447265625;2.30999999416781;232;1 A;
79.7376407986818;-1.0498046875;-0.15582275390625;2.31999999414256;233;1 A;
79.7476407986566;-1.0498046875;-0.155548095703125;2.32999999411732;234;1 A;
79.7576407986313;-1.0498046875;-0.155242919921875;2.33999999409207;235;1 A;
79.7676407986061;-1.04949951171875;-0.154937744140625;2.34999999406682;236;1 A;
79.7776407985808;-1.04949951171875;-0.1546630859375;2.35999999404157;237;1 A;
79.7876407985556;-1.04949951171875;-0.15435791015625;2.36999999401633;238;1 A;
79.7976407985303;-1.0498046875;-0.154052734375;2.37999999399108;239;1 A;
79.8076407985051;-1.0491943359375;-0.153778076171875;2.38999999396583;240;1 A;
79.8176407984798;-1.04949951171875;-0.15350341796875;2.39999999394058;241;1 A;
79.8276407984546;-1.0491943359375;-0.153228759765625;2.40999999391533;242;1 A;
79.8376407984293;-1.0491943359375;-0.152923583984375;2.41999999389009;243;1 A;
79.8476407984041;-1.04949951171875;-0.15264892578125;2.42999999386484;244;1 A;
79.8576407983788;-1.0491943359375;-0.152374267578125;2.43999999383959;245;1 A;
79.8676407983536;-1.04949951171875;-0.152069091796875;2.44999999381434;246;1 A;
79.8776407983283;-1.04949951171875;-0.151824951171875;2.4599999937891;247;1 A;
79.8876407983031;-1.04949951171875;-0.151519775390625;2.46999999376385;248;1 A;
79.8976407982778;-1.04888916015625;-0.151275634765625;2.4799999937386;249;1 A;
79.9076407982526;-1.0498046875;-0.1510009765625;2.48999999371335;250;1 A;
79.9176407982274;-1.04949951171875;-0.150726318359375;2.49999999368811;251;1 A;
79.9276407982021;-1.0491943359375;-0.150482177734375;2.50999999366286;252;1 A;
79.9376407981769;-1.0491943359375;-0.15020751953125;2.51999999363761;253;1 A;
79.9476407981516;-1.0498046875;-0.149932861328125;2.52999999361236;254;1 A;
79.9576407981264;-1.0498046875;-0.149688720703125;2.53999999358712;255;1 A;
79.9676407981011;-1.04949951171875;-0.1494140625;2.54999999356187;256;1 A;
79.9776407980759;-1.0498046875;-0.149169921875;2.55999999353662;257;1 A;
79.9876407980506;-1.04949951171875;-0.148895263671875;2.56999999351137;258;1 A;
79.9976407980254;-1.0491943359375;-0.148651123046875;2.57999999348613;259;1 A;
80.0076407980001;-1.0498046875;-0.1484375;2.58999999346088;260;1 A;
80.0176407979749;-1.0491943359375;-0.148162841796875;2.59999999343563;261;1 A;
80.0276407979496;-1.0491943359375;-0.147918701171875;2.60999999341038;262;1 A;
80.0376407979244;-1.04949951171875;-0.14764404296875;2.61999999338514;263;1 A;
80.0476407978991;-1.0498046875;-0.147430419921875;2.62999999335989;264;1 A;
80.0576407978739;-1.05010986328125;-0.147186279296875;2.63999999333464;265;1 A;
80.0676407978486;-1.0498046875;-0.146942138671875;2.64999999330939;266;1 A;
80.0776407978234;-1.0498046875;-0.146728515625;2.65999999328415;267;1 A;
80.0876407977981;-1.04949951171875;-0.146453857421875;2.6699999932589;268;1 A;
80.0976407977729;-1.0498046875;-0.146240234375;2.67999999323365;269;1 A;
80.1076407977476;-1.0498046875;-0.14599609375;2.6899999932084;270;1 A;
80.1176407977224;-1.04888916015625;-0.145751953125;2.69999999318316;271;1 A;
80.1276407976972;-1.05010986328125;-0.145538330078125;2.70999999315791;272;1 A;
80.1376407976719;-1.0491943359375;-0.145263671875;2.71999999313266;273;1 A;
80.1476407976467;-1.04949951171875;-0.14508056640625;2.72999999310741;274;1 A;
80.1576407976214;-1.0491943359375;-0.14483642578125;2.73999999308217;275;1 A;
80.1676407975962;-1.04949951171875;-0.144622802734375;2.74999999305692;276;1 A;
80.1776407975709;-1.0498046875;-0.1444091796875;2.75999999303167;277;1 A;
80.1876407975457;-1.04949951171875;-0.1441650390625;2.76999999300642;278;1 A;
80.1976407975204;-1.0491943359375;-0.143951416015625;2.77999999298117;279;1 A;
80.2076407974952;-1.0491943359375;-0.14373779296875;2.78999999295593;280;1 A;
80.2176407974699;-1.04949951171875;-0.143524169921875;2.79999999293068;281;1 A;
80.2276407974447;-1.04949951171875;-0.143310546875;2.80999999290543;282;1 A;
80.2376407974194;-1.0491943359375;-0.14306640625;2.81999999288018;283;1 A;
80.2476407973942;-1.0498046875;-0.14288330078125;2.82999999285494;284;1 A;
80.2576407973689;-1.0498046875;-0.14263916015625;2.83999999282969;285;1 A;
80.2676407973437;-1.04949951171875;-0.142425537109375;2.84999999280444;286;1 A;
80.2776407973184;-1.04949951171875;-0.142242431640625;2.85999999277919;287;1 A;
80.2876407972932;-1.04949951171875;-0.141998291015625;2.86999999275395;288;1 A;
80.2976407972679;-1.04949951171875;-0.141815185546875;2.8799999927287;289;1 A;
80.3076407972427;-1.04949951171875;-0.1416015625;2.88999999270345;290;1 A;
80.3176407972175;-1.04949951171875;-0.141387939453125;2.8999999926782;291;1 A;
80.3276407971922;-1.0498046875;-0.141204833984375;2.90999999265296;292;1 A;
80.337640797167;-1.0498046875;-0.140960693359375;2.91999999262771;293;1 A;
80.3476407971417;-1.0498046875;-0.14080810546875;2.92999999260246;294;1 A;
80.3576407971165;-1.04949951171875;-0.140625;2.93999999257721;295;1 A;
80.3676407970912;-1.04949951171875;-0.140411376953125;2.94999999255197;296;1 A;
80.377640797066;-1.04949951171875;-0.140228271484375;2.95999999252672;297;1 A;
80.3876407970407;-1.0491943359375;-0.1400146484375;2.96999999250147;298;1 A;
80.3976407970155;-1.0498046875;-0.13983154296875;2.97999999247622;299;1 A;
80.4076407969902;-1.04949951171875;-0.139617919921875;2.98999999245098;300;1 A;
80.417640796965;-1.04949951171875;-0.139434814453125;2.99999999242573;301;1 A;
80.4276407969397;-1.04949951171875;-0.139251708984375;3.00999999240048;302;1 A;
80.4376407969145;-1.04949951171875;-0.1390380859375;3.01999999237523;303;1 A;
80.4476407968892;-1.05010986328125;-0.138885498046875;3.02999999234999;304;1 A;
80.457640796864;-1.04949951171875;-0.138671875;3.03999999232474;305;1 A;
80.4676407968387;-1.04949951171875;-0.13848876953125;3.04999999229949;306;1 A;
80.4776407968135;-1.048583984375;-0.138336181640625;3.05999999227424;307;1 A;
80.4876407967882;-1.04949951171875;-0.13812255859375;3.069999992249;308;1 A;
80.497640796763;-1.05010986328125;-0.137969970703125;3.07999999222375;309;1 A;
80.5076407967377;-1.0498046875;-0.137786865234375;3.0899999921985;310;1 A;
80.5176407967125;-1.04949951171875;-0.137603759765625;3.09999999217325;311;1 A;
80.5276407966873;-1.0491943359375;-0.137420654296875;3.109999992148;312;1 A;
80.537640796662;-1.0491943359375;-0.13720703125;3.11999999212276;313;1 A;
80.5476407966368;-1.04949951171875;-0.137054443359375;3.12999999209751;314;1 A;
80.5576407966115;-1.04949951171875;-0.136871337890625;3.13999999207226;315;1 A;
80.5676407965863;-1.05010986328125;-0.136688232421875;3.14999999204701;316;1 A;
80.577640796561;-1.04949951171875;-0.13653564453125;3.15999999202177;317;1 A;
80.5876407965358;-1.04949951171875;-0.1363525390625;3.16999999199652;318;1 A;
80.5976407965105;-1.0491943359375;-0.136199951171875;3.17999999197127;319;1 A;
80.6076407964853;-1.04949951171875;-0.136016845703125;3.18999999194602;320;1 A;
80.61764079646;-1.0491943359375;-0.135833740234375;3.19999999192078;321;1 A;
80.6276407964348;-1.0491943359375;-0.135711669921875;3.20999999189553;322;1 A;
80.6376407964095;-1.04949951171875;-0.135498046875;3.21999999187028;323;1 A;
80.6476407963843;-1.0498046875;-0.13543701171875;3.22999999184503;324;1 A;
80.657640796359;-1.04949951171875;-0.13525390625;3.23999999181979;325;1 A;
80.6676407963338;-1.04949951171875;-0.135101318359375;3.24999999179454;326;1 A;
80.6776407963085;-1.0498046875;-0.13494873046875;3.25999999176929;327;1 A;
80.6876407962833;-1.0498046875;-0.134765625;3.26999999174404;328;1 A;
80.697640796258;-1.0498046875;-0.134613037109375;3.2799999917188;329;1 A;
80.7076407962328;-1.04949951171875;-0.13446044921875;3.28999999169355;330;1 A;
80.7176407962075;-1.0498046875;-0.13427734375;3.2999999916683;331;1 A;
80.7276407961823;-1.0498046875;-0.134124755859375;3.30999999164305;332;1 A;
80.7376407961571;-1.0491943359375;-0.133941650390625;3.31999999161781;333;1 A;
80.7476407961318;-1.04949951171875;-0.133819580078125;3.32999999159256;334;1 A;
80.7576407961066;-1.0498046875;-0.1336669921875;3.33999999156731;335;1 A;
80.7676407960813;-1.0491943359375;-0.13348388671875;3.34999999154206;336;1 A;
80.7776407960561;-1.04949951171875;-0.13336181640625;3.35999999151682;337;1 A;
80.7876407960308;-1.04949951171875;-0.1331787109375;3.36999999149157;338;1 A;
80.7976407960056;-1.0491943359375;-0.133087158203125;3.37999999146632;339;1 A;
80.8076407959803;-1.0491943359375;-0.1329345703125;3.38999999144107;340;1 A;
80.8176407959551;-1.0491943359375;-0.132781982421875;3.39999999141583;341;1 A;
80.8276407959298;-1.0498046875;-0.13262939453125;3.40999999139058;342;1 A;
80.8376407959046;-1.04949951171875;-0.1324462890625;3.41999999136533;343;1 A;
80.8476407958793;-1.04949951171875;-0.13232421875;3.42999999134008;344;1 A;
80.8576407958541;-1.0491943359375;-0.132171630859375;3.43999999131483;345;1 A;
80.8676407958288;-1.0491943359375;-0.13201904296875;3.44999999128959;346;1 A;
80.8776407958036;-1.04949951171875;-0.13189697265625;3.45999999126434;347;1 A;
80.8876407957783;-1.0498046875;-0.1317138671875;3.46999999123909;348;1 A;
80.8976407957531;-1.0498046875;-0.131622314453125;3.47999999121384;349;1 A;
80.9076407957278;-1.04949951171875;-0.1314697265625;3.4899999911886;350;1 A;
80.9176407957026;-1.04949951171875;-0.13134765625;3.49999999116335;351;1 A;
80.9276407956773;-1.04949951171875;-0.1312255859375;3.5099999911381;352;1 A;
80.9376407956521;-1.04949951171875;-0.131072998046875;3.51999999111285;353;1 A;
80.9476407956269;-1.04949951171875;-0.130950927734375;3.52999999108761;354;1 A;
80.9576407956016;-1.0498046875;-0.13079833984375;3.53999999106236;355;1 A;
80.9676407955764;-1.04949951171875;-0.13067626953125;3.54999999103711;356;1 A;
80.9776407955511;-1.04949951171875;-0.130523681640625;3.55999999101186;357;1 A;
80.9876407955259;-1.04949951171875;-0.130401611328125;3.56999999098662;358;1 A;
80.9976407955006;-1.0491943359375;-0.130279541015625;3.57999999096137;359;1 A;
81.0076407954754;-1.04949951171875;-0.130157470703125;3.58999999093612;360;1 A;
81.0176407954501;-1.04949951171875;-0.1300048828125;3.59999999091087;361;1 A;
81.0276407954249;-1.0491943359375;-0.129913330078125;3.60999999088563;362;1 A;
81.0376407953996;-1.0491943359375;-0.12982177734375;3.61999999086038;363;1 A;
81.0476407953744;-1.0498046875;-0.129730224609375;3.62999999083513;364;1 A;
81.0576407953491;-1.0498046875;-0.129608154296875;3.63999999080988;365;1 A;
81.0676407953239;-1.04949951171875;-0.129486083984375;3.64999999078464;366;1 A;
81.0776407952986;-1.04949951171875;-0.12933349609375;3.65999999075939;367;1 A;
81.0876407952734;-1.04949951171875;-0.12921142578125;3.66999999073414;368;1 A;
81.0976407952481;-1.0498046875;-0.129150390625;3.67999999070889;369;1 A;
81.1076407952229;-1.04949951171875;-0.129058837890625;3.68999999068365;370;1 A;
81.1176407951976;-1.04888916015625;-0.12890625;3.6999999906584;371;1 A;
81.1276407951724;-1.0498046875;-0.128814697265625;3.70999999063315;372;1 A;
81.1376407951471;-1.04949951171875;-0.128662109375;3.7199999906079;373;1 A;
81.1476407951219;-1.0498046875;-0.128570556640625;3.72999999058266;374;1 A;
81.1576407950967;-1.0491943359375;-0.128448486328125;3.73999999055741;375;1 A;
81.1676407950714;-1.04949951171875;-0.128326416015625;3.74999999053216;376;1 A;
81.1776407950462;-1.04949951171875;-0.12823486328125;3.75999999050691;377;1 A;
81.1876407950209;-1.0498046875;-0.12811279296875;3.76999999048167;378;1 A;
81.1976407949957;-1.0498046875;-0.1280517578125;3.77999999045642;379;1 A;
81.2076407949704;-1.0491943359375;-0.1279296875;3.78999999043117;380;1 A;
81.2176407949452;-1.04949951171875;-0.1278076171875;3.79999999040592;381;1 A;
81.2276407949199;-1.0498046875;-0.127716064453125;3.80999999038067;382;1 A;
81.2376407948947;-1.04888916015625;-0.127593994140625;3.81999999035543;383;1 A;
81.2476407948694;-1.0498046875;-0.127532958984375;3.82999999033018;384;1 A;
81.2576407948442;-1.04949951171875;-0.127410888671875;3.83999999030493;385;1 A;
81.2676407948189;-1.0491943359375;-0.127288818359375;3.84999999027968;386;1 A;
81.2776407947937;-1.05010986328125;-0.127227783203125;3.85999999025444;387;1 A;
81.2876407947684;-1.04949951171875;-0.127105712890625;3.86999999022919;388;1 A;
81.2976407947432;-1.0491943359375;-0.12701416015625;3.87999999020394;389;1 A;
81.3076407947179;-1.0498046875;-0.126922607421875;3.88999999017869;390;1 A;
81.3176407946927;-1.04949951171875;-0.126800537109375;3.89999999015345;391;1 A;
81.3276407946674;-1.04949951171875;-0.126708984375;3.9099999901282;392;1 A;
81.3376407946422;-1.0491943359375;-0.1265869140625;3.91999999010295;393;1 A;
81.347640794617;-1.0491943359375;-0.12652587890625;3.9299999900777;394;1 A;
81.3576407945917;-1.04949951171875;-0.126434326171875;3.93999999005246;395;1 A;
81.3676407945665;-1.0498046875;-0.126312255859375;3.94999999002721;396;1 A;
81.3776407945412;-1.0491943359375;-0.126251220703125;3.95999999000196;397;1 A;
81.387640794516;-1.0491943359375;-0.1260986328125;3.96999998997671;398;1 A;
81.3976407944907;-1.04949951171875;-0.126068115234375;3.97999998995147;399;1 A;
81.4076407944655;-1.04949951171875;-0.125946044921875;3.98999998992622;400;1 A;
81.4176407944402;-1.04949951171875;-0.1258544921875;3.99999998990097;401;1 A;
81.427640794415;-1.0498046875;-0.125762939453125;4.00999998987572;402;1 A;
81.4376407943897;-1.0498046875;-0.125640869140625;4.01999998985048;403;1 A;
81.4476407943645;-1.04949951171875;-0.125579833984375;4.02999998982523;404;1 A;
81.4576407943392;-1.0491943359375;-0.12548828125;4.03999998979998;405;1 A;
81.467640794314;-1.05010986328125;-0.125457763671875;4.04999998977473;406;1 A;
81.4776407942887;-1.0491943359375;-0.12542724609375;4.05999998974949;407;1 A;
81.4876407942635;-1.04949951171875;-0.125274658203125;4.06999998972424;408;1 A;
81.4976407942382;-1.0498046875;-0.125213623046875;4.07999998969899;409;1 A;
81.507640794213;-1.0498046875;-0.1251220703125;4.08999998967374;410;1 A;
81.5176407941877;-1.0491943359375;-0.125030517578125;4.0999999896485;411;1 A;
81.5276407941625;-1.04949951171875;-0.124969482421875;4.10999998962325;412;1 A;
81.5376407941372;-1.04949951171875;-0.124847412109375;4.119999989598;413;1 A;
81.547640794112;-1.0498046875;-0.12481689453125;4.12999998957275;414;1 A;
81.5576407940868;-1.0498046875;-0.12469482421875;4.1399999895475;415;1 A;
81.5676407940615;-1.04949951171875;-0.124603271484375;4.14999998952226;416;1 A;
81.5776407940363;-1.0498046875;-0.124542236328125;4.15999998949701;417;1 A;
81.587640794011;-1.04949951171875;-0.124420166015625;4.16999998947176;418;1 A;
81.5976407939858;-1.0491943359375;-0.124359130859375;4.17999998944651;419;1 A;
81.6076407939605;-1.0491943359375;-0.124267578125;4.18999998942127;420;1 A;
81.6176407939353;-1.0498046875;-0.124176025390625;4.19999998939602;421;1 A;
81.62764079391;-1.04949951171875;-0.124114990234375;4.20999998937077;422;1 A;
81.6376407938848;-1.0498046875;-0.123992919921875;4.21999998934552;423;1 A;
81.6476407938595;-1.0498046875;-0.12396240234375;4.22999998932028;424;1 A;
81.6576407938343;-1.04949951171875;-0.123870849609375;4.23999998929503;425;1 A;
81.667640793809;-1.05010986328125;-0.123779296875;4.24999998926978;426;1 A;
81.6776407937838;-1.04949951171875;-0.12371826171875;4.25999998924453;427;1 A;
81.6876407937585;-1.04949951171875;-0.12359619140625;4.26999998921929;428;1 A;
81.6976407937333;-1.04949951171875;-0.123565673828125;4.27999998919404;429;1 A;
81.707640793708;-1.04949951171875;-0.12347412109375;4.28999998916879;430;1 A;
81.7176407936828;-1.0498046875;-0.123382568359375;4.29999998914354;431;1 A;
81.7276407936575;-1.04949951171875;-0.123321533203125;4.3099999891183;432;1 A;
81.7376407936323;-1.0498046875;-0.123199462890625;4.31999998909305;433;1 A;
81.747640793607;-1.0498046875;-0.1231689453125;4.3299999890678;434;1 A;
81.7576407935818;-1.0498046875;-0.123077392578125;4.33999998904255;435;1 A;
81.7676407935566;-1.04949951171875;-0.12298583984375;4.34999998901731;436;1 A;
81.7776407935313;-1.04949951171875;-0.1229248046875;4.35999998899206;437;1 A;
81.7876407935061;-1.0498046875;-0.122802734375;4.36999998896681;438;1 A;
81.7976407934808;-1.04949951171875;-0.122772216796875;4.37999998894156;439;1 A;
81.8076407934556;-1.04949951171875;-0.1226806640625;4.38999998891632;440;1 A;
81.8176407934303;-1.04949951171875;-0.122589111328125;4.39999998889107;441;1 A;
81.8276407934051;-1.04949951171875;-0.122528076171875;4.40999998886582;442;1 A;
81.8376407933798;-1.0491943359375;-0.122467041015625;4.41999998884057;443;1 A;
81.8476407933546;-1.0491943359375;-0.122406005859375;4.42999998881533;444;1 A;
81.8576407933293;-1.0498046875;-0.122344970703125;4.43999998879008;445;1 A;
81.8676407933041;-1.0491943359375;-0.12225341796875;4.44999998876483;446;1 A;
81.8776407932788;-1.0498046875;-0.122222900390625;4.45999998873958;447;1 A;
81.8876407932536;-1.0498046875;-0.12213134765625;4.46999998871433;448;1 A;
81.8976407932283;-1.04949951171875;-0.1220703125;4.47999998868909;449;1 A;
81.9076407932031;-1.04888916015625;-0.121978759765625;4.48999998866384;450;1 A;
81.9176407931778;-1.04949951171875;-0.121917724609375;4.49999998863859;451;1 A;
81.9276407931526;-1.04949951171875;-0.121856689453125;4.50999998861334;452;1 A;
81.9376407931273;-1.0491943359375;-0.12176513671875;4.5199999885881;453;1 A;
81.9476407931021;-1.04949951171875;-0.1217041015625;4.52999998856285;454;1 A;
81.9576407930768;-1.0491943359375;-0.121612548828125;4.5399999885376;455;1 A;
81.9676407930516;-1.04949951171875;-0.121551513671875;4.54999998851235;456;1 A;
81.9776407930264;-1.0491943359375;-0.121490478515625;4.55999998848711;457;1 A;
81.9876407930011;-1.0491943359375;-0.12139892578125;4.56999998846186;458;1 A;
81.9976407929759;-1.0498046875;-0.121368408203125;4.57999998843661;459;1 A;
82.0076407929506;-1.0498046875;-0.12127685546875;4.58999998841136;460;1 A;
82.0176407929254;-1.04949951171875;-0.1212158203125;4.59999998838612;461;1 A;
82.0276407929001;-1.04888916015625;-0.12115478515625;4.60999998836087;462;1 A;
82.0376407928749;-1.0498046875;-0.121063232421875;4.61999998833562;463;1 A;
82.0476407928496;-1.0498046875;-0.12103271484375;4.62999998831037;464;1 A;
82.0576407928244;-1.04949951171875;-0.120941162109375;4.63999998828513;465;1 A;
82.0676407927991;-1.04949951171875;-0.120880126953125;4.64999998825988;466;1 A;
82.0776407927739;-1.04949951171875;-0.12078857421875;4.65999998823463;467;1 A;
82.0876407927486;-1.04949951171875;-0.120697021484375;4.66999998820938;468;1 A;
82.0976407927234;-1.0491943359375;-0.12066650390625;4.67999998818414;469;1 A;
82.1076407926981;-1.04949951171875;-0.120574951171875;4.68999998815889;470;1 A;
82.1176407926729;-1.05010986328125;-0.120513916015625;4.69999998813364;471;1 A;
82.1276407926476;-1.0491943359375;-0.120452880859375;4.70999998810839;472;1 A;
82.1376407926224;-1.0491943359375;-0.120361328125;4.71999998808315;473;1 A;
82.1476407925971;-1.0491943359375;-0.120330810546875;4.7299999880579;474;1 A;
82.1576407925719;-1.0491943359375;-0.120269775390625;4.73999998803265;475;1 A;
82.1676407925466;-1.0491943359375;-0.120208740234375;4.7499999880074;476;1 A;
82.1776407925214;-1.04949951171875;-0.120147705078125;4.75999998798216;477;1 A;
82.1876407924962;-1.0498046875;-0.12005615234375;4.76999998795691;478;1 A;
82.1976407924709;-1.04949951171875;-0.120025634765625;4.77999998793166;479;1 A;
82.2076407924457;-1.04949951171875;-0.119964599609375;4.78999998790641;480;1 A;
82.2176407924204;-1.0498046875;-0.119873046875;4.79999998788116;481;1 A;
82.2276407923952;-1.0491943359375;-0.119842529296875;4.80999998785592;482;1 A;
82.2376407923699;-1.0498046875;-0.1197509765625;4.81999998783067;483;1 A;
82.2476407923447;-1.0491943359375;-0.119720458984375;4.82999998780542;484;1 A;
82.2576407923194;-1.0498046875;-0.11962890625;4.83999998778017;485;1 A;
82.2676407922942;-1.04949951171875;-0.11956787109375;4.84999998775493;486;1 A;
82.2776407922689;-1.0498046875;-0.1195068359375;4.85999998772968;487;1 A;
82.2876407922437;-1.04949951171875;-0.119415283203125;4.86999998770443;488;1 A;
82.2976407922184;-1.0498046875;-0.119415283203125;4.87999998767918;489;1 A;
82.3076407921932;-1.04949951171875;-0.119354248046875;4.88999998765394;490;1 A;
82.3176407921679;-1.0491943359375;-0.1192626953125;4.89999998762869;491;1 A;
82.3276407921427;-1.0491943359375;-0.119232177734375;4.90999998760344;492;1 A;
82.3376407921174;-1.04888916015625;-0.119140625;4.91999998757819;493;1 A;
82.3476407920922;-1.04949951171875;-0.119110107421875;4.92999998755295;494;1 A;
82.3576407920669;-1.0491943359375;-0.119049072265625;4.9399999875277;495;1 A;
82.3676407920417;-1.0498046875;-0.118988037109375;4.94999998750245;496;1 A;
82.3776407920165;-1.0498046875;-0.118927001953125;4.9599999874772;497;1 A;
82.3876407919912;-1.0498046875;-0.119049072265625;4.96999998745196;498;1 A;
82.397640791966;-1.04949951171875;-0.118927001953125;4.97999998742671;499;1 A;
82.4076407919407;-1.04949951171875;-0.118804931640625;4.98999998740146;500;1 A;
82.4176407919155;-1.04949951171875;-0.118743896484375;4.99999998737621;501;1 A;
82.4276407918902;-1.05010986328125;-0.118682861328125;5.00999998735097;502;1 A;
82.437640791865;-1.0491943359375;-0.11859130859375;5.01999998732572;503;1 A;
82.4476407918397;-1.04949951171875;-0.118560791015625;5.02999998730047;504;1 A;
82.4576407918145;-1.04949951171875;-0.118499755859375;5.03999998727522;505;1 A;
82.4676407917892;-1.04949951171875;-0.118438720703125;5.04999998724998;506;1 A;
82.477640791764;-1.0498046875;-0.118377685546875;5.05999998722473;507;1 A;
82.4876407917387;-1.04949951171875;-0.118316650390625;5.06999998719948;508;1 A;
82.4976407917135;-1.0491943359375;-0.1182861328125;5.07999998717423;509;1 A;
82.5076407916882;-1.04949951171875;-0.11822509765625;5.08999998714899;510;1 A;
82.517640791663;-1.04949951171875;-0.118133544921875;5.09999998712374;511;1 A;
82.5276407916377;-1.04949951171875;-0.118133544921875;5.10999998709849;512;1 A;
82.5376407916125;-1.0498046875;-0.1180419921875;5.11999998707324;513;1 A;
82.5476407915872;-1.04949951171875;-0.1180419921875;5.129999987048;514;1 A;
82.557640791562;-1.04888916015625;-0.117950439453125;5.13999998702275;515;1 A;
82.5676407915367;-1.0491943359375;-0.117889404296875;5.1499999869975;516;1 A;
82.5776407915115;-1.0491943359375;-0.11785888671875;5.15999998697225;517;1 A;
82.5876407914863;-1.0491943359375;-0.117767333984375;5.169999986947;518;1 A;
82.597640791461;-1.04949951171875;-0.117767333984375;5.17999998692176;519;1 A;
82.6076407914358;-1.0498046875;-0.117706298828125;5.18999998689651;520;1 A;
82.6176407914105;-1.04949951171875;-0.11761474609375;5.19999998687126;521;1 A;
82.6276407913853;-1.04949951171875;-0.117584228515625;5.20999998684601;522;1 A;
82.63764079136;-1.0498046875;-0.11749267578125;5.21999998682077;523;1 A;
82.6476407913348;-1.04949951171875;-0.11749267578125;5.22999998679552;524;1 A;
82.6576407913095;-1.0498046875;-0.117431640625;5.23999998677027;525;1 A;
82.6676407912843;-1.04949951171875;-0.117340087890625;5.24999998674502;526;1 A;
82.677640791259;-1.0491943359375;-0.117340087890625;5.25999998671978;527;1 A;
82.6876407912338;-1.04949951171875;-0.11724853515625;5.26999998669453;528;1 A;
82.6976407912085;-1.04949951171875;-0.117218017578125;5.27999998666928;529;1 A;
82.7076407911833;-1.04949951171875;-0.117156982421875;5.28999998664403;530;1 A;
82.717640791158;-1.0498046875;-0.1170654296875;5.29999998661879;531;1 A;
82.7276407911328;-1.0498046875;-0.1170654296875;5.30999998659354;532;1 A;
82.7376407911075;-1.04949951171875;-0.116973876953125;5.31999998656829;533;1 A;
82.7476407910823;-1.04949951171875;-0.116943359375;5.32999998654304;534;1 A;
82.757640791057;-1.04949951171875;-0.11688232421875;5.3399999865178;535;1 A;
82.7676407910318;-1.04949951171875;-0.1168212890625;5.34999998649255;536;1 A;
82.7776407910065;-1.0498046875;-0.116790771484375;5.3599999864673;537;1 A;
82.7876407909813;-1.04949951171875;-0.11669921875;5.36999998644205;538;1 A;
82.7976407909561;-1.04949951171875;-0.116668701171875;5.37999998641681;539;1 A;
82.8076407909308;-1.0498046875;-0.116607666015625;5.38999998639156;540;1 A;
82.8176407909056;-1.0498046875;-0.116546630859375;5.39999998636631;541;1 A;
82.8276407908803;-1.0498046875;-0.11651611328125;5.40999998634106;542;1 A;
82.8376407908551;-1.04949951171875;-0.116424560546875;5.41999998631582;543;1 A;
82.8476407908298;-1.0498046875;-0.116424560546875;5.42999998629057;544;1 A;
82.8576407908046;-1.04949951171875;-0.116363525390625;5.43999998626532;545;1 A;
82.8676407907793;-1.04949951171875;-0.11627197265625;5.44999998624007;546;1 A;
82.8776407907541;-1.04949951171875;-0.116241455078125;5.45999998621483;547;1 A;
82.8876407907288;-1.0498046875;-0.11614990234375;5.46999998618958;548;1 A;
82.8976407907036;-1.04949951171875;-0.11614990234375;5.47999998616433;549;1 A;
82.9076407906783;-1.0491943359375;-0.116058349609375;5.48999998613908;550;1 A;
82.9176407906531;-1.0498046875;-0.115997314453125;5.49999998611383;551;1 A;
82.9276407906278;-1.04949951171875;-0.115966796875;5.50999998608859;552;1 A;
82.9376407906026;-1.0498046875;-0.115875244140625;5.51999998606334;553;1 A;
82.9476407905773;-1.0491943359375;-0.115875244140625;5.52999998603809;554;1 A;
82.9576407905521;-1.0498046875;-0.11578369140625;5.53999998601284;555;1 A;
82.9676407905268;-1.04949951171875;-0.11572265625;5.5499999859876;556;1 A;
82.9776407905016;-1.04949951171875;-0.115692138671875;5.55999998596235;557;1 A;
82.9876407904763;-1.0491943359375;-0.1156005859375;5.5699999859371;558;1 A;
82.9976407904511;-1.05010986328125;-0.1156005859375;5.57999998591185;559;1 A;
83.0076407904259;-1.0498046875;-0.115509033203125;5.58999998588661;560;1 A;
83.0176407904006;-1.04949951171875;-0.115478515625;5.59999998586136;561;1 A;
83.0276407903754;-1.0491943359375;-0.115447998046875;5.60999998583611;562;1 A;
83.0376407903501;-1.04949951171875;-0.115325927734375;5.61999998581086;563;1 A;
83.0476407903249;-1.0498046875;-0.115325927734375;5.62999998578562;564;1 A;
83.0576407902996;-1.04949951171875;-0.115234375;5.63999998576037;565;1 A;
83.0676407902744;-1.0498046875;-0.115203857421875;5.64999998573512;566;1 A;
83.0776407902491;-1.04949951171875;-0.115142822265625;5.65999998570987;567;1 A;
83.0876407902239;-1.04949951171875;-0.11505126953125;5.66999998568463;568;1 A;
83.0976407901986;-1.04949951171875;-0.115020751953125;5.67999998565938;569;1 A;
83.1076407901734;-1.04949951171875;-0.114959716796875;5.68999998563413;570;1 A;
83.1176407901481;-1.0498046875;-0.11492919921875;5.69999998560888;571;1 A;
83.1276407901229;-1.04949951171875;-0.1148681640625;5.70999998558364;572;1 A;
83.1376407900976;-1.0498046875;-0.114776611328125;5.71999998555839;573;1 A;
83.1476407900724;-1.05010986328125;-0.11474609375;5.72999998553314;574;1 A;
83.1576407900471;-1.0491943359375;-0.11468505859375;5.73999998550789;575;1 A;
83.1676407900219;-1.04949951171875;-0.1146240234375;5.74999998548265;576;1 A;
83.1776407899966;-1.0491943359375;-0.11456298828125;5.7599999854574;577;1 A;
83.1876407899714;-1.0498046875;-0.114501953125;5.76999998543215;578;1 A;
83.1976407899461;-1.04949951171875;-0.114471435546875;5.7799999854069;579;1 A;
83.2076407899209;-1.04949951171875;-0.1143798828125;5.78999998538166;580;1 A;
83.2176407898957;-1.0498046875;-0.11431884765625;5.79999998535641;581;1 A;
83.2276407898704;-1.05010986328125;-0.114288330078125;5.80999998533116;582;1 A;
83.2376407898452;-1.04949951171875;-0.11419677734375;5.81999998530591;583;1 A;
83.2476407898199;-1.04949951171875;-0.114166259765625;5.82999998528066;584;1 A;
83.2576407897947;-1.0491943359375;-0.11407470703125;5.83999998525542;585;1 A;
83.2676407897694;-1.04949951171875;-0.114044189453125;5.84999998523017;586;1 A;
83.2776407897442;-1.0498046875;-0.11395263671875;5.85999998520492;587;1 A;
83.2876407897189;-1.0498046875;-0.1138916015625;5.86999998517967;588;1 A;
83.2976407896937;-1.04949951171875;-0.113861083984375;5.87999998515443;589;1 A;
83.3076407896684;-1.05010986328125;-0.113800048828125;5.88999998512918;590;1 A;
83.3176407896432;-1.04949951171875;-0.113739013671875;5.89999998510393;591;1 A;
83.3276407896179;-1.0504150390625;-0.1136474609375;5.90999998507868;592;1 A;
83.3376407895927;-1.04949951171875;-0.11358642578125;5.91999998505344;593;1 A;
83.3476407895674;-1.0498046875;-0.113525390625;5.92999998502819;594;1 A;
83.3576407895422;-1.0498046875;-0.11346435546875;5.93999998500294;595;1 A;
83.3676407895169;-1.04949951171875;-0.1134033203125;5.94999998497769;596;1 A;
83.3776407894917;-1.0498046875;-0.11334228515625;5.95999998495245;597;1 A;
83.3876407894664;-1.0491943359375;-0.113250732421875;5.9699999849272;598;1 A;
83.3976407894412;-1.0498046875;-0.11322021484375;5.97999998490195;599;1 A;
83.407640789416;-1.04949951171875;-0.1131591796875;5.9899999848767;600;1 A;
83.4176407893907;-1.04949951171875;-0.113067626953125;5.99999998485146;601;1 A;
83.4276407893655;-1.04949951171875;-0.113006591796875;6.00999998482621;602;1 A;
83.4376407893402;-1.05010986328125;-0.112945556640625;6.01999998480096;603;1 A;
83.447640789315;-1.04949951171875;-0.112884521484375;6.02999998477571;604;1 A;
83.4576407892897;-1.04949951171875;-0.112823486328125;6.03999998475047;605;1 A;
83.4676407892645;-1.0498046875;-0.112762451171875;6.04999998472522;606;1 A;
83.4776407892392;-1.0491943359375;-0.112701416015625;6.05999998469997;607;1 A;
83.487640789214;-1.0491943359375;-0.11260986328125;6.06999998467472;608;1 A;
83.4976407891887;-1.0491943359375;-0.112579345703125;6.07999998464948;609;1 A;
83.5076407891635;-1.0491943359375;-0.11248779296875;6.08999998462423;610;1 A;
83.5176407891382;-1.04949951171875;-0.1124267578125;6.09999998459898;611;1 A;
83.527640789113;-1.0498046875;-0.112396240234375;6.10999998457373;612;1 A;
83.5376407890877;-1.0491943359375;-0.112274169921875;6.11999998454849;613;1 A;
83.5476407890625;-1.0498046875;-0.11224365234375;6.12999998452324;614;1 A;
83.5576407890372;-1.04949951171875;-0.112152099609375;6.13999998449799;615;1 A;
83.567640789012;-1.04949951171875;-0.11212158203125;6.14999998447274;616;1 A;
83.5776407889867;-1.04949951171875;-0.112060546875;6.1599999844475;617;1 A;
83.5876407889615;-1.0498046875;-0.111968994140625;6.16999998442225;618;1 A;
83.5976407889362;-1.0491943359375;-0.111907958984375;6.179999984397;619;1 A;
83.607640788911;-1.04949951171875;-0.111846923828125;6.18999998437175;620;1 A;
83.6176407888858;-1.04949951171875;-0.11175537109375;6.1999999843465;621;1 A;
83.6276407888605;-1.04949951171875;-0.111724853515625;6.20999998432126;622;1 A;
83.6376407888353;-1.04949951171875;-0.11163330078125;6.21999998429601;623;1 A;
83.64764078881;-1.0491943359375;-0.111602783203125;6.22999998427076;624;1 A;
83.6576407887848;-1.0498046875;-0.11151123046875;6.23999998424551;625;1 A;
83.6676407887595;-1.04949951171875;-0.111419677734375;6.24999998422027;626;1 A;
83.6776407887343;-1.0491943359375;-0.11138916015625;6.25999998419502;627;1 A;
83.687640788709;-1.0491943359375;-0.111297607421875;6.26999998416977;628;1 A;
83.6976407886838;-1.0498046875;-0.11126708984375;6.27999998414452;629;1 A;
83.7076407886585;-1.04949951171875;-0.111175537109375;6.28999998411928;630;1 A;
83.7176407886333;-1.04949951171875;-0.111114501953125;6.29999998409403;631;1 A;
83.727640788608;-1.0498046875;-0.111053466796875;6.30999998406878;632;1 A;
83.7376407885828;-1.04949951171875;-0.1109619140625;6.31999998404353;633;1 A;
83.7476407885575;-1.048583984375;-0.110931396484375;6.32999998401829;634;1 A;
83.7576407885323;-1.0498046875;-0.110870361328125;6.33999998399304;635;1 A;
83.767640788507;-1.0498046875;-0.11077880859375;6.34999998396779;636;1 A;
83.7776407884818;-1.04949951171875;-0.1107177734375;6.35999998394254;637;1 A;
83.7876407884565;-1.0491943359375;-0.11065673828125;6.3699999839173;638;1 A;
83.7976407884313;-1.0498046875;-0.110626220703125;6.37999998389205;639;1 A;
83.807640788406;-1.04888916015625;-0.11053466796875;6.3899999838668;640;1 A;
83.8176407883808;-1.04949951171875;-0.1104736328125;6.39999998384155;641;1 A;
83.8276407883556;-1.04949951171875;-0.11041259765625;6.40999998381631;642;1 A;
83.8376407883303;-1.04949951171875;-0.1103515625;6.41999998379106;643;1 A;
83.8476407883051;-1.04949951171875;-0.11029052734375;6.42999998376581;644;1 A;
83.8576407882798;-1.04949951171875;-0.1102294921875;6.43999998374056;645;1 A;
83.8676407882546;-1.0491943359375;-0.110137939453125;6.44999998371532;646;1 A;
83.8776407882293;-1.04888916015625;-0.110107421875;6.45999998369007;647;1 A;
83.8876407882041;-1.0498046875;-0.110015869140625;6.46999998366482;648;1 A;
83.8976407881788;-1.04949951171875;-0.1099853515625;6.47999998363957;649;1 A;
83.9076407881536;-1.04949951171875;-0.10992431640625;6.48999998361433;650;1 A;
83.9176407881283;-1.0498046875;-0.109832763671875;6.49999998358908;651;1 A;
83.9276407881031;-1.04949951171875;-0.10980224609375;6.50999998356383;652;1 A;
83.9376407880778;-1.0498046875;-0.109710693359375;6.51999998353858;653;1 A;
83.9476407880526;-1.04949951171875;-0.10968017578125;6.52999998351333;654;1 A;
83.9576407880273;-1.04949951171875;-0.109619140625;6.53999998348809;655;1 A;
83.9676407880021;-1.04949951171875;-0.109527587890625;6.54999998346284;656;1 A;
83.9776407879768;-1.04949951171875;-0.1094970703125;6.55999998343759;657;1 A;
83.9876407879516;-1.0498046875;-0.10943603515625;6.56999998341234;658;1 A;
83.9976407879263;-1.0498046875;-0.109405517578125;6.5799999833871;659;1 A;
84.0076407879011;-1.0498046875;-0.109344482421875;6.58999998336185;660;1 A;
84.0176407878758;-1.04949951171875;-0.109283447265625;6.5999999833366;661;1 A;
84.0276407878506;-1.0498046875;-0.1092529296875;6.60999998331135;662;1 A;
84.0376407878254;-1.04949951171875;-0.109161376953125;6.61999998328611;663;1 A;
84.0476407878001;-1.0491943359375;-0.109161376953125;6.62999998326086;664;1 A;
84.0576407877749;-1.0491943359375;-0.109100341796875;6.63999998323561;665;1 A;
84.0676407877496;-1.0498046875;-0.1090087890625;6.64999998321036;666;1 A;
84.0776407877244;-1.04949951171875;-0.108978271484375;6.65999998318512;667;1 A;
84.0876407876991;-1.0491943359375;-0.10888671875;6.66999998315987;668;1 A;
84.0976407876739;-1.04949951171875;-0.10888671875;6.67999998313462;669;1 A;
84.1076407876486;-1.04949951171875;-0.10882568359375;6.68999998310937;670;1 A;
84.1176407876234;-1.04949951171875;-0.108734130859375;6.69999998308413;671;1 A;
84.1276407875981;-1.04949951171875;-0.10870361328125;6.70999998305888;672;1 A;
84.1376407875729;-1.0498046875;-0.108612060546875;6.71999998303363;673;1 A;
84.1476407875476;-1.04888916015625;-0.108642578125;6.72999998300838;674;1 A;
84.1576407875224;-1.0498046875;-0.108551025390625;6.73999998298314;675;1 A;
84.1676407874971;-1.0491943359375;-0.108489990234375;6.74999998295789;676;1 A;
84.1776407874719;-1.0498046875;-0.10845947265625;6.75999998293264;677;1 A;
84.1876407874466;-1.04949951171875;-0.108367919921875;6.76999998290739;678;1 A;
84.1976407874214;-1.04949951171875;-0.108367919921875;6.77999998288215;679;1 A;
84.2076407873961;-1.04949951171875;-0.108306884765625;6.7899999828569;680;1 A;
84.2176407873709;-1.0491943359375;-0.108245849609375;6.79999998283165;681;1 A;
84.2276407873456;-1.0491943359375;-0.10821533203125;6.8099999828064;682;1 A;
84.2376407873204;-1.0491943359375;-0.108123779296875;6.81999998278116;683;1 A;
84.2476407872952;-1.04949951171875;-0.108154296875;6.82999998275591;684;1 A;
84.2576407872699;-1.0498046875;-0.108062744140625;6.83999998273066;685;1 A;
84.2676407872447;-1.04949951171875;-0.1080322265625;6.84999998270541;686;1 A;
84.2776407872194;-1.0491943359375;-0.108001708984375;6.85999998268016;687;1 A;
84.2876407871942;-1.04949951171875;-0.107940673828125;6.86999998265492;688;1 A;
84.2976407871689;-1.0491943359375;-0.107940673828125;6.87999998262967;689;1 A;
84.3076407871437;-1.0498046875;-0.10784912109375;6.88999998260442;690;1 A;
84.3176407871184;-1.04949951171875;-0.107818603515625;6.89999998257917;691;1 A;
84.3276407870932;-1.05010986328125;-0.1077880859375;6.90999998255393;692;1 A;
84.3376407870679;-1.0491943359375;-0.10772705078125;6.91999998252868;693;1 A;
84.3476407870427;-1.04949951171875;-0.10772705078125;6.92999998250343;694;1 A;
84.3576407870174;-1.0491943359375;-0.107666015625;6.93999998247818;695;1 A;
84.3676407869922;-1.0498046875;-0.10760498046875;6.94999998245294;696;1 A;
84.3776407869669;-1.04949951171875;-0.107574462890625;6.95999998242769;697;1 A;
84.3876407869417;-1.04949951171875;-0.107513427734375;6.96999998240244;698;1 A;
84.3976407869164;-1.0491943359375;-0.1075439453125;6.97999998237719;699;1 A;
84.4076407868912;-1.0491943359375;-0.107452392578125;6.98999998235195;700;1 A;
84.4176407868659;-1.04888916015625;-0.107452392578125;6.9999999823267;701;1 A;
84.4276407868407;-1.04888916015625;-0.107391357421875;7.00999998230145;702;1 A;
84.4376407868155;-1.0491943359375;-0.10736083984375;7.0199999822762;703;1 A;
84.4476407867902;-1.0491943359375;-0.10736083984375;7.02999998225096;704;1 A;
84.457640786765;-1.04888916015625;-0.1072998046875;7.03999998222571;705;1 A;
84.4676407867397;-1.0498046875;-0.10723876953125;7.04999998220046;706;1 A;
84.4776407867145;-1.0491943359375;-0.107208251953125;7.05999998217521;707;1 A;
84.4876407866892;-1.04949951171875;-0.107177734375;7.06999998214997;708;1 A;
84.497640786664;-1.04949951171875;-0.107177734375;7.07999998212472;709;1 A;
84.5076407866387;-1.04949951171875;-0.10711669921875;7.08999998209947;710;1 A;
84.5176407866135;-1.04949951171875;-0.107086181640625;7.09999998207422;711;1 A;
84.5276407865882;-1.048583984375;-0.1070556640625;7.10999998204898;712;1 A;
84.537640786563;-1.0498046875;-0.10699462890625;7.11999998202373;713;1 A;
84.5476407865377;-1.05010986328125;-0.107025146484375;7.12999998199848;714;1 A;
84.5576407865125;-1.0491943359375;-0.106964111328125;7.13999998197323;715;1 A;
84.5676407864872;-1.04949951171875;-0.10693359375;7.14999998194799;716;1 A;
84.577640786462;-1.04949951171875;-0.106903076171875;7.15999998192274;717;1 A;
84.5876407864367;-1.04949951171875;-0.106903076171875;7.16999998189749;718;1 A;
84.5976407864115;-1.04949951171875;-0.10687255859375;7.17999998187224;719;1 A;
84.6076407863862;-1.0491943359375;-0.106842041015625;7.189999981847;720;1 A;
84.617640786361;-1.04949951171875;-0.1068115234375;7.19999998182175;721;1 A;
84.6276407863357;-1.04949951171875;-0.106781005859375;7.2099999817965;722;1 A;
84.6376407863105;-1.04949951171875;-0.106719970703125;7.21999998177125;723;1 A;
84.6476407862853;-1.04949951171875;-0.106719970703125;7.229999981746;724;1 A;
84.65764078626;-1.04949951171875;-0.106689453125;7.23999998172076;725;1 A;
84.6676407862348;-1.04949951171875;-0.106658935546875;7.24999998169551;726;1 A;
84.6776407862095;-1.0491943359375;-0.10662841796875;7.25999998167026;727;1 A;
84.6876407861843;-1.04949951171875;-0.106597900390625;7.26999998164501;728;1 A;
84.697640786159;-1.04949951171875;-0.106597900390625;7.27999998161977;729;1 A;
84.7076407861338;-1.0498046875;-0.1065673828125;7.28999998159452;730;1 A;
84.7176407861085;-1.04949951171875;-0.106536865234375;7.29999998156927;731;1 A;
84.7276407860833;-1.04949951171875;-0.10650634765625;7.30999998154402;732;1 A;
84.737640786058;-1.04949951171875;-0.106475830078125;7.31999998151878;733;1 A;
84.7476407860328;-1.0504150390625;-0.106475830078125;7.32999998149353;734;1 A;
84.7576407860075;-1.0498046875;-0.1064453125;7.33999998146828;735;1 A;
84.7676407859823;-1.0491943359375;-0.10638427734375;7.34999998144303;736;1 A;
84.777640785957;-1.0498046875;-0.10638427734375;7.35999998141779;737;1 A;
84.7876407859318;-1.04949951171875;-0.1063232421875;7.36999998139254;738;1 A;
84.7976407859065;-1.04949951171875;-0.106353759765625;7.37999998136729;739;1 A;
84.8076407858813;-1.04949951171875;-0.106292724609375;7.38999998134204;740;1 A;
84.817640785856;-1.0491943359375;-0.10626220703125;7.3999999813168;741;1 A;
84.8276407858308;-1.04949951171875;-0.106231689453125;7.40999998129155;742;1 A;
84.8376407858055;-1.0491943359375;-0.106231689453125;7.4199999812663;743;1 A;
84.8476407857803;-1.04949951171875;-0.106231689453125;7.42999998124105;744;1 A;
84.8576407857551;-1.04949951171875;-0.106201171875;7.43999998121581;745;1 A;
84.8676407857298;-1.04949951171875;-0.106170654296875;7.44999998119056;746;1 A;
84.8776407857046;-1.0491943359375;-0.10614013671875;7.45999998116531;747;1 A;
84.8876407856793;-1.04949951171875;-0.106109619140625;7.46999998114006;748;1 A;
84.8976407856541;-1.04949951171875;-0.106109619140625;7.47999998111482;749;1 A;
84.9076407856288;-1.04888916015625;-0.1060791015625;7.48999998108957;750;1 A;
84.9176407856036;-1.0491943359375;-0.106109619140625;7.49999998106432;751;1 A;
84.9276407855783;-1.04949951171875;-0.1060791015625;7.50999998103907;752;1 A;
84.9376407855531;-1.0491943359375;-0.106048583984375;7.51999998101383;753;1 A;
84.9476407855278;-1.04949951171875;-0.106048583984375;7.52999998098858;754;1 A;
84.9576407855026;-1.0491943359375;-0.10601806640625;7.53999998096333;755;1 A;
84.9676407854773;-1.04949951171875;-0.10595703125;7.54999998093808;756;1 A;
84.9776407854521;-1.04949951171875;-0.10595703125;7.55999998091283;757;1 A;
84.9876407854268;-1.0491943359375;-0.105926513671875;7.56999998088759;758;1 A;
84.9976407854016;-1.04949951171875;-0.105926513671875;7.57999998086234;759;1 A;
85.0076407853763;-1.0491943359375;-0.105865478515625;7.58999998083709;760;1 A;
85.0176407853511;-1.0498046875;-0.105865478515625;7.59999998081184;761;1 A;
85.0276407853258;-1.0498046875;-0.1058349609375;7.6099999807866;762;1 A;
85.0376407853006;-1.04888916015625;-0.105804443359375;7.61999998076135;763;1 A;
85.0476407852753;-1.04949951171875;-0.1058349609375;7.6299999807361;764;1 A;
85.0576407852501;-1.0498046875;-0.10577392578125;7.63999998071085;765;1 A;
85.0676407852249;-1.04949951171875;-0.105743408203125;7.64999998068561;766;1 A;
85.0776407851996;-1.0498046875;-0.105743408203125;7.65999998066036;767;1 A;
85.0876407851744;-1.04888916015625;-0.105712890625;7.66999998063511;768;1 A;
85.0976407851491;-1.0491943359375;-0.105712890625;7.67999998060986;769;1 A;
85.1076407851239;-1.0491943359375;-0.105682373046875;7.68999998058462;770;1 A;
85.1176407850986;-1.0491943359375;-0.105621337890625;7.69999998055937;771;1 A;
85.1276407850734;-1.0498046875;-0.10565185546875;7.70999998053412;772;1 A;
85.1376407850481;-1.05010986328125;-0.1055908203125;7.71999998050887;773;1 A;
85.1476407850229;-1.04949951171875;-0.105621337890625;7.72999998048363;774;1 A;
85.1576407849976;-1.05010986328125;-0.105560302734375;7.73999998045838;775;1 A;
85.1676407849724;-1.0498046875;-0.105560302734375;7.74999998043313;776;1 A;
85.1776407849471;-1.04949951171875;-0.105560302734375;7.75999998040788;777;1 A;
85.1876407849219;-1.04949951171875;-0.105499267578125;7.76999998038264;778;1 A;
85.1976407848966;-1.0498046875;-0.105499267578125;7.77999998035739;779;1 A;
85.2076407848714;-1.0491943359375;-0.10546875;7.78999998033214;780;1 A;
85.2176407848461;-1.0491943359375;-0.105438232421875;7.79999998030689;781;1 A;
85.2276407848209;-1.04949951171875;-0.105438232421875;7.80999998028165;782;1 A;
85.2376407847956;-1.04949951171875;-0.10540771484375;7.8199999802564;783;1 A;
85.2476407847704;-1.04888916015625;-0.10540771484375;7.82999998023115;784;1 A;
85.2576407847451;-1.05010986328125;-0.1053466796875;7.8399999802059;785;1 A;
85.2676407847199;-1.0491943359375;-0.105316162109375;7.84999998018066;786;1 A;
85.2776407846947;-1.0498046875;-0.105316162109375;7.85999998015541;787;1 A;
85.2876407846694;-1.04949951171875;-0.10528564453125;7.86999998013016;788;1 A;
85.2976407846442;-1.04949951171875;-0.10528564453125;7.87999998010491;789;1 A;
85.3076407846189;-1.0491943359375;-0.105255126953125;7.88999998007966;790;1 A;
85.3176407845937;-1.0491943359375;-0.105224609375;7.89999998005442;791;1 A;
85.3276407845684;-1.0491943359375;-0.105224609375;7.90999998002917;792;1 A;
85.3376407845432;-1.0491943359375;-0.105194091796875;7.91999998000392;793;1 A;
85.3476407845179;-1.0498046875;-0.105194091796875;7.92999997997867;794;1 A;
85.3576407844927;-1.0498046875;-0.10516357421875;7.93999997995343;795;1 A;
85.3676407844674;-1.04949951171875;-0.105133056640625;7.94999997992818;796;1 A;
85.3776407844422;-1.04949951171875;-0.105133056640625;7.95999997990293;797;1 A;
85.3876407844169;-1.04949951171875;-0.105072021484375;7.96999997987768;798;1 A;
85.3976407843917;-1.0491943359375;-0.105072021484375;7.97999997985244;799;1 A;
85.4076407843664;-1.0498046875;-0.105010986328125;7.98999997982719;800;1 A;
85.4176407843412;-1.04949951171875;-0.105010986328125;7.99999997980194;801;1 A;
85.4276407843159;-1.04949951171875;-0.10498046875;8.00999997977669;802;1 A;
85.4376407842907;-1.0498046875;-0.104949951171875;8.01999997975145;803;1 A;
85.4476407842654;-1.04949951171875;-0.104949951171875;8.0299999797262;804;1 A;
85.4576407842402;-1.05010986328125;-0.10491943359375;8.03999997970095;805;1 A;
85.467640784215;-1.04949951171875;-0.1048583984375;8.0499999796757;806;1 A;
85.4776407841897;-1.0498046875;-0.104888916015625;8.05999997965046;807;1 A;
85.4876407841645;-1.04949951171875;-0.104827880859375;8.06999997962521;808;1 A;
85.4976407841392;-1.04949951171875;-0.1048583984375;8.07999997959996;809;1 A;
85.507640784114;-1.0498046875;-0.10479736328125;8.08999997957471;810;1 A;
85.5176407840887;-1.0498046875;-0.104766845703125;8.09999997954947;811;1 A;
85.5276407840635;-1.05010986328125;-0.104766845703125;8.10999997952422;812;1 A;
85.5376407840382;-1.05010986328125;-0.104705810546875;8.11999997949897;813;1 A;
85.547640784013;-1.04949951171875;-0.104736328125;8.12999997947372;814;1 A;
85.5576407839877;-1.04949951171875;-0.10467529296875;8.13999997944848;815;1 A;
85.5676407839625;-1.0498046875;-0.104644775390625;8.14999997942323;816;1 A;
85.5776407839372;-1.04949951171875;-0.104644775390625;8.15999997939798;817;1 A;
85.587640783912;-1.04949951171875;-0.104583740234375;8.16999997937273;818;1 A;
85.5976407838867;-1.0491943359375;-0.1046142578125;8.17999997934749;819;1 A;
85.6076407838615;-1.04949951171875;-0.10455322265625;8.18999997932224;820;1 A;
85.6176407838362;-1.04949951171875;-0.10455322265625;8.19999997929699;821;1 A;
85.627640783811;-1.0498046875;-0.104522705078125;8.20999997927174;822;1 A;
85.6376407837857;-1.05010986328125;-0.1044921875;8.2199999792465;823;1 A;
85.6476407837605;-1.0491943359375;-0.1044921875;8.22999997922125;824;1 A;
85.6576407837352;-1.05010986328125;-0.10443115234375;8.239999979196;825;1 A;
85.66764078371;-1.0491943359375;-0.10443115234375;8.24999997917075;826;1 A;
85.6776407836848;-1.0491943359375;-0.104400634765625;8.2599999791455;827;1 A;
85.6876407836595;-1.0491943359375;-0.104339599609375;8.26999997912026;828;1 A;
85.6976407836343;-1.0498046875;-0.104339599609375;8.27999997909501;829;1 A;
85.707640783609;-1.0498046875;-0.10430908203125;8.28999997906976;830;1 A;
85.7176407835838;-1.04949951171875;-0.104278564453125;8.29999997904451;831;1 A;
85.7276407835585;-1.04949951171875;-0.104248046875;8.30999997901927;832;1 A;
85.7376407835333;-1.0491943359375;-0.104217529296875;8.31999997899402;833;1 A;
85.747640783508;-1.0491943359375;-0.104248046875;8.32999997896877;834;1 A;
85.7576407834828;-1.04949951171875;-0.10418701171875;8.33999997894352;835;1 A;
85.7676407834575;-1.0498046875;-0.10418701171875;8.34999997891828;836;1 A;
85.7776407834323;-1.04949951171875;-0.104156494140625;8.35999997889303;837;1 A;
85.787640783407;-1.04949951171875;-0.1041259765625;8.36999997886778;838;1 A;
85.7976407833818;-1.04949951171875;-0.104095458984375;8.37999997884253;839;1 A;
85.8076407833565;-1.0491943359375;-0.104034423828125;8.38999997881729;840;1 A;
85.8176407833313;-1.0491943359375;-0.104034423828125;8.39999997879204;841;1 A;
85.827640783306;-1.04949951171875;-0.103973388671875;8.40999997876679;842;1 A;
85.8376407832808;-1.04949951171875;-0.10394287109375;8.41999997874154;843;1 A;
85.8476407832555;-1.0498046875;-0.10394287109375;8.4299999787163;844;1 A;
85.8576407832303;-1.0498046875;-0.1038818359375;8.43999997869105;845;1 A;
85.867640783205;-1.0491943359375;-0.103851318359375;8.4499999786658;846;1 A;
85.8776407831798;-1.048583984375;-0.103851318359375;8.45999997864055;847;1 A;
85.8876407831546;-1.0491943359375;-0.103790283203125;8.46999997861531;848;1 A;
85.8976407831293;-1.0491943359375;-0.103790283203125;8.47999997859006;849;1 A;
85.9076407831041;-1.04949951171875;-0.103729248046875;8.48999997856481;850;1 A;
85.9176407830788;-1.04949951171875;-0.103729248046875;8.49999997853956;851;1 A;
85.9276407830536;-1.0498046875;-0.103668212890625;8.50999997851432;852;1 A;
85.9376407830283;-1.0491943359375;-0.103668212890625;8.51999997848907;853;1 A;
85.9476407830031;-1.04949951171875;-0.1036376953125;8.52999997846382;854;1 A;
85.9576407829778;-1.04949951171875;-0.10357666015625;8.53999997843857;855;1 A;
85.9676407829526;-1.0491943359375;-0.103546142578125;8.54999997841333;856;1 A;
85.9776407829273;-1.0498046875;-0.103515625;8.55999997838808;857;1 A;
85.9876407829021;-1.0498046875;-0.103485107421875;8.56999997836283;858;1 A;
85.9976407828768;-1.05010986328125;-0.10345458984375;8.57999997833758;859;1 A;
86.0076407828516;-1.04949951171875;-0.1033935546875;8.58999997831233;860;1 A;
86.0176407828263;-1.0498046875;-0.1033935546875;8.59999997828709;861;1 A;
86.0276407828011;-1.0491943359375;-0.103363037109375;8.60999997826184;862;1 A;
86.0376407827758;-1.04888916015625;-0.103302001953125;8.61999997823659;863;1 A;
86.0476407827506;-1.0491943359375;-0.103302001953125;8.62999997821134;864;1 A;
86.0576407827253;-1.0491943359375;-0.103240966796875;8.6399999781861;865;1 A;
86.0676407827001;-1.04949951171875;-0.103240966796875;8.64999997816085;866;1 A;
86.0776407826748;-1.0498046875;-0.103179931640625;8.6599999781356;867;1 A;
86.0876407826496;-1.04949951171875;-0.1031494140625;8.66999997811035;868;1 A;
86.0976407826244;-1.0491943359375;-0.103118896484375;8.67999997808511;869;1 A;
86.1076407825991;-1.04949951171875;-0.10308837890625;8.68999997805986;870;1 A;
86.1176407825739;-1.04949951171875;-0.10302734375;8.69999997803461;871;1 A;
86.1276407825486;-1.0498046875;-0.102996826171875;8.70999997800936;872;1 A;
86.1376407825234;-1.0498046875;-0.102935791015625;8.71999997798412;873;1 A;
86.1476407824981;-1.05010986328125;-0.102935791015625;8.72999997795887;874;1 A;
86.1576407824729;-1.0491943359375;-0.102874755859375;8.73999997793362;875;1 A;
86.1676407824476;-1.0491943359375;-0.102874755859375;8.74999997790837;876;1 A;
86.1776407824224;-1.0498046875;-0.10284423828125;8.75999997788313;877;1 A;
86.1876407823971;-1.04949951171875;-0.102813720703125;8.76999997785788;878;1 A;
86.1976407823719;-1.0498046875;-0.102813720703125;8.77999997783263;879;1 A;
86.2076407823466;-1.0498046875;-0.102752685546875;8.78999997780738;880;1 A;
86.2176407823214;-1.04949951171875;-0.10272216796875;8.79999997778214;881;1 A;
86.2276407822961;-1.0498046875;-0.102691650390625;8.80999997775689;882;1 A;
86.2376407822709;-1.04949951171875;-0.102630615234375;8.81999997773164;883;1 A;
86.2476407822456;-1.04949951171875;-0.10260009765625;8.82999997770639;884;1 A;
86.2576407822204;-1.04949951171875;-0.102569580078125;8.83999997768115;885;1 A;
86.2676407821951;-1.0491943359375;-0.102508544921875;8.8499999776559;886;1 A;
86.2776407821699;-1.04888916015625;-0.102508544921875;8.85999997763065;887;1 A;
86.2876407821446;-1.0498046875;-0.102447509765625;8.8699999776054;888;1 A;
86.2976407821194;-1.04949951171875;-0.102447509765625;8.87999997758016;889;1 A;
86.3076407820942;-1.04949951171875;-0.102386474609375;8.88999997755491;890;1 A;
86.3176407820689;-1.0498046875;-0.10235595703125;8.89999997752966;891;1 A;
86.3276407820437;-1.0491943359375;-0.102325439453125;8.90999997750441;892;1 A;
86.3376407820184;-1.0498046875;-0.102294921875;8.91999997747916;893;1 A;
86.3476407819932;-1.0491943359375;-0.102294921875;8.92999997745392;894;1 A;
86.3576407819679;-1.04949951171875;-0.102264404296875;8.93999997742867;895;1 A;
86.3676407819427;-1.0498046875;-0.102203369140625;8.94999997740342;896;1 A;
86.3776407819174;-1.04949951171875;-0.1021728515625;8.95999997737817;897;1 A;
86.3876407818922;-1.0498046875;-0.10211181640625;8.96999997735293;898;1 A;
86.3976407818669;-1.0498046875;-0.10211181640625;8.97999997732768;899;1 A;
86.4076407818417;-1.04949951171875;-0.10205078125;8.98999997730243;900;1 A;
86.4176407818164;-1.04949951171875;-0.102020263671875;8.99999997727718;901;1 A;
86.4276407817912;-1.04949951171875;-0.10198974609375;9.00999997725194;902;1 A;
86.4376407817659;-1.0498046875;-0.1019287109375;9.01999997722669;903;1 A;
86.4476407817407;-1.04949951171875;-0.1019287109375;9.02999997720144;904;1 A;
86.4576407817154;-1.05010986328125;-0.10186767578125;9.03999997717619;905;1 A;
86.4676407816902;-1.0498046875;-0.101837158203125;9.04999997715095;906;1 A;
86.4776407816649;-1.0491943359375;-0.101806640625;9.0599999771257;907;1 A;
86.4876407816397;-1.0491943359375;-0.101776123046875;9.06999997710045;908;1 A;
86.4976407816145;-1.05010986328125;-0.10174560546875;9.0799999770752;909;1 A;
86.5076407815892;-1.0498046875;-0.101715087890625;9.08999997704996;910;1 A;
86.517640781564;-1.04949951171875;-0.1016845703125;9.09999997702471;911;1 A;
86.5276407815387;-1.0491943359375;-0.1016845703125;9.10999997699946;912;1 A;
86.5376407815135;-1.0491943359375;-0.101593017578125;9.11999997697421;913;1 A;
86.5476407814882;-1.0491943359375;-0.101593017578125;9.12999997694897;914;1 A;
86.557640781463;-1.04949951171875;-0.101531982421875;9.13999997692372;915;1 A;
86.5676407814377;-1.0491943359375;-0.10150146484375;9.14999997689847;916;1 A;
86.5776407814125;-1.0491943359375;-0.10150146484375;9.15999997687322;917;1 A;
86.5876407813872;-1.0491943359375;-0.1014404296875;9.16999997684798;918;1 A;
86.597640781362;-1.04949951171875;-0.101409912109375;9.17999997682273;919;1 A;
86.6076407813367;-1.04949951171875;-0.10137939453125;9.18999997679748;920;1 A;
86.6176407813115;-1.0498046875;-0.101348876953125;9.19999997677223;921;1 A;
86.6276407812862;-1.04949951171875;-0.101318359375;9.20999997674699;922;1 A;
86.637640781261;-1.04949951171875;-0.10125732421875;9.21999997672174;923;1 A;
86.6476407812357;-1.0498046875;-0.101287841796875;9.22999997669649;924;1 A;
86.6576407812105;-1.0498046875;-0.1011962890625;9.23999997667124;925;1 A;
86.6676407811852;-1.04949951171875;-0.1011962890625;9.249999976646;926;1 A;
86.67764078116;-1.04949951171875;-0.101165771484375;9.25999997662075;927;1 A;
86.6876407811347;-1.0498046875;-0.101104736328125;9.2699999765955;928;1 A;
86.6976407811095;-1.0491943359375;-0.101104736328125;9.27999997657025;929;1 A;
86.7076407810843;-1.0498046875;-0.101043701171875;9.289999976545;930;1 A;
86.717640781059;-1.04949951171875;-0.10101318359375;9.29999997651976;931;1 A;
86.7276407810338;-1.0498046875;-0.10101318359375;9.30999997649451;932;1 A;
86.7376407810085;-1.04949951171875;-0.1009521484375;9.31999997646926;933;1 A;
86.7476407809833;-1.04949951171875;-0.1009521484375;9.32999997644401;934;1 A;
86.757640780958;-1.04949951171875;-0.100860595703125;9.33999997641877;935;1 A;
86.7676407809328;-1.04949951171875;-0.100860595703125;9.34999997639352;936;1 A;
86.7776407809075;-1.0491943359375;-0.100830078125;9.35999997636827;937;1 A;
86.7876407808823;-1.0498046875;-0.10076904296875;9.36999997634302;938;1 A;
86.797640780857;-1.04949951171875;-0.10076904296875;9.37999997631778;939;1 A;
86.8076407808318;-1.0491943359375;-0.1007080078125;9.38999997629253;940;1 A;
86.8176407808065;-1.04949951171875;-0.100677490234375;9.39999997626728;941;1 A;
86.8276407807813;-1.0498046875;-0.10064697265625;9.40999997624203;942;1 A;
86.837640780756;-1.04949951171875;-0.100616455078125;9.41999997621679;943;1 A;
86.8476407807308;-1.0491943359375;-0.100616455078125;9.42999997619154;944;1 A;
86.8576407807055;-1.0498046875;-0.100555419921875;9.43999997616629;945;1 A;
86.8676407806803;-1.04949951171875;-0.10052490234375;9.44999997614104;946;1 A;
86.877640780655;-1.0498046875;-0.10052490234375;9.4599999761158;947;1 A;
86.8876407806298;-1.0498046875;-0.100433349609375;9.46999997609055;948;1 A;
86.8976407806045;-1.04949951171875;-0.1004638671875;9.4799999760653;949;1 A;
86.9076407805793;-1.04949951171875;-0.10040283203125;9.48999997604005;950;1 A;
86.9176407805541;-1.0491943359375;-0.100372314453125;9.49999997601481;951;1 A;
86.9276407805288;-1.0498046875;-0.100341796875;9.50999997598956;952;1 A;
86.9376407805036;-1.0498046875;-0.10028076171875;9.51999997596431;953;1 A;
86.9476407804783;-1.0498046875;-0.10028076171875;9.52999997593906;954;1 A;
86.9576407804531;-1.0491943359375;-0.1002197265625;9.53999997591382;955;1 A;
86.9676407804278;-1.04888916015625;-0.1002197265625;9.54999997588857;956;1 A;
86.9776407804026;-1.0498046875;-0.100189208984375;9.55999997586332;957;1 A;
86.9876407803773;-1.0498046875;-0.100128173828125;9.56999997583807;958;1 A;
86.9976407803521;-1.0498046875;-0.100128173828125;9.57999997581283;959;1 A;
87.0076407803268;-1.0491943359375;-0.10009765625;9.58999997578758;960;1 A;
87.0176407803016;-1.04949951171875;-0.100067138671875;9.59999997576233;961;1 A;
87.0276407802763;-1.0498046875;-0.10003662109375;9.60999997573708;962;1 A;
87.0376407802511;-1.0491943359375;-0.0999755859375;9.61999997571183;963;1 A;
87.0476407802258;-1.04949951171875;-0.100006103515625;9.62999997568659;964;1 A;
87.0576407802006;-1.0491943359375;-0.099945068359375;9.63999997566134;965;1 A;
87.0676407801753;-1.04949951171875;-0.099945068359375;9.64999997563609;966;1 A;
87.0776407801501;-1.04949951171875;-0.099884033203125;9.65999997561084;967;1 A;
87.0876407801248;-1.04949951171875;-0.099853515625;9.6699999755856;968;1 A;
87.0976407800996;-1.04949951171875;-0.099853515625;9.67999997556035;969;1 A;
87.1076407800743;-1.0498046875;-0.09979248046875;9.6899999755351;970;1 A;
87.1176407800491;-1.04949951171875;-0.099761962890625;9.69999997550985;971;1 A;
87.1276407800239;-1.04949951171875;-0.0997314453125;9.70999997548461;972;1 A;
87.1376407799986;-1.04949951171875;-0.099700927734375;9.71999997545936;973;1 A;
87.1476407799734;-1.0498046875;-0.0997314453125;9.72999997543411;974;1 A;
87.1576407799481;-1.04949951171875;-0.09967041015625;9.73999997540886;975;1 A;
87.1676407799229;-1.0491943359375;-0.099639892578125;9.74999997538362;976;1 A;
87.1776407798976;-1.04949951171875;-0.099639892578125;9.75999997535837;977;1 A;
87.1876407798724;-1.0491943359375;-0.099609375;9.76999997533312;978;1 A;
87.1976407798471;-1.04949951171875;-0.099609375;9.77999997530787;979;1 A;
87.2076407798219;-1.0491943359375;-0.09954833984375;9.78999997528263;980;1 A;
87.2176407797966;-1.04949951171875;-0.09954833984375;9.79999997525738;981;1 A;
87.2276407797714;-1.0491943359375;-0.099517822265625;9.80999997523213;982;1 A;
87.2376407797461;-1.0491943359375;-0.0994873046875;9.81999997520688;983;1 A;
87.2476407797209;-1.0491943359375;-0.0994873046875;9.82999997518164;984;1 A;
87.2576407796956;-1.04949951171875;-0.09942626953125;9.83999997515639;985;1 A;
87.2676407796704;-1.04949951171875;-0.09942626953125;9.84999997513114;986;1 A;
87.2776407796451;-1.04888916015625;-0.09942626953125;9.85999997510589;987;1 A;
87.2876407796199;-1.04949951171875;-0.099395751953125;9.86999997508065;988;1 A;
87.2976407795946;-1.0498046875;-0.099395751953125;9.8799999750554;989;1 A;
87.3076407795694;-1.0498046875;-0.099334716796875;9.88999997503015;990;1 A;
87.3176407795441;-1.04949951171875;-0.099365234375;9.8999999750049;991;1 A;
87.3276407795189;-1.0491943359375;-0.099334716796875;9.90999997497966;992;1 A;
87.3376407794937;-1.0498046875;-0.099334716796875;9.91999997495441;993;1 A;
87.3476407794684;-1.05010986328125;-0.099334716796875;9.92999997492916;994;1 A;
87.3576407794432;-1.0498046875;-0.09930419921875;9.93999997490391;995;1 A;
87.3676407794179;-1.04949951171875;-0.09930419921875;9.94999997487866;996;1 A;
87.3776407793927;-1.04949951171875;-0.099273681640625;9.95999997485342;997;1 A;
87.3876407793674;-1.0491943359375;-0.0992431640625;9.96999997482817;998;1 A;
87.3976407793422;-1.0498046875;-0.0992431640625;9.97999997480292;999;1 A;
87.4076407793169;-1.0491943359375;-0.099212646484375;9.98999997477767;1000;1 A;
