Time (s);WE(1).Potential (V);WE(1).Current (A);Corrected time (s);Index;Current range;Overload
5.52735898604476;-0.85540771484375;-2.3382568359375;0;1;1 A;Current overload
5.53735898601951;-0.89935302734375;-2.08160400390625;0.00999999997475243;2;1 A;Current overload
5.54735898599426;-1.00067138671875;-1.42364501953125;0.0199999999495049;3;1 A;
5.55735898596902;-1.00006103515625;-1.1810302734375;0.0299999999242573;4;1 A;
5.56735898594377;-1.0003662109375;-1.0357666015625;0.0399999998990097;5;1 A;
5.57735898591852;-0.99945068359375;-0.93475341796875;0.0499999998737621;6;1 A;
5.58735898589327;-0.999755859375;-0.8587646484375;0.0599999998485146;7;1 A;
5.59735898586803;-0.999755859375;-0.7989501953125;0.069999999823267;8;1 A;
5.60735898584278;-0.999755859375;-0.75042724609375;0.0799999997980194;9;1 A;
5.61735898581753;-0.999755859375;-0.7098388671875;0.0899999997727718;10;1 A;
5.62735898579228;-0.999755859375;-0.675048828125;0.0999999997475243;11;1 A;
5.63735898576704;-0.999755859375;-0.6451416015625;0.109999999722277;12;1 A;
5.64735898574179;-0.9991455078125;-0.618896484375;0.119999999697029;13;1 A;
5.65735898571654;-1.0003662109375;-0.59539794921875;0.129999999671782;14;1 A;
5.66735898569129;-0.999755859375;-0.57464599609375;0.139999999646534;15;1 A;
5.67735898566605;-0.999755859375;-0.55572509765625;0.149999999621286;16;1 A;
5.6873589856408;-0.999755859375;-0.5389404296875;0.159999999596039;17;1 A;
5.69735898561555;-0.999755859375;-0.52337646484375;0.169999999570791;18;1 A;
5.7073589855903;-0.999755859375;-0.509033203125;0.179999999545544;19;1 A;
5.71735898556506;-0.999755859375;-0.49591064453125;0.189999999520296;20;1 A;
5.72735898553981;-0.99945068359375;-0.483642578125;0.199999999495049;21;1 A;
5.73735898551456;-0.999755859375;-0.472381591796875;0.209999999469801;22;1 A;
5.74735898548931;-1.00006103515625;-0.461822509765625;0.219999999444553;23;1 A;
5.75735898546407;-0.99945068359375;-0.45196533203125;0.229999999419306;24;1 A;
5.76735898543882;-0.999755859375;-0.4427490234375;0.239999999394058;25;1 A;
5.77735898541357;-0.99945068359375;-0.43402099609375;0.249999999368811;26;1 A;
5.78735898538832;-0.99945068359375;-0.42584228515625;0.259999999343563;27;1 A;
5.79735898536308;-0.9991455078125;-0.418121337890625;0.269999999318316;28;1 A;
5.80735898533783;-0.999755859375;-0.4107666015625;0.279999999293068;29;1 A;
5.81735898531258;-0.99945068359375;-0.403839111328125;0.28999999926782;30;1 A;
5.82735898528733;-1.00006103515625;-0.397216796875;0.299999999242573;31;1 A;
5.83735898526209;-0.999755859375;-0.39093017578125;0.309999999217325;32;1 A;
5.84735898523684;-0.999755859375;-0.38494873046875;0.319999999192078;33;1 A;
5.85735898521159;-0.99945068359375;-0.379241943359375;0.32999999916683;34;1 A;
5.86735898518634;-0.999755859375;-0.373779296875;0.339999999141583;35;1 A;
5.8773589851611;-1.00006103515625;-0.368499755859375;0.349999999116335;36;1 A;
5.88735898513585;-0.999755859375;-0.363525390625;0.359999999091087;37;1 A;
5.8973589851106;-0.99945068359375;-0.358734130859375;0.36999999906584;38;1 A;
5.90735898508535;-1.00006103515625;-0.354095458984375;0.379999999040592;39;1 A;
5.9173589850601;-0.999755859375;-0.34967041015625;0.389999999015345;40;1 A;
5.92735898503486;-0.9991455078125;-0.345367431640625;0.399999998990097;41;1 A;
5.93735898500961;-1.0003662109375;-0.34124755859375;0.40999999896485;42;1 A;
5.94735898498436;-0.999755859375;-0.3372802734375;0.419999998939602;43;1 A;
5.95735898495911;-0.99945068359375;-0.33343505859375;0.429999998914354;44;1 A;
5.96735898493387;-0.999755859375;-0.329742431640625;0.439999998889107;45;1 A;
5.97735898490862;-0.99945068359375;-0.326171875;0.449999998863859;46;1 A;
5.98735898488337;-0.99945068359375;-0.322723388671875;0.459999998838612;47;1 A;
5.99735898485812;-0.999755859375;-0.319366455078125;0.469999998813364;48;1 A;
6.00735898483288;-0.9991455078125;-0.31610107421875;0.479999998788116;49;1 A;
6.01735898480763;-0.999755859375;-0.31298828125;0.489999998762869;50;1 A;
6.02735898478238;-0.999755859375;-0.309906005859375;0.499999998737621;51;1 A;
6.03735898475713;-0.99945068359375;-0.30694580078125;0.509999998712374;52;1 A;
6.04735898473189;-0.99945068359375;-0.3040771484375;0.519999998687126;53;1 A;
6.05735898470664;-0.999755859375;-0.30126953125;0.529999998661879;54;1 A;
6.06735898468139;-0.999755859375;-0.298583984375;0.539999998636631;55;1 A;
6.07735898465614;-0.999755859375;-0.295928955078125;0.549999998611383;56;1 A;
6.0873589846309;-0.9991455078125;-0.29339599609375;0.559999998586136;57;1 A;
6.09735898460565;-0.999755859375;-0.2908935546875;0.569999998560888;58;1 A;
6.1073589845804;-0.99945068359375;-0.2884521484375;0.579999998535641;59;1 A;
6.11735898455515;-0.999755859375;-0.286102294921875;0.589999998510393;60;1 A;
6.12735898452991;-0.999755859375;-0.28375244140625;0.599999998485146;61;1 A;
6.13735898450466;-0.999755859375;-0.281524658203125;0.609999998459898;62;1 A;
6.14735898447941;-0.99945068359375;-0.279327392578125;0.61999999843465;63;1 A;
6.15735898445416;-0.99945068359375;-0.27716064453125;0.629999998409403;64;1 A;
6.16735898442892;-0.999755859375;-0.275054931640625;0.639999998384155;65;1 A;
6.17735898440367;-0.999755859375;-0.272979736328125;0.649999998358908;66;1 A;
6.18735898437842;-0.99945068359375;-0.27099609375;0.65999999833366;67;1 A;
6.19735898435317;-0.99945068359375;-0.26904296875;0.669999998308413;68;1 A;
6.20735898432793;-0.999755859375;-0.267120361328125;0.679999998283165;69;1 A;
6.21735898430268;-0.99945068359375;-0.265289306640625;0.689999998257917;70;1 A;
6.22735898427743;-0.9991455078125;-0.263427734375;0.69999999823267;71;1 A;
6.23735898425218;-0.999755859375;-0.26165771484375;0.709999998207422;72;1 A;
6.24735898422693;-1.0003662109375;-0.2598876953125;0.719999998182175;73;1 A;
6.25735898420169;-0.999755859375;-0.2581787109375;0.729999998156927;74;1 A;
6.26735898417644;-0.999755859375;-0.25653076171875;0.73999999813168;75;1 A;
6.27735898415119;-0.999755859375;-0.254852294921875;0.749999998106432;76;1 A;
6.28735898412594;-0.999755859375;-0.25323486328125;0.759999998081184;77;1 A;
6.2973589841007;-0.999755859375;-0.25164794921875;0.769999998055937;78;1 A;
6.30735898407545;-0.99945068359375;-0.250091552734375;0.779999998030689;79;1 A;
6.3173589840502;-0.999755859375;-0.24859619140625;0.789999998005442;80;1 A;
6.32735898402495;-0.99945068359375;-0.2470703125;0.799999997980194;81;1 A;
6.33735898399971;-0.999755859375;-0.24560546875;0.809999997954947;82;1 A;
6.34735898397446;-0.999755859375;-0.244171142578125;0.819999997929699;83;1 A;
6.35735898394921;-0.999755859375;-0.242767333984375;0.829999997904451;84;1 A;
6.36735898392396;-0.999755859375;-0.24139404296875;0.839999997879204;85;1 A;
6.37735898389872;-0.99945068359375;-0.240020751953125;0.849999997853956;86;1 A;
6.38735898387347;-0.999755859375;-0.238677978515625;0.859999997828709;87;1 A;
6.39735898384822;-0.999755859375;-0.23736572265625;0.869999997803461;88;1 A;
6.40735898382297;-0.99884033203125;-0.236083984375;0.879999997778214;89;1 A;
6.41735898379773;-0.99945068359375;-0.234832763671875;0.889999997752966;90;1 A;
6.42735898377248;-0.99945068359375;-0.23358154296875;0.899999997727718;91;1 A;
6.43735898374723;-1.00006103515625;-0.23236083984375;0.909999997702471;92;1 A;
6.44735898372198;-0.999755859375;-0.23114013671875;0.919999997677223;93;1 A;
6.45735898369674;-0.99945068359375;-0.229949951171875;0.929999997651976;94;1 A;
6.46735898367149;-0.999755859375;-0.228790283203125;0.939999997626728;95;1 A;
6.47735898364624;-0.99945068359375;-0.227630615234375;0.949999997601481;96;1 A;
6.48735898362099;-0.999755859375;-0.22650146484375;0.959999997576233;97;1 A;
6.49735898359575;-0.999755859375;-0.22540283203125;0.969999997550985;98;1 A;
6.5073589835705;-0.9991455078125;-0.22430419921875;0.979999997525738;99;1 A;
6.51735898354525;-1.00006103515625;-0.223236083984375;0.98999999750049;100;1 A;
6.52735898352;-0.999755859375;-0.222137451171875;0.999999997475243;101;1 A;
6.53735898349476;-0.99945068359375;-0.221099853515625;1.00999999745;102;1 A;
6.54735898346951;-0.9991455078125;-0.2200927734375;1.01999999742475;103;1 A;
6.55735898344426;-0.99945068359375;-0.21905517578125;1.0299999973995;104;1 A;
6.56735898341901;-0.999755859375;-0.21807861328125;1.03999999737425;105;1 A;
6.57735898339376;-0.99945068359375;-0.217071533203125;1.049999997349;106;1 A;
6.58735898336852;-1.00006103515625;-0.21612548828125;1.05999999732376;107;1 A;
6.59735898334327;-0.999755859375;-0.215179443359375;1.06999999729851;108;1 A;
6.60735898331802;-0.99884033203125;-0.214202880859375;1.07999999727326;109;1 A;
6.61735898329277;-0.99945068359375;-0.213287353515625;1.08999999724801;110;1 A;
6.62735898326753;-0.999755859375;-0.21234130859375;1.09999999722277;111;1 A;
6.63735898324228;-0.99945068359375;-0.211456298828125;1.10999999719752;112;1 A;
6.64735898321703;-0.999755859375;-0.2105712890625;1.11999999717227;113;1 A;
6.65735898319178;-0.99945068359375;-0.209686279296875;1.12999999714702;114;1 A;
6.66735898316654;-0.99945068359375;-0.208831787109375;1.13999999712178;115;1 A;
6.67735898314129;-0.99945068359375;-0.20794677734375;1.14999999709653;116;1 A;
6.68735898311604;-1.00006103515625;-0.207122802734375;1.15999999707128;117;1 A;
6.69735898309079;-0.999755859375;-0.206298828125;1.16999999704603;118;1 A;
6.70735898306555;-0.99945068359375;-0.205474853515625;1.17999999702079;119;1 A;
6.7173589830403;-1.0003662109375;-0.204681396484375;1.18999999699554;120;1 A;
6.72735898301505;-0.999755859375;-0.203857421875;1.19999999697029;121;1 A;
6.7373589829898;-0.99945068359375;-0.20306396484375;1.20999999694504;122;1 A;
6.74735898296456;-0.9991455078125;-0.202301025390625;1.2199999969198;123;1 A;
6.75735898293931;-0.999755859375;-0.2015380859375;1.22999999689455;124;1 A;
6.76735898291406;-1.00006103515625;-0.200775146484375;1.2399999968693;125;1 A;
6.77735898288881;-1.00006103515625;-0.20001220703125;1.24999999684405;126;1 A;
6.78735898286357;-0.99945068359375;-0.199249267578125;1.25999999681881;127;1 A;
6.79735898283832;-0.99945068359375;-0.19854736328125;1.26999999679356;128;1 A;
6.80735898281307;-0.999755859375;-0.19781494140625;1.27999999676831;129;1 A;
6.81735898278782;-0.999755859375;-0.197113037109375;1.28999999674306;130;1 A;
6.82735898276258;-0.999755859375;-0.196380615234375;1.29999999671782;131;1 A;
6.83735898273733;-0.999755859375;-0.1956787109375;1.30999999669257;132;1 A;
6.84735898271208;-0.99945068359375;-0.19500732421875;1.31999999666732;133;1 A;
6.85735898268683;-0.99945068359375;-0.194305419921875;1.32999999664207;134;1 A;
6.86735898266159;-0.99945068359375;-0.19366455078125;1.33999999661683;135;1 A;
6.87735898263634;-0.999755859375;-0.192962646484375;1.34999999659158;136;1 A;
6.88735898261109;-0.999755859375;-0.19232177734375;1.35999999656633;137;1 A;
6.89735898258584;-1.00006103515625;-0.191680908203125;1.36999999654108;138;1 A;
6.90735898256059;-0.99945068359375;-0.191009521484375;1.37999999651583;139;1 A;
6.91735898253535;-0.999755859375;-0.190399169921875;1.38999999649059;140;1 A;
6.9273589825101;-1.00006103515625;-0.18975830078125;1.39999999646534;141;1 A;
6.93735898248485;-1.00006103515625;-0.189117431640625;1.40999999644009;142;1 A;
6.9473589824596;-0.99945068359375;-0.18853759765625;1.41999999641484;143;1 A;
6.95735898243436;-0.99945068359375;-0.187896728515625;1.4299999963896;144;1 A;
6.96735898240911;-0.9991455078125;-0.18731689453125;1.43999999636435;145;1 A;
6.97735898238386;-1.00006103515625;-0.18670654296875;1.4499999963391;146;1 A;
6.98735898235861;-0.999755859375;-0.18609619140625;1.45999999631385;147;1 A;
6.99735898233337;-0.999755859375;-0.185546875;1.46999999628861;148;1 A;
7.00735898230812;-0.999755859375;-0.1849365234375;1.47999999626336;149;1 A;
7.01735898228287;-0.999755859375;-0.18438720703125;1.48999999623811;150;1 A;
7.02735898225762;-0.999755859375;-0.183807373046875;1.49999999621286;151;1 A;
7.03735898223238;-1.00006103515625;-0.183258056640625;1.50999999618762;152;1 A;
7.04735898220713;-0.9991455078125;-0.182708740234375;1.51999999616237;153;1 A;
7.05735898218188;-0.999755859375;-0.18212890625;1.52999999613712;154;1 A;
7.06735898215663;-0.99945068359375;-0.181610107421875;1.53999999611187;155;1 A;
7.07735898213139;-0.99945068359375;-0.181060791015625;1.54999999608663;156;1 A;
7.08735898210614;-1.00006103515625;-0.180511474609375;1.55999999606138;157;1 A;
7.09735898208089;-0.99945068359375;-0.180023193359375;1.56999999603613;158;1 A;
7.10735898205564;-0.999755859375;-0.179473876953125;1.57999999601088;159;1 A;
7.1173589820304;-0.999755859375;-0.178985595703125;1.58999999598564;160;1 A;
7.12735898200515;-1.00006103515625;-0.178466796875;1.59999999596039;161;1 A;
7.1373589819799;-0.999755859375;-0.177947998046875;1.60999999593514;162;1 A;
7.14735898195465;-0.999755859375;-0.177459716796875;1.61999999590989;163;1 A;
7.15735898192941;-0.999755859375;-0.17694091796875;1.62999999588465;164;1 A;
7.16735898190416;-0.999755859375;-0.176483154296875;1.6399999958594;165;1 A;
7.17735898187891;-0.99945068359375;-0.17596435546875;1.64999999583415;166;1 A;
7.18735898185366;-0.999755859375;-0.175506591796875;1.6599999958089;167;1 A;
7.19735898182842;-0.99945068359375;-0.175018310546875;1.66999999578366;168;1 A;
7.20735898180317;-0.99945068359375;-0.174530029296875;1.67999999575841;169;1 A;
7.21735898177792;-0.99945068359375;-0.174102783203125;1.68999999573316;170;1 A;
7.22735898175267;-0.99945068359375;-0.173583984375;1.69999999570791;171;1 A;
7.23735898172743;-0.999755859375;-0.17315673828125;1.70999999568267;172;1 A;
7.24735898170218;-1.00006103515625;-0.172698974609375;1.71999999565742;173;1 A;
7.25735898167693;-0.999755859375;-0.1722412109375;1.72999999563217;174;1 A;
7.26735898165168;-0.999755859375;-0.17181396484375;1.73999999560692;175;1 A;
7.27735898162643;-0.9991455078125;-0.171356201171875;1.74999999558167;176;1 A;
7.28735898160119;-0.999755859375;-0.170928955078125;1.75999999555643;177;1 A;
7.29735898157594;-0.99945068359375;-0.170501708984375;1.76999999553118;178;1 A;
7.30735898155069;-0.999755859375;-0.1700439453125;1.77999999550593;179;1 A;
7.31735898152544;-1.00006103515625;-0.169647216796875;1.78999999548068;180;1 A;
7.3273589815002;-0.99945068359375;-0.169219970703125;1.79999999545544;181;1 A;
7.33735898147495;-0.99945068359375;-0.168792724609375;1.80999999543019;182;1 A;
7.3473589814497;-1.00006103515625;-0.16839599609375;1.81999999540494;183;1 A;
7.35735898142445;-1.00006103515625;-0.16796875;1.82999999537969;184;1 A;
7.36735898139921;-1.00006103515625;-0.167572021484375;1.83999999535445;185;1 A;
7.37735898137396;-1.00006103515625;-0.167144775390625;1.8499999953292;186;1 A;
7.38735898134871;-0.99945068359375;-0.166748046875;1.85999999530395;187;1 A;
7.39735898132346;-1.00006103515625;-0.166351318359375;1.8699999952787;188;1 A;
7.40735898129822;-0.999755859375;-0.16595458984375;1.87999999525346;189;1 A;
7.41735898127297;-0.999755859375;-0.16558837890625;1.88999999522821;190;1 A;
7.42735898124772;-0.9991455078125;-0.1651611328125;1.89999999520296;191;1 A;
7.43735898122247;-0.999755859375;-0.164794921875;1.90999999517771;192;1 A;
7.44735898119723;-0.99945068359375;-0.1644287109375;1.91999999515247;193;1 A;
7.45735898117198;-0.999755859375;-0.164031982421875;1.92999999512722;194;1 A;
7.46735898114673;-0.999755859375;-0.163665771484375;1.93999999510197;195;1 A;
7.47735898112148;-1.0003662109375;-0.16326904296875;1.94999999507672;196;1 A;
7.48735898109624;-0.999755859375;-0.162933349609375;1.95999999505148;197;1 A;
7.49735898107099;-0.999755859375;-0.162567138671875;1.96999999502623;198;1 A;
7.50735898104574;-0.999755859375;-0.162200927734375;1.97999999500098;199;1 A;
7.51735898102049;-0.9991455078125;-0.161834716796875;1.98999999497573;200;1 A;
7.52735898099525;-0.99945068359375;-0.161468505859375;1.99999999495049;201;1 A;
7.53735898097;-0.9991455078125;-0.161102294921875;2.00999999492524;202;1 A;
7.54735898094475;-0.99945068359375;-0.1607666015625;2.01999999489999;203;1 A;
7.5573589809195;-0.99945068359375;-0.160400390625;2.02999999487474;204;1 A;
7.56735898089426;-0.999755859375;-0.160064697265625;2.0399999948495;205;1 A;
7.57735898086901;-1.00006103515625;-0.159698486328125;2.04999999482425;206;1 A;
7.58735898084376;-0.99945068359375;-0.15936279296875;2.059999994799;207;1 A;
7.59735898081851;-0.99945068359375;-0.1590576171875;2.06999999477375;208;1 A;
7.60735898079326;-0.9991455078125;-0.15869140625;2.0799999947485;209;1 A;
7.61735898076802;-1.00006103515625;-0.15838623046875;2.08999999472326;210;1 A;
7.62735898074277;-1.00006103515625;-0.158050537109375;2.09999999469801;211;1 A;
7.63735898071752;-0.999755859375;-0.15771484375;2.10999999467276;212;1 A;
7.64735898069227;-0.999755859375;-0.15740966796875;2.11999999464751;213;1 A;
7.65735898066703;-0.99945068359375;-0.15704345703125;2.12999999462227;214;1 A;
7.66735898064178;-1.00006103515625;-0.156768798828125;2.13999999459702;215;1 A;
7.67735898061653;-0.999755859375;-0.156402587890625;2.14999999457177;216;1 A;
7.68735898059128;-0.999755859375;-0.156097412109375;2.15999999454652;217;1 A;
7.69735898056604;-0.99945068359375;-0.155792236328125;2.16999999452128;218;1 A;
7.70735898054079;-0.99945068359375;-0.15545654296875;2.17999999449603;219;1 A;
7.71735898051554;-0.99945068359375;-0.155181884765625;2.18999999447078;220;1 A;
7.72735898049029;-1.0003662109375;-0.15484619140625;2.19999999444553;221;1 A;
7.73735898046505;-0.99945068359375;-0.154541015625;2.20999999442029;222;1 A;
7.7473589804398;-0.999755859375;-0.154266357421875;2.21999999439504;223;1 A;
7.75735898041455;-1.00006103515625;-0.1539306640625;2.22999999436979;224;1 A;
7.7673589803893;-0.99945068359375;-0.1536865234375;2.23999999434454;225;1 A;
7.77735898036406;-0.99884033203125;-0.153350830078125;2.2499999943193;226;1 A;
7.78735898033881;-0.9991455078125;-0.153045654296875;2.25999999429405;227;1 A;
7.79735898031356;-0.999755859375;-0.15277099609375;2.2699999942688;228;1 A;
7.80735898028831;-0.999755859375;-0.1524658203125;2.27999999424355;229;1 A;
7.81735898026307;-1.00006103515625;-0.152191162109375;2.28999999421831;230;1 A;
7.82735898023782;-0.999755859375;-0.151885986328125;2.29999999419306;231;1 A;
7.83735898021257;-0.99945068359375;-0.151611328125;2.30999999416781;232;1 A;
7.84735898018732;-0.999755859375;-0.151336669921875;2.31999999414256;233;1 A;
7.85735898016208;-0.99945068359375;-0.151031494140625;2.32999999411732;234;1 A;
7.86735898013683;-0.999755859375;-0.150787353515625;2.33999999409207;235;1 A;
7.87735898011158;-0.9991455078125;-0.150482177734375;2.34999999406682;236;1 A;
7.88735898008633;-0.99884033203125;-0.150238037109375;2.35999999404157;237;1 A;
7.89735898006109;-0.999755859375;-0.14996337890625;2.36999999401633;238;1 A;
7.90735898003584;-0.999755859375;-0.149688720703125;2.37999999399108;239;1 A;
7.91735898001059;-0.99945068359375;-0.149444580078125;2.38999999396583;240;1 A;
7.92735897998534;-0.999755859375;-0.149139404296875;2.39999999394058;241;1 A;
7.93735897996009;-0.99945068359375;-0.148895263671875;2.40999999391533;242;1 A;
7.94735897993485;-0.99945068359375;-0.148651123046875;2.41999999389009;243;1 A;
7.9573589799096;-0.99945068359375;-0.14837646484375;2.42999999386484;244;1 A;
7.96735897988435;-0.999755859375;-0.14813232421875;2.43999999383959;245;1 A;
7.9773589798591;-0.999755859375;-0.147857666015625;2.44999999381434;246;1 A;
7.98735897983386;-0.99945068359375;-0.1475830078125;2.4599999937891;247;1 A;
7.99735897980861;-0.999755859375;-0.1473388671875;2.46999999376385;248;1 A;
8.00735897978336;-1.00006103515625;-0.1470947265625;2.4799999937386;249;1 A;
8.01735897975811;-0.99945068359375;-0.1468505859375;2.48999999371335;250;1 A;
8.02735897973287;-0.99945068359375;-0.146575927734375;2.49999999368811;251;1 A;
8.03735897970762;-0.999755859375;-0.146331787109375;2.50999999366286;252;1 A;
8.04735897968237;-1.00006103515625;-0.146087646484375;2.51999999363761;253;1 A;
8.05735897965712;-0.9991455078125;-0.145843505859375;2.52999999361236;254;1 A;
8.06735897963188;-0.99945068359375;-0.145599365234375;2.53999999358712;255;1 A;
8.07735897960663;-0.999755859375;-0.145355224609375;2.54999999356187;256;1 A;
8.08735897958138;-0.999755859375;-0.145111083984375;2.55999999353662;257;1 A;
8.09735897955613;-0.999755859375;-0.1448974609375;2.56999999351137;258;1 A;
8.10735897953089;-0.99945068359375;-0.144622802734375;2.57999999348613;259;1 A;
8.11735897950564;-0.99945068359375;-0.1444091796875;2.58999999346088;260;1 A;
8.12735897948039;-0.999755859375;-0.144134521484375;2.59999999343563;261;1 A;
8.13735897945514;-0.999755859375;-0.1439208984375;2.60999999341038;262;1 A;
8.1473589794299;-0.99945068359375;-0.143707275390625;2.61999999338514;263;1 A;
8.15735897940465;-0.99945068359375;-0.143463134765625;2.62999999335989;264;1 A;
8.1673589793794;-0.999755859375;-0.14324951171875;2.63999999333464;265;1 A;
8.17735897935415;-0.99945068359375;-0.142974853515625;2.64999999330939;266;1 A;
8.18735897932891;-1.00006103515625;-0.14276123046875;2.65999999328415;267;1 A;
8.19735897930366;-0.99945068359375;-0.142547607421875;2.6699999932589;268;1 A;
8.20735897927841;-0.999755859375;-0.142303466796875;2.67999999323365;269;1 A;
8.21735897925316;-0.999755859375;-0.142120361328125;2.6899999932084;270;1 A;
8.22735897922792;-0.99945068359375;-0.141876220703125;2.69999999318316;271;1 A;
8.23735897920267;-0.999755859375;-0.14166259765625;2.70999999315791;272;1 A;
8.24735897917742;-0.99945068359375;-0.141448974609375;2.71999999313266;273;1 A;
8.25735897915217;-0.99945068359375;-0.141204833984375;2.72999999310741;274;1 A;
8.26735897912693;-0.99945068359375;-0.1409912109375;2.73999999308217;275;1 A;
8.27735897910168;-0.99945068359375;-0.140777587890625;2.74999999305692;276;1 A;
8.28735897907643;-0.999755859375;-0.14056396484375;2.75999999303167;277;1 A;
8.29735897905118;-0.999755859375;-0.140380859375;2.76999999300642;278;1 A;
8.30735897902593;-1.0003662109375;-0.14013671875;2.77999999298117;279;1 A;
8.31735897900069;-0.99945068359375;-0.13995361328125;2.78999999295593;280;1 A;
8.32735897897544;-0.9991455078125;-0.13970947265625;2.79999999293068;281;1 A;
8.33735897895019;-0.9991455078125;-0.139495849609375;2.80999999290543;282;1 A;
8.34735897892494;-0.999755859375;-0.1392822265625;2.81999999288018;283;1 A;
8.3573589788997;-1.00006103515625;-0.139068603515625;2.82999999285494;284;1 A;
8.36735897887445;-0.9991455078125;-0.138885498046875;2.83999999282969;285;1 A;
8.3773589788492;-1.0003662109375;-0.138641357421875;2.84999999280444;286;1 A;
8.38735897882395;-0.99945068359375;-0.138427734375;2.85999999277919;287;1 A;
8.39735897879871;-0.999755859375;-0.13824462890625;2.86999999275395;288;1 A;
8.40735897877346;-0.99945068359375;-0.138031005859375;2.8799999927287;289;1 A;
8.41735897874821;-0.999755859375;-0.137847900390625;2.88999999270345;290;1 A;
8.42735897872296;-0.999755859375;-0.137603759765625;2.8999999926782;291;1 A;
8.43735897869772;-0.999755859375;-0.137420654296875;2.90999999265296;292;1 A;
8.44735897867247;-0.999755859375;-0.13720703125;2.91999999262771;293;1 A;
8.45735897864722;-0.99945068359375;-0.136993408203125;2.92999999260246;294;1 A;
8.46735897862197;-0.9991455078125;-0.136810302734375;2.93999999257721;295;1 A;
8.47735897859673;-0.9991455078125;-0.136566162109375;2.94999999255197;296;1 A;
8.48735897857148;-1.00006103515625;-0.13641357421875;2.95999999252672;297;1 A;
8.49735897854623;-0.99945068359375;-0.136199951171875;2.96999999250147;298;1 A;
8.50735897852098;-0.99945068359375;-0.135986328125;2.97999999247622;299;1 A;
8.51735897849574;-0.999755859375;-0.13580322265625;2.98999999245098;300;1 A;
8.52735897847049;-0.99945068359375;-0.135589599609375;2.99999999242573;301;1 A;
8.53735897844524;-0.9991455078125;-0.135406494140625;3.00999999240048;302;1 A;
8.54735897841999;-0.999755859375;-0.135223388671875;3.01999999237523;303;1 A;
8.55735897839475;-1.00006103515625;-0.135009765625;3.02999999234999;304;1 A;
8.5673589783695;-0.99945068359375;-0.13482666015625;3.03999999232474;305;1 A;
8.57735897834425;-0.99945068359375;-0.13458251953125;3.04999999229949;306;1 A;
8.587358978319;-0.99945068359375;-0.1343994140625;3.05999999227424;307;1 A;
8.59735897829376;-0.999755859375;-0.13421630859375;3.069999992249;308;1 A;
8.60735897826851;-0.999755859375;-0.134002685546875;3.07999999222375;309;1 A;
8.61735897824326;-1.00006103515625;-0.13385009765625;3.0899999921985;310;1 A;
8.62735897821801;-0.99945068359375;-0.13360595703125;3.09999999217325;311;1 A;
8.63735897819276;-0.999755859375;-0.1334228515625;3.109999992148;312;1 A;
8.64735897816752;-0.999755859375;-0.13323974609375;3.11999999212276;313;1 A;
8.65735897814227;-0.999755859375;-0.133026123046875;3.12999999209751;314;1 A;
8.66735897811702;-0.999755859375;-0.13287353515625;3.13999999207226;315;1 A;
8.67735897809177;-0.99945068359375;-0.132659912109375;3.14999999204701;316;1 A;
8.68735897806653;-0.999755859375;-0.132476806640625;3.15999999202177;317;1 A;
8.69735897804128;-0.999755859375;-0.132293701171875;3.16999999199652;318;1 A;
8.70735897801603;-0.9991455078125;-0.132110595703125;3.17999999197127;319;1 A;
8.71735897799078;-0.99945068359375;-0.131927490234375;3.18999999194602;320;1 A;
8.72735897796554;-0.999755859375;-0.1317138671875;3.19999999192078;321;1 A;
8.73735897794029;-0.99945068359375;-0.13153076171875;3.20999999189553;322;1 A;
8.74735897791504;-0.999755859375;-0.131378173828125;3.21999999187028;323;1 A;
8.75735897788979;-0.99945068359375;-0.13116455078125;3.22999999184503;324;1 A;
8.76735897786455;-0.99945068359375;-0.131011962890625;3.23999999181979;325;1 A;
8.7773589778393;-1.00006103515625;-0.13079833984375;3.24999999179454;326;1 A;
8.78735897781405;-0.99945068359375;-0.130615234375;3.25999999176929;327;1 A;
8.7973589777888;-0.999755859375;-0.130462646484375;3.26999999174404;328;1 A;
8.80735897776356;-0.999755859375;-0.130279541015625;3.2799999917188;329;1 A;
8.81735897773831;-0.99945068359375;-0.130126953125;3.28999999169355;330;1 A;
8.82735897771306;-0.999755859375;-0.129913330078125;3.2999999916683;331;1 A;
8.83735897768781;-1.00006103515625;-0.1297607421875;3.30999999164305;332;1 A;
8.84735897766257;-0.99945068359375;-0.12957763671875;3.31999999161781;333;1 A;
8.85735897763732;-0.999755859375;-0.12939453125;3.32999999159256;334;1 A;
8.86735897761207;-0.9991455078125;-0.129241943359375;3.33999999156731;335;1 A;
8.87735897758682;-0.999755859375;-0.129058837890625;3.34999999154206;336;1 A;
8.88735897756158;-0.999755859375;-0.128875732421875;3.35999999151682;337;1 A;
8.89735897753633;-0.99945068359375;-0.12872314453125;3.36999999149157;338;1 A;
8.90735897751108;-0.99945068359375;-0.1285400390625;3.37999999146632;339;1 A;
8.91735897748583;-0.999755859375;-0.12841796875;3.38999999144107;340;1 A;
8.92735897746059;-0.9991455078125;-0.12823486328125;3.39999999141583;341;1 A;
8.93735897743534;-0.99945068359375;-0.128082275390625;3.40999999139058;342;1 A;
8.94735897741009;-1.0003662109375;-0.1279296875;3.41999999136533;343;1 A;
8.95735897738484;-0.999755859375;-0.12774658203125;3.42999999134008;344;1 A;
8.96735897735959;-1.00006103515625;-0.12762451171875;3.43999999131483;345;1 A;
8.97735897733435;-0.9991455078125;-0.12744140625;3.44999999128959;346;1 A;
8.9873589773091;-1.00006103515625;-0.127288818359375;3.45999999126434;347;1 A;
8.99735897728385;-1.00006103515625;-0.12713623046875;3.46999999123909;348;1 A;
9.0073589772586;-0.99945068359375;-0.126983642578125;3.47999999121384;349;1 A;
9.01735897723336;-0.999755859375;-0.1268310546875;3.4899999911886;350;1 A;
9.02735897720811;-0.999755859375;-0.12664794921875;3.49999999116335;351;1 A;
9.03735897718286;-0.999755859375;-0.12652587890625;3.5099999911381;352;1 A;
9.04735897715761;-1.00006103515625;-0.126373291015625;3.51999999111285;353;1 A;
9.05735897713237;-0.999755859375;-0.126220703125;3.52999999108761;354;1 A;
9.06735897710712;-0.999755859375;-0.1260986328125;3.53999999106236;355;1 A;
9.07735897708187;-0.999755859375;-0.12591552734375;3.54999999103711;356;1 A;
9.08735897705662;-0.999755859375;-0.12579345703125;3.55999999101186;357;1 A;
9.09735897703138;-1.00006103515625;-0.12567138671875;3.56999999098662;358;1 A;
9.10735897700613;-1.00006103515625;-0.125518798828125;3.57999999096137;359;1 A;
9.11735897698088;-0.999755859375;-0.125396728515625;3.58999999093612;360;1 A;
9.12735897695563;-0.999755859375;-0.125213623046875;3.59999999091087;361;1 A;
9.13735897693039;-0.999755859375;-0.125091552734375;3.60999999088563;362;1 A;
9.14735897690514;-0.999755859375;-0.124969482421875;3.61999999086038;363;1 A;
9.15735897687989;-0.99945068359375;-0.12481689453125;3.62999999083513;364;1 A;
9.16735897685464;-1.00006103515625;-0.124725341796875;3.63999999080988;365;1 A;
9.1773589768294;-0.9991455078125;-0.124542236328125;3.64999999078464;366;1 A;
9.18735897680415;-0.99945068359375;-0.124420166015625;3.65999999075939;367;1 A;
9.1973589767789;-0.99945068359375;-0.124298095703125;3.66999999073414;368;1 A;
9.20735897675365;-0.999755859375;-0.1241455078125;3.67999999070889;369;1 A;
9.21735897672841;-1.00006103515625;-0.124053955078125;3.68999999068365;370;1 A;
9.22735897670316;-0.999755859375;-0.1239013671875;3.6999999906584;371;1 A;
9.23735897667791;-0.999755859375;-0.123779296875;3.70999999063315;372;1 A;
9.24735897665266;-0.999755859375;-0.1236572265625;3.7199999906079;373;1 A;
9.25735897662742;-0.9991455078125;-0.123504638671875;3.72999999058266;374;1 A;
9.26735897660217;-0.999755859375;-0.1234130859375;3.73999999055741;375;1 A;
9.27735897657692;-0.99945068359375;-0.123260498046875;3.74999999053216;376;1 A;
9.28735897655167;-1.0003662109375;-0.123138427734375;3.75999999050691;377;1 A;
9.29735897652643;-0.99945068359375;-0.123016357421875;3.76999999048167;378;1 A;
9.30735897650118;-0.99945068359375;-0.122894287109375;3.77999999045642;379;1 A;
9.31735897647593;-0.999755859375;-0.122772216796875;3.78999999043117;380;1 A;
9.32735897645068;-0.999755859375;-0.122650146484375;3.79999999040592;381;1 A;
9.33735897642543;-0.999755859375;-0.122528076171875;3.80999999038067;382;1 A;
9.34735897640019;-1.00006103515625;-0.122406005859375;3.81999999035543;383;1 A;
9.35735897637494;-1.00006103515625;-0.122283935546875;3.82999999033018;384;1 A;
9.36735897634969;-0.99945068359375;-0.1221923828125;3.83999999030493;385;1 A;
9.37735897632444;-0.99945068359375;-0.122039794921875;3.84999999027968;386;1 A;
9.3873589762992;-0.999755859375;-0.1219482421875;3.85999999025444;387;1 A;
9.39735897627395;-0.999755859375;-0.121826171875;3.86999999022919;388;1 A;
9.4073589762487;-1.00006103515625;-0.1217041015625;3.87999999020394;389;1 A;
9.41735897622345;-0.99945068359375;-0.121612548828125;3.88999999017869;390;1 A;
9.42735897619821;-0.9991455078125;-0.121490478515625;3.89999999015345;391;1 A;
9.43735897617296;-1.0003662109375;-0.12139892578125;3.9099999901282;392;1 A;
9.44735897614771;-0.9991455078125;-0.12127685546875;3.91999999010295;393;1 A;
9.45735897612246;-1.00006103515625;-0.121185302734375;3.9299999900777;394;1 A;
9.46735897609722;-0.999755859375;-0.12109375;3.93999999005246;395;1 A;
9.47735897607197;-1.00006103515625;-0.120941162109375;3.94999999002721;396;1 A;
9.48735897604672;-1.00006103515625;-0.120849609375;3.95999999000196;397;1 A;
9.49735897602147;-0.99945068359375;-0.120758056640625;3.96999998997671;398;1 A;
9.50735897599623;-1.00006103515625;-0.120635986328125;3.97999998995147;399;1 A;
9.51735897597098;-0.999755859375;-0.120574951171875;3.98999998992622;400;1 A;
9.52735897594573;-1.00006103515625;-0.120452880859375;3.99999998990097;401;1 A;
9.53735897592048;-0.999755859375;-0.120361328125;4.00999998987572;402;1 A;
9.54735897589524;-0.999755859375;-0.120269775390625;4.01999998985048;403;1 A;
9.55735897586999;-1.00006103515625;-0.120147705078125;4.02999998982523;404;1 A;
9.56735897584474;-0.99945068359375;-0.120086669921875;4.03999998979998;405;1 A;
9.57735897581949;-0.99945068359375;-0.119964599609375;4.04999998977473;406;1 A;
9.58735897579425;-0.99945068359375;-0.119873046875;4.05999998974949;407;1 A;
9.597358975769;-0.999755859375;-0.119781494140625;4.06999998972424;408;1 A;
9.60735897574375;-0.999755859375;-0.119659423828125;4.07999998969899;409;1 A;
9.6173589757185;-0.999755859375;-0.119598388671875;4.08999998967374;410;1 A;
9.62735897569326;-0.999755859375;-0.119476318359375;4.0999999896485;411;1 A;
9.63735897566801;-0.999755859375;-0.119384765625;4.10999998962325;412;1 A;
9.64735897564276;-0.99945068359375;-0.11932373046875;4.119999989598;413;1 A;
9.65735897561751;-0.99945068359375;-0.11920166015625;4.12999998957275;414;1 A;
9.66735897559226;-0.999755859375;-0.119140625;4.1399999895475;415;1 A;
9.67735897556702;-0.9991455078125;-0.1190185546875;4.14999998952226;416;1 A;
9.68735897554177;-0.9991455078125;-0.118927001953125;4.15999998949701;417;1 A;
9.69735897551652;-0.99945068359375;-0.118865966796875;4.16999998947176;418;1 A;
9.70735897549127;-1.00006103515625;-0.118743896484375;4.17999998944651;419;1 A;
9.71735897546603;-0.99945068359375;-0.118682861328125;4.18999998942127;420;1 A;
9.72735897544078;-0.999755859375;-0.11859130859375;4.19999998939602;421;1 A;
9.73735897541553;-1.00006103515625;-0.118499755859375;4.20999998937077;422;1 A;
9.74735897539028;-0.99945068359375;-0.118408203125;4.21999998934552;423;1 A;
9.75735897536504;-1.0003662109375;-0.118316650390625;4.22999998932028;424;1 A;
9.76735897533979;-0.999755859375;-0.118255615234375;4.23999998929503;425;1 A;
9.77735897531454;-0.999755859375;-0.1181640625;4.24999998926978;426;1 A;
9.78735897528929;-0.999755859375;-0.118072509765625;4.25999998924453;427;1 A;
9.79735897526405;-0.999755859375;-0.118011474609375;4.26999998921929;428;1 A;
9.8073589752388;-0.999755859375;-0.117889404296875;4.27999998919404;429;1 A;
9.81735897521355;-0.999755859375;-0.117828369140625;4.28999998916879;430;1 A;
9.8273589751883;-0.9991455078125;-0.117767333984375;4.29999998914354;431;1 A;
9.83735897516306;-1.0003662109375;-0.11767578125;4.3099999891183;432;1 A;
9.84735897513781;-0.999755859375;-0.117584228515625;4.31999998909305;433;1 A;
9.85735897511256;-0.999755859375;-0.11749267578125;4.3299999890678;434;1 A;
9.86735897508731;-0.99945068359375;-0.117431640625;4.33999998904255;435;1 A;
9.87735897506207;-0.999755859375;-0.117340087890625;4.34999998901731;436;1 A;
9.88735897503682;-0.99945068359375;-0.11724853515625;4.35999998899206;437;1 A;
9.89735897501157;-0.9991455078125;-0.1171875;4.36999998896681;438;1 A;
9.90735897498632;-0.999755859375;-0.117095947265625;4.37999998894156;439;1 A;
9.91735897496108;-1.00006103515625;-0.117034912109375;4.38999998891632;440;1 A;
9.92735897493583;-0.99945068359375;-0.116912841796875;4.39999998889107;441;1 A;
9.93735897491058;-1.00006103515625;-0.116851806640625;4.40999998886582;442;1 A;
9.94735897488533;-0.999755859375;-0.11676025390625;4.41999998884057;443;1 A;
9.95735897486009;-0.9991455078125;-0.116668701171875;4.42999998881533;444;1 A;
9.96735897483484;-0.999755859375;-0.116607666015625;4.43999998879008;445;1 A;
9.97735897480959;-0.9991455078125;-0.11651611328125;4.44999998876483;446;1 A;
9.98735897478434;-0.999755859375;-0.116455078125;4.45999998873958;447;1 A;
9.99735897475909;-0.99945068359375;-0.116363525390625;4.46999998871433;448;1 A;
10.0073589747338;-0.99945068359375;-0.11627197265625;4.47999998868909;449;1 A;
10.0173589747086;-0.999755859375;-0.1162109375;4.48999998866384;450;1 A;
10.0273589746834;-1.00006103515625;-0.116119384765625;4.49999998863859;451;1 A;
10.0373589746581;-0.99945068359375;-0.11602783203125;4.50999998861334;452;1 A;
10.0473589746329;-1.00006103515625;-0.115966796875;4.5199999885881;453;1 A;
10.0573589746076;-0.99884033203125;-0.115875244140625;4.52999998856285;454;1 A;
10.0673589745824;-0.99945068359375;-0.115814208984375;4.5399999885376;455;1 A;
10.0773589745571;-0.999755859375;-0.11572265625;4.54999998851235;456;1 A;
10.0873589745319;-1.00006103515625;-0.115631103515625;4.55999998848711;457;1 A;
10.0973589745066;-0.999755859375;-0.115570068359375;4.56999998846186;458;1 A;
10.1073589744814;-0.999755859375;-0.115478515625;4.57999998843661;459;1 A;
10.1173589744561;-1.00006103515625;-0.11541748046875;4.58999998841136;460;1 A;
10.1273589744309;-0.999755859375;-0.115325927734375;4.59999998838612;461;1 A;
10.1373589744056;-0.99945068359375;-0.115234375;4.60999998836087;462;1 A;
10.1473589743804;-0.99945068359375;-0.11517333984375;4.61999998833562;463;1 A;
10.1573589743551;-1.00006103515625;-0.115081787109375;4.62999998831037;464;1 A;
10.1673589743299;-0.9991455078125;-0.115020751953125;4.63999998828513;465;1 A;
10.1773589743046;-0.999755859375;-0.11492919921875;4.64999998825988;466;1 A;
10.1873589742794;-0.99945068359375;-0.1148681640625;4.65999998823463;467;1 A;
10.1973589742541;-0.999755859375;-0.114776611328125;4.66999998820938;468;1 A;
10.2073589742289;-1.00006103515625;-0.11468505859375;4.67999998818414;469;1 A;
10.2173589742036;-0.999755859375;-0.114654541015625;4.68999998815889;470;1 A;
10.2273589741784;-0.9991455078125;-0.114532470703125;4.69999998813364;471;1 A;
10.2373589741532;-0.99945068359375;-0.114471435546875;4.70999998810839;472;1 A;
10.2473589741279;-1.00006103515625;-0.114410400390625;4.71999998808315;473;1 A;
10.2573589741027;-0.99945068359375;-0.11431884765625;4.7299999880579;474;1 A;
10.2673589740774;-0.999755859375;-0.1142578125;4.73999998803265;475;1 A;
10.2773589740522;-0.999755859375;-0.114166259765625;4.7499999880074;476;1 A;
10.2873589740269;-0.99945068359375;-0.11407470703125;4.75999998798216;477;1 A;
10.2973589740017;-0.99945068359375;-0.114013671875;4.76999998795691;478;1 A;
10.3073589739764;-0.999755859375;-0.113922119140625;4.77999998793166;479;1 A;
10.3173589739512;-0.999755859375;-0.113861083984375;4.78999998790641;480;1 A;
10.3273589739259;-0.99945068359375;-0.11376953125;4.79999998788116;481;1 A;
10.3373589739007;-0.99945068359375;-0.11370849609375;4.80999998785592;482;1 A;
10.3473589738754;-1.00006103515625;-0.113616943359375;4.81999998783067;483;1 A;
10.3573589738502;-1.00006103515625;-0.113555908203125;4.82999998780542;484;1 A;
10.3673589738249;-0.999755859375;-0.113494873046875;4.83999998778017;485;1 A;
10.3773589737997;-0.999755859375;-0.1134033203125;4.84999998775493;486;1 A;
10.3873589737744;-1.0003662109375;-0.113311767578125;4.85999998772968;487;1 A;
10.3973589737492;-0.99945068359375;-0.113250732421875;4.86999998770443;488;1 A;
10.4073589737239;-0.99945068359375;-0.1131591796875;4.87999998767918;489;1 A;
10.4173589736987;-0.999755859375;-0.113128662109375;4.88999998765394;490;1 A;
10.4273589736734;-0.999755859375;-0.113006591796875;4.89999998762869;491;1 A;
10.4373589736482;-0.999755859375;-0.112945556640625;4.90999998760344;492;1 A;
10.447358973623;-0.999755859375;-0.112884521484375;4.91999998757819;493;1 A;
10.4573589735977;-0.99945068359375;-0.11279296875;4.92999998755295;494;1 A;
10.4673589735725;-0.999755859375;-0.112762451171875;4.9399999875277;495;1 A;
10.4773589735472;-1.00006103515625;-0.112640380859375;4.94999998750245;496;1 A;
10.487358973522;-0.99945068359375;-0.112579345703125;4.9599999874772;497;1 A;
10.4973589734967;-0.999755859375;-0.112518310546875;4.96999998745196;498;1 A;
10.5073589734715;-0.999755859375;-0.1124267578125;4.97999998742671;499;1 A;
10.5173589734462;-0.999755859375;-0.11236572265625;4.98999998740146;500;1 A;
10.527358973421;-1.00006103515625;-0.112274169921875;4.99999998737621;501;1 A;
10.5373589733957;-0.999755859375;-0.112213134765625;5.00999998735097;502;1 A;
10.5473589733705;-0.9991455078125;-0.11212158203125;5.01999998732572;503;1 A;
10.5573589733452;-1.00006103515625;-0.112060546875;5.02999998730047;504;1 A;
10.56735897332;-0.99945068359375;-0.11199951171875;5.03999998727522;505;1 A;
10.5773589732947;-1.00006103515625;-0.111907958984375;5.04999998724998;506;1 A;
10.5873589732695;-0.999755859375;-0.111846923828125;5.05999998722473;507;1 A;
10.5973589732442;-0.999755859375;-0.111785888671875;5.06999998719948;508;1 A;
10.607358973219;-0.99945068359375;-0.1116943359375;5.07999998717423;509;1 A;
10.6173589731937;-1.00006103515625;-0.111663818359375;5.08999998714899;510;1 A;
10.6273589731685;-0.99945068359375;-0.111572265625;5.09999998712374;511;1 A;
10.6373589731433;-0.99945068359375;-0.111480712890625;5.10999998709849;512;1 A;
10.647358973118;-0.9991455078125;-0.111419677734375;5.11999998707324;513;1 A;
10.6573589730928;-0.99945068359375;-0.111328125;5.129999987048;514;1 A;
10.6673589730675;-0.99945068359375;-0.111297607421875;5.13999998702275;515;1 A;
10.6773589730423;-0.9991455078125;-0.1112060546875;5.1499999869975;516;1 A;
10.687358973017;-0.999755859375;-0.111114501953125;5.15999998697225;517;1 A;
10.6973589729918;-0.999755859375;-0.111053466796875;5.169999986947;518;1 A;
10.7073589729665;-0.999755859375;-0.110992431640625;5.17999998692176;519;1 A;
10.7173589729413;-0.99945068359375;-0.110931396484375;5.18999998689651;520;1 A;
10.727358972916;-1.00006103515625;-0.11083984375;5.19999998687126;521;1 A;
10.7373589728908;-0.999755859375;-0.11077880859375;5.20999998684601;522;1 A;
10.7473589728655;-0.99945068359375;-0.1107177734375;5.21999998682077;523;1 A;
10.7573589728403;-0.99945068359375;-0.110626220703125;5.22999998679552;524;1 A;
10.767358972815;-0.99945068359375;-0.110595703125;5.23999998677027;525;1 A;
10.7773589727898;-0.999755859375;-0.110504150390625;5.24999998674502;526;1 A;
10.7873589727645;-0.99945068359375;-0.110443115234375;5.25999998671978;527;1 A;
10.7973589727393;-1.00006103515625;-0.110382080078125;5.26999998669453;528;1 A;
10.807358972714;-0.999755859375;-0.11029052734375;5.27999998666928;529;1 A;
10.8173589726888;-0.999755859375;-0.1102294921875;5.28999998664403;530;1 A;
10.8273589726635;-0.99945068359375;-0.110137939453125;5.29999998661879;531;1 A;
10.8373589726383;-0.999755859375;-0.110076904296875;5.30999998659354;532;1 A;
10.8473589726131;-0.999755859375;-0.110015869140625;5.31999998656829;533;1 A;
10.8573589725878;-1.00006103515625;-0.10992431640625;5.32999998654304;534;1 A;
10.8673589725626;-0.999755859375;-0.109893798828125;5.3399999865178;535;1 A;
10.8773589725373;-0.999755859375;-0.10980224609375;5.34999998649255;536;1 A;
10.8873589725121;-1.00006103515625;-0.1097412109375;5.3599999864673;537;1 A;
10.8973589724868;-0.999755859375;-0.10968017578125;5.36999998644205;538;1 A;
10.9073589724616;-0.99945068359375;-0.109588623046875;5.37999998641681;539;1 A;
10.9173589724363;-1.00006103515625;-0.10955810546875;5.38999998639156;540;1 A;
10.9273589724111;-1.00006103515625;-0.109466552734375;5.39999998636631;541;1 A;
10.9373589723858;-0.9991455078125;-0.109405517578125;5.40999998634106;542;1 A;
10.9473589723606;-0.999755859375;-0.109344482421875;5.41999998631582;543;1 A;
10.9573589723353;-0.99945068359375;-0.109283447265625;5.42999998629057;544;1 A;
10.9673589723101;-0.9991455078125;-0.109222412109375;5.43999998626532;545;1 A;
10.9773589722848;-1.00006103515625;-0.109130859375;5.44999998624007;546;1 A;
10.9873589722596;-0.99945068359375;-0.10906982421875;5.45999998621483;547;1 A;
10.9973589722343;-1.00006103515625;-0.1090087890625;5.46999998618958;548;1 A;
11.0073589722091;-1.00006103515625;-0.108917236328125;5.47999998616433;549;1 A;
11.0173589721838;-0.999755859375;-0.10888671875;5.48999998613908;550;1 A;
11.0273589721586;-0.999755859375;-0.108795166015625;5.49999998611383;551;1 A;
11.0373589721333;-0.999755859375;-0.108734130859375;5.50999998608859;552;1 A;
11.0473589721081;-0.999755859375;-0.108673095703125;5.51999998606334;553;1 A;
11.0573589720829;-0.999755859375;-0.10858154296875;5.52999998603809;554;1 A;
11.0673589720576;-0.99945068359375;-0.108551025390625;5.53999998601284;555;1 A;
11.0773589720324;-0.999755859375;-0.10845947265625;5.5499999859876;556;1 A;
11.0873589720071;-0.999755859375;-0.1083984375;5.55999998596235;557;1 A;
11.0973589719819;-0.99945068359375;-0.10833740234375;5.5699999859371;558;1 A;
11.1073589719566;-1.00006103515625;-0.108245849609375;5.57999998591185;559;1 A;
11.1173589719314;-1.00006103515625;-0.10821533203125;5.58999998588661;560;1 A;
11.1273589719061;-0.999755859375;-0.108123779296875;5.59999998586136;561;1 A;
11.1373589718809;-1.00006103515625;-0.108062744140625;5.60999998583611;562;1 A;
11.1473589718556;-1.00006103515625;-0.108001708984375;5.61999998581086;563;1 A;
11.1573589718304;-1.00006103515625;-0.10791015625;5.62999998578562;564;1 A;
11.1673589718051;-0.999755859375;-0.107879638671875;5.63999998576037;565;1 A;
11.1773589717799;-1.00006103515625;-0.1077880859375;5.64999998573512;566;1 A;
11.1873589717546;-0.99945068359375;-0.10772705078125;5.65999998570987;567;1 A;
11.1973589717294;-0.99945068359375;-0.107666015625;5.66999998568463;568;1 A;
11.2073589717041;-0.99945068359375;-0.10760498046875;5.67999998565938;569;1 A;
11.2173589716789;-1.00006103515625;-0.1075439453125;5.68999998563413;570;1 A;
11.2273589716536;-1.0003662109375;-0.107452392578125;5.69999998560888;571;1 A;
11.2373589716284;-0.999755859375;-0.107391357421875;5.70999998558364;572;1 A;
11.2473589716031;-0.9991455078125;-0.107330322265625;5.71999998555839;573;1 A;
11.2573589715779;-0.99945068359375;-0.107269287109375;5.72999998553314;574;1 A;
11.2673589715527;-0.99945068359375;-0.10723876953125;5.73999998550789;575;1 A;
11.2773589715274;-0.999755859375;-0.107147216796875;5.74999998548265;576;1 A;
11.2873589715022;-0.99945068359375;-0.107086181640625;5.7599999854574;577;1 A;
11.2973589714769;-0.999755859375;-0.107025146484375;5.76999998543215;578;1 A;
11.3073589714517;-0.99945068359375;-0.10693359375;5.7799999854069;579;1 A;
11.3173589714264;-0.999755859375;-0.106903076171875;5.78999998538166;580;1 A;
11.3273589714012;-0.99945068359375;-0.1068115234375;5.79999998535641;581;1 A;
11.3373589713759;-1.00067138671875;-0.10675048828125;5.80999998533116;582;1 A;
11.3473589713507;-1.00006103515625;-0.106689453125;5.81999998530591;583;1 A;
11.3573589713254;-0.999755859375;-0.10662841796875;5.82999998528066;584;1 A;
11.3673589713002;-0.999755859375;-0.106597900390625;5.83999998525542;585;1 A;
11.3773589712749;-0.99945068359375;-0.10650634765625;5.84999998523017;586;1 A;
11.3873589712497;-0.99945068359375;-0.1064453125;5.85999998520492;587;1 A;
11.3973589712244;-0.99945068359375;-0.10638427734375;5.86999998517967;588;1 A;
11.4073589711992;-0.999755859375;-0.1063232421875;5.87999998515443;589;1 A;
11.4173589711739;-0.999755859375;-0.10626220703125;5.88999998512918;590;1 A;
11.4273589711487;-0.99945068359375;-0.106201171875;5.89999998510393;591;1 A;
11.4373589711234;-0.999755859375;-0.10614013671875;5.90999998507868;592;1 A;
11.4473589710982;-0.99945068359375;-0.1060791015625;5.91999998505344;593;1 A;
11.4573589710729;-0.99945068359375;-0.10601806640625;5.92999998502819;594;1 A;
11.4673589710477;-1.00006103515625;-0.10595703125;5.93999998500294;595;1 A;
11.4773589710225;-0.99945068359375;-0.10589599609375;5.94999998497769;596;1 A;
11.4873589709972;-0.99945068359375;-0.1058349609375;5.95999998495245;597;1 A;
11.497358970972;-0.999755859375;-0.10577392578125;5.9699999849272;598;1 A;
11.5073589709467;-0.9991455078125;-0.105712890625;5.97999998490195;599;1 A;
11.5173589709215;-0.999755859375;-0.10565185546875;5.9899999848767;600;1 A;
11.5273589708962;-0.999755859375;-0.1055908203125;5.99999998485146;601;1 A;
11.537358970871;-0.9991455078125;-0.10552978515625;6.00999998482621;602;1 A;
11.5473589708457;-0.999755859375;-0.10546875;6.01999998480096;603;1 A;
11.5573589708205;-1.00006103515625;-0.105377197265625;6.02999998477571;604;1 A;
11.5673589707952;-0.99945068359375;-0.1053466796875;6.03999998475047;605;1 A;
11.57735897077;-0.99945068359375;-0.10528564453125;6.04999998472522;606;1 A;
11.5873589707447;-1.0003662109375;-0.105224609375;6.05999998469997;607;1 A;
11.5973589707195;-0.999755859375;-0.10516357421875;6.06999998467472;608;1 A;
11.6073589706942;-0.999755859375;-0.1051025390625;6.07999998464948;609;1 A;
11.617358970669;-0.999755859375;-0.105072021484375;6.08999998462423;610;1 A;
11.6273589706437;-0.9991455078125;-0.10498046875;6.09999998459898;611;1 A;
11.6373589706185;-1.00006103515625;-0.104949951171875;6.10999998457373;612;1 A;
11.6473589705932;-0.999755859375;-0.104888916015625;6.11999998454849;613;1 A;
11.657358970568;-0.99945068359375;-0.104827880859375;6.12999998452324;614;1 A;
11.6673589705428;-0.999755859375;-0.10479736328125;6.13999998449799;615;1 A;
11.6773589705175;-0.999755859375;-0.104705810546875;6.14999998447274;616;1 A;
11.6873589704923;-0.999755859375;-0.104644775390625;6.1599999844475;617;1 A;
11.697358970467;-0.9991455078125;-0.104583740234375;6.16999998442225;618;1 A;
11.7073589704418;-0.9991455078125;-0.104522705078125;6.179999984397;619;1 A;
11.7173589704165;-1.00006103515625;-0.1044921875;6.18999998437175;620;1 A;
11.7273589703913;-0.999755859375;-0.10443115234375;6.1999999843465;621;1 A;
11.737358970366;-0.99945068359375;-0.1043701171875;6.20999998432126;622;1 A;
11.7473589703408;-0.999755859375;-0.10430908203125;6.21999998429601;623;1 A;
11.7573589703155;-0.99945068359375;-0.104248046875;6.22999998427076;624;1 A;
11.7673589702903;-0.99945068359375;-0.104217529296875;6.23999998424551;625;1 A;
11.777358970265;-0.999755859375;-0.104156494140625;6.24999998422027;626;1 A;
11.7873589702398;-0.99945068359375;-0.104095458984375;6.25999998419502;627;1 A;
11.7973589702145;-0.999755859375;-0.104034423828125;6.26999998416977;628;1 A;
11.8073589701893;-0.999755859375;-0.103973388671875;6.27999998414452;629;1 A;
11.817358970164;-1.00006103515625;-0.10394287109375;6.28999998411928;630;1 A;
11.8273589701388;-0.99945068359375;-0.1038818359375;6.29999998409403;631;1 A;
11.8373589701135;-0.99945068359375;-0.10382080078125;6.30999998406878;632;1 A;
11.8473589700883;-0.999755859375;-0.103790283203125;6.31999998404353;633;1 A;
11.857358970063;-0.999755859375;-0.10369873046875;6.32999998401829;634;1 A;
11.8673589700378;-0.99945068359375;-0.103668212890625;6.33999998399304;635;1 A;
11.8773589700126;-0.99945068359375;-0.103607177734375;6.34999998396779;636;1 A;
11.8873589699873;-0.999755859375;-0.103546142578125;6.35999998394254;637;1 A;
11.8973589699621;-1.00006103515625;-0.103515625;6.3699999839173;638;1 A;
11.9073589699368;-1.00006103515625;-0.103424072265625;6.37999998389205;639;1 A;
11.9173589699116;-0.999755859375;-0.103424072265625;6.3899999838668;640;1 A;
11.9273589698863;-0.99945068359375;-0.10333251953125;6.39999998384155;641;1 A;
11.9373589698611;-0.99945068359375;-0.103302001953125;6.40999998381631;642;1 A;
11.9473589698358;-0.99945068359375;-0.103240966796875;6.41999998379106;643;1 A;
11.9573589698106;-0.9991455078125;-0.103179931640625;6.42999998376581;644;1 A;
11.9673589697853;-0.999755859375;-0.103179931640625;6.43999998374056;645;1 A;
11.9773589697601;-1.00006103515625;-0.10308837890625;6.44999998371532;646;1 A;
11.9873589697348;-0.99945068359375;-0.10302734375;6.45999998369007;647;1 A;
11.9973589697096;-0.99945068359375;-0.102996826171875;6.46999998366482;648;1 A;
12.0073589696843;-0.999755859375;-0.102935791015625;6.47999998363957;649;1 A;
12.0173589696591;-1.0003662109375;-0.1029052734375;6.48999998361433;650;1 A;
12.0273589696338;-1.00006103515625;-0.10284423828125;6.49999998358908;651;1 A;
12.0373589696086;-0.999755859375;-0.102783203125;6.50999998356383;652;1 A;
12.0473589695833;-1.00006103515625;-0.102752685546875;6.51999998353858;653;1 A;
12.0573589695581;-0.999755859375;-0.102691650390625;6.52999998351333;654;1 A;
12.0673589695328;-1.00006103515625;-0.1026611328125;6.53999998348809;655;1 A;
12.0773589695076;-0.9991455078125;-0.10260009765625;6.54999998346284;656;1 A;
12.0873589694824;-0.999755859375;-0.1025390625;6.55999998343759;657;1 A;
12.0973589694571;-0.99945068359375;-0.102508544921875;6.56999998341234;658;1 A;
12.1073589694319;-0.99945068359375;-0.102447509765625;6.5799999833871;659;1 A;
12.1173589694066;-0.9991455078125;-0.1024169921875;6.58999998336185;660;1 A;
12.1273589693814;-0.9991455078125;-0.102386474609375;6.5999999833366;661;1 A;
12.1373589693561;-1.00006103515625;-0.102294921875;6.60999998331135;662;1 A;
12.1473589693309;-0.999755859375;-0.102264404296875;6.61999998328611;663;1 A;
12.1573589693056;-0.99945068359375;-0.102203369140625;6.62999998326086;664;1 A;
12.1673589692804;-0.999755859375;-0.102203369140625;6.63999998323561;665;1 A;
12.1773589692551;-0.9991455078125;-0.10211181640625;6.64999998321036;666;1 A;
12.1873589692299;-0.999755859375;-0.102081298828125;6.65999998318512;667;1 A;
12.1973589692046;-1.00006103515625;-0.10205078125;6.66999998315987;668;1 A;
12.2073589691794;-1.00006103515625;-0.101959228515625;6.67999998313462;669;1 A;
12.2173589691541;-1.00006103515625;-0.101959228515625;6.68999998310937;670;1 A;
12.2273589691289;-1.00006103515625;-0.101898193359375;6.69999998308413;671;1 A;
12.2373589691036;-0.99884033203125;-0.101837158203125;6.70999998305888;672;1 A;
12.2473589690784;-0.99945068359375;-0.101837158203125;6.71999998303363;673;1 A;
12.2573589690531;-1.00006103515625;-0.10174560546875;6.72999998300838;674;1 A;
12.2673589690279;-0.99945068359375;-0.10174560546875;6.73999998298314;675;1 A;
12.2773589690026;-1.00006103515625;-0.1016845703125;6.74999998295789;676;1 A;
12.2873589689774;-0.999755859375;-0.10162353515625;6.75999998293264;677;1 A;
12.2973589689522;-0.999755859375;-0.101593017578125;6.76999998290739;678;1 A;
12.3073589689269;-0.999755859375;-0.101531982421875;6.77999998288215;679;1 A;
12.3173589689017;-0.99945068359375;-0.101531982421875;6.7899999828569;680;1 A;
12.3273589688764;-0.999755859375;-0.101470947265625;6.79999998283165;681;1 A;
12.3373589688512;-1.00006103515625;-0.101409912109375;6.8099999828064;682;1 A;
12.3473589688259;-0.99945068359375;-0.10137939453125;6.81999998278116;683;1 A;
12.3573589688007;-0.999755859375;-0.101318359375;6.82999998275591;684;1 A;
12.3673589687754;-0.99945068359375;-0.101287841796875;6.83999998273066;685;1 A;
12.3773589687502;-1.00006103515625;-0.101226806640625;6.84999998270541;686;1 A;
12.3873589687249;-0.99945068359375;-0.1011962890625;6.85999998268016;687;1 A;
12.3973589686997;-1.00006103515625;-0.101165771484375;6.86999998265492;688;1 A;
12.4073589686744;-1.00006103515625;-0.101104736328125;6.87999998262967;689;1 A;
12.4173589686492;-0.99945068359375;-0.101104736328125;6.88999998260442;690;1 A;
12.4273589686239;-0.999755859375;-0.101043701171875;6.89999998257917;691;1 A;
12.4373589685987;-0.999755859375;-0.10101318359375;6.90999998255393;692;1 A;
12.4473589685734;-0.999755859375;-0.100982666015625;6.91999998252868;693;1 A;
12.4573589685482;-0.999755859375;-0.100921630859375;6.92999998250343;694;1 A;
12.4673589685229;-0.9991455078125;-0.10089111328125;6.93999998247818;695;1 A;
12.4773589684977;-1.00006103515625;-0.100830078125;6.94999998245294;696;1 A;
12.4873589684724;-0.999755859375;-0.100799560546875;6.95999998242769;697;1 A;
12.4973589684472;-0.9991455078125;-0.10076904296875;6.96999998240244;698;1 A;
12.507358968422;-0.999755859375;-0.1007080078125;6.97999998237719;699;1 A;
12.5173589683967;-0.99945068359375;-0.1007080078125;6.98999998235195;700;1 A;
12.5273589683715;-0.999755859375;-0.10064697265625;6.9999999823267;701;1 A;
12.5373589683462;-0.99945068359375;-0.100616455078125;7.00999998230145;702;1 A;
12.547358968321;-0.999755859375;-0.100555419921875;7.0199999822762;703;1 A;
12.5573589682957;-0.999755859375;-0.10052490234375;7.02999998225096;704;1 A;
12.5673589682705;-0.999755859375;-0.100494384765625;7.03999998222571;705;1 A;
12.5773589682452;-0.999755859375;-0.1004638671875;7.04999998220046;706;1 A;
12.58735896822;-0.999755859375;-0.10040283203125;7.05999998217521;707;1 A;
12.5973589681947;-0.999755859375;-0.100372314453125;7.06999998214997;708;1 A;
12.6073589681695;-0.99945068359375;-0.100341796875;7.07999998212472;709;1 A;
12.6173589681442;-1.00006103515625;-0.100311279296875;7.08999998209947;710;1 A;
12.627358968119;-1.00006103515625;-0.10028076171875;7.09999998207422;711;1 A;
12.6373589680937;-0.9991455078125;-0.1002197265625;7.10999998204898;712;1 A;
12.6473589680685;-1.00006103515625;-0.100189208984375;7.11999998202373;713;1 A;
12.6573589680432;-0.999755859375;-0.10015869140625;7.12999998199848;714;1 A;
12.667358968018;-1.00006103515625;-0.100128173828125;7.13999998197323;715;1 A;
12.6773589679927;-0.999755859375;-0.10009765625;7.14999998194799;716;1 A;
12.6873589679675;-0.99945068359375;-0.10003662109375;7.15999998192274;717;1 A;
12.6973589679423;-0.9991455078125;-0.10003662109375;7.16999998189749;718;1 A;
12.707358967917;-0.99945068359375;-0.0999755859375;7.17999998187224;719;1 A;
12.7173589678918;-0.99945068359375;-0.0999755859375;7.189999981847;720;1 A;
12.7273589678665;-0.99945068359375;-0.09991455078125;7.19999998182175;721;1 A;
12.7373589678413;-1.00006103515625;-0.099884033203125;7.2099999817965;722;1 A;
12.747358967816;-0.99945068359375;-0.099853515625;7.21999998177125;723;1 A;
12.7573589677908;-0.99945068359375;-0.099822998046875;7.229999981746;724;1 A;
12.7673589677655;-0.999755859375;-0.099822998046875;7.23999998172076;725;1 A;
12.7773589677403;-1.00006103515625;-0.099761962890625;7.24999998169551;726;1 A;
12.787358967715;-0.99945068359375;-0.0997314453125;7.25999998167026;727;1 A;
12.7973589676898;-0.99945068359375;-0.099700927734375;7.26999998164501;728;1 A;
12.8073589676645;-0.99945068359375;-0.09967041015625;7.27999998161977;729;1 A;
12.8173589676393;-0.999755859375;-0.09967041015625;7.28999998159452;730;1 A;
12.827358967614;-0.999755859375;-0.099609375;7.29999998156927;731;1 A;
12.8373589675888;-0.999755859375;-0.099578857421875;7.30999998154402;732;1 A;
12.8473589675635;-0.99945068359375;-0.09954833984375;7.31999998151878;733;1 A;
12.8573589675383;-0.9991455078125;-0.099517822265625;7.32999998149353;734;1 A;
12.867358967513;-0.99945068359375;-0.099578857421875;7.33999998146828;735;1 A;
12.8773589674878;-0.99945068359375;-0.099517822265625;7.34999998144303;736;1 A;
12.8873589674625;-1.00006103515625;-0.099456787109375;7.35999998141779;737;1 A;
12.8973589674373;-1.00006103515625;-0.099456787109375;7.36999998139254;738;1 A;
12.9073589674121;-0.999755859375;-0.099395751953125;7.37999998136729;739;1 A;
12.9173589673868;-0.99945068359375;-0.099395751953125;7.38999998134204;740;1 A;
12.9273589673616;-0.999755859375;-0.099365234375;7.3999999813168;741;1 A;
12.9373589673363;-0.999755859375;-0.099334716796875;7.40999998129155;742;1 A;
12.9473589673111;-0.99945068359375;-0.09930419921875;7.4199999812663;743;1 A;
12.9573589672858;-0.99945068359375;-0.099273681640625;7.42999998124105;744;1 A;
12.9673589672606;-0.999755859375;-0.099273681640625;7.43999998121581;745;1 A;
12.9773589672353;-1.00006103515625;-0.099212646484375;7.44999998119056;746;1 A;
12.9873589672101;-0.9991455078125;-0.09918212890625;7.45999998116531;747;1 A;
12.9973589671848;-0.99945068359375;-0.09918212890625;7.46999998114006;748;1 A;
13.0073589671596;-0.99945068359375;-0.09912109375;7.47999998111482;749;1 A;
13.0173589671343;-1.00006103515625;-0.099151611328125;7.48999998108957;750;1 A;
13.0273589671091;-0.99945068359375;-0.099090576171875;7.49999998106432;751;1 A;
13.0373589670838;-0.999755859375;-0.09906005859375;7.50999998103907;752;1 A;
13.0473589670586;-0.999755859375;-0.09906005859375;7.51999998101383;753;1 A;
13.0573589670333;-0.999755859375;-0.099029541015625;7.52999998098858;754;1 A;
13.0673589670081;-0.999755859375;-0.099029541015625;7.53999998096333;755;1 A;
13.0773589669828;-1.00006103515625;-0.0989990234375;7.54999998093808;756;1 A;
13.0873589669576;-1.00006103515625;-0.098968505859375;7.55999998091283;757;1 A;
13.0973589669323;-1.0003662109375;-0.098968505859375;7.56999998088759;758;1 A;
13.1073589669071;-0.999755859375;-0.098907470703125;7.57999998086234;759;1 A;
13.1173589668819;-0.999755859375;-0.09893798828125;7.58999998083709;760;1 A;
13.1273589668566;-0.99945068359375;-0.098876953125;7.59999998081184;761;1 A;
13.1373589668314;-0.99945068359375;-0.098846435546875;7.6099999807866;762;1 A;
13.1473589668061;-0.999755859375;-0.098846435546875;7.61999998076135;763;1 A;
13.1573589667809;-0.999755859375;-0.09881591796875;7.6299999807361;764;1 A;
13.1673589667556;-0.999755859375;-0.09881591796875;7.63999998071085;765;1 A;
13.1773589667304;-1.00006103515625;-0.098785400390625;7.64999998068561;766;1 A;
13.1873589667051;-0.99945068359375;-0.0987548828125;7.65999998066036;767;1 A;
13.1973589666799;-1.00006103515625;-0.098724365234375;7.66999998063511;768;1 A;
13.2073589666546;-1.00006103515625;-0.09869384765625;7.67999998060986;769;1 A;
13.2173589666294;-0.99945068359375;-0.09869384765625;7.68999998058462;770;1 A;
13.2273589666041;-0.99945068359375;-0.098663330078125;7.69999998055937;771;1 A;
13.2373589665789;-0.999755859375;-0.0986328125;7.70999998053412;772;1 A;
13.2473589665536;-0.99945068359375;-0.0986328125;7.71999998050887;773;1 A;
13.2573589665284;-0.999755859375;-0.098602294921875;7.72999998048363;774;1 A;
13.2673589665031;-0.999755859375;-0.098602294921875;7.73999998045838;775;1 A;
13.2773589664779;-0.999755859375;-0.09857177734375;7.74999998043313;776;1 A;
13.2873589664526;-0.999755859375;-0.098541259765625;7.75999998040788;777;1 A;
13.2973589664274;-0.99853515625;-0.098541259765625;7.76999998038264;778;1 A;
13.3073589664021;-1.00006103515625;-0.098480224609375;7.77999998035739;779;1 A;
13.3173589663769;-0.999755859375;-0.0985107421875;7.78999998033214;780;1 A;
13.3273589663517;-0.999755859375;-0.098480224609375;7.79999998030689;781;1 A;
13.3373589663264;-1.00006103515625;-0.09844970703125;7.80999998028165;782;1 A;
13.3473589663012;-0.999755859375;-0.09844970703125;7.8199999802564;783;1 A;
13.3573589662759;-1.00006103515625;-0.098388671875;7.82999998023115;784;1 A;
13.3673589662507;-1.00006103515625;-0.098419189453125;7.8399999802059;785;1 A;
13.3773589662254;-0.999755859375;-0.098388671875;7.84999998018066;786;1 A;
13.3873589662002;-0.99945068359375;-0.098358154296875;7.85999998015541;787;1 A;
13.3973589661749;-0.99945068359375;-0.098358154296875;7.86999998013016;788;1 A;
13.4073589661497;-0.99945068359375;-0.09832763671875;7.87999998010491;789;1 A;
13.4173589661244;-0.999755859375;-0.098358154296875;7.88999998007966;790;1 A;
13.4273589660992;-1.0003662109375;-0.09832763671875;7.89999998005442;791;1 A;
13.4373589660739;-0.9991455078125;-0.098297119140625;7.90999998002917;792;1 A;
13.4473589660487;-0.99945068359375;-0.098297119140625;7.91999998000392;793;1 A;
13.4573589660234;-0.999755859375;-0.0982666015625;7.92999997997867;794;1 A;
13.4673589659982;-0.999755859375;-0.098297119140625;7.93999997995343;795;1 A;
13.4773589659729;-0.9991455078125;-0.0982666015625;7.94999997992818;796;1 A;
13.4873589659477;-0.99945068359375;-0.098236083984375;7.95999997990293;797;1 A;
13.4973589659224;-0.999755859375;-0.098236083984375;7.96999997987768;798;1 A;
13.5073589658972;-1.00006103515625;-0.09820556640625;7.97999997985244;799;1 A;
13.5173589658719;-1.00006103515625;-0.098236083984375;7.98999997982719;800;1 A;
13.5273589658467;-0.9991455078125;-0.09820556640625;7.99999997980194;801;1 A;
13.5373589658215;-0.99945068359375;-0.09820556640625;8.00999997977669;802;1 A;
13.5473589657962;-0.999755859375;-0.09820556640625;8.01999997975145;803;1 A;
13.557358965771;-0.999755859375;-0.098175048828125;8.0299999797262;804;1 A;
13.5673589657457;-1.00006103515625;-0.09820556640625;8.03999997970095;805;1 A;
13.5773589657205;-0.9991455078125;-0.098175048828125;8.0499999796757;806;1 A;
13.5873589656952;-0.99884033203125;-0.098175048828125;8.05999997965046;807;1 A;
13.59735896567;-0.999755859375;-0.098175048828125;8.06999997962521;808;1 A;
13.6073589656447;-1.0003662109375;-0.09814453125;8.07999997959996;809;1 A;
13.6173589656195;-0.9991455078125;-0.098175048828125;8.08999997957471;810;1 A;
13.6273589655942;-0.99945068359375;-0.09814453125;8.09999997954947;811;1 A;
13.637358965569;-1.00006103515625;-0.09814453125;8.10999997952422;812;1 A;
13.6473589655437;-1.0003662109375;-0.09814453125;8.11999997949897;813;1 A;
13.6573589655185;-0.999755859375;-0.098114013671875;8.12999997947372;814;1 A;
13.6673589654932;-0.99945068359375;-0.09814453125;8.13999997944848;815;1 A;
13.677358965468;-0.99945068359375;-0.09814453125;8.14999997942323;816;1 A;
13.6873589654427;-0.999755859375;-0.098114013671875;8.15999997939798;817;1 A;
13.6973589654175;-0.99945068359375;-0.098114013671875;8.16999997937273;818;1 A;
13.7073589653922;-0.999755859375;-0.098114013671875;8.17999997934749;819;1 A;
13.717358965367;-0.999755859375;-0.09814453125;8.18999997932224;820;1 A;
13.7273589653418;-0.99945068359375;-0.098114013671875;8.19999997929699;821;1 A;
13.7373589653165;-1.00006103515625;-0.098114013671875;8.20999997927174;822;1 A;
13.7473589652913;-0.999755859375;-0.098114013671875;8.2199999792465;823;1 A;
13.757358965266;-0.99945068359375;-0.098114013671875;8.22999997922125;824;1 A;
13.7673589652408;-0.999755859375;-0.098114013671875;8.239999979196;825;1 A;
13.7773589652155;-0.99945068359375;-0.098114013671875;8.24999997917075;826;1 A;
13.7873589651903;-0.99945068359375;-0.098114013671875;8.2599999791455;827;1 A;
13.797358965165;-0.99945068359375;-0.098114013671875;8.26999997912026;828;1 A;
13.8073589651398;-1.00006103515625;-0.09808349609375;8.27999997909501;829;1 A;
13.8173589651145;-0.99945068359375;-0.098114013671875;8.28999997906976;830;1 A;
13.8273589650893;-0.9991455078125;-0.09808349609375;8.29999997904451;831;1 A;
13.837358965064;-0.99945068359375;-0.09808349609375;8.30999997901927;832;1 A;
13.8473589650388;-1.00006103515625;-0.09808349609375;8.31999997899402;833;1 A;
13.8573589650135;-0.99945068359375;-0.09808349609375;8.32999997896877;834;1 A;
13.8673589649883;-0.999755859375;-0.098114013671875;8.33999997894352;835;1 A;
13.877358964963;-0.999755859375;-0.098114013671875;8.34999997891828;836;1 A;
13.8873589649378;-0.99945068359375;-0.098114013671875;8.35999997889303;837;1 A;
13.8973589649125;-1.00006103515625;-0.098114013671875;8.36999997886778;838;1 A;
13.9073589648873;-0.999755859375;-0.098114013671875;8.37999997884253;839;1 A;
13.917358964862;-0.99945068359375;-0.09814453125;8.38999997881729;840;1 A;
13.9273589648368;-0.99945068359375;-0.098114013671875;8.39999997879204;841;1 A;
13.9373589648116;-0.999755859375;-0.098114013671875;8.40999997876679;842;1 A;
13.9473589647863;-0.99945068359375;-0.098114013671875;8.41999997874154;843;1 A;
13.9573589647611;-0.999755859375;-0.098114013671875;8.4299999787163;844;1 A;
13.9673589647358;-1.0003662109375;-0.098114013671875;8.43999997869105;845;1 A;
13.9773589647106;-0.999755859375;-0.098114013671875;8.4499999786658;846;1 A;
13.9873589646853;-0.99945068359375;-0.09808349609375;8.45999997864055;847;1 A;
13.9973589646601;-0.99945068359375;-0.09808349609375;8.46999997861531;848;1 A;
14.0073589646348;-0.99945068359375;-0.09808349609375;8.47999997859006;849;1 A;
14.0173589646096;-1.00006103515625;-0.098114013671875;8.48999997856481;850;1 A;
14.0273589645843;-0.99945068359375;-0.09808349609375;8.49999997853956;851;1 A;
14.0373589645591;-0.999755859375;-0.09808349609375;8.50999997851432;852;1 A;
14.0473589645338;-1.00006103515625;-0.09808349609375;8.51999997848907;853;1 A;
14.0573589645086;-0.999755859375;-0.09808349609375;8.52999997846382;854;1 A;
14.0673589644833;-0.999755859375;-0.098114013671875;8.53999997843857;855;1 A;
14.0773589644581;-1.00006103515625;-0.09808349609375;8.54999997841333;856;1 A;
14.0873589644328;-0.999755859375;-0.09808349609375;8.55999997838808;857;1 A;
14.0973589644076;-0.99945068359375;-0.09808349609375;8.56999997836283;858;1 A;
14.1073589643823;-0.99945068359375;-0.098052978515625;8.57999997833758;859;1 A;
14.1173589643571;-1.00006103515625;-0.09808349609375;8.58999997831233;860;1 A;
14.1273589643318;-0.9991455078125;-0.098052978515625;8.59999997828709;861;1 A;
14.1373589643066;-0.99945068359375;-0.098052978515625;8.60999997826184;862;1 A;
14.1473589642814;-0.99945068359375;-0.098052978515625;8.61999997823659;863;1 A;
14.1573589642561;-0.999755859375;-0.0980224609375;8.62999997821134;864;1 A;
14.1673589642309;-0.999755859375;-0.098052978515625;8.6399999781861;865;1 A;
14.1773589642056;-1.00006103515625;-0.098052978515625;8.64999997816085;866;1 A;
14.1873589641804;-1.00006103515625;-0.098052978515625;8.6599999781356;867;1 A;
14.1973589641551;-0.99945068359375;-0.098052978515625;8.66999997811035;868;1 A;
14.2073589641299;-1.00006103515625;-0.0980224609375;8.67999997808511;869;1 A;
14.2173589641046;-0.999755859375;-0.098052978515625;8.68999997805986;870;1 A;
14.2273589640794;-0.99945068359375;-0.0980224609375;8.69999997803461;871;1 A;
14.2373589640541;-1.00006103515625;-0.0980224609375;8.70999997800936;872;1 A;
14.2473589640289;-1.00006103515625;-0.0980224609375;8.71999997798412;873;1 A;
14.2573589640036;-0.99945068359375;-0.097991943359375;8.72999997795887;874;1 A;
14.2673589639784;-0.99945068359375;-0.0980224609375;8.73999997793362;875;1 A;
14.2773589639531;-1.00006103515625;-0.097991943359375;8.74999997790837;876;1 A;
14.2873589639279;-0.99945068359375;-0.097991943359375;8.75999997788313;877;1 A;
14.2973589639026;-1.00067138671875;-0.097991943359375;8.76999997785788;878;1 A;
14.3073589638774;-0.999755859375;-0.09796142578125;8.77999997783263;879;1 A;
14.3173589638521;-0.99945068359375;-0.097991943359375;8.78999997780738;880;1 A;
14.3273589638269;-0.99945068359375;-0.097991943359375;8.79999997778214;881;1 A;
14.3373589638016;-0.999755859375;-0.09796142578125;8.80999997775689;882;1 A;
14.3473589637764;-0.99945068359375;-0.09796142578125;8.81999997773164;883;1 A;
14.3573589637512;-0.999755859375;-0.097930908203125;8.82999997770639;884;1 A;
14.3673589637259;-0.99945068359375;-0.09796142578125;8.83999997768115;885;1 A;
14.3773589637007;-0.9991455078125;-0.09796142578125;8.8499999776559;886;1 A;
14.3873589636754;-1.00006103515625;-0.097930908203125;8.85999997763065;887;1 A;
14.3973589636502;-1.00006103515625;-0.097930908203125;8.8699999776054;888;1 A;
14.4073589636249;-0.9991455078125;-0.097930908203125;8.87999997758016;889;1 A;
14.4173589635997;-0.9991455078125;-0.097930908203125;8.88999997755491;890;1 A;
14.4273589635744;-0.99945068359375;-0.097930908203125;8.89999997752966;891;1 A;
14.4373589635492;-0.99945068359375;-0.097900390625;8.90999997750441;892;1 A;
14.4473589635239;-0.999755859375;-0.097900390625;8.91999997747916;893;1 A;
14.4573589634987;-0.999755859375;-0.097869873046875;8.92999997745392;894;1 A;
14.4673589634734;-0.999755859375;-0.097900390625;8.93999997742867;895;1 A;
14.4773589634482;-0.99945068359375;-0.097869873046875;8.94999997740342;896;1 A;
14.4873589634229;-1.00006103515625;-0.097869873046875;8.95999997737817;897;1 A;
14.4973589633977;-0.999755859375;-0.097869873046875;8.96999997735293;898;1 A;
14.5073589633724;-0.9991455078125;-0.09783935546875;8.97999997732768;899;1 A;
14.5173589633472;-0.999755859375;-0.097869873046875;8.98999997730243;900;1 A;
14.5273589633219;-1.00006103515625;-0.097869873046875;8.99999997727718;901;1 A;
14.5373589632967;-0.999755859375;-0.09783935546875;9.00999997725194;902;1 A;
14.5473589632714;-0.999755859375;-0.097869873046875;9.01999997722669;903;1 A;
14.5573589632462;-0.999755859375;-0.09783935546875;9.02999997720144;904;1 A;
14.567358963221;-0.999755859375;-0.09783935546875;9.03999997717619;905;1 A;
14.5773589631957;-0.999755859375;-0.09783935546875;9.04999997715095;906;1 A;
14.5873589631705;-0.99945068359375;-0.097808837890625;9.0599999771257;907;1 A;
14.5973589631452;-0.999755859375;-0.097808837890625;9.06999997710045;908;1 A;
14.60735896312;-0.9991455078125;-0.0977783203125;9.0799999770752;909;1 A;
14.6173589630947;-0.999755859375;-0.097808837890625;9.08999997704996;910;1 A;
14.6273589630695;-0.99945068359375;-0.0977783203125;9.09999997702471;911;1 A;
14.6373589630442;-0.9991455078125;-0.0977783203125;9.10999997699946;912;1 A;
14.647358963019;-0.99945068359375;-0.0977783203125;9.11999997697421;913;1 A;
14.6573589629937;-0.99945068359375;-0.097747802734375;9.12999997694897;914;1 A;
14.6673589629685;-1.0003662109375;-0.0977783203125;9.13999997692372;915;1 A;
14.6773589629432;-1.0003662109375;-0.0977783203125;9.14999997689847;916;1 A;
14.687358962918;-0.99945068359375;-0.097747802734375;9.15999997687322;917;1 A;
14.6973589628927;-0.99945068359375;-0.097747802734375;9.16999997684798;918;1 A;
14.7073589628675;-0.99945068359375;-0.09771728515625;9.17999997682273;919;1 A;
14.7173589628422;-0.999755859375;-0.097747802734375;9.18999997679748;920;1 A;
14.727358962817;-0.99945068359375;-0.09771728515625;9.19999997677223;921;1 A;
14.7373589627917;-0.9991455078125;-0.09771728515625;9.20999997674699;922;1 A;
14.7473589627665;-0.999755859375;-0.09771728515625;9.21999997672174;923;1 A;
14.7573589627413;-0.9991455078125;-0.09765625;9.22999997669649;924;1 A;
14.767358962716;-0.999755859375;-0.097686767578125;9.23999997667124;925;1 A;
14.7773589626908;-0.99945068359375;-0.09765625;9.249999976646;926;1 A;
14.7873589626655;-0.99945068359375;-0.09765625;9.25999997662075;927;1 A;
14.7973589626403;-0.999755859375;-0.09765625;9.2699999765955;928;1 A;
14.807358962615;-0.999755859375;-0.097625732421875;9.27999997657025;929;1 A;
14.8173589625898;-1.00006103515625;-0.09765625;9.289999976545;930;1 A;
14.8273589625645;-0.99945068359375;-0.097625732421875;9.29999997651976;931;1 A;
14.8373589625393;-0.999755859375;-0.09759521484375;9.30999997649451;932;1 A;
14.847358962514;-0.999755859375;-0.09759521484375;9.31999997646926;933;1 A;
14.8573589624888;-0.99945068359375;-0.097564697265625;9.32999997644401;934;1 A;
14.8673589624635;-0.999755859375;-0.09759521484375;9.33999997641877;935;1 A;
14.8773589624383;-0.999755859375;-0.0975341796875;9.34999997639352;936;1 A;
14.887358962413;-0.999755859375;-0.0975341796875;9.35999997636827;937;1 A;
14.8973589623878;-0.99945068359375;-0.0975341796875;9.36999997634302;938;1 A;
14.9073589623625;-0.99945068359375;-0.09747314453125;9.37999997631778;939;1 A;
14.9173589623373;-0.99945068359375;-0.097503662109375;9.38999997629253;940;1 A;
14.927358962312;-0.999755859375;-0.09747314453125;9.39999997626728;941;1 A;
14.9373589622868;-0.999755859375;-0.09747314453125;9.40999997624203;942;1 A;
14.9473589622615;-0.999755859375;-0.097442626953125;9.41999997621679;943;1 A;
14.9573589622363;-0.999755859375;-0.097412109375;9.42999997619154;944;1 A;
14.9673589622111;-1.00006103515625;-0.097442626953125;9.43999997616629;945;1 A;
14.9773589621858;-1.00006103515625;-0.097412109375;9.44999997614104;946;1 A;
14.9873589621606;-0.999755859375;-0.097381591796875;9.4599999761158;947;1 A;
14.9973589621353;-0.999755859375;-0.097381591796875;9.46999997609055;948;1 A;
15.0073589621101;-1.00006103515625;-0.09735107421875;9.4799999760653;949;1 A;
15.0173589620848;-0.999755859375;-0.09735107421875;9.48999997604005;950;1 A;
15.0273589620596;-1.00006103515625;-0.097320556640625;9.49999997601481;951;1 A;
15.0373589620343;-0.99945068359375;-0.0972900390625;9.50999997598956;952;1 A;
15.0473589620091;-0.999755859375;-0.0972900390625;9.51999997596431;953;1 A;
15.0573589619838;-0.999755859375;-0.09722900390625;9.52999997593906;954;1 A;
15.0673589619586;-0.9991455078125;-0.097259521484375;9.53999997591382;955;1 A;
15.0773589619333;-0.999755859375;-0.09722900390625;9.54999997588857;956;1 A;
15.0873589619081;-1.0003662109375;-0.097198486328125;9.55999997586332;957;1 A;
15.0973589618828;-0.99945068359375;-0.097198486328125;9.56999997583807;958;1 A;
15.1073589618576;-0.999755859375;-0.097137451171875;9.57999997581283;959;1 A;
15.1173589618323;-0.999755859375;-0.09716796875;9.58999997578758;960;1 A;
15.1273589618071;-0.99884033203125;-0.097137451171875;9.59999997576233;961;1 A;
15.1373589617818;-0.99945068359375;-0.09710693359375;9.60999997573708;962;1 A;
15.1473589617566;-0.99945068359375;-0.097076416015625;9.61999997571183;963;1 A;
15.1573589617313;-0.999755859375;-0.0970458984375;9.62999997568659;964;1 A;
15.1673589617061;-1.00006103515625;-0.0970458984375;9.63999997566134;965;1 A;
15.1773589616809;-1.00006103515625;-0.097015380859375;9.64999997563609;966;1 A;
15.1873589616556;-0.999755859375;-0.09698486328125;9.65999997561084;967;1 A;
15.1973589616304;-0.999755859375;-0.09698486328125;9.6699999755856;968;1 A;
15.2073589616051;-0.999755859375;-0.096923828125;9.67999997556035;969;1 A;
15.2173589615799;-0.9991455078125;-0.096923828125;9.6899999755351;970;1 A;
15.2273589615546;-0.99945068359375;-0.096893310546875;9.69999997550985;971;1 A;
15.2373589615294;-0.999755859375;-0.096893310546875;9.70999997548461;972;1 A;
15.2473589615041;-0.999755859375;-0.09686279296875;9.71999997545936;973;1 A;
15.2573589614789;-0.999755859375;-0.096832275390625;9.72999997543411;974;1 A;
15.2673589614536;-0.99945068359375;-0.096832275390625;9.73999997540886;975;1 A;
15.2773589614284;-0.999755859375;-0.0968017578125;9.74999997538362;976;1 A;
15.2873589614031;-1.0003662109375;-0.096771240234375;9.75999997535837;977;1 A;
15.2973589613779;-0.999755859375;-0.096771240234375;9.76999997533312;978;1 A;
15.3073589613526;-1.00006103515625;-0.096710205078125;9.77999997530787;979;1 A;
15.3173589613274;-0.99945068359375;-0.096710205078125;9.78999997528263;980;1 A;
15.3273589613021;-0.9991455078125;-0.0966796875;9.79999997525738;981;1 A;
15.3373589612769;-0.999755859375;-0.096649169921875;9.80999997523213;982;1 A;
15.3473589612516;-0.99945068359375;-0.09661865234375;9.81999997520688;983;1 A;
15.3573589612264;-0.9991455078125;-0.096588134765625;9.82999997518164;984;1 A;
15.3673589612011;-0.999755859375;-0.0965576171875;9.83999997515639;985;1 A;
15.3773589611759;-0.99945068359375;-0.096527099609375;9.84999997513114;986;1 A;
15.3873589611507;-0.999755859375;-0.09649658203125;9.85999997510589;987;1 A;
15.3973589611254;-0.999755859375;-0.09649658203125;9.86999997508065;988;1 A;
15.4073589611002;-0.999755859375;-0.096435546875;9.8799999750554;989;1 A;
15.4173589610749;-0.99945068359375;-0.096435546875;9.88999997503015;990;1 A;
15.4273589610497;-0.99945068359375;-0.096405029296875;9.8999999750049;991;1 A;
15.4373589610244;-0.99945068359375;-0.09637451171875;9.90999997497966;992;1 A;
15.4473589609992;-0.999755859375;-0.09637451171875;9.91999997495441;993;1 A;
15.4573589609739;-0.99945068359375;-0.0963134765625;9.92999997492916;994;1 A;
15.4673589609487;-0.999755859375;-0.0963134765625;9.93999997490391;995;1 A;
15.4773589609234;-1.00006103515625;-0.096282958984375;9.94999997487866;996;1 A;
15.4873589608982;-0.99945068359375;-0.096221923828125;9.95999997485342;997;1 A;
15.4973589608729;-1.00006103515625;-0.09619140625;9.96999997482817;998;1 A;
15.5073589608477;-0.9991455078125;-0.096160888671875;9.97999997480292;999;1 A;
15.5173589608224;-0.99945068359375;-0.09613037109375;9.98999997477767;1000;1 A;
