Time (s);WE(1).Potential (V);WE(1).Current (A);Corrected time (s);Index;Current range;Overload
220.639558442939;-0.79833984375;-2.3370361328125;0;1;1 A;Current overload
220.649558442913;-0.83587646484375;-2.33642578125;0.00999999997475243;2;1 A;Current overload
220.659558442888;-0.93658447265625;-2.335205078125;0.0199999999495049;3;1 A;Current overload
220.669558442863;-0.9674072265625;-2.33489990234375;0.0299999999242573;4;1 A;Current overload
220.679558442838;-0.98602294921875;-2.3345947265625;0.0399999998990097;5;1 A;Current overload
220.689558442812;-1.01226806640625;-2.333984375;0.0499999998737621;6;1 A;Current overload
220.699558442787;-1.04522705078125;-2.3333740234375;0.0599999998485146;7;1 A;Current overload
220.709558442762;-1.08551025390625;-2.332763671875;0.069999999823267;8;1 A;Current overload
220.719558442737;-1.136474609375;-2.27081298828125;0.0799999997980194;9;1 A;Current overload
220.729558442711;-1.15081787109375;-2.0849609375;0.0899999997727718;10;1 A;Current overload
220.739558442686;-1.15020751953125;-1.9268798828125;0.0999999997475243;11;1 A;
220.749558442661;-1.15020751953125;-1.78802490234375;0.109999999722277;12;1 A;
220.759558442636;-1.14990234375;-1.6650390625;0.119999999697029;13;1 A;
220.76955844261;-1.14990234375;-1.556396484375;0.129999999671782;14;1 A;
220.779558442585;-1.14990234375;-1.46026611328125;0.139999999646534;15;1 A;
220.78955844256;-1.14959716796875;-1.37542724609375;0.149999999621286;16;1 A;
220.799558442535;-1.14990234375;-1.2994384765625;0.159999999596039;17;1 A;
220.809558442509;-1.15020751953125;-1.231689453125;0.169999999570791;18;1 A;
220.819558442484;-1.14990234375;-1.170654296875;0.179999999545544;19;1 A;
220.829558442459;-1.14959716796875;-1.11572265625;0.189999999520296;20;1 A;
220.839558442434;-1.14990234375;-1.0662841796875;0.199999999495049;21;1 A;
220.849558442408;-1.1492919921875;-1.02142333984375;0.209999999469801;22;1 A;
220.859558442383;-1.14990234375;-0.9808349609375;0.219999999444553;23;1 A;
220.869558442358;-1.1492919921875;-0.94329833984375;0.229999999419306;24;1 A;
220.879558442333;-1.14959716796875;-0.90911865234375;0.239999999394058;25;1 A;
220.889558442307;-1.14990234375;-0.87799072265625;0.249999999368811;26;1 A;
220.899558442282;-1.14898681640625;-0.8489990234375;0.259999999343563;27;1 A;
220.909558442257;-1.14959716796875;-0.82244873046875;0.269999999318316;28;1 A;
220.919558442232;-1.15020751953125;-0.79742431640625;0.279999999293068;29;1 A;
220.929558442206;-1.1492919921875;-0.7745361328125;0.28999999926782;30;1 A;
220.939558442181;-1.14959716796875;-0.753173828125;0.299999999242573;31;1 A;
220.949558442156;-1.14959716796875;-0.7330322265625;0.309999999217325;32;1 A;
220.959558442131;-1.1492919921875;-0.714111328125;0.319999999192078;33;1 A;
220.969558442105;-1.14990234375;-0.69671630859375;0.32999999916683;34;1 A;
220.97955844208;-1.14959716796875;-0.68023681640625;0.339999999141583;35;1 A;
220.989558442055;-1.14959716796875;-0.6646728515625;0.349999999116335;36;1 A;
220.99955844203;-1.14959716796875;-0.6500244140625;0.359999999091087;37;1 A;
221.009558442005;-1.14990234375;-0.635986328125;0.36999999906584;38;1 A;
221.019558441979;-1.14990234375;-0.62286376953125;0.379999999040592;39;1 A;
221.029558441954;-1.14959716796875;-0.6103515625;0.389999999015345;40;1 A;
221.039558441929;-1.14990234375;-0.59844970703125;0.399999998990097;41;1 A;
221.049558441904;-1.14959716796875;-0.58685302734375;0.40999999896485;42;1 A;
221.059558441878;-1.1492919921875;-0.576171875;0.419999998939602;43;1 A;
221.069558441853;-1.1492919921875;-0.5657958984375;0.429999998914354;44;1 A;
221.079558441828;-1.14959716796875;-0.5560302734375;0.439999998889107;45;1 A;
221.089558441803;-1.14990234375;-0.54656982421875;0.449999998863859;46;1 A;
221.099558441777;-1.14959716796875;-0.5377197265625;0.459999998838612;47;1 A;
221.109558441752;-1.14959716796875;-0.5291748046875;0.469999998813364;48;1 A;
221.119558441727;-1.14959716796875;-0.52093505859375;0.479999998788116;49;1 A;
221.129558441702;-1.14990234375;-0.51300048828125;0.489999998762869;50;1 A;
221.139558441676;-1.14959716796875;-0.50567626953125;0.499999998737621;51;1 A;
221.149558441651;-1.14990234375;-0.49835205078125;0.509999998712374;52;1 A;
221.159558441626;-1.1492919921875;-0.49127197265625;0.519999998687126;53;1 A;
221.169558441601;-1.14959716796875;-0.48455810546875;0.529999998661879;54;1 A;
221.179558441575;-1.14959716796875;-0.47808837890625;0.539999998636631;55;1 A;
221.18955844155;-1.1492919921875;-0.47186279296875;0.549999998611383;56;1 A;
221.199558441525;-1.14959716796875;-0.465728759765625;0.559999998586136;57;1 A;
221.2095584415;-1.14898681640625;-0.4598388671875;0.569999998560888;58;1 A;
221.219558441474;-1.1492919921875;-0.45416259765625;0.579999998535641;59;1 A;
221.229558441449;-1.1492919921875;-0.448760986328125;0.589999998510393;60;1 A;
221.239558441424;-1.14990234375;-0.443450927734375;0.599999998485146;61;1 A;
221.249558441399;-1.1492919921875;-0.4384765625;0.609999998459898;62;1 A;
221.259558441373;-1.14959716796875;-0.43353271484375;0.61999999843465;63;1 A;
221.269558441348;-1.1492919921875;-0.428924560546875;0.629999998409403;64;1 A;
221.279558441323;-1.14959716796875;-0.424224853515625;0.639999998384155;65;1 A;
221.289558441298;-1.1492919921875;-0.419830322265625;0.649999998358908;66;1 A;
221.299558441272;-1.148681640625;-0.415374755859375;0.65999999833366;67;1 A;
221.309558441247;-1.14959716796875;-0.411163330078125;0.669999998308413;68;1 A;
221.319558441222;-1.14990234375;-0.40692138671875;0.679999998283165;69;1 A;
221.329558441197;-1.14959716796875;-0.40289306640625;0.689999998257917;70;1 A;
221.339558441171;-1.14959716796875;-0.39892578125;0.69999999823267;71;1 A;
221.349558441146;-1.14959716796875;-0.3951416015625;0.709999998207422;72;1 A;
221.359558441121;-1.14898681640625;-0.391357421875;0.719999998182175;73;1 A;
221.369558441096;-1.14959716796875;-0.3878173828125;0.729999998156927;74;1 A;
221.37955844107;-1.14959716796875;-0.384185791015625;0.73999999813168;75;1 A;
221.389558441045;-1.14959716796875;-0.380889892578125;0.749999998106432;76;1 A;
221.39955844102;-1.14959716796875;-0.37750244140625;0.759999998081184;77;1 A;
221.409558440995;-1.14959716796875;-0.374359130859375;0.769999998055937;78;1 A;
221.419558440969;-1.14959716796875;-0.3712158203125;0.779999998030689;79;1 A;
221.429558440944;-1.14959716796875;-0.36810302734375;0.789999998005442;80;1 A;
221.439558440919;-1.14990234375;-0.365142822265625;0.799999997980194;81;1 A;
221.449558440894;-1.14959716796875;-0.362152099609375;0.809999997954947;82;1 A;
221.459558440868;-1.1492919921875;-0.35931396484375;0.819999997929699;83;1 A;
221.469558440843;-1.14959716796875;-0.356414794921875;0.829999997904451;84;1 A;
221.479558440818;-1.1492919921875;-0.3536376953125;0.839999997879204;85;1 A;
221.489558440793;-1.1492919921875;-0.350921630859375;0.849999997853956;86;1 A;
221.499558440767;-1.1492919921875;-0.3482666015625;0.859999997828709;87;1 A;
221.509558440742;-1.14990234375;-0.345672607421875;0.869999997803461;88;1 A;
221.519558440717;-1.14959716796875;-0.343170166015625;0.879999997778214;89;1 A;
221.529558440692;-1.14990234375;-0.34063720703125;0.889999997752966;90;1 A;
221.539558440666;-1.14990234375;-0.33831787109375;0.899999997727718;91;1 A;
221.549558440641;-1.1492919921875;-0.335845947265625;0.909999997702471;92;1 A;
221.559558440616;-1.1492919921875;-0.33367919921875;0.919999997677223;93;1 A;
221.569558440591;-1.14959716796875;-0.331329345703125;0.929999997651976;94;1 A;
221.579558440565;-1.14898681640625;-0.3292236328125;0.939999997626728;95;1 A;
221.58955844054;-1.14959716796875;-0.327056884765625;0.949999997601481;96;1 A;
221.599558440515;-1.14959716796875;-0.324920654296875;0.959999997576233;97;1 A;
221.60955844049;-1.14990234375;-0.32275390625;0.969999997550985;98;1 A;
221.619558440464;-1.1492919921875;-0.320709228515625;0.979999997525738;99;1 A;
221.629558440439;-1.1492919921875;-0.318603515625;0.98999999750049;100;1 A;
221.639558440414;-1.14959716796875;-0.316650390625;0.999999997475243;101;1 A;
221.649558440389;-1.14990234375;-0.314666748046875;1.00999999745;102;1 A;
221.659558440363;-1.14959716796875;-0.3128662109375;1.01999999742475;103;1 A;
221.669558440338;-1.14990234375;-0.3109130859375;1.0299999973995;104;1 A;
221.679558440313;-1.14990234375;-0.30908203125;1.03999999737425;105;1 A;
221.689558440288;-1.1492919921875;-0.307281494140625;1.049999997349;106;1 A;
221.699558440262;-1.14959716796875;-0.305511474609375;1.05999999732376;107;1 A;
221.709558440237;-1.14959716796875;-0.303863525390625;1.06999999729851;108;1 A;
221.719558440212;-1.1492919921875;-0.30218505859375;1.07999999727326;109;1 A;
221.729558440187;-1.14898681640625;-0.30047607421875;1.08999999724801;110;1 A;
221.739558440161;-1.14990234375;-0.29888916015625;1.09999999722277;111;1 A;
221.749558440136;-1.14959716796875;-0.297210693359375;1.10999999719752;112;1 A;
221.759558440111;-1.14959716796875;-0.295623779296875;1.11999999717227;113;1 A;
221.769558440086;-1.14990234375;-0.2940673828125;1.12999999714702;114;1 A;
221.77955844006;-1.14990234375;-0.29248046875;1.13999999712178;115;1 A;
221.789558440035;-1.14959716796875;-0.290985107421875;1.14999999709653;116;1 A;
221.79955844001;-1.14959716796875;-0.2894287109375;1.15999999707128;117;1 A;
221.809558439985;-1.14898681640625;-0.2880859375;1.16999999704603;118;1 A;
221.819558439959;-1.14959716796875;-0.286529541015625;1.17999999702079;119;1 A;
221.829558439934;-1.14959716796875;-0.28515625;1.18999999699554;120;1 A;
221.839558439909;-1.14990234375;-0.283721923828125;1.19999999697029;121;1 A;
221.849558439884;-1.15020751953125;-0.2823486328125;1.20999999694504;122;1 A;
221.859558439858;-1.14959716796875;-0.281005859375;1.2199999969198;123;1 A;
221.869558439833;-1.1492919921875;-0.27972412109375;1.22999999689455;124;1 A;
221.879558439808;-1.14990234375;-0.278350830078125;1.2399999968693;125;1 A;
221.889558439783;-1.14990234375;-0.277191162109375;1.24999999684405;126;1 A;
221.899558439757;-1.14990234375;-0.27581787109375;1.25999999681881;127;1 A;
221.909558439732;-1.14959716796875;-0.274658203125;1.26999999679356;128;1 A;
221.919558439707;-1.14959716796875;-0.273345947265625;1.27999999676831;129;1 A;
221.929558439682;-1.1492919921875;-0.27215576171875;1.28999999674306;130;1 A;
221.939558439656;-1.14959716796875;-0.270965576171875;1.29999999671782;131;1 A;
221.949558439631;-1.14990234375;-0.269744873046875;1.30999999669257;132;1 A;
221.959558439606;-1.14990234375;-0.26861572265625;1.31999999666732;133;1 A;
221.969558439581;-1.14959716796875;-0.267425537109375;1.32999999664207;134;1 A;
221.979558439555;-1.14959716796875;-0.266265869140625;1.33999999661683;135;1 A;
221.98955843953;-1.1492919921875;-0.265167236328125;1.34999999659158;136;1 A;
221.999558439505;-1.1492919921875;-0.264007568359375;1.35999999656633;137;1 A;
222.00955843948;-1.1492919921875;-0.262939453125;1.36999999654108;138;1 A;
222.019558439454;-1.14959716796875;-0.2618408203125;1.37999999651583;139;1 A;
222.029558439429;-1.14959716796875;-0.260772705078125;1.38999999649059;140;1 A;
222.039558439404;-1.1492919921875;-0.25982666015625;1.39999999646534;141;1 A;
222.049558439379;-1.14898681640625;-0.25872802734375;1.40999999644009;142;1 A;
222.059558439354;-1.14959716796875;-0.25787353515625;1.41999999641484;143;1 A;
222.069558439328;-1.14959716796875;-0.256744384765625;1.4299999963896;144;1 A;
222.079558439303;-1.14990234375;-0.255828857421875;1.43999999636435;145;1 A;
222.089558439278;-1.14990234375;-0.254852294921875;1.4499999963391;146;1 A;
222.099558439253;-1.1492919921875;-0.253875732421875;1.45999999631385;147;1 A;
222.109558439227;-1.14990234375;-0.252899169921875;1.46999999628861;148;1 A;
222.119558439202;-1.1492919921875;-0.251953125;1.47999999626336;149;1 A;
222.129558439177;-1.14959716796875;-0.250946044921875;1.48999999623811;150;1 A;
222.139558439152;-1.1492919921875;-0.25006103515625;1.49999999621286;151;1 A;
222.149558439126;-1.1492919921875;-0.249114990234375;1.50999999618762;152;1 A;
222.159558439101;-1.14959716796875;-0.24822998046875;1.51999999616237;153;1 A;
222.169558439076;-1.1492919921875;-0.247283935546875;1.52999999613712;154;1 A;
222.179558439051;-1.15020751953125;-0.2464599609375;1.53999999611187;155;1 A;
222.189558439025;-1.14990234375;-0.24560546875;1.54999999608663;156;1 A;
222.199558439;-1.14990234375;-0.244781494140625;1.55999999606138;157;1 A;
222.209558438975;-1.14990234375;-0.244049072265625;1.56999999603613;158;1 A;
222.21955843895;-1.14959716796875;-0.243133544921875;1.57999999601088;159;1 A;
222.229558438924;-1.14990234375;-0.24237060546875;1.58999999598564;160;1 A;
222.239558438899;-1.14990234375;-0.241546630859375;1.59999999596039;161;1 A;
222.249558438874;-1.14959716796875;-0.24078369140625;1.60999999593514;162;1 A;
222.259558438849;-1.1492919921875;-0.23992919921875;1.61999999590989;163;1 A;
222.269558438823;-1.14990234375;-0.2391357421875;1.62999999588465;164;1 A;
222.279558438798;-1.1492919921875;-0.238311767578125;1.6399999958594;165;1 A;
222.289558438773;-1.1492919921875;-0.237548828125;1.64999999583415;166;1 A;
222.299558438748;-1.14959716796875;-0.236785888671875;1.6599999958089;167;1 A;
222.309558438722;-1.14959716796875;-0.236053466796875;1.66999999578366;168;1 A;
222.319558438697;-1.1492919921875;-0.235260009765625;1.67999999575841;169;1 A;
222.329558438672;-1.14959716796875;-0.234588623046875;1.68999999573316;170;1 A;
222.339558438647;-1.14959716796875;-0.233856201171875;1.69999999570791;171;1 A;
222.349558438621;-1.1492919921875;-0.23321533203125;1.70999999568267;172;1 A;
222.359558438596;-1.14990234375;-0.2325439453125;1.71999999565742;173;1 A;
222.369558438571;-1.14959716796875;-0.2318115234375;1.72999999563217;174;1 A;
222.379558438546;-1.14990234375;-0.23114013671875;1.73999999560692;175;1 A;
222.38955843852;-1.14990234375;-0.230438232421875;1.74999999558167;176;1 A;
222.399558438495;-1.14990234375;-0.229766845703125;1.75999999555643;177;1 A;
222.40955843847;-1.1492919921875;-0.229095458984375;1.76999999553118;178;1 A;
222.419558438445;-1.14898681640625;-0.2283935546875;1.77999999550593;179;1 A;
222.429558438419;-1.14959716796875;-0.227691650390625;1.78999999548068;180;1 A;
222.439558438394;-1.14898681640625;-0.227081298828125;1.79999999545544;181;1 A;
222.449558438369;-1.1492919921875;-0.2264404296875;1.80999999543019;182;1 A;
222.459558438344;-1.14990234375;-0.225860595703125;1.81999999540494;183;1 A;
222.469558438318;-1.14959716796875;-0.225189208984375;1.82999999537969;184;1 A;
222.479558438293;-1.14959716796875;-0.224578857421875;1.83999999535445;185;1 A;
222.489558438268;-1.14990234375;-0.22393798828125;1.8499999953292;186;1 A;
222.499558438243;-1.1492919921875;-0.223358154296875;1.85999999530395;187;1 A;
222.509558438217;-1.15020751953125;-0.222808837890625;1.8699999952787;188;1 A;
222.519558438192;-1.14959716796875;-0.22222900390625;1.87999999525346;189;1 A;
222.529558438167;-1.1492919921875;-0.22161865234375;1.88999999522821;190;1 A;
222.539558438142;-1.14990234375;-0.22100830078125;1.89999999520296;191;1 A;
222.549558438116;-1.14959716796875;-0.22039794921875;1.90999999517771;192;1 A;
222.559558438091;-1.1492919921875;-0.2198486328125;1.91999999515247;193;1 A;
222.569558438066;-1.1492919921875;-0.21923828125;1.92999999512722;194;1 A;
222.579558438041;-1.14959716796875;-0.218658447265625;1.93999999510197;195;1 A;
222.589558438015;-1.1492919921875;-0.21807861328125;1.94999999507672;196;1 A;
222.59955843799;-1.1492919921875;-0.217498779296875;1.95999999505148;197;1 A;
222.609558437965;-1.1492919921875;-0.217010498046875;1.96999999502623;198;1 A;
222.61955843794;-1.14959716796875;-0.216461181640625;1.97999999500098;199;1 A;
222.629558437914;-1.14959716796875;-0.215911865234375;1.98999999497573;200;1 A;
222.639558437889;-1.14959716796875;-0.215423583984375;1.99999999495049;201;1 A;
222.649558437864;-1.1492919921875;-0.214874267578125;2.00999999492524;202;1 A;
222.659558437839;-1.14990234375;-0.214385986328125;2.01999999489999;203;1 A;
222.669558437813;-1.1492919921875;-0.2138671875;2.02999999487474;204;1 A;
222.679558437788;-1.14959716796875;-0.213348388671875;2.0399999948495;205;1 A;
222.689558437763;-1.14959716796875;-0.21282958984375;2.04999999482425;206;1 A;
222.699558437738;-1.14959716796875;-0.212310791015625;2.059999994799;207;1 A;
222.709558437712;-1.1492919921875;-0.21185302734375;2.06999999477375;208;1 A;
222.719558437687;-1.14959716796875;-0.2113037109375;2.0799999947485;209;1 A;
222.729558437662;-1.14990234375;-0.2108154296875;2.08999999472326;210;1 A;
222.739558437637;-1.14990234375;-0.2103271484375;2.09999999469801;211;1 A;
222.749558437611;-1.1492919921875;-0.209808349609375;2.10999999467276;212;1 A;
222.759558437586;-1.1492919921875;-0.2093505859375;2.11999999464751;213;1 A;
222.769558437561;-1.1492919921875;-0.208892822265625;2.12999999462227;214;1 A;
222.779558437536;-1.1492919921875;-0.208404541015625;2.13999999459702;215;1 A;
222.78955843751;-1.1492919921875;-0.207977294921875;2.14999999457177;216;1 A;
222.799558437485;-1.14990234375;-0.20745849609375;2.15999999454652;217;1 A;
222.80955843746;-1.14990234375;-0.20709228515625;2.16999999452128;218;1 A;
222.819558437435;-1.14990234375;-0.206573486328125;2.17999999449603;219;1 A;
222.829558437409;-1.148681640625;-0.2061767578125;2.18999999447078;220;1 A;
222.839558437384;-1.1492919921875;-0.205718994140625;2.19999999444553;221;1 A;
222.849558437359;-1.14959716796875;-0.20526123046875;2.20999999442029;222;1 A;
222.859558437334;-1.1492919921875;-0.20477294921875;2.21999999439504;223;1 A;
222.869558437308;-1.14959716796875;-0.204315185546875;2.22999999436979;224;1 A;
222.879558437283;-1.14990234375;-0.203857421875;2.23999999434454;225;1 A;
222.889558437258;-1.1492919921875;-0.20343017578125;2.2499999943193;226;1 A;
222.899558437233;-1.14959716796875;-0.202972412109375;2.25999999429405;227;1 A;
222.909558437207;-1.14959716796875;-0.202606201171875;2.2699999942688;228;1 A;
222.919558437182;-1.1492919921875;-0.202178955078125;2.27999999424355;229;1 A;
222.929558437157;-1.1492919921875;-0.2017822265625;2.28999999421831;230;1 A;
222.939558437132;-1.14898681640625;-0.201446533203125;2.29999999419306;231;1 A;
222.949558437106;-1.14990234375;-0.201019287109375;2.30999999416781;232;1 A;
222.959558437081;-1.14959716796875;-0.200653076171875;2.31999999414256;233;1 A;
222.969558437056;-1.14898681640625;-0.2001953125;2.32999999411732;234;1 A;
222.979558437031;-1.14959716796875;-0.199859619140625;2.33999999409207;235;1 A;
222.989558437005;-1.14990234375;-0.19940185546875;2.34999999406682;236;1 A;
222.99955843698;-1.1492919921875;-0.199005126953125;2.35999999404157;237;1 A;
223.009558436955;-1.14959716796875;-0.1986083984375;2.36999999401633;238;1 A;
223.01955843693;-1.14959716796875;-0.198211669921875;2.37999999399108;239;1 A;
223.029558436904;-1.1492919921875;-0.197784423828125;2.38999999396583;240;1 A;
223.039558436879;-1.14959716796875;-0.197479248046875;2.39999999394058;241;1 A;
223.049558436854;-1.14959716796875;-0.197021484375;2.40999999391533;242;1 A;
223.059558436829;-1.14990234375;-0.19671630859375;2.41999999389009;243;1 A;
223.069558436804;-1.14959716796875;-0.1962890625;2.42999999386484;244;1 A;
223.079558436778;-1.14990234375;-0.195953369140625;2.43999999383959;245;1 A;
223.089558436753;-1.14898681640625;-0.19561767578125;2.44999999381434;246;1 A;
223.099558436728;-1.14990234375;-0.195281982421875;2.4599999937891;247;1 A;
223.109558436703;-1.14959716796875;-0.194915771484375;2.46999999376385;248;1 A;
223.119558436677;-1.14990234375;-0.19451904296875;2.4799999937386;249;1 A;
223.129558436652;-1.14990234375;-0.194183349609375;2.48999999371335;250;1 A;
223.139558436627;-1.14990234375;-0.193817138671875;2.49999999368811;251;1 A;
223.149558436602;-1.1492919921875;-0.193450927734375;2.50999999366286;252;1 A;
223.159558436576;-1.14959716796875;-0.193115234375;2.51999999363761;253;1 A;
223.169558436551;-1.14990234375;-0.192718505859375;2.52999999361236;254;1 A;
223.179558436526;-1.14959716796875;-0.192352294921875;2.53999999358712;255;1 A;
223.189558436501;-1.14898681640625;-0.19207763671875;2.54999999356187;256;1 A;
223.199558436475;-1.15020751953125;-0.191650390625;2.55999999353662;257;1 A;
223.20955843645;-1.14990234375;-0.19140625;2.56999999351137;258;1 A;
223.219558436425;-1.14990234375;-0.191009521484375;2.57999999348613;259;1 A;
223.2295584364;-1.14990234375;-0.19073486328125;2.58999999346088;260;1 A;
223.239558436374;-1.14959716796875;-0.190399169921875;2.59999999343563;261;1 A;
223.249558436349;-1.14959716796875;-0.1900634765625;2.60999999341038;262;1 A;
223.259558436324;-1.14990234375;-0.18975830078125;2.61999999338514;263;1 A;
223.269558436299;-1.1492919921875;-0.18939208984375;2.62999999335989;264;1 A;
223.279558436273;-1.148681640625;-0.188995361328125;2.63999999333464;265;1 A;
223.289558436248;-1.14990234375;-0.188720703125;2.64999999330939;266;1 A;
223.299558436223;-1.14959716796875;-0.188323974609375;2.65999999328415;267;1 A;
223.309558436198;-1.14959716796875;-0.1881103515625;2.6699999932589;268;1 A;
223.319558436172;-1.14990234375;-0.187713623046875;2.67999999323365;269;1 A;
223.329558436147;-1.14898681640625;-0.18743896484375;2.6899999932084;270;1 A;
223.339558436122;-1.14990234375;-0.1871337890625;2.69999999318316;271;1 A;
223.349558436097;-1.14898681640625;-0.18682861328125;2.70999999315791;272;1 A;
223.359558436071;-1.14959716796875;-0.18658447265625;2.71999999313266;273;1 A;
223.369558436046;-1.14959716796875;-0.186248779296875;2.72999999310741;274;1 A;
223.379558436021;-1.14990234375;-0.18597412109375;2.73999999308217;275;1 A;
223.389558435996;-1.1492919921875;-0.1856689453125;2.74999999305692;276;1 A;
223.39955843597;-1.14959716796875;-0.185333251953125;2.75999999303167;277;1 A;
223.409558435945;-1.14990234375;-0.185089111328125;2.76999999300642;278;1 A;
223.41955843592;-1.14990234375;-0.184783935546875;2.77999999298117;279;1 A;
223.429558435895;-1.14959716796875;-0.184478759765625;2.78999999295593;280;1 A;
223.439558435869;-1.14959716796875;-0.184173583984375;2.79999999293068;281;1 A;
223.449558435844;-1.1492919921875;-0.183868408203125;2.80999999290543;282;1 A;
223.459558435819;-1.1492919921875;-0.18359375;2.81999999288018;283;1 A;
223.469558435794;-1.14959716796875;-0.183258056640625;2.82999999285494;284;1 A;
223.479558435768;-1.1492919921875;-0.183013916015625;2.83999999282969;285;1 A;
223.489558435743;-1.14990234375;-0.182708740234375;2.84999999280444;286;1 A;
223.499558435718;-1.14959716796875;-0.18243408203125;2.85999999277919;287;1 A;
223.509558435693;-1.14898681640625;-0.182159423828125;2.86999999275395;288;1 A;
223.519558435667;-1.14990234375;-0.181884765625;2.8799999927287;289;1 A;
223.529558435642;-1.14959716796875;-0.181610107421875;2.88999999270345;290;1 A;
223.539558435617;-1.1492919921875;-0.181304931640625;2.8999999926782;291;1 A;
223.549558435592;-1.1492919921875;-0.1810302734375;2.90999999265296;292;1 A;
223.559558435566;-1.1492919921875;-0.18084716796875;2.91999999262771;293;1 A;
223.569558435541;-1.14959716796875;-0.18048095703125;2.92999999260246;294;1 A;
223.579558435516;-1.14990234375;-0.18023681640625;2.93999999257721;295;1 A;
223.589558435491;-1.14959716796875;-0.179931640625;2.94999999255197;296;1 A;
223.599558435465;-1.14990234375;-0.1796875;2.95999999252672;297;1 A;
223.60955843544;-1.14959716796875;-0.179443359375;2.96999999250147;298;1 A;
223.619558435415;-1.1492919921875;-0.17919921875;2.97999999247622;299;1 A;
223.62955843539;-1.1492919921875;-0.17889404296875;2.98999999245098;300;1 A;
223.639558435364;-1.14959716796875;-0.178680419921875;2.99999999242573;301;1 A;
223.649558435339;-1.14959716796875;-0.17840576171875;3.00999999240048;302;1 A;
223.659558435314;-1.1492919921875;-0.17822265625;3.01999999237523;303;1 A;
223.669558435289;-1.1492919921875;-0.17791748046875;3.02999999234999;304;1 A;
223.679558435263;-1.1492919921875;-0.17767333984375;3.03999999232474;305;1 A;
223.689558435238;-1.1492919921875;-0.17742919921875;3.04999999229949;306;1 A;
223.699558435213;-1.14990234375;-0.177154541015625;3.05999999227424;307;1 A;
223.709558435188;-1.14959716796875;-0.176910400390625;3.069999992249;308;1 A;
223.719558435162;-1.14990234375;-0.176605224609375;3.07999999222375;309;1 A;
223.729558435137;-1.14959716796875;-0.176361083984375;3.0899999921985;310;1 A;
223.739558435112;-1.14990234375;-0.176116943359375;3.09999999217325;311;1 A;
223.749558435087;-1.14990234375;-0.175872802734375;3.109999992148;312;1 A;
223.759558435061;-1.14959716796875;-0.1756591796875;3.11999999212276;313;1 A;
223.769558435036;-1.14959716796875;-0.1754150390625;3.12999999209751;314;1 A;
223.779558435011;-1.1492919921875;-0.175140380859375;3.13999999207226;315;1 A;
223.789558434986;-1.14990234375;-0.1749267578125;3.14999999204701;316;1 A;
223.79955843496;-1.1492919921875;-0.174652099609375;3.15999999202177;317;1 A;
223.809558434935;-1.14959716796875;-0.174530029296875;3.16999999199652;318;1 A;
223.81955843491;-1.14990234375;-0.174224853515625;3.17999999197127;319;1 A;
223.829558434885;-1.1492919921875;-0.173980712890625;3.18999999194602;320;1 A;
223.839558434859;-1.14959716796875;-0.17376708984375;3.19999999192078;321;1 A;
223.849558434834;-1.14959716796875;-0.17352294921875;3.20999999189553;322;1 A;
223.859558434809;-1.14990234375;-0.173309326171875;3.21999999187028;323;1 A;
223.869558434784;-1.14898681640625;-0.173065185546875;3.22999999184503;324;1 A;
223.879558434758;-1.14990234375;-0.172821044921875;3.23999999181979;325;1 A;
223.889558434733;-1.1492919921875;-0.172607421875;3.24999999179454;326;1 A;
223.899558434708;-1.14959716796875;-0.17236328125;3.25999999176929;327;1 A;
223.909558434683;-1.1492919921875;-0.172210693359375;3.26999999174404;328;1 A;
223.919558434657;-1.14990234375;-0.17193603515625;3.2799999917188;329;1 A;
223.929558434632;-1.1492919921875;-0.1717529296875;3.28999999169355;330;1 A;
223.939558434607;-1.14959716796875;-0.1715087890625;3.2999999916683;331;1 A;
223.949558434582;-1.14959716796875;-0.171234130859375;3.30999999164305;332;1 A;
223.959558434556;-1.14959716796875;-0.17108154296875;3.31999999161781;333;1 A;
223.969558434531;-1.14959716796875;-0.17083740234375;3.32999999159256;334;1 A;
223.979558434506;-1.14959716796875;-0.17059326171875;3.33999999156731;335;1 A;
223.989558434481;-1.14990234375;-0.17041015625;3.34999999154206;336;1 A;
223.999558434455;-1.14898681640625;-0.170166015625;3.35999999151682;337;1 A;
224.00955843443;-1.14959716796875;-0.170013427734375;3.36999999149157;338;1 A;
224.019558434405;-1.14959716796875;-0.16973876953125;3.37999999146632;339;1 A;
224.02955843438;-1.14990234375;-0.1695556640625;3.38999999144107;340;1 A;
224.039558434354;-1.14959716796875;-0.169342041015625;3.39999999141583;341;1 A;
224.049558434329;-1.14990234375;-0.1690673828125;3.40999999139058;342;1 A;
224.059558434304;-1.1492919921875;-0.168975830078125;3.41999999136533;343;1 A;
224.069558434279;-1.14959716796875;-0.168701171875;3.42999999134008;344;1 A;
224.079558434253;-1.14959716796875;-0.16851806640625;3.43999999131483;345;1 A;
224.089558434228;-1.1492919921875;-0.168243408203125;3.44999999128959;346;1 A;
224.099558434203;-1.14990234375;-0.168060302734375;3.45999999126434;347;1 A;
224.109558434178;-1.14959716796875;-0.167938232421875;3.46999999123909;348;1 A;
224.119558434153;-1.14959716796875;-0.167724609375;3.47999999121384;349;1 A;
224.129558434127;-1.14959716796875;-0.16754150390625;3.4899999911886;350;1 A;
224.139558434102;-1.14959716796875;-0.1673583984375;3.49999999116335;351;1 A;
224.149558434077;-1.14990234375;-0.1671142578125;3.5099999911381;352;1 A;
224.159558434052;-1.14959716796875;-0.1669921875;3.51999999111285;353;1 A;
224.169558434026;-1.14990234375;-0.166778564453125;3.52999999108761;354;1 A;
224.179558434001;-1.14959716796875;-0.166595458984375;3.53999999106236;355;1 A;
224.189558433976;-1.14990234375;-0.166351318359375;3.54999999103711;356;1 A;
224.199558433951;-1.14959716796875;-0.1661376953125;3.55999999101186;357;1 A;
224.209558433925;-1.1492919921875;-0.166015625;3.56999999098662;358;1 A;
224.2195584339;-1.14990234375;-0.165771484375;3.57999999096137;359;1 A;
224.229558433875;-1.1492919921875;-0.16558837890625;3.58999999093612;360;1 A;
224.23955843385;-1.14959716796875;-0.165374755859375;3.59999999091087;361;1 A;
224.249558433824;-1.14959716796875;-0.165130615234375;3.60999999088563;362;1 A;
224.259558433799;-1.14959716796875;-0.1650390625;3.61999999086038;363;1 A;
224.269558433774;-1.14959716796875;-0.16485595703125;3.62999999083513;364;1 A;
224.279558433749;-1.14959716796875;-0.164703369140625;3.63999999080988;365;1 A;
224.289558433723;-1.14959716796875;-0.164581298828125;3.64999999078464;366;1 A;
224.299558433698;-1.14959716796875;-0.164337158203125;3.65999999075939;367;1 A;
224.309558433673;-1.14990234375;-0.16424560546875;3.66999999073414;368;1 A;
224.319558433648;-1.1492919921875;-0.164031982421875;3.67999999070889;369;1 A;
224.329558433622;-1.14959716796875;-0.16387939453125;3.68999999068365;370;1 A;
224.339558433597;-1.14959716796875;-0.1636962890625;3.6999999906584;371;1 A;
224.349558433572;-1.1492919921875;-0.163482666015625;3.70999999063315;372;1 A;
224.359558433547;-1.14959716796875;-0.163330078125;3.7199999906079;373;1 A;
224.369558433521;-1.1492919921875;-0.16314697265625;3.72999999058266;374;1 A;
224.379558433496;-1.14898681640625;-0.16302490234375;3.73999999055741;375;1 A;
224.389558433471;-1.14959716796875;-0.162841796875;3.74999999053216;376;1 A;
224.399558433446;-1.14959716796875;-0.16265869140625;3.75999999050691;377;1 A;
224.40955843342;-1.15020751953125;-0.16253662109375;3.76999999048167;378;1 A;
224.419558433395;-1.14959716796875;-0.162384033203125;3.77999999045642;379;1 A;
224.42955843337;-1.14990234375;-0.162261962890625;3.78999999043117;380;1 A;
224.439558433345;-1.14990234375;-0.16217041015625;3.79999999040592;381;1 A;
224.449558433319;-1.15020751953125;-0.1619873046875;3.80999999038067;382;1 A;
224.459558433294;-1.14959716796875;-0.161895751953125;3.81999999035543;383;1 A;
224.469558433269;-1.14959716796875;-0.16168212890625;3.82999999033018;384;1 A;
224.479558433244;-1.14959716796875;-0.16156005859375;3.83999999030493;385;1 A;
224.489558433218;-1.14990234375;-0.161346435546875;3.84999999027968;386;1 A;
224.499558433193;-1.14990234375;-0.161224365234375;3.85999999025444;387;1 A;
224.509558433168;-1.14990234375;-0.161041259765625;3.86999999022919;388;1 A;
224.519558433143;-1.1492919921875;-0.160858154296875;3.87999999020394;389;1 A;
224.529558433117;-1.14959716796875;-0.160675048828125;3.88999999017869;390;1 A;
224.539558433092;-1.14959716796875;-0.160552978515625;3.89999999015345;391;1 A;
224.549558433067;-1.14959716796875;-0.160369873046875;3.9099999901282;392;1 A;
224.559558433042;-1.14990234375;-0.1602783203125;3.91999999010295;393;1 A;
224.569558433016;-1.14990234375;-0.160125732421875;3.9299999900777;394;1 A;
224.579558432991;-1.14990234375;-0.1600341796875;3.93999999005246;395;1 A;
224.589558432966;-1.15020751953125;-0.159942626953125;3.94999999002721;396;1 A;
224.599558432941;-1.1492919921875;-0.159820556640625;3.95999999000196;397;1 A;
224.609558432915;-1.14898681640625;-0.15972900390625;3.96999998997671;398;1 A;
224.61955843289;-1.14959716796875;-0.15960693359375;3.97999998995147;399;1 A;
224.629558432865;-1.14959716796875;-0.15948486328125;3.98999998992622;400;1 A;
224.63955843284;-1.14959716796875;-0.159332275390625;3.99999998990097;401;1 A;
224.649558432814;-1.14990234375;-0.159210205078125;4.00999998987572;402;1 A;
224.659558432789;-1.1492919921875;-0.15911865234375;4.01999998985048;403;1 A;
224.669558432764;-1.1492919921875;-0.158935546875;4.02999998982523;404;1 A;
224.679558432739;-1.14959716796875;-0.158782958984375;4.03999998979998;405;1 A;
224.689558432713;-1.14959716796875;-0.158660888671875;4.04999998977473;406;1 A;
224.699558432688;-1.14990234375;-0.15850830078125;4.05999998974949;407;1 A;
224.709558432663;-1.14990234375;-0.158416748046875;4.06999998972424;408;1 A;
224.719558432638;-1.1492919921875;-0.158233642578125;4.07999998969899;409;1 A;
224.729558432612;-1.14959716796875;-0.15814208984375;4.08999998967374;410;1 A;
224.739558432587;-1.14959716796875;-0.158050537109375;4.0999999896485;411;1 A;
224.749558432562;-1.14959716796875;-0.157928466796875;4.10999998962325;412;1 A;
224.759558432537;-1.14959716796875;-0.1578369140625;4.119999989598;413;1 A;
224.769558432511;-1.15020751953125;-0.15771484375;4.12999998957275;414;1 A;
224.779558432486;-1.1492919921875;-0.1575927734375;4.1399999895475;415;1 A;
224.789558432461;-1.14959716796875;-0.157470703125;4.14999998952226;416;1 A;
224.799558432436;-1.14959716796875;-0.157318115234375;4.15999998949701;417;1 A;
224.80955843241;-1.1492919921875;-0.157257080078125;4.16999998947176;418;1 A;
224.819558432385;-1.14959716796875;-0.157073974609375;4.17999998944651;419;1 A;
224.82955843236;-1.14898681640625;-0.156982421875;4.18999998942127;420;1 A;
224.839558432335;-1.14990234375;-0.1568603515625;4.19999998939602;421;1 A;
224.849558432309;-1.14959716796875;-0.156768798828125;4.20999998937077;422;1 A;
224.859558432284;-1.14990234375;-0.156646728515625;4.21999998934552;423;1 A;
224.869558432259;-1.1492919921875;-0.156524658203125;4.22999998932028;424;1 A;
224.879558432234;-1.1492919921875;-0.156402587890625;4.23999998929503;425;1 A;
224.889558432208;-1.14959716796875;-0.156280517578125;4.24999998926978;426;1 A;
224.899558432183;-1.14990234375;-0.156158447265625;4.25999998924453;427;1 A;
224.909558432158;-1.1492919921875;-0.15606689453125;4.26999998921929;428;1 A;
224.919558432133;-1.14959716796875;-0.155914306640625;4.27999998919404;429;1 A;
224.929558432107;-1.14959716796875;-0.15582275390625;4.28999998916879;430;1 A;
224.939558432082;-1.1492919921875;-0.15570068359375;4.29999998914354;431;1 A;
224.949558432057;-1.1492919921875;-0.15557861328125;4.3099999891183;432;1 A;
224.959558432032;-1.14959716796875;-0.15545654296875;4.31999998909305;433;1 A;
224.969558432006;-1.1492919921875;-0.155364990234375;4.3299999890678;434;1 A;
224.979558431981;-1.14990234375;-0.155242919921875;4.33999998904255;435;1 A;
224.989558431956;-1.14898681640625;-0.155120849609375;4.34999998901731;436;1 A;
224.999558431931;-1.14959716796875;-0.155029296875;4.35999998899206;437;1 A;
225.009558431905;-1.14959716796875;-0.1549072265625;4.36999998896681;438;1 A;
225.01955843188;-1.14959716796875;-0.154815673828125;4.37999998894156;439;1 A;
225.029558431855;-1.14959716796875;-0.154632568359375;4.38999998891632;440;1 A;
225.03955843183;-1.14990234375;-0.154571533203125;4.39999998889107;441;1 A;
225.049558431804;-1.14990234375;-0.1544189453125;4.40999998886582;442;1 A;
225.059558431779;-1.14990234375;-0.15435791015625;4.41999998884057;443;1 A;
225.069558431754;-1.14959716796875;-0.1541748046875;4.42999998881533;444;1 A;
225.079558431729;-1.15020751953125;-0.15411376953125;4.43999998879008;445;1 A;
225.089558431703;-1.14898681640625;-0.153961181640625;4.44999998876483;446;1 A;
225.099558431678;-1.14959716796875;-0.15386962890625;4.45999998873958;447;1 A;
225.109558431653;-1.14990234375;-0.153778076171875;4.46999998871433;448;1 A;
225.119558431628;-1.14990234375;-0.1536865234375;4.47999998868909;449;1 A;
225.129558431603;-1.1492919921875;-0.15350341796875;4.48999998866384;450;1 A;
225.139558431577;-1.15020751953125;-0.15350341796875;4.49999998863859;451;1 A;
225.149558431552;-1.14959716796875;-0.153289794921875;4.50999998861334;452;1 A;
225.159558431527;-1.14959716796875;-0.15325927734375;4.5199999885881;453;1 A;
225.169558431502;-1.1492919921875;-0.153106689453125;4.52999998856285;454;1 A;
225.179558431476;-1.14959716796875;-0.152984619140625;4.5399999885376;455;1 A;
225.189558431451;-1.1492919921875;-0.15289306640625;4.54999998851235;456;1 A;
225.199558431426;-1.14959716796875;-0.152740478515625;4.55999998848711;457;1 A;
225.209558431401;-1.14959716796875;-0.152679443359375;4.56999998846186;458;1 A;
225.219558431375;-1.14959716796875;-0.152557373046875;4.57999998843661;459;1 A;
225.22955843135;-1.14959716796875;-0.152435302734375;4.58999998841136;460;1 A;
225.239558431325;-1.14990234375;-0.152374267578125;4.59999998838612;461;1 A;
225.2495584313;-1.15020751953125;-0.1522216796875;4.60999998836087;462;1 A;
225.259558431274;-1.14990234375;-0.15216064453125;4.61999998833562;463;1 A;
225.269558431249;-1.14959716796875;-0.15203857421875;4.62999998831037;464;1 A;
225.279558431224;-1.14990234375;-0.15191650390625;4.63999998828513;465;1 A;
225.289558431199;-1.14959716796875;-0.15185546875;4.64999998825988;466;1 A;
225.299558431173;-1.14990234375;-0.15167236328125;4.65999998823463;467;1 A;
225.309558431148;-1.14959716796875;-0.15167236328125;4.66999998820938;468;1 A;
225.319558431123;-1.14990234375;-0.151458740234375;4.67999998818414;469;1 A;
225.329558431098;-1.14959716796875;-0.151397705078125;4.68999998815889;470;1 A;
225.339558431072;-1.14959716796875;-0.151275634765625;4.69999998813364;471;1 A;
225.349558431047;-1.14959716796875;-0.151153564453125;4.70999998810839;472;1 A;
225.359558431022;-1.14990234375;-0.151092529296875;4.71999998808315;473;1 A;
225.369558430997;-1.14990234375;-0.15093994140625;4.7299999880579;474;1 A;
225.379558430971;-1.1492919921875;-0.15081787109375;4.73999998803265;475;1 A;
225.389558430946;-1.14959716796875;-0.150787353515625;4.7499999880074;476;1 A;
225.399558430921;-1.14959716796875;-0.150634765625;4.75999998798216;477;1 A;
225.409558430896;-1.14990234375;-0.150604248046875;4.76999998795691;478;1 A;
225.41955843087;-1.15020751953125;-0.150421142578125;4.77999998793166;479;1 A;
225.429558430845;-1.14959716796875;-0.150390625;4.78999998790641;480;1 A;
225.43955843082;-1.14959716796875;-0.1502685546875;4.79999998788116;481;1 A;
225.449558430795;-1.14959716796875;-0.150146484375;4.80999998785592;482;1 A;
225.459558430769;-1.1492919921875;-0.15008544921875;4.81999998783067;483;1 A;
225.469558430744;-1.14959716796875;-0.14996337890625;4.82999998780542;484;1 A;
225.479558430719;-1.14990234375;-0.14990234375;4.83999998778017;485;1 A;
225.489558430694;-1.14959716796875;-0.149810791015625;4.84999998775493;486;1 A;
225.499558430668;-1.14990234375;-0.149688720703125;4.85999998772968;487;1 A;
225.509558430643;-1.14898681640625;-0.149658203125;4.86999998770443;488;1 A;
225.519558430618;-1.1492919921875;-0.14947509765625;4.87999998767918;489;1 A;
225.529558430593;-1.14959716796875;-0.1494140625;4.88999998765394;490;1 A;
225.539558430567;-1.1492919921875;-0.149322509765625;4.89999998762869;491;1 A;
225.549558430542;-1.14959716796875;-0.149200439453125;4.90999998760344;492;1 A;
225.559558430517;-1.14959716796875;-0.149200439453125;4.91999998757819;493;1 A;
225.569558430492;-1.14959716796875;-0.149017333984375;4.92999998755295;494;1 A;
225.579558430466;-1.14959716796875;-0.14898681640625;4.9399999875277;495;1 A;
225.589558430441;-1.14959716796875;-0.148895263671875;4.94999998750245;496;1 A;
225.599558430416;-1.14990234375;-0.1488037109375;4.9599999874772;497;1 A;
225.609558430391;-1.14990234375;-0.14874267578125;4.96999998745196;498;1 A;
225.619558430365;-1.1492919921875;-0.148590087890625;4.97999998742671;499;1 A;
225.62955843034;-1.1492919921875;-0.1485595703125;4.98999998740146;500;1 A;
225.639558430315;-1.14990234375;-0.14849853515625;4.99999998737621;501;1 A;
225.64955843029;-1.14959716796875;-0.14837646484375;5.00999998735097;502;1 A;
225.659558430264;-1.14959716796875;-0.148345947265625;5.01999998732572;503;1 A;
225.669558430239;-1.1492919921875;-0.148223876953125;5.02999998730047;504;1 A;
225.679558430214;-1.14959716796875;-0.148193359375;5.03999998727522;505;1 A;
225.689558430189;-1.14959716796875;-0.148101806640625;5.04999998724998;506;1 A;
225.699558430163;-1.14959716796875;-0.148040771484375;5.05999998722473;507;1 A;
225.709558430138;-1.14990234375;-0.147979736328125;5.06999998719948;508;1 A;
225.719558430113;-1.1492919921875;-0.1478271484375;5.07999998717423;509;1 A;
225.729558430088;-1.14959716796875;-0.14776611328125;5.08999998714899;510;1 A;
225.739558430062;-1.14959716796875;-0.147705078125;5.09999998712374;511;1 A;
225.749558430037;-1.14959716796875;-0.147613525390625;5.10999998709849;512;1 A;
225.759558430012;-1.14959716796875;-0.1475830078125;5.11999998707324;513;1 A;
225.769558429987;-1.14990234375;-0.147430419921875;5.129999987048;514;1 A;
225.779558429961;-1.1492919921875;-0.147369384765625;5.13999998702275;515;1 A;
225.789558429936;-1.14990234375;-0.1473388671875;5.1499999869975;516;1 A;
225.799558429911;-1.14990234375;-0.147247314453125;5.15999998697225;517;1 A;
225.809558429886;-1.14959716796875;-0.147216796875;5.169999986947;518;1 A;
225.81955842986;-1.1492919921875;-0.147064208984375;5.17999998692176;519;1 A;
225.829558429835;-1.14990234375;-0.14703369140625;5.18999998689651;520;1 A;
225.83955842981;-1.14990234375;-0.14697265625;5.19999998687126;521;1 A;
225.849558429785;-1.14959716796875;-0.146881103515625;5.20999998684601;522;1 A;
225.859558429759;-1.14990234375;-0.1468505859375;5.21999998682077;523;1 A;
225.869558429734;-1.14959716796875;-0.146728515625;5.22999998679552;524;1 A;
225.879558429709;-1.1492919921875;-0.14666748046875;5.23999998677027;525;1 A;
225.889558429684;-1.14959716796875;-0.1466064453125;5.24999998674502;526;1 A;
225.899558429658;-1.1492919921875;-0.146514892578125;5.25999998671978;527;1 A;
225.909558429633;-1.14959716796875;-0.146514892578125;5.26999998669453;528;1 A;
225.919558429608;-1.14959716796875;-0.1463623046875;5.27999998666928;529;1 A;
225.929558429583;-1.14959716796875;-0.146331787109375;5.28999998664403;530;1 A;
225.939558429557;-1.14959716796875;-0.146270751953125;5.29999998661879;531;1 A;
225.949558429532;-1.14959716796875;-0.14617919921875;5.30999998659354;532;1 A;
225.959558429507;-1.14959716796875;-0.1461181640625;5.31999998656829;533;1 A;
225.969558429482;-1.1492919921875;-0.146026611328125;5.32999998654304;534;1 A;
225.979558429456;-1.14990234375;-0.145965576171875;5.3399999865178;535;1 A;
225.989558429431;-1.14959716796875;-0.145904541015625;5.34999998649255;536;1 A;
225.999558429406;-1.14959716796875;-0.145843505859375;5.3599999864673;537;1 A;
226.009558429381;-1.14990234375;-0.14581298828125;5.36999998644205;538;1 A;
226.019558429355;-1.14990234375;-0.145660400390625;5.37999998641681;539;1 A;
226.02955842933;-1.14959716796875;-0.1456298828125;5.38999998639156;540;1 A;
226.039558429305;-1.1492919921875;-0.14556884765625;5.39999998636631;541;1 A;
226.04955842928;-1.14990234375;-0.1455078125;5.40999998634106;542;1 A;
226.059558429254;-1.1492919921875;-0.1455078125;5.41999998631582;543;1 A;
226.069558429229;-1.14959716796875;-0.1453857421875;5.42999998629057;544;1 A;
226.079558429204;-1.14959716796875;-0.145355224609375;5.43999998626532;545;1 A;
226.089558429179;-1.1492919921875;-0.145263671875;5.44999998624007;546;1 A;
226.099558429153;-1.148681640625;-0.145233154296875;5.45999998621483;547;1 A;
226.109558429128;-1.14959716796875;-0.14520263671875;5.46999998618958;548;1 A;
226.119558429103;-1.1492919921875;-0.145111083984375;5.47999998616433;549;1 A;
226.129558429078;-1.14990234375;-0.14501953125;5.48999998613908;550;1 A;
226.139558429052;-1.14959716796875;-0.14495849609375;5.49999998611383;551;1 A;
226.149558429027;-1.15020751953125;-0.1448974609375;5.50999998608859;552;1 A;
226.159558429002;-1.14959716796875;-0.1448974609375;5.51999998606334;553;1 A;
226.169558428977;-1.1492919921875;-0.144805908203125;5.52999998603809;554;1 A;
226.179558428952;-1.14959716796875;-0.144744873046875;5.53999998601284;555;1 A;
226.189558428926;-1.14959716796875;-0.144683837890625;5.5499999859876;556;1 A;
226.199558428901;-1.14959716796875;-0.144622802734375;5.55999998596235;557;1 A;
226.209558428876;-1.14959716796875;-0.14459228515625;5.5699999859371;558;1 A;
226.219558428851;-1.15020751953125;-0.144500732421875;5.57999998591185;559;1 A;
226.229558428825;-1.14898681640625;-0.14447021484375;5.58999998588661;560;1 A;
226.2395584288;-1.14990234375;-0.144378662109375;5.59999998586136;561;1 A;
226.249558428775;-1.14990234375;-0.14434814453125;5.60999998583611;562;1 A;
226.25955842875;-1.14959716796875;-0.144317626953125;5.61999998581086;563;1 A;
226.269558428724;-1.1492919921875;-0.14422607421875;5.62999998578562;564;1 A;
226.279558428699;-1.1492919921875;-0.144134521484375;5.63999998576037;565;1 A;
226.289558428674;-1.1492919921875;-0.14410400390625;5.64999998573512;566;1 A;
226.299558428649;-1.14959716796875;-0.14404296875;5.65999998570987;567;1 A;
226.309558428623;-1.14959716796875;-0.14404296875;5.66999998568463;568;1 A;
226.319558428598;-1.14959716796875;-0.143951416015625;5.67999998565938;569;1 A;
226.329558428573;-1.14959716796875;-0.143890380859375;5.68999998563413;570;1 A;
226.339558428548;-1.14959716796875;-0.14385986328125;5.69999998560888;571;1 A;
226.349558428522;-1.14959716796875;-0.143798828125;5.70999998558364;572;1 A;
226.359558428497;-1.14959716796875;-0.143768310546875;5.71999998555839;573;1 A;
226.369558428472;-1.14959716796875;-0.143707275390625;5.72999998553314;574;1 A;
226.379558428447;-1.14959716796875;-0.1436767578125;5.73999998550789;575;1 A;
226.389558428421;-1.14959716796875;-0.14361572265625;5.74999998548265;576;1 A;
226.399558428396;-1.1492919921875;-0.143585205078125;5.7599999854574;577;1 A;
226.409558428371;-1.14990234375;-0.143524169921875;5.76999998543215;578;1 A;
226.419558428346;-1.14990234375;-0.143463134765625;5.7799999854069;579;1 A;
226.42955842832;-1.14990234375;-0.14337158203125;5.78999998538166;580;1 A;
226.439558428295;-1.14959716796875;-0.143341064453125;5.79999998535641;581;1 A;
226.44955842827;-1.14959716796875;-0.14324951171875;5.80999998533116;582;1 A;
226.459558428245;-1.14959716796875;-0.143218994140625;5.81999998530591;583;1 A;
226.469558428219;-1.148681640625;-0.143157958984375;5.82999998528066;584;1 A;
226.479558428194;-1.14990234375;-0.14312744140625;5.83999998525542;585;1 A;
226.489558428169;-1.1492919921875;-0.143096923828125;5.84999998523017;586;1 A;
226.499558428144;-1.1492919921875;-0.14300537109375;5.85999998520492;587;1 A;
226.509558428118;-1.1492919921875;-0.142974853515625;5.86999998517967;588;1 A;
226.519558428093;-1.14959716796875;-0.142974853515625;5.87999998515443;589;1 A;
226.529558428068;-1.1492919921875;-0.14288330078125;5.88999998512918;590;1 A;
226.539558428043;-1.14990234375;-0.14288330078125;5.89999998510393;591;1 A;
226.549558428017;-1.14898681640625;-0.142822265625;5.90999998507868;592;1 A;
226.559558427992;-1.14959716796875;-0.142791748046875;5.91999998505344;593;1 A;
226.569558427967;-1.1492919921875;-0.142730712890625;5.92999998502819;594;1 A;
226.579558427942;-1.14898681640625;-0.142669677734375;5.93999998500294;595;1 A;
226.589558427916;-1.14959716796875;-0.142608642578125;5.94999998497769;596;1 A;
226.599558427891;-1.14959716796875;-0.142547607421875;5.95999998495245;597;1 A;
226.609558427866;-1.1492919921875;-0.14251708984375;5.9699999849272;598;1 A;
226.619558427841;-1.14959716796875;-0.142425537109375;5.97999998490195;599;1 A;
226.629558427815;-1.14959716796875;-0.14239501953125;5.9899999848767;600;1 A;
226.63955842779;-1.14959716796875;-0.142364501953125;5.99999998485146;601;1 A;
226.649558427765;-1.15020751953125;-0.142303466796875;6.00999998482621;602;1 A;
226.65955842774;-1.14959716796875;-0.142303466796875;6.01999998480096;603;1 A;
226.669558427714;-1.14959716796875;-0.1422119140625;6.02999998477571;604;1 A;
226.679558427689;-1.14959716796875;-0.142181396484375;6.03999998475047;605;1 A;
226.689558427664;-1.14959716796875;-0.14215087890625;6.04999998472522;606;1 A;
226.699558427639;-1.14959716796875;-0.142059326171875;6.05999998469997;607;1 A;
226.709558427613;-1.1492919921875;-0.14202880859375;6.06999998467472;608;1 A;
226.719558427588;-1.1492919921875;-0.141937255859375;6.07999998464948;609;1 A;
226.729558427563;-1.15020751953125;-0.14190673828125;6.08999998462423;610;1 A;
226.739558427538;-1.14990234375;-0.141876220703125;6.09999998459898;611;1 A;
226.749558427512;-1.15020751953125;-0.141815185546875;6.10999998457373;612;1 A;
226.759558427487;-1.14959716796875;-0.141815185546875;6.11999998454849;613;1 A;
226.769558427462;-1.1492919921875;-0.1417236328125;6.12999998452324;614;1 A;
226.779558427437;-1.1492919921875;-0.141693115234375;6.13999998449799;615;1 A;
226.789558427411;-1.14990234375;-0.14166259765625;6.14999998447274;616;1 A;
226.799558427386;-1.14990234375;-0.141632080078125;6.1599999844475;617;1 A;
226.809558427361;-1.14990234375;-0.141632080078125;6.16999998442225;618;1 A;
226.819558427336;-1.14959716796875;-0.141510009765625;6.179999984397;619;1 A;
226.82955842731;-1.1492919921875;-0.1414794921875;6.18999998437175;620;1 A;
226.839558427285;-1.15020751953125;-0.14141845703125;6.1999999843465;621;1 A;
226.84955842726;-1.14898681640625;-0.141387939453125;6.20999998432126;622;1 A;
226.859558427235;-1.1492919921875;-0.141326904296875;6.21999998429601;623;1 A;
226.869558427209;-1.14990234375;-0.141265869140625;6.22999998427076;624;1 A;
226.879558427184;-1.14990234375;-0.1412353515625;6.23999998424551;625;1 A;
226.889558427159;-1.14990234375;-0.141204833984375;6.24999998422027;626;1 A;
226.899558427134;-1.14959716796875;-0.141143798828125;6.25999998419502;627;1 A;
226.909558427108;-1.14959716796875;-0.14117431640625;6.26999998416977;628;1 A;
226.919558427083;-1.1492919921875;-0.141082763671875;6.27999998414452;629;1 A;
226.929558427058;-1.14959716796875;-0.141082763671875;6.28999998411928;630;1 A;
226.939558427033;-1.1492919921875;-0.141021728515625;6.29999998409403;631;1 A;
226.949558427007;-1.15020751953125;-0.1409912109375;6.30999998406878;632;1 A;
226.959558426982;-1.1492919921875;-0.140960693359375;6.31999998404353;633;1 A;
226.969558426957;-1.14959716796875;-0.140899658203125;6.32999998401829;634;1 A;
226.979558426932;-1.14959716796875;-0.140869140625;6.33999998399304;635;1 A;
226.989558426906;-1.14959716796875;-0.14080810546875;6.34999998396779;636;1 A;
226.999558426881;-1.15020751953125;-0.1407470703125;6.35999998394254;637;1 A;
227.009558426856;-1.14959716796875;-0.140716552734375;6.3699999839173;638;1 A;
227.019558426831;-1.14959716796875;-0.140655517578125;6.37999998389205;639;1 A;
227.029558426805;-1.1492919921875;-0.14056396484375;6.3899999838668;640;1 A;
227.03955842678;-1.14959716796875;-0.14056396484375;6.39999998384155;641;1 A;
227.049558426755;-1.14959716796875;-0.1405029296875;6.40999998381631;642;1 A;
227.05955842673;-1.1492919921875;-0.1405029296875;6.41999998379106;643;1 A;
227.069558426704;-1.14898681640625;-0.140411376953125;6.42999998376581;644;1 A;
227.079558426679;-1.15020751953125;-0.140380859375;6.43999998374056;645;1 A;
227.089558426654;-1.14959716796875;-0.14031982421875;6.44999998371532;646;1 A;
227.099558426629;-1.14990234375;-0.14031982421875;6.45999998369007;647;1 A;
227.109558426603;-1.14990234375;-0.140289306640625;6.46999998366482;648;1 A;
227.119558426578;-1.1492919921875;-0.140228271484375;6.47999998363957;649;1 A;
227.129558426553;-1.14990234375;-0.140167236328125;6.48999998361433;650;1 A;
227.139558426528;-1.1492919921875;-0.14013671875;6.49999998358908;651;1 A;
227.149558426502;-1.14990234375;-0.140045166015625;6.50999998356383;652;1 A;
227.159558426477;-1.14959716796875;-0.14007568359375;6.51999998353858;653;1 A;
227.169558426452;-1.14959716796875;-0.13995361328125;6.52999998351333;654;1 A;
227.179558426427;-1.14990234375;-0.13995361328125;6.53999998348809;655;1 A;
227.189558426402;-1.1492919921875;-0.139862060546875;6.54999998346284;656;1 A;
227.199558426376;-1.14990234375;-0.13983154296875;6.55999998343759;657;1 A;
227.209558426351;-1.14990234375;-0.139801025390625;6.56999998341234;658;1 A;
227.219558426326;-1.14959716796875;-0.139739990234375;6.5799999833871;659;1 A;
227.229558426301;-1.1492919921875;-0.139678955078125;6.58999998336185;660;1 A;
227.239558426275;-1.14990234375;-0.1396484375;6.5999999833366;661;1 A;
227.24955842625;-1.14959716796875;-0.13958740234375;6.60999998331135;662;1 A;
227.259558426225;-1.14990234375;-0.139617919921875;6.61999998328611;663;1 A;
227.2695584262;-1.14959716796875;-0.1395263671875;6.62999998326086;664;1 A;
227.279558426174;-1.1492919921875;-0.139495849609375;6.63999998323561;665;1 A;
227.289558426149;-1.14959716796875;-0.13946533203125;6.64999998321036;666;1 A;
227.299558426124;-1.14959716796875;-0.139404296875;6.65999998318512;667;1 A;
227.309558426099;-1.14959716796875;-0.139404296875;6.66999998315987;668;1 A;
227.319558426073;-1.14959716796875;-0.13934326171875;6.67999998313462;669;1 A;
227.329558426048;-1.14959716796875;-0.139312744140625;6.68999998310937;670;1 A;
227.339558426023;-1.1492919921875;-0.139251708984375;6.69999998308413;671;1 A;
227.349558425998;-1.1492919921875;-0.13922119140625;6.70999998305888;672;1 A;
227.359558425972;-1.14959716796875;-0.139190673828125;6.71999998303363;673;1 A;
227.369558425947;-1.14990234375;-0.13916015625;6.72999998300838;674;1 A;
227.379558425922;-1.1492919921875;-0.139129638671875;6.73999998298314;675;1 A;
227.389558425897;-1.14959716796875;-0.139068603515625;6.74999998295789;676;1 A;
227.399558425871;-1.14959716796875;-0.139007568359375;6.75999998293264;677;1 A;
227.409558425846;-1.14990234375;-0.1390380859375;6.76999998290739;678;1 A;
227.419558425821;-1.1492919921875;-0.138916015625;6.77999998288215;679;1 A;
227.429558425796;-1.14898681640625;-0.138916015625;6.7899999828569;680;1 A;
227.43955842577;-1.1492919921875;-0.13885498046875;6.79999998283165;681;1 A;
227.449558425745;-1.14990234375;-0.138824462890625;6.8099999828064;682;1 A;
227.45955842572;-1.1492919921875;-0.1387939453125;6.81999998278116;683;1 A;
227.469558425695;-1.14959716796875;-0.13873291015625;6.82999998275591;684;1 A;
227.479558425669;-1.14959716796875;-0.13873291015625;6.83999998273066;685;1 A;
227.489558425644;-1.1492919921875;-0.138702392578125;6.84999998270541;686;1 A;
227.499558425619;-1.1492919921875;-0.138641357421875;6.85999998268016;687;1 A;
227.509558425594;-1.1492919921875;-0.138671875;6.86999998265492;688;1 A;
227.519558425568;-1.14959716796875;-0.13861083984375;6.87999998262967;689;1 A;
227.529558425543;-1.14959716796875;-0.13861083984375;6.88999998260442;690;1 A;
227.539558425518;-1.14959716796875;-0.1385498046875;6.89999998257917;691;1 A;
227.549558425493;-1.14959716796875;-0.13848876953125;6.90999998255393;692;1 A;
227.559558425467;-1.14959716796875;-0.138458251953125;6.91999998252868;693;1 A;
227.569558425442;-1.1492919921875;-0.138397216796875;6.92999998250343;694;1 A;
227.579558425417;-1.1492919921875;-0.138336181640625;6.93999998247818;695;1 A;
227.589558425392;-1.1492919921875;-0.138275146484375;6.94999998245294;696;1 A;
227.599558425366;-1.1492919921875;-0.13824462890625;6.95999998242769;697;1 A;
227.609558425341;-1.14959716796875;-0.138214111328125;6.96999998240244;698;1 A;
227.619558425316;-1.14959716796875;-0.13818359375;6.97999998237719;699;1 A;
227.629558425291;-1.1492919921875;-0.138153076171875;6.98999998235195;700;1 A;
227.639558425265;-1.14959716796875;-0.138214111328125;6.9999999823267;701;1 A;
227.64955842524;-1.14959716796875;-0.138153076171875;7.00999998230145;702;1 A;
227.659558425215;-1.14959716796875;-0.13818359375;7.0199999822762;703;1 A;
227.66955842519;-1.14959716796875;-0.13812255859375;7.02999998225096;704;1 A;
227.679558425164;-1.14990234375;-0.138092041015625;7.03999998222571;705;1 A;
227.689558425139;-1.14990234375;-0.1380615234375;7.04999998220046;706;1 A;
227.699558425114;-1.1492919921875;-0.13800048828125;7.05999998217521;707;1 A;
227.709558425089;-1.14959716796875;-0.137939453125;7.06999998214997;708;1 A;
227.719558425063;-1.14959716796875;-0.13787841796875;7.07999998212472;709;1 A;
227.729558425038;-1.14898681640625;-0.1378173828125;7.08999998209947;710;1 A;
227.739558425013;-1.14990234375;-0.1378173828125;7.09999998207422;711;1 A;
227.749558424988;-1.14959716796875;-0.13775634765625;7.10999998204898;712;1 A;
227.759558424962;-1.14990234375;-0.137725830078125;7.11999998202373;713;1 A;
227.769558424937;-1.14959716796875;-0.1376953125;7.12999998199848;714;1 A;
227.779558424912;-1.14990234375;-0.137664794921875;7.13999998197323;715;1 A;
227.789558424887;-1.14959716796875;-0.1376953125;7.14999998194799;716;1 A;
227.799558424861;-1.14959716796875;-0.1376953125;7.15999998192274;717;1 A;
227.809558424836;-1.1492919921875;-0.1376953125;7.16999998189749;718;1 A;
227.819558424811;-1.14990234375;-0.137603759765625;7.17999998187224;719;1 A;
227.829558424786;-1.14959716796875;-0.137603759765625;7.189999981847;720;1 A;
227.83955842476;-1.14990234375;-0.1375732421875;7.19999998182175;721;1 A;
227.849558424735;-1.14990234375;-0.137481689453125;7.2099999817965;722;1 A;
227.85955842471;-1.1492919921875;-0.137451171875;7.21999998177125;723;1 A;
227.869558424685;-1.14959716796875;-0.137359619140625;7.229999981746;724;1 A;
227.879558424659;-1.1492919921875;-0.137298583984375;7.23999998172076;725;1 A;
227.889558424634;-1.14959716796875;-0.137298583984375;7.24999998169551;726;1 A;
227.899558424609;-1.1492919921875;-0.137237548828125;7.25999998167026;727;1 A;
227.909558424584;-1.14959716796875;-0.137237548828125;7.26999998164501;728;1 A;
227.919558424558;-1.14959716796875;-0.137176513671875;7.27999998161977;729;1 A;
227.929558424533;-1.14959716796875;-0.13714599609375;7.28999998159452;730;1 A;
227.939558424508;-1.14990234375;-0.13714599609375;7.29999998156927;731;1 A;
227.949558424483;-1.14959716796875;-0.1370849609375;7.30999998154402;732;1 A;
227.959558424457;-1.148681640625;-0.137115478515625;7.31999998151878;733;1 A;
227.969558424432;-1.14959716796875;-0.137054443359375;7.32999998149353;734;1 A;
227.979558424407;-1.1492919921875;-0.13702392578125;7.33999998146828;735;1 A;
227.989558424382;-1.14959716796875;-0.136962890625;7.34999998144303;736;1 A;
227.999558424356;-1.14990234375;-0.136932373046875;7.35999998141779;737;1 A;
228.009558424331;-1.14959716796875;-0.13690185546875;7.36999998139254;738;1 A;
228.019558424306;-1.1492919921875;-0.136810302734375;7.37999998136729;739;1 A;
228.029558424281;-1.14959716796875;-0.13671875;7.38999998134204;740;1 A;
228.039558424255;-1.14959716796875;-0.136749267578125;7.3999999813168;741;1 A;
228.04955842423;-1.14990234375;-0.13665771484375;7.40999998129155;742;1 A;
228.059558424205;-1.14959716796875;-0.13665771484375;7.4199999812663;743;1 A;
228.06955842418;-1.14990234375;-0.1365966796875;7.42999998124105;744;1 A;
228.079558424154;-1.14990234375;-0.136566162109375;7.43999998121581;745;1 A;
228.089558424129;-1.14959716796875;-0.13653564453125;7.44999998119056;746;1 A;
228.099558424104;-1.14959716796875;-0.13653564453125;7.45999998116531;747;1 A;
228.109558424079;-1.15020751953125;-0.136505126953125;7.46999998114006;748;1 A;
228.119558424053;-1.14898681640625;-0.136444091796875;7.47999998111482;749;1 A;
228.129558424028;-1.14990234375;-0.13641357421875;7.48999998108957;750;1 A;
228.139558424003;-1.1492919921875;-0.136383056640625;7.49999998106432;751;1 A;
228.149558423978;-1.14959716796875;-0.136322021484375;7.50999998103907;752;1 A;
228.159558423952;-1.14959716796875;-0.13629150390625;7.51999998101383;753;1 A;
228.169558423927;-1.14990234375;-0.13623046875;7.52999998098858;754;1 A;
228.179558423902;-1.15020751953125;-0.13616943359375;7.53999998096333;755;1 A;
228.189558423877;-1.14959716796875;-0.136138916015625;7.54999998093808;756;1 A;
228.199558423851;-1.14959716796875;-0.136077880859375;7.55999998091283;757;1 A;
228.209558423826;-1.1492919921875;-0.136138916015625;7.56999998088759;758;1 A;
228.219558423801;-1.14959716796875;-0.136016845703125;7.57999998086234;759;1 A;
228.229558423776;-1.14959716796875;-0.136016845703125;7.58999998083709;760;1 A;
228.239558423751;-1.14990234375;-0.135986328125;7.59999998081184;761;1 A;
228.249558423725;-1.1492919921875;-0.13592529296875;7.6099999807866;762;1 A;
228.2595584237;-1.14990234375;-0.13592529296875;7.61999998076135;763;1 A;
228.269558423675;-1.1492919921875;-0.1358642578125;7.6299999807361;764;1 A;
228.27955842365;-1.15020751953125;-0.13580322265625;7.63999998071085;765;1 A;
228.289558423624;-1.14959716796875;-0.135772705078125;7.64999998068561;766;1 A;
228.299558423599;-1.14898681640625;-0.135711669921875;7.65999998066036;767;1 A;
228.309558423574;-1.15020751953125;-0.135711669921875;7.66999998063511;768;1 A;
228.319558423549;-1.15020751953125;-0.1356201171875;7.67999998060986;769;1 A;
228.329558423523;-1.14990234375;-0.13555908203125;7.68999998058462;770;1 A;
228.339558423498;-1.14990234375;-0.13555908203125;7.69999998055937;771;1 A;
228.349558423473;-1.1492919921875;-0.135467529296875;7.70999998053412;772;1 A;
228.359558423448;-1.14990234375;-0.135498046875;7.71999998050887;773;1 A;
228.369558423422;-1.14990234375;-0.135406494140625;7.72999998048363;774;1 A;
228.379558423397;-1.15020751953125;-0.135406494140625;7.73999998045838;775;1 A;
228.389558423372;-1.14898681640625;-0.135406494140625;7.74999998043313;776;1 A;
228.399558423347;-1.14959716796875;-0.13531494140625;7.75999998040788;777;1 A;
228.409558423321;-1.14959716796875;-0.13531494140625;7.76999998038264;778;1 A;
228.419558423296;-1.1492919921875;-0.135223388671875;7.77999998035739;779;1 A;
228.429558423271;-1.1492919921875;-0.13519287109375;7.78999998033214;780;1 A;
228.439558423246;-1.14990234375;-0.13519287109375;7.79999998030689;781;1 A;
228.44955842322;-1.14959716796875;-0.13507080078125;7.80999998028165;782;1 A;
228.459558423195;-1.14959716796875;-0.135101318359375;7.8199999802564;783;1 A;
228.46955842317;-1.1492919921875;-0.134979248046875;7.82999998023115;784;1 A;
228.479558423145;-1.1492919921875;-0.134979248046875;7.8399999802059;785;1 A;
228.489558423119;-1.14990234375;-0.13494873046875;7.84999998018066;786;1 A;
228.499558423094;-1.1492919921875;-0.1348876953125;7.85999998015541;787;1 A;
228.509558423069;-1.14959716796875;-0.1348876953125;7.86999998013016;788;1 A;
228.519558423044;-1.14990234375;-0.134765625;7.87999998010491;789;1 A;
228.529558423018;-1.1492919921875;-0.134796142578125;7.88999998007966;790;1 A;
228.539558422993;-1.14990234375;-0.134765625;7.89999998005442;791;1 A;
228.549558422968;-1.14990234375;-0.134735107421875;7.90999998002917;792;1 A;
228.559558422943;-1.14959716796875;-0.134765625;7.91999998000392;793;1 A;
228.569558422917;-1.14990234375;-0.1346435546875;7.92999997997867;794;1 A;
228.579558422892;-1.14959716796875;-0.1346435546875;7.93999997995343;795;1 A;
228.589558422867;-1.1492919921875;-0.13458251953125;7.94999997992818;796;1 A;
228.599558422842;-1.14990234375;-0.134552001953125;7.95999997990293;797;1 A;
228.609558422816;-1.14959716796875;-0.134490966796875;7.96999997987768;798;1 A;
228.619558422791;-1.14959716796875;-0.134429931640625;7.97999997985244;799;1 A;
228.629558422766;-1.14959716796875;-0.1343994140625;7.98999997982719;800;1 A;
228.639558422741;-1.14959716796875;-0.1343994140625;7.99999997980194;801;1 A;
228.649558422715;-1.14959716796875;-0.134307861328125;8.00999997977669;802;1 A;
228.65955842269;-1.14959716796875;-0.13427734375;8.01999997975145;803;1 A;
228.669558422665;-1.14959716796875;-0.134185791015625;8.0299999797262;804;1 A;
228.67955842264;-1.14990234375;-0.134185791015625;8.03999997970095;805;1 A;
228.689558422614;-1.14959716796875;-0.134124755859375;8.0499999796757;806;1 A;
228.699558422589;-1.14990234375;-0.1341552734375;8.05999997965046;807;1 A;
228.709558422564;-1.14898681640625;-0.1341552734375;8.06999997962521;808;1 A;
228.719558422539;-1.14990234375;-0.134124755859375;8.07999997959996;809;1 A;
228.729558422513;-1.14898681640625;-0.134124755859375;8.08999997957471;810;1 A;
228.739558422488;-1.14959716796875;-0.13409423828125;8.09999997954947;811;1 A;
228.749558422463;-1.14959716796875;-0.134033203125;8.10999997952422;812;1 A;
228.759558422438;-1.14959716796875;-0.134002685546875;8.11999997949897;813;1 A;
228.769558422412;-1.14959716796875;-0.1339111328125;8.12999997947372;814;1 A;
228.779558422387;-1.14959716796875;-0.13385009765625;8.13999997944848;815;1 A;
228.789558422362;-1.14990234375;-0.13385009765625;8.14999997942323;816;1 A;
228.799558422337;-1.1492919921875;-0.133758544921875;8.15999997939798;817;1 A;
228.809558422311;-1.14990234375;-0.133758544921875;8.16999997937273;818;1 A;
228.819558422286;-1.14959716796875;-0.13360595703125;8.17999997934749;819;1 A;
228.829558422261;-1.1492919921875;-0.133575439453125;8.18999997932224;820;1 A;
228.839558422236;-1.14959716796875;-0.133514404296875;8.19999997929699;821;1 A;
228.84955842221;-1.1492919921875;-0.133544921875;8.20999997927174;822;1 A;
228.859558422185;-1.14990234375;-0.133514404296875;8.2199999792465;823;1 A;
228.86955842216;-1.14959716796875;-0.13348388671875;8.22999997922125;824;1 A;
228.879558422135;-1.1492919921875;-0.13348388671875;8.239999979196;825;1 A;
228.889558422109;-1.14959716796875;-0.133453369140625;8.24999997917075;826;1 A;
228.899558422084;-1.14990234375;-0.1334228515625;8.2599999791455;827;1 A;
228.909558422059;-1.14959716796875;-0.1334228515625;8.26999997912026;828;1 A;
228.919558422034;-1.14959716796875;-0.133331298828125;8.27999997909501;829;1 A;
228.929558422008;-1.14990234375;-0.13330078125;8.28999997906976;830;1 A;
228.939558421983;-1.14898681640625;-0.13323974609375;8.29999997904451;831;1 A;
228.949558421958;-1.14959716796875;-0.1331787109375;8.30999997901927;832;1 A;
228.959558421933;-1.14959716796875;-0.1331787109375;8.31999997899402;833;1 A;
228.969558421907;-1.14990234375;-0.133056640625;8.32999997896877;834;1 A;
228.979558421882;-1.1492919921875;-0.133026123046875;8.33999997894352;835;1 A;
228.989558421857;-1.1492919921875;-0.132965087890625;8.34999997891828;836;1 A;
228.999558421832;-1.14990234375;-0.1329345703125;8.35999997889303;837;1 A;
229.009558421806;-1.14990234375;-0.1329345703125;8.36999997886778;838;1 A;
229.019558421781;-1.14959716796875;-0.1329345703125;8.37999997884253;839;1 A;
229.029558421756;-1.14898681640625;-0.13287353515625;8.38999997881729;840;1 A;
229.039558421731;-1.14959716796875;-0.132904052734375;8.39999997879204;841;1 A;
229.049558421705;-1.14959716796875;-0.132843017578125;8.40999997876679;842;1 A;
229.05955842168;-1.1492919921875;-0.132843017578125;8.41999997874154;843;1 A;
229.069558421655;-1.14990234375;-0.13275146484375;8.4299999787163;844;1 A;
229.07955842163;-1.1492919921875;-0.132720947265625;8.43999997869105;845;1 A;
229.089558421604;-1.14990234375;-0.1326904296875;8.4499999786658;846;1 A;
229.099558421579;-1.14959716796875;-0.132659912109375;8.45999997864055;847;1 A;
229.109558421554;-1.14959716796875;-0.13262939453125;8.46999997861531;848;1 A;
229.119558421529;-1.14990234375;-0.132537841796875;8.47999997859006;849;1 A;
229.129558421503;-1.14959716796875;-0.132476806640625;8.48999997856481;850;1 A;
229.139558421478;-1.14959716796875;-0.1324462890625;8.49999997853956;851;1 A;
229.149558421453;-1.14959716796875;-0.132354736328125;8.50999997851432;852;1 A;
229.159558421428;-1.1492919921875;-0.132354736328125;8.51999997848907;853;1 A;
229.169558421402;-1.14990234375;-0.132293701171875;8.52999997846382;854;1 A;
229.179558421377;-1.1492919921875;-0.132293701171875;8.53999997843857;855;1 A;
229.189558421352;-1.14990234375;-0.132293701171875;8.54999997841333;856;1 A;
229.199558421327;-1.14990234375;-0.1322021484375;8.55999997838808;857;1 A;
229.209558421301;-1.14990234375;-0.132232666015625;8.56999997836283;858;1 A;
229.219558421276;-1.14959716796875;-0.132171630859375;8.57999997833758;859;1 A;
229.229558421251;-1.14990234375;-0.13214111328125;8.58999997831233;860;1 A;
229.239558421226;-1.1492919921875;-0.13214111328125;8.59999997828709;861;1 A;
229.249558421201;-1.14959716796875;-0.132049560546875;8.60999997826184;862;1 A;
229.259558421175;-1.14959716796875;-0.132080078125;8.61999997823659;863;1 A;
229.26955842115;-1.14959716796875;-0.131988525390625;8.62999997821134;864;1 A;
229.279558421125;-1.14959716796875;-0.131988525390625;8.6399999781861;865;1 A;
229.2895584211;-1.14990234375;-0.1319580078125;8.64999997816085;866;1 A;
229.299558421074;-1.1492919921875;-0.1318359375;8.6599999781356;867;1 A;
229.309558421049;-1.14959716796875;-0.131866455078125;8.66999997811035;868;1 A;
229.319558421024;-1.14990234375;-0.13177490234375;8.67999997808511;869;1 A;
229.329558420999;-1.14959716796875;-0.131744384765625;8.68999997805986;870;1 A;
229.339558420973;-1.14990234375;-0.1317138671875;8.69999997803461;871;1 A;
229.349558420948;-1.14990234375;-0.13165283203125;8.70999997800936;872;1 A;
229.359558420923;-1.14959716796875;-0.13165283203125;8.71999997798412;873;1 A;
229.369558420898;-1.1492919921875;-0.131561279296875;8.72999997795887;874;1 A;
229.379558420872;-1.14959716796875;-0.131561279296875;8.73999997793362;875;1 A;
229.389558420847;-1.14959716796875;-0.131591796875;8.74999997790837;876;1 A;
229.399558420822;-1.14959716796875;-0.131500244140625;8.75999997788313;877;1 A;
229.409558420797;-1.14959716796875;-0.131500244140625;8.76999997785788;878;1 A;
229.419558420771;-1.14959716796875;-0.13140869140625;8.77999997783263;879;1 A;
229.429558420746;-1.14959716796875;-0.131439208984375;8.78999997780738;880;1 A;
229.439558420721;-1.14990234375;-0.13140869140625;8.79999997778214;881;1 A;
229.449558420696;-1.14959716796875;-0.13134765625;8.80999997775689;882;1 A;
229.45955842067;-1.1492919921875;-0.131317138671875;8.81999997773164;883;1 A;
229.469558420645;-1.14990234375;-0.1312255859375;8.82999997770639;884;1 A;
229.47955842062;-1.14959716796875;-0.131195068359375;8.83999997768115;885;1 A;
229.489558420595;-1.14959716796875;-0.131195068359375;8.8499999776559;886;1 A;
229.499558420569;-1.14959716796875;-0.131103515625;8.85999997763065;887;1 A;
229.509558420544;-1.14959716796875;-0.13116455078125;8.8699999776054;888;1 A;
229.519558420519;-1.1492919921875;-0.13104248046875;8.87999997758016;889;1 A;
229.529558420494;-1.14959716796875;-0.13104248046875;8.88999997755491;890;1 A;
229.539558420468;-1.14959716796875;-0.131011962890625;8.89999997752966;891;1 A;
229.549558420443;-1.1492919921875;-0.130950927734375;8.90999997750441;892;1 A;
229.559558420418;-1.1492919921875;-0.130950927734375;8.91999997747916;893;1 A;
229.569558420393;-1.1492919921875;-0.130889892578125;8.92999997745392;894;1 A;
229.579558420367;-1.14990234375;-0.130859375;8.93999997742867;895;1 A;
229.589558420342;-1.14990234375;-0.130859375;8.94999997740342;896;1 A;
229.599558420317;-1.14990234375;-0.13079833984375;8.95999997737817;897;1 A;
229.609558420292;-1.14959716796875;-0.13079833984375;8.96999997735293;898;1 A;
229.619558420266;-1.15020751953125;-0.1307373046875;8.97999997732768;899;1 A;
229.629558420241;-1.14959716796875;-0.1307373046875;8.98999997730243;900;1 A;
229.639558420216;-1.1492919921875;-0.130706787109375;8.99999997727718;901;1 A;
229.649558420191;-1.14959716796875;-0.130645751953125;9.00999997725194;902;1 A;
229.659558420165;-1.14959716796875;-0.13067626953125;9.01999997722669;903;1 A;
229.66955842014;-1.14959716796875;-0.130584716796875;9.02999997720144;904;1 A;
229.679558420115;-1.15020751953125;-0.130615234375;9.03999997717619;905;1 A;
229.68955842009;-1.14959716796875;-0.130523681640625;9.04999997715095;906;1 A;
229.699558420064;-1.14898681640625;-0.1304931640625;9.0599999771257;907;1 A;
229.709558420039;-1.14990234375;-0.1304931640625;9.06999997710045;908;1 A;
229.719558420014;-1.1492919921875;-0.130401611328125;9.0799999770752;909;1 A;
229.729558419989;-1.14990234375;-0.130401611328125;9.08999997704996;910;1 A;
229.739558419963;-1.14959716796875;-0.130401611328125;9.09999997702471;911;1 A;
229.749558419938;-1.14959716796875;-0.130340576171875;9.10999997699946;912;1 A;
229.759558419913;-1.14990234375;-0.13037109375;9.11999997697421;913;1 A;
229.769558419888;-1.15020751953125;-0.13031005859375;9.12999997694897;914;1 A;
229.779558419862;-1.14959716796875;-0.13031005859375;9.13999997692372;915;1 A;
229.789558419837;-1.14959716796875;-0.13031005859375;9.14999997689847;916;1 A;
229.799558419812;-1.1492919921875;-0.13031005859375;9.15999997687322;917;1 A;
229.809558419787;-1.14959716796875;-0.13031005859375;9.16999997684798;918;1 A;
229.819558419761;-1.1492919921875;-0.130279541015625;9.17999997682273;919;1 A;
229.829558419736;-1.14959716796875;-0.130218505859375;9.18999997679748;920;1 A;
229.839558419711;-1.1492919921875;-0.13018798828125;9.19999997677223;921;1 A;
229.849558419686;-1.14959716796875;-0.130126953125;9.20999997674699;922;1 A;
229.85955841966;-1.1492919921875;-0.130126953125;9.21999997672174;923;1 A;
229.869558419635;-1.1492919921875;-0.13006591796875;9.22999997669649;924;1 A;
229.87955841961;-1.1492919921875;-0.130096435546875;9.23999997667124;925;1 A;
229.889558419585;-1.14990234375;-0.13006591796875;9.249999976646;926;1 A;
229.899558419559;-1.14990234375;-0.130035400390625;9.25999997662075;927;1 A;
229.909558419534;-1.1492919921875;-0.130035400390625;9.2699999765955;928;1 A;
229.919558419509;-1.1492919921875;-0.1300048828125;9.27999997657025;929;1 A;
229.929558419484;-1.14990234375;-0.1300048828125;9.289999976545;930;1 A;
229.939558419458;-1.14990234375;-0.129974365234375;9.29999997651976;931;1 A;
229.949558419433;-1.1492919921875;-0.12994384765625;9.30999997649451;932;1 A;
229.959558419408;-1.14959716796875;-0.12994384765625;9.31999997646926;933;1 A;
229.969558419383;-1.14959716796875;-0.129913330078125;9.32999997644401;934;1 A;
229.979558419357;-1.14990234375;-0.1298828125;9.33999997641877;935;1 A;
229.989558419332;-1.14959716796875;-0.12982177734375;9.34999997639352;936;1 A;
229.999558419307;-1.14959716796875;-0.129730224609375;9.35999997636827;937;1 A;
230.009558419282;-1.14959716796875;-0.129730224609375;9.36999997634302;938;1 A;
230.019558419256;-1.1492919921875;-0.129669189453125;9.37999997631778;939;1 A;
230.029558419231;-1.14959716796875;-0.129669189453125;9.38999997629253;940;1 A;
230.039558419206;-1.1492919921875;-0.129638671875;9.39999997626728;941;1 A;
230.049558419181;-1.14959716796875;-0.129608154296875;9.40999997624203;942;1 A;
230.059558419155;-1.1492919921875;-0.129608154296875;9.41999997621679;943;1 A;
230.06955841913;-1.14959716796875;-0.12957763671875;9.42999997619154;944;1 A;
230.079558419105;-1.14990234375;-0.129547119140625;9.43999997616629;945;1 A;
230.08955841908;-1.1492919921875;-0.129547119140625;9.44999997614104;946;1 A;
230.099558419054;-1.1492919921875;-0.1295166015625;9.4599999761158;947;1 A;
230.109558419029;-1.14990234375;-0.12945556640625;9.46999997609055;948;1 A;
230.119558419004;-1.14990234375;-0.129425048828125;9.4799999760653;949;1 A;
230.129558418979;-1.14959716796875;-0.129425048828125;9.48999997604005;950;1 A;
230.139558418953;-1.14959716796875;-0.12939453125;9.49999997601481;951;1 A;
230.149558418928;-1.14990234375;-0.129364013671875;9.50999997598956;952;1 A;
230.159558418903;-1.14990234375;-0.129302978515625;9.51999997596431;953;1 A;
230.169558418878;-1.14959716796875;-0.1292724609375;9.52999997593906;954;1 A;
230.179558418852;-1.14959716796875;-0.1292724609375;9.53999997591382;955;1 A;
230.189558418827;-1.14990234375;-0.1292724609375;9.54999997588857;956;1 A;
230.199558418802;-1.1492919921875;-0.129241943359375;9.55999997586332;957;1 A;
230.209558418777;-1.14959716796875;-0.129241943359375;9.56999997583807;958;1 A;
230.219558418751;-1.14959716796875;-0.12921142578125;9.57999997581283;959;1 A;
230.229558418726;-1.1492919921875;-0.12921142578125;9.58999997578758;960;1 A;
230.239558418701;-1.14959716796875;-0.1292724609375;9.59999997576233;961;1 A;
230.249558418676;-1.14990234375;-0.129241943359375;9.60999997573708;962;1 A;
230.25955841865;-1.1492919921875;-0.129241943359375;9.61999997571183;963;1 A;
230.269558418625;-1.14990234375;-0.12921142578125;9.62999997568659;964;1 A;
230.2795584186;-1.14959716796875;-0.129180908203125;9.63999997566134;965;1 A;
230.289558418575;-1.14990234375;-0.129241943359375;9.64999997563609;966;1 A;
230.29955841855;-1.14959716796875;-0.129180908203125;9.65999997561084;967;1 A;
230.309558418524;-1.14990234375;-0.129180908203125;9.6699999755856;968;1 A;
230.319558418499;-1.14959716796875;-0.129119873046875;9.67999997556035;969;1 A;
230.329558418474;-1.14959716796875;-0.129119873046875;9.6899999755351;970;1 A;
230.339558418449;-1.1492919921875;-0.129119873046875;9.69999997550985;971;1 A;
230.349558418423;-1.148681640625;-0.12908935546875;9.70999997548461;972;1 A;
230.359558418398;-1.14959716796875;-0.129119873046875;9.71999997545936;973;1 A;
230.369558418373;-1.14990234375;-0.12908935546875;9.72999997543411;974;1 A;
230.379558418348;-1.14990234375;-0.12908935546875;9.73999997540886;975;1 A;
230.389558418322;-1.14959716796875;-0.129119873046875;9.74999997538362;976;1 A;
230.399558418297;-1.14959716796875;-0.129119873046875;9.75999997535837;977;1 A;
230.409558418272;-1.14990234375;-0.129150390625;9.76999997533312;978;1 A;
230.419558418247;-1.14959716796875;-0.129119873046875;9.77999997530787;979;1 A;
230.429558418221;-1.15020751953125;-0.129150390625;9.78999997528263;980;1 A;
230.439558418196;-1.14990234375;-0.129150390625;9.79999997525738;981;1 A;
230.449558418171;-1.15020751953125;-0.129150390625;9.80999997523213;982;1 A;
230.459558418146;-1.1492919921875;-0.129180908203125;9.81999997520688;983;1 A;
230.46955841812;-1.1492919921875;-0.129119873046875;9.82999997518164;984;1 A;
230.479558418095;-1.1492919921875;-0.129119873046875;9.83999997515639;985;1 A;
230.48955841807;-1.14959716796875;-0.12908935546875;9.84999997513114;986;1 A;
230.499558418045;-1.14990234375;-0.12908935546875;9.85999997510589;987;1 A;
230.509558418019;-1.14990234375;-0.129119873046875;9.86999997508065;988;1 A;
230.519558417994;-1.14990234375;-0.129119873046875;9.8799999750554;989;1 A;
230.529558417969;-1.1492919921875;-0.129119873046875;9.88999997503015;990;1 A;
230.539558417944;-1.14959716796875;-0.129150390625;9.8999999750049;991;1 A;
230.549558417918;-1.1492919921875;-0.129150390625;9.90999997497966;992;1 A;
230.559558417893;-1.14959716796875;-0.12921142578125;9.91999997495441;993;1 A;
230.569558417868;-1.1492919921875;-0.129150390625;9.92999997492916;994;1 A;
230.579558417843;-1.1492919921875;-0.12921142578125;9.93999997490391;995;1 A;
230.589558417817;-1.14959716796875;-0.129180908203125;9.94999997487866;996;1 A;
230.599558417792;-1.14959716796875;-0.12921142578125;9.95999997485342;997;1 A;
230.609558417767;-1.14990234375;-0.129241943359375;9.96999997482817;998;1 A;
230.619558417742;-1.14959716796875;-0.12921142578125;9.97999997480292;999;1 A;
230.629558417716;-1.14959716796875;-0.12921142578125;9.98999997477767;1000;1 A;
