Time (s);WE(1).Potential (V);WE(1).Current (A);Corrected time (s);Index;Current range;Overload
149.015141623773;-0.81878662109375;-2.3388671875;0;1;1 A;Current overload
149.025141623748;-0.86212158203125;-2.33795166015625;0.00999999997475243;2;1 A;Current overload
149.035141623722;-1.0882568359375;-2.19207763671875;0.0199999999495049;3;1 A;Current overload
149.045141623697;-1.1004638671875;-1.9586181640625;0.0299999999242573;4;1 A;
149.055141623672;-1.099853515625;-1.73828125;0.0399999998990097;5;1 A;
149.065141623647;-1.099853515625;-1.55792236328125;0.0499999998737621;6;1 A;
149.075141623621;-1.099853515625;-1.41204833984375;0.0599999998485146;7;1 A;
149.085141623596;-1.099853515625;-1.29364013671875;0.069999999823267;8;1 A;
149.095141623571;-1.09954833984375;-1.195068359375;0.0799999997980194;9;1 A;
149.105141623546;-1.09954833984375;-1.11236572265625;0.0899999997727718;10;1 A;
149.11514162352;-1.10015869140625;-1.04217529296875;0.0999999997475243;11;1 A;
149.125141623495;-1.099853515625;-0.98175048828125;0.109999999722277;12;1 A;
149.13514162347;-1.0992431640625;-0.9295654296875;0.119999999697029;13;1 A;
149.145141623445;-1.10015869140625;-0.8831787109375;0.129999999671782;14;1 A;
149.155141623419;-1.099853515625;-0.84259033203125;0.139999999646534;15;1 A;
149.165141623394;-1.0992431640625;-0.8062744140625;0.149999999621286;16;1 A;
149.175141623369;-1.09954833984375;-0.77392578125;0.159999999596039;17;1 A;
149.185141623344;-1.09954833984375;-0.74493408203125;0.169999999570791;18;1 A;
149.195141623318;-1.09954833984375;-0.71807861328125;0.179999999545544;19;1 A;
149.205141623293;-1.09954833984375;-0.69427490234375;0.189999999520296;20;1 A;
149.215141623268;-1.0992431640625;-0.6719970703125;0.199999999495049;21;1 A;
149.225141623243;-1.09893798828125;-0.65155029296875;0.209999999469801;22;1 A;
149.235141623217;-1.09954833984375;-0.6329345703125;0.219999999444553;23;1 A;
149.245141623192;-1.10015869140625;-0.61553955078125;0.229999999419306;24;1 A;
149.255141623167;-1.099853515625;-0.59967041015625;0.239999999394058;25;1 A;
149.265141623142;-1.09954833984375;-0.58441162109375;0.249999999368811;26;1 A;
149.275141623116;-1.09954833984375;-0.57037353515625;0.259999999343563;27;1 A;
149.285141623091;-1.099853515625;-0.5572509765625;0.269999999318316;28;1 A;
149.295141623066;-1.09954833984375;-0.5450439453125;0.279999999293068;29;1 A;
149.305141623041;-1.09893798828125;-0.53375244140625;0.28999999926782;30;1 A;
149.315141623016;-1.09954833984375;-0.52276611328125;0.299999999242573;31;1 A;
149.32514162299;-1.0992431640625;-0.51239013671875;0.309999999217325;32;1 A;
149.335141622965;-1.099853515625;-0.50262451171875;0.319999999192078;33;1 A;
149.34514162294;-1.09954833984375;-0.493316650390625;0.32999999916683;34;1 A;
149.355141622915;-1.09954833984375;-0.484649658203125;0.339999999141583;35;1 A;
149.365141622889;-1.0992431640625;-0.476226806640625;0.349999999116335;36;1 A;
149.375141622864;-1.09954833984375;-0.46832275390625;0.359999999091087;37;1 A;
149.385141622839;-1.09954833984375;-0.460662841796875;0.36999999906584;38;1 A;
149.395141622814;-1.0992431640625;-0.45343017578125;0.379999999040592;39;1 A;
149.405141622788;-1.0992431640625;-0.446502685546875;0.389999999015345;40;1 A;
149.415141622763;-1.09954833984375;-0.4398193359375;0.399999998990097;41;1 A;
149.425141622738;-1.099853515625;-0.4334716796875;0.40999999896485;42;1 A;
149.435141622713;-1.09954833984375;-0.427337646484375;0.419999998939602;43;1 A;
149.445141622687;-1.09954833984375;-0.42138671875;0.429999998914354;44;1 A;
149.455141622662;-1.09954833984375;-0.415802001953125;0.439999998889107;45;1 A;
149.465141622637;-1.09954833984375;-0.410400390625;0.449999998863859;46;1 A;
149.475141622612;-1.09954833984375;-0.4052734375;0.459999998838612;47;1 A;
149.485141622586;-1.099853515625;-0.400146484375;0.469999998813364;48;1 A;
149.495141622561;-1.09954833984375;-0.395233154296875;0.479999998788116;49;1 A;
149.505141622536;-1.09954833984375;-0.390533447265625;0.489999998762869;50;1 A;
149.515141622511;-1.09954833984375;-0.386016845703125;0.499999998737621;51;1 A;
149.525141622485;-1.09954833984375;-0.381683349609375;0.509999998712374;52;1 A;
149.53514162246;-1.09954833984375;-0.377410888671875;0.519999998687126;53;1 A;
149.545141622435;-1.09954833984375;-0.373321533203125;0.529999998661879;54;1 A;
149.55514162241;-1.0992431640625;-0.36932373046875;0.539999998636631;55;1 A;
149.565141622384;-1.0992431640625;-0.365386962890625;0.549999998611383;56;1 A;
149.575141622359;-1.0992431640625;-0.361602783203125;0.559999998586136;57;1 A;
149.585141622334;-1.09954833984375;-0.3580322265625;0.569999998560888;58;1 A;
149.595141622309;-1.09954833984375;-0.354400634765625;0.579999998535641;59;1 A;
149.605141622283;-1.099853515625;-0.351165771484375;0.589999998510393;60;1 A;
149.615141622258;-1.09954833984375;-0.347808837890625;0.599999998485146;61;1 A;
149.625141622233;-1.09954833984375;-0.3447265625;0.609999998459898;62;1 A;
149.635141622208;-1.09954833984375;-0.341461181640625;0.61999999843465;63;1 A;
149.645141622182;-1.099853515625;-0.338348388671875;0.629999998409403;64;1 A;
149.655141622157;-1.0992431640625;-0.335235595703125;0.639999998384155;65;1 A;
149.665141622132;-1.09954833984375;-0.332366943359375;0.649999998358908;66;1 A;
149.675141622107;-1.09954833984375;-0.32958984375;0.65999999833366;67;1 A;
149.685141622081;-1.0992431640625;-0.326934814453125;0.669999998308413;68;1 A;
149.695141622056;-1.0992431640625;-0.324310302734375;0.679999998283165;69;1 A;
149.705141622031;-1.09893798828125;-0.321563720703125;0.689999998257917;70;1 A;
149.715141622006;-1.099853515625;-0.31884765625;0.69999999823267;71;1 A;
149.72514162198;-1.099853515625;-0.3162841796875;0.709999998207422;72;1 A;
149.735141621955;-1.099853515625;-0.313812255859375;0.719999998182175;73;1 A;
149.74514162193;-1.09954833984375;-0.311431884765625;0.729999998156927;74;1 A;
149.755141621905;-1.09954833984375;-0.30926513671875;0.73999999813168;75;1 A;
149.765141621879;-1.099853515625;-0.306884765625;0.749999998106432;76;1 A;
149.775141621854;-1.09954833984375;-0.304840087890625;0.759999998081184;77;1 A;
149.785141621829;-1.09893798828125;-0.30255126953125;0.769999998055937;78;1 A;
149.795141621804;-1.09893798828125;-0.300323486328125;0.779999998030689;79;1 A;
149.805141621778;-1.09954833984375;-0.298065185546875;0.789999998005442;80;1 A;
149.815141621753;-1.09954833984375;-0.296051025390625;0.799999997980194;81;1 A;
149.825141621728;-1.099853515625;-0.294158935546875;0.809999997954947;82;1 A;
149.835141621703;-1.09893798828125;-0.29229736328125;0.819999997929699;83;1 A;
149.845141621677;-1.0992431640625;-0.29046630859375;0.829999997904451;84;1 A;
149.855141621652;-1.09954833984375;-0.2884521484375;0.839999997879204;85;1 A;
149.865141621627;-1.09954833984375;-0.286468505859375;0.849999997853956;86;1 A;
149.875141621602;-1.099853515625;-0.284576416015625;0.859999997828709;87;1 A;
149.885141621576;-1.0992431640625;-0.282745361328125;0.869999997803461;88;1 A;
149.895141621551;-1.0992431640625;-0.281097412109375;0.879999997778214;89;1 A;
149.905141621526;-1.09954833984375;-0.2794189453125;0.889999997752966;90;1 A;
149.915141621501;-1.0992431640625;-0.277801513671875;0.899999997727718;91;1 A;
149.925141621475;-1.099853515625;-0.276214599609375;0.909999997702471;92;1 A;
149.93514162145;-1.09954833984375;-0.274505615234375;0.919999997677223;93;1 A;
149.945141621425;-1.0992431640625;-0.2728271484375;0.929999997651976;94;1 A;
149.9551416214;-1.09893798828125;-0.271209716796875;0.939999997626728;95;1 A;
149.965141621374;-1.0992431640625;-0.269683837890625;0.949999997601481;96;1 A;
149.975141621349;-1.0992431640625;-0.2681884765625;0.959999997576233;97;1 A;
149.985141621324;-1.09954833984375;-0.266845703125;0.969999997550985;98;1 A;
149.995141621299;-1.09954833984375;-0.265533447265625;0.979999997525738;99;1 A;
150.005141621273;-1.09954833984375;-0.263946533203125;0.98999999750049;100;1 A;
150.015141621248;-1.099853515625;-0.262542724609375;0.999999997475243;101;1 A;
150.025141621223;-1.099853515625;-0.261016845703125;1.00999999745;102;1 A;
150.035141621198;-1.09954833984375;-0.259613037109375;1.01999999742475;103;1 A;
150.045141621172;-1.099853515625;-0.25830078125;1.0299999973995;104;1 A;
150.055141621147;-1.0992431640625;-0.2569580078125;1.03999999737425;105;1 A;
150.065141621122;-1.0992431640625;-0.255706787109375;1.049999997349;106;1 A;
150.075141621097;-1.0992431640625;-0.2545166015625;1.05999999732376;107;1 A;
150.085141621071;-1.09954833984375;-0.253265380859375;1.06999999729851;108;1 A;
150.095141621046;-1.0992431640625;-0.251983642578125;1.07999999727326;109;1 A;
150.105141621021;-1.09893798828125;-0.250701904296875;1.08999999724801;110;1 A;
150.115141620996;-1.0992431640625;-0.249420166015625;1.09999999722277;111;1 A;
150.12514162097;-1.09954833984375;-0.24822998046875;1.10999999719752;112;1 A;
150.135141620945;-1.099853515625;-0.2471923828125;1.11999999717227;113;1 A;
150.14514162092;-1.09893798828125;-0.24603271484375;1.12999999714702;114;1 A;
150.155141620895;-1.09954833984375;-0.2449951171875;1.13999999712178;115;1 A;
150.165141620869;-1.0992431640625;-0.243896484375;1.14999999709653;116;1 A;
150.175141620844;-1.0992431640625;-0.242706298828125;1.15999999707128;117;1 A;
150.185141620819;-1.0992431640625;-0.24163818359375;1.16999999704603;118;1 A;
150.195141620794;-1.09954833984375;-0.240447998046875;1.17999999702079;119;1 A;
150.205141620768;-1.0992431640625;-0.2393798828125;1.18999999699554;120;1 A;
150.215141620743;-1.0992431640625;-0.23834228515625;1.19999999697029;121;1 A;
150.225141620718;-1.09954833984375;-0.237396240234375;1.20999999694504;122;1 A;
150.235141620693;-1.09893798828125;-0.2364501953125;1.2199999969198;123;1 A;
150.245141620667;-1.09954833984375;-0.235443115234375;1.22999999689455;124;1 A;
150.255141620642;-1.0992431640625;-0.23443603515625;1.2399999968693;125;1 A;
150.265141620617;-1.099853515625;-0.2333984375;1.24999999684405;126;1 A;
150.275141620592;-1.099853515625;-0.232452392578125;1.25999999681881;127;1 A;
150.285141620566;-1.099853515625;-0.2315673828125;1.26999999679356;128;1 A;
150.295141620541;-1.0992431640625;-0.23065185546875;1.27999999676831;129;1 A;
150.305141620516;-1.0992431640625;-0.2298583984375;1.28999999674306;130;1 A;
150.315141620491;-1.09954833984375;-0.2288818359375;1.29999999671782;131;1 A;
150.325141620466;-1.0992431640625;-0.227996826171875;1.30999999669257;132;1 A;
150.33514162044;-1.0992431640625;-0.22705078125;1.31999999666732;133;1 A;
150.345141620415;-1.09954833984375;-0.22607421875;1.32999999664207;134;1 A;
150.35514162039;-1.09954833984375;-0.2252197265625;1.33999999661683;135;1 A;
150.365141620365;-1.09893798828125;-0.22430419921875;1.34999999659158;136;1 A;
150.375141620339;-1.0992431640625;-0.2235107421875;1.35999999656633;137;1 A;
150.385141620314;-1.099853515625;-0.222747802734375;1.36999999654108;138;1 A;
150.395141620289;-1.0992431640625;-0.221954345703125;1.37999999651583;139;1 A;
150.405141620264;-1.09954833984375;-0.221099853515625;1.38999999649059;140;1 A;
150.415141620238;-1.0992431640625;-0.22027587890625;1.39999999646534;141;1 A;
150.425141620213;-1.099853515625;-0.219451904296875;1.40999999644009;142;1 A;
150.435141620188;-1.10015869140625;-0.21868896484375;1.41999999641484;143;1 A;
150.445141620163;-1.09954833984375;-0.2178955078125;1.4299999963896;144;1 A;
150.455141620137;-1.0992431640625;-0.217254638671875;1.43999999636435;145;1 A;
150.465141620112;-1.09954833984375;-0.2164306640625;1.4499999963391;146;1 A;
150.475141620087;-1.0992431640625;-0.215728759765625;1.45999999631385;147;1 A;
150.485141620062;-1.09954833984375;-0.214935302734375;1.46999999628861;148;1 A;
150.495141620036;-1.099853515625;-0.214111328125;1.47999999626336;149;1 A;
150.505141620011;-1.0992431640625;-0.213409423828125;1.48999999623811;150;1 A;
150.515141619986;-1.09893798828125;-0.212646484375;1.49999999621286;151;1 A;
150.525141619961;-1.09954833984375;-0.21197509765625;1.50999999618762;152;1 A;
150.535141619935;-1.0992431640625;-0.211334228515625;1.51999999616237;153;1 A;
150.54514161991;-1.0992431640625;-0.210662841796875;1.52999999613712;154;1 A;
150.555141619885;-1.0992431640625;-0.209991455078125;1.53999999611187;155;1 A;
150.56514161986;-1.09893798828125;-0.209259033203125;1.54999999608663;156;1 A;
150.575141619834;-1.09954833984375;-0.20855712890625;1.55999999606138;157;1 A;
150.585141619809;-1.09893798828125;-0.20794677734375;1.56999999603613;158;1 A;
150.595141619784;-1.0992431640625;-0.207244873046875;1.57999999601088;159;1 A;
150.605141619759;-1.09954833984375;-0.206695556640625;1.58999999598564;160;1 A;
150.615141619733;-1.09954833984375;-0.2059326171875;1.59999999596039;161;1 A;
150.625141619708;-1.09954833984375;-0.20538330078125;1.60999999593514;162;1 A;
150.635141619683;-1.09954833984375;-0.204681396484375;1.61999999590989;163;1 A;
150.645141619658;-1.0992431640625;-0.204010009765625;1.62999999588465;164;1 A;
150.655141619632;-1.09954833984375;-0.203460693359375;1.6399999958594;165;1 A;
150.665141619607;-1.09954833984375;-0.20281982421875;1.64999999583415;166;1 A;
150.675141619582;-1.0992431640625;-0.20220947265625;1.6599999958089;167;1 A;
150.685141619557;-1.09954833984375;-0.20166015625;1.66999999578366;168;1 A;
150.695141619531;-1.09893798828125;-0.201019287109375;1.67999999575841;169;1 A;
150.705141619506;-1.09954833984375;-0.20050048828125;1.68999999573316;170;1 A;
150.715141619481;-1.09954833984375;-0.19989013671875;1.69999999570791;171;1 A;
150.725141619456;-1.09954833984375;-0.199310302734375;1.70999999568267;172;1 A;
150.73514161943;-1.09954833984375;-0.198760986328125;1.71999999565742;173;1 A;
150.745141619405;-1.0992431640625;-0.198150634765625;1.72999999563217;174;1 A;
150.75514161938;-1.099853515625;-0.197662353515625;1.73999999560692;175;1 A;
150.765141619355;-1.09954833984375;-0.197052001953125;1.74999999558167;176;1 A;
150.775141619329;-1.09893798828125;-0.196563720703125;1.75999999555643;177;1 A;
150.785141619304;-1.099853515625;-0.19598388671875;1.76999999553118;178;1 A;
150.795141619279;-1.099853515625;-0.1954345703125;1.77999999550593;179;1 A;
150.805141619254;-1.09954833984375;-0.194976806640625;1.78999999548068;180;1 A;
150.815141619228;-1.09954833984375;-0.194366455078125;1.79999999545544;181;1 A;
150.825141619203;-1.0992431640625;-0.19390869140625;1.80999999543019;182;1 A;
150.835141619178;-1.09954833984375;-0.193389892578125;1.81999999540494;183;1 A;
150.845141619153;-1.0992431640625;-0.192840576171875;1.82999999537969;184;1 A;
150.855141619127;-1.0992431640625;-0.192413330078125;1.83999999535445;185;1 A;
150.865141619102;-1.10015869140625;-0.19183349609375;1.8499999953292;186;1 A;
150.875141619077;-1.0992431640625;-0.19134521484375;1.85999999530395;187;1 A;
150.885141619052;-1.0992431640625;-0.19085693359375;1.8699999952787;188;1 A;
150.895141619026;-1.09954833984375;-0.190338134765625;1.87999999525346;189;1 A;
150.905141619001;-1.09954833984375;-0.189910888671875;1.88999999522821;190;1 A;
150.915141618976;-1.09954833984375;-0.18939208984375;1.89999999520296;191;1 A;
150.925141618951;-1.0992431640625;-0.188934326171875;1.90999999517771;192;1 A;
150.935141618925;-1.09954833984375;-0.188507080078125;1.91999999515247;193;1 A;
150.9451416189;-1.09954833984375;-0.188018798828125;1.92999999512722;194;1 A;
150.955141618875;-1.09893798828125;-0.187591552734375;1.93999999510197;195;1 A;
150.96514161885;-1.0992431640625;-0.187042236328125;1.94999999507672;196;1 A;
150.975141618824;-1.09954833984375;-0.186676025390625;1.95999999505148;197;1 A;
150.985141618799;-1.09893798828125;-0.186187744140625;1.96999999502623;198;1 A;
150.995141618774;-1.0992431640625;-0.18572998046875;1.97999999500098;199;1 A;
151.005141618749;-1.09954833984375;-0.185333251953125;1.98999999497573;200;1 A;
151.015141618723;-1.0992431640625;-0.184844970703125;1.99999999495049;201;1 A;
151.025141618698;-1.09954833984375;-0.1844482421875;2.00999999492524;202;1 A;
151.035141618673;-1.09893798828125;-0.183990478515625;2.01999999489999;203;1 A;
151.045141618648;-1.09954833984375;-0.18353271484375;2.02999999487474;204;1 A;
151.055141618622;-1.09954833984375;-0.183135986328125;2.0399999948495;205;1 A;
151.065141618597;-1.099853515625;-0.182708740234375;2.04999999482425;206;1 A;
151.075141618572;-1.0992431640625;-0.18231201171875;2.059999994799;207;1 A;
151.085141618547;-1.09893798828125;-0.181884765625;2.06999999477375;208;1 A;
151.095141618521;-1.09954833984375;-0.18145751953125;2.0799999947485;209;1 A;
151.105141618496;-1.09954833984375;-0.18109130859375;2.08999999472326;210;1 A;
151.115141618471;-1.0992431640625;-0.1806640625;2.09999999469801;211;1 A;
151.125141618446;-1.0992431640625;-0.1802978515625;2.10999999467276;212;1 A;
151.13514161842;-1.099853515625;-0.17987060546875;2.11999999464751;213;1 A;
151.145141618395;-1.09893798828125;-0.179534912109375;2.12999999462227;214;1 A;
151.15514161837;-1.09893798828125;-0.179107666015625;2.13999999459702;215;1 A;
151.165141618345;-1.09954833984375;-0.1787109375;2.14999999457177;216;1 A;
151.175141618319;-1.099853515625;-0.1783447265625;2.15999999454652;217;1 A;
151.185141618294;-1.099853515625;-0.177947998046875;2.16999999452128;218;1 A;
151.195141618269;-1.0992431640625;-0.177581787109375;2.17999999449603;219;1 A;
151.205141618244;-1.0992431640625;-0.17718505859375;2.18999999447078;220;1 A;
151.215141618218;-1.099853515625;-0.176788330078125;2.19999999444553;221;1 A;
151.225141618193;-1.09954833984375;-0.176422119140625;2.20999999442029;222;1 A;
151.235141618168;-1.09954833984375;-0.176025390625;2.21999999439504;223;1 A;
151.245141618143;-1.099853515625;-0.17572021484375;2.22999999436979;224;1 A;
151.255141618117;-1.09893798828125;-0.17535400390625;2.23999999434454;225;1 A;
151.265141618092;-1.099853515625;-0.17498779296875;2.2499999943193;226;1 A;
151.275141618067;-1.09893798828125;-0.1746826171875;2.25999999429405;227;1 A;
151.285141618042;-1.0992431640625;-0.17425537109375;2.2699999942688;228;1 A;
151.295141618016;-1.09893798828125;-0.173980712890625;2.27999999424355;229;1 A;
151.305141617991;-1.09893798828125;-0.173614501953125;2.28999999421831;230;1 A;
151.315141617966;-1.09954833984375;-0.17327880859375;2.29999999419306;231;1 A;
151.325141617941;-1.09893798828125;-0.17291259765625;2.30999999416781;232;1 A;
151.335141617915;-1.09954833984375;-0.172576904296875;2.31999999414256;233;1 A;
151.34514161789;-1.0992431640625;-0.1722412109375;2.32999999411732;234;1 A;
151.355141617865;-1.0992431640625;-0.171905517578125;2.33999999409207;235;1 A;
151.36514161784;-1.0992431640625;-0.171600341796875;2.34999999406682;236;1 A;
151.375141617815;-1.0992431640625;-0.1712646484375;2.35999999404157;237;1 A;
151.385141617789;-1.09954833984375;-0.1708984375;2.36999999401633;238;1 A;
151.395141617764;-1.09954833984375;-0.17059326171875;2.37999999399108;239;1 A;
151.405141617739;-1.0992431640625;-0.170318603515625;2.38999999396583;240;1 A;
151.415141617714;-1.09954833984375;-0.170013427734375;2.39999999394058;241;1 A;
151.425141617688;-1.09954833984375;-0.169708251953125;2.40999999391533;242;1 A;
151.435141617663;-1.0992431640625;-0.169403076171875;2.41999999389009;243;1 A;
151.445141617638;-1.0992431640625;-0.169097900390625;2.42999999386484;244;1 A;
151.455141617613;-1.09954833984375;-0.1688232421875;2.43999999383959;245;1 A;
151.465141617587;-1.0992431640625;-0.168487548828125;2.44999999381434;246;1 A;
151.475141617562;-1.099853515625;-0.168182373046875;2.4599999937891;247;1 A;
151.485141617537;-1.09954833984375;-0.16790771484375;2.46999999376385;248;1 A;
151.495141617512;-1.09954833984375;-0.16754150390625;2.4799999937386;249;1 A;
151.505141617486;-1.09954833984375;-0.167266845703125;2.48999999371335;250;1 A;
151.515141617461;-1.0992431640625;-0.166961669921875;2.49999999368811;251;1 A;
151.525141617436;-1.09954833984375;-0.1666259765625;2.50999999366286;252;1 A;
151.535141617411;-1.09954833984375;-0.166351318359375;2.51999999363761;253;1 A;
151.545141617385;-1.09954833984375;-0.166046142578125;2.52999999361236;254;1 A;
151.55514161736;-1.0992431640625;-0.165771484375;2.53999999358712;255;1 A;
151.565141617335;-1.10015869140625;-0.165496826171875;2.54999999356187;256;1 A;
151.57514161731;-1.0992431640625;-0.16522216796875;2.55999999353662;257;1 A;
151.585141617284;-1.099853515625;-0.16497802734375;2.56999999351137;258;1 A;
151.595141617259;-1.09954833984375;-0.1646728515625;2.57999999348613;259;1 A;
151.605141617234;-1.09954833984375;-0.1644287109375;2.58999999346088;260;1 A;
151.615141617209;-1.099853515625;-0.164154052734375;2.59999999343563;261;1 A;
151.625141617183;-1.09954833984375;-0.1639404296875;2.60999999341038;262;1 A;
151.635141617158;-1.09954833984375;-0.163665771484375;2.61999999338514;263;1 A;
151.645141617133;-1.0992431640625;-0.16339111328125;2.62999999335989;264;1 A;
151.655141617108;-1.09954833984375;-0.16314697265625;2.63999999333464;265;1 A;
151.665141617082;-1.09954833984375;-0.162872314453125;2.64999999330939;266;1 A;
151.675141617057;-1.0992431640625;-0.162567138671875;2.65999999328415;267;1 A;
151.685141617032;-1.09954833984375;-0.162322998046875;2.6699999932589;268;1 A;
151.695141617007;-1.0992431640625;-0.162017822265625;2.67999999323365;269;1 A;
151.705141616981;-1.0992431640625;-0.161834716796875;2.6899999932084;270;1 A;
151.715141616956;-1.099853515625;-0.16156005859375;2.69999999318316;271;1 A;
151.725141616931;-1.0992431640625;-0.16131591796875;2.70999999315791;272;1 A;
151.735141616906;-1.0992431640625;-0.161102294921875;2.71999999313266;273;1 A;
151.74514161688;-1.099853515625;-0.160797119140625;2.72999999310741;274;1 A;
151.755141616855;-1.10015869140625;-0.16058349609375;2.73999999308217;275;1 A;
151.76514161683;-1.09954833984375;-0.16033935546875;2.74999999305692;276;1 A;
151.775141616805;-1.09954833984375;-0.16009521484375;2.75999999303167;277;1 A;
151.785141616779;-1.099853515625;-0.159912109375;2.76999999300642;278;1 A;
151.795141616754;-1.09893798828125;-0.15960693359375;2.77999999298117;279;1 A;
151.805141616729;-1.09893798828125;-0.15948486328125;2.78999999295593;280;1 A;
151.815141616704;-1.09954833984375;-0.1591796875;2.79999999293068;281;1 A;
151.825141616678;-1.09954833984375;-0.158905029296875;2.80999999290543;282;1 A;
151.835141616653;-1.09954833984375;-0.15869140625;2.81999999288018;283;1 A;
151.845141616628;-1.10015869140625;-0.15838623046875;2.82999999285494;284;1 A;
151.855141616603;-1.0992431640625;-0.158203125;2.83999999282969;285;1 A;
151.865141616577;-1.09954833984375;-0.157928466796875;2.84999999280444;286;1 A;
151.875141616552;-1.09954833984375;-0.157745361328125;2.85999999277919;287;1 A;
151.885141616527;-1.099853515625;-0.1575927734375;2.86999999275395;288;1 A;
151.895141616502;-1.099853515625;-0.1573486328125;2.8799999927287;289;1 A;
151.905141616476;-1.099853515625;-0.15716552734375;2.88999999270345;290;1 A;
151.915141616451;-1.09954833984375;-0.15692138671875;2.8999999926782;291;1 A;
151.925141616426;-1.0986328125;-0.15667724609375;2.90999999265296;292;1 A;
151.935141616401;-1.0992431640625;-0.15655517578125;2.91999999262771;293;1 A;
151.945141616375;-1.09954833984375;-0.156219482421875;2.92999999260246;294;1 A;
151.95514161635;-1.09954833984375;-0.156158447265625;2.93999999257721;295;1 A;
151.965141616325;-1.0992431640625;-0.155853271484375;2.94999999255197;296;1 A;
151.9751416163;-1.09954833984375;-0.1556396484375;2.95999999252672;297;1 A;
151.985141616274;-1.09893798828125;-0.15545654296875;2.96999999250147;298;1 A;
151.995141616249;-1.099853515625;-0.155181884765625;2.97999999247622;299;1 A;
152.005141616224;-1.0992431640625;-0.155029296875;2.98999999245098;300;1 A;
152.015141616199;-1.099853515625;-0.15478515625;2.99999999242573;301;1 A;
152.025141616173;-1.09954833984375;-0.15460205078125;3.00999999240048;302;1 A;
152.035141616148;-1.099853515625;-0.154449462890625;3.01999999237523;303;1 A;
152.045141616123;-1.0992431640625;-0.15423583984375;3.02999999234999;304;1 A;
152.055141616098;-1.09954833984375;-0.15411376953125;3.03999999232474;305;1 A;
152.065141616072;-1.0992431640625;-0.15386962890625;3.04999999229949;306;1 A;
152.075141616047;-1.099853515625;-0.153717041015625;3.05999999227424;307;1 A;
152.085141616022;-1.09954833984375;-0.15350341796875;3.069999992249;308;1 A;
152.095141615997;-1.0992431640625;-0.1533203125;3.07999999222375;309;1 A;
152.105141615971;-1.09954833984375;-0.1531982421875;3.0899999921985;310;1 A;
152.115141615946;-1.0992431640625;-0.152923583984375;3.09999999217325;311;1 A;
152.125141615921;-1.09954833984375;-0.15277099609375;3.109999992148;312;1 A;
152.135141615896;-1.09954833984375;-0.152557373046875;3.11999999212276;313;1 A;
152.14514161587;-1.0992431640625;-0.152313232421875;3.12999999209751;314;1 A;
152.155141615845;-1.09954833984375;-0.152191162109375;3.13999999207226;315;1 A;
152.16514161582;-1.0992431640625;-0.1519775390625;3.14999999204701;316;1 A;
152.175141615795;-1.09954833984375;-0.151824951171875;3.15999999202177;317;1 A;
152.185141615769;-1.0992431640625;-0.15167236328125;3.16999999199652;318;1 A;
152.195141615744;-1.0992431640625;-0.151458740234375;3.17999999197127;319;1 A;
152.205141615719;-1.0992431640625;-0.151336669921875;3.18999999194602;320;1 A;
152.215141615694;-1.09954833984375;-0.151123046875;3.19999999192078;321;1 A;
152.225141615668;-1.099853515625;-0.1510009765625;3.20999999189553;322;1 A;
152.235141615643;-1.09954833984375;-0.1507568359375;3.21999999187028;323;1 A;
152.245141615618;-1.0992431640625;-0.150604248046875;3.22999999184503;324;1 A;
152.255141615593;-1.0992431640625;-0.150421142578125;3.23999999181979;325;1 A;
152.265141615567;-1.10015869140625;-0.1502685546875;3.24999999179454;326;1 A;
152.275141615542;-1.09954833984375;-0.15008544921875;3.25999999176929;327;1 A;
152.285141615517;-1.099853515625;-0.14990234375;3.26999999174404;328;1 A;
152.295141615492;-1.099853515625;-0.149749755859375;3.2799999917188;329;1 A;
152.305141615466;-1.0992431640625;-0.14959716796875;3.28999999169355;330;1 A;
152.315141615441;-1.09954833984375;-0.1494140625;3.2999999916683;331;1 A;
152.325141615416;-1.09954833984375;-0.149261474609375;3.30999999164305;332;1 A;
152.335141615391;-1.09954833984375;-0.14910888671875;3.31999999161781;333;1 A;
152.345141615365;-1.09954833984375;-0.148956298828125;3.32999999159256;334;1 A;
152.35514161534;-1.09954833984375;-0.1488037109375;3.33999999156731;335;1 A;
152.365141615315;-1.0992431640625;-0.148590087890625;3.34999999154206;336;1 A;
152.37514161529;-1.09954833984375;-0.148468017578125;3.35999999151682;337;1 A;
152.385141615265;-1.099853515625;-0.148284912109375;3.36999999149157;338;1 A;
152.395141615239;-1.0992431640625;-0.148162841796875;3.37999999146632;339;1 A;
152.405141615214;-1.0992431640625;-0.14801025390625;3.38999999144107;340;1 A;
152.415141615189;-1.09954833984375;-0.1478271484375;3.39999999141583;341;1 A;
152.425141615164;-1.09954833984375;-0.147674560546875;3.40999999139058;342;1 A;
152.435141615138;-1.10015869140625;-0.147552490234375;3.41999999136533;343;1 A;
152.445141615113;-1.09954833984375;-0.14739990234375;3.42999999134008;344;1 A;
152.455141615088;-1.0992431640625;-0.14727783203125;3.43999999131483;345;1 A;
152.465141615063;-1.099853515625;-0.147064208984375;3.44999999128959;346;1 A;
152.475141615037;-1.09893798828125;-0.146942138671875;3.45999999126434;347;1 A;
152.485141615012;-1.0992431640625;-0.146759033203125;3.46999999123909;348;1 A;
152.495141614987;-1.09954833984375;-0.146636962890625;3.47999999121384;349;1 A;
152.505141614962;-1.09954833984375;-0.146514892578125;3.4899999911886;350;1 A;
152.515141614936;-1.09954833984375;-0.1463623046875;3.49999999116335;351;1 A;
152.525141614911;-1.099853515625;-0.14617919921875;3.5099999911381;352;1 A;
152.535141614886;-1.099853515625;-0.14605712890625;3.51999999111285;353;1 A;
152.545141614861;-1.09954833984375;-0.145904541015625;3.52999999108761;354;1 A;
152.555141614835;-1.099853515625;-0.145782470703125;3.53999999106236;355;1 A;
152.56514161481;-1.0992431640625;-0.1456298828125;3.54999999103711;356;1 A;
152.575141614785;-1.0992431640625;-0.145477294921875;3.55999999101186;357;1 A;
152.58514161476;-1.0992431640625;-0.145355224609375;3.56999999098662;358;1 A;
152.595141614734;-1.0992431640625;-0.145233154296875;3.57999999096137;359;1 A;
152.605141614709;-1.099853515625;-0.14508056640625;3.58999999093612;360;1 A;
152.615141614684;-1.099853515625;-0.14495849609375;3.59999999091087;361;1 A;
152.625141614659;-1.09954833984375;-0.144775390625;3.60999999088563;362;1 A;
152.635141614633;-1.099853515625;-0.1446533203125;3.61999999086038;363;1 A;
152.645141614608;-1.09954833984375;-0.14453125;3.62999999083513;364;1 A;
152.655141614583;-1.09954833984375;-0.144378662109375;3.63999999080988;365;1 A;
152.665141614558;-1.0992431640625;-0.144256591796875;3.64999999078464;366;1 A;
152.675141614532;-1.09954833984375;-0.14410400390625;3.65999999075939;367;1 A;
152.685141614507;-1.0992431640625;-0.14398193359375;3.66999999073414;368;1 A;
152.695141614482;-1.099853515625;-0.14385986328125;3.67999999070889;369;1 A;
152.705141614457;-1.09954833984375;-0.14373779296875;3.68999999068365;370;1 A;
152.715141614431;-1.0992431640625;-0.14361572265625;3.6999999906584;371;1 A;
152.725141614406;-1.09954833984375;-0.14349365234375;3.70999999063315;372;1 A;
152.735141614381;-1.099853515625;-0.14337158203125;3.7199999906079;373;1 A;
152.745141614356;-1.09954833984375;-0.143218994140625;3.72999999058266;374;1 A;
152.75514161433;-1.0992431640625;-0.143096923828125;3.73999999055741;375;1 A;
152.765141614305;-1.0992431640625;-0.142974853515625;3.74999999053216;376;1 A;
152.77514161428;-1.0992431640625;-0.142822265625;3.75999999050691;377;1 A;
152.785141614255;-1.09954833984375;-0.142730712890625;3.76999999048167;378;1 A;
152.795141614229;-1.09893798828125;-0.142578125;3.77999999045642;379;1 A;
152.805141614204;-1.09954833984375;-0.142486572265625;3.78999999043117;380;1 A;
152.815141614179;-1.09954833984375;-0.142364501953125;3.79999999040592;381;1 A;
152.825141614154;-1.09954833984375;-0.1422119140625;3.80999999038067;382;1 A;
152.835141614128;-1.0992431640625;-0.142120361328125;3.81999999035543;383;1 A;
152.845141614103;-1.09954833984375;-0.1419677734375;3.82999999033018;384;1 A;
152.855141614078;-1.09954833984375;-0.141876220703125;3.83999999030493;385;1 A;
152.865141614053;-1.09954833984375;-0.141754150390625;3.84999999027968;386;1 A;
152.875141614027;-1.0992431640625;-0.1416015625;3.85999999025444;387;1 A;
152.885141614002;-1.0992431640625;-0.14154052734375;3.86999999022919;388;1 A;
152.895141613977;-1.09893798828125;-0.141357421875;3.87999999020394;389;1 A;
152.905141613952;-1.099853515625;-0.141265869140625;3.88999999017869;390;1 A;
152.915141613926;-1.0992431640625;-0.141143798828125;3.89999999015345;391;1 A;
152.925141613901;-1.09954833984375;-0.1409912109375;3.9099999901282;392;1 A;
152.935141613876;-1.0992431640625;-0.14093017578125;3.91999999010295;393;1 A;
152.945141613851;-1.10015869140625;-0.1407470703125;3.9299999900777;394;1 A;
152.955141613825;-1.099853515625;-0.140716552734375;3.93999999005246;395;1 A;
152.9651416138;-1.0992431640625;-0.14056396484375;3.94999999002721;396;1 A;
152.975141613775;-1.1004638671875;-0.14044189453125;3.95999999000196;397;1 A;
152.98514161375;-1.09893798828125;-0.140380859375;3.96999998997671;398;1 A;
152.995141613724;-1.09954833984375;-0.14019775390625;3.97999998995147;399;1 A;
153.005141613699;-1.099853515625;-0.140167236328125;3.98999998992622;400;1 A;
153.015141613674;-1.09954833984375;-0.1400146484375;3.99999998990097;401;1 A;
153.025141613649;-1.09954833984375;-0.139892578125;4.00999998987572;402;1 A;
153.035141613623;-1.09954833984375;-0.139801025390625;4.01999998985048;403;1 A;
153.045141613598;-1.09954833984375;-0.139617919921875;4.02999998982523;404;1 A;
153.055141613573;-1.0992431640625;-0.13958740234375;4.03999998979998;405;1 A;
153.065141613548;-1.0992431640625;-0.139434814453125;4.04999998977473;406;1 A;
153.075141613522;-1.099853515625;-0.139312744140625;4.05999998974949;407;1 A;
153.085141613497;-1.099853515625;-0.139251708984375;4.06999998972424;408;1 A;
153.095141613472;-1.09954833984375;-0.13909912109375;4.07999998969899;409;1 A;
153.105141613447;-1.099853515625;-0.139068603515625;4.08999998967374;410;1 A;
153.115141613421;-1.0992431640625;-0.138916015625;4.0999999896485;411;1 A;
153.125141613396;-1.09954833984375;-0.138824462890625;4.10999998962325;412;1 A;
153.135141613371;-1.099853515625;-0.13873291015625;4.119999989598;413;1 A;
153.145141613346;-1.0992431640625;-0.138580322265625;4.12999998957275;414;1 A;
153.15514161332;-1.0992431640625;-0.138519287109375;4.1399999895475;415;1 A;
153.165141613295;-1.09893798828125;-0.138397216796875;4.14999998952226;416;1 A;
153.17514161327;-1.09954833984375;-0.13824462890625;4.15999998949701;417;1 A;
153.185141613245;-1.0992431640625;-0.13818359375;4.16999998947176;418;1 A;
153.195141613219;-1.09954833984375;-0.137969970703125;4.17999998944651;419;1 A;
153.205141613194;-1.099853515625;-0.137939453125;4.18999998942127;420;1 A;
153.215141613169;-1.09954833984375;-0.137786865234375;4.19999998939602;421;1 A;
153.225141613144;-1.0992431640625;-0.1376953125;4.20999998937077;422;1 A;
153.235141613118;-1.09954833984375;-0.137603759765625;4.21999998934552;423;1 A;
153.245141613093;-1.09954833984375;-0.137481689453125;4.22999998932028;424;1 A;
153.255141613068;-1.09954833984375;-0.137451171875;4.23999998929503;425;1 A;
153.265141613043;-1.09954833984375;-0.1373291015625;4.24999998926978;426;1 A;
153.275141613017;-1.0992431640625;-0.13720703125;4.25999998924453;427;1 A;
153.285141612992;-1.0992431640625;-0.13714599609375;4.26999998921929;428;1 A;
153.295141612967;-1.09954833984375;-0.136993408203125;4.27999998919404;429;1 A;
153.305141612942;-1.0992431640625;-0.136962890625;4.28999998916879;430;1 A;
153.315141612916;-1.09954833984375;-0.136810302734375;4.29999998914354;431;1 A;
153.325141612891;-1.099853515625;-0.136688232421875;4.3099999891183;432;1 A;
153.335141612866;-1.09893798828125;-0.1365966796875;4.31999998909305;433;1 A;
153.345141612841;-1.0992431640625;-0.13641357421875;4.3299999890678;434;1 A;
153.355141612815;-1.0992431640625;-0.13641357421875;4.33999998904255;435;1 A;
153.36514161279;-1.09954833984375;-0.13623046875;4.34999998901731;436;1 A;
153.375141612765;-1.0992431640625;-0.13616943359375;4.35999998899206;437;1 A;
153.38514161274;-1.099853515625;-0.13604736328125;4.36999998896681;438;1 A;
153.395141612714;-1.09954833984375;-0.135955810546875;4.37999998894156;439;1 A;
153.405141612689;-1.09893798828125;-0.135894775390625;4.38999998891632;440;1 A;
153.415141612664;-1.09954833984375;-0.135772705078125;4.39999998889107;441;1 A;
153.425141612639;-1.09954833984375;-0.135711669921875;4.40999998886582;442;1 A;
153.435141612614;-1.10015869140625;-0.1356201171875;4.41999998884057;443;1 A;
153.445141612588;-1.09954833984375;-0.135467529296875;4.42999998881533;444;1 A;
153.455141612563;-1.0992431640625;-0.13543701171875;4.43999998879008;445;1 A;
153.465141612538;-1.09893798828125;-0.135284423828125;4.44999998876483;446;1 A;
153.475141612513;-1.09954833984375;-0.135223388671875;4.45999998873958;447;1 A;
153.485141612487;-1.099853515625;-0.13507080078125;4.46999998871433;448;1 A;
153.495141612462;-1.09954833984375;-0.134979248046875;4.47999998868909;449;1 A;
153.505141612437;-1.09954833984375;-0.1348876953125;4.48999998866384;450;1 A;
153.515141612412;-1.0992431640625;-0.134735107421875;4.49999998863859;451;1 A;
153.525141612386;-1.099853515625;-0.134674072265625;4.50999998861334;452;1 A;
153.535141612361;-1.0992431640625;-0.134552001953125;4.5199999885881;453;1 A;
153.545141612336;-1.09954833984375;-0.13446044921875;4.52999998856285;454;1 A;
153.555141612311;-1.09954833984375;-0.134429931640625;4.5399999885376;455;1 A;
153.565141612285;-1.0992431640625;-0.134307861328125;4.54999998851235;456;1 A;
153.57514161226;-1.0992431640625;-0.134246826171875;4.55999998848711;457;1 A;
153.585141612235;-1.099853515625;-0.1341552734375;4.56999998846186;458;1 A;
153.59514161221;-1.09954833984375;-0.134033203125;4.57999998843661;459;1 A;
153.605141612184;-1.099853515625;-0.13397216796875;4.58999998841136;460;1 A;
153.615141612159;-1.09954833984375;-0.13385009765625;4.59999998838612;461;1 A;
153.625141612134;-1.0992431640625;-0.1337890625;4.60999998836087;462;1 A;
153.635141612109;-1.0992431640625;-0.133636474609375;4.61999998833562;463;1 A;
153.645141612083;-1.0992431640625;-0.133575439453125;4.62999998831037;464;1 A;
153.655141612058;-1.0992431640625;-0.133453369140625;4.63999998828513;465;1 A;
153.665141612033;-1.09954833984375;-0.13336181640625;4.64999998825988;466;1 A;
153.675141612008;-1.099853515625;-0.133270263671875;4.65999998823463;467;1 A;
153.685141611982;-1.099853515625;-0.133209228515625;4.66999998820938;468;1 A;
153.695141611957;-1.0992431640625;-0.133087158203125;4.67999998818414;469;1 A;
153.705141611932;-1.09954833984375;-0.133026123046875;4.68999998815889;470;1 A;
153.715141611907;-1.0992431640625;-0.1329345703125;4.69999998813364;471;1 A;
153.725141611881;-1.099853515625;-0.13287353515625;4.70999998810839;472;1 A;
153.735141611856;-1.09893798828125;-0.13275146484375;4.71999998808315;473;1 A;
153.745141611831;-1.0992431640625;-0.1326904296875;4.7299999880579;474;1 A;
153.755141611806;-1.099853515625;-0.132568359375;4.73999998803265;475;1 A;
153.76514161178;-1.0992431640625;-0.13250732421875;4.7499999880074;476;1 A;
153.775141611755;-1.10015869140625;-0.13238525390625;4.75999998798216;477;1 A;
153.78514161173;-1.09893798828125;-0.132293701171875;4.76999998795691;478;1 A;
153.795141611705;-1.0992431640625;-0.1322021484375;4.77999998793166;479;1 A;
153.805141611679;-1.09893798828125;-0.132110595703125;4.78999998790641;480;1 A;
153.815141611654;-1.09954833984375;-0.13201904296875;4.79999998788116;481;1 A;
153.825141611629;-1.09954833984375;-0.13189697265625;4.80999998785592;482;1 A;
153.835141611604;-1.0986328125;-0.1318359375;4.81999998783067;483;1 A;
153.845141611578;-1.0992431640625;-0.131744384765625;4.82999998780542;484;1 A;
153.855141611553;-1.099853515625;-0.131683349609375;4.83999998778017;485;1 A;
153.865141611528;-1.09893798828125;-0.131591796875;4.84999998775493;486;1 A;
153.875141611503;-1.09954833984375;-0.13153076171875;4.85999998772968;487;1 A;
153.885141611477;-1.09954833984375;-0.131439208984375;4.86999998770443;488;1 A;
153.895141611452;-1.09954833984375;-0.131378173828125;4.87999998767918;489;1 A;
153.905141611427;-1.09954833984375;-0.131256103515625;4.88999998765394;490;1 A;
153.915141611402;-1.09954833984375;-0.131195068359375;4.89999998762869;491;1 A;
153.925141611376;-1.09954833984375;-0.13104248046875;4.90999998760344;492;1 A;
153.935141611351;-1.09893798828125;-0.13104248046875;4.91999998757819;493;1 A;
153.945141611326;-1.09954833984375;-0.130889892578125;4.92999998755295;494;1 A;
153.955141611301;-1.099853515625;-0.130828857421875;4.9399999875277;495;1 A;
153.965141611275;-1.09954833984375;-0.1307373046875;4.94999998750245;496;1 A;
153.97514161125;-1.0992431640625;-0.13067626953125;4.9599999874772;497;1 A;
153.985141611225;-1.0992431640625;-0.130584716796875;4.96999998745196;498;1 A;
153.9951416112;-1.09954833984375;-0.130523681640625;4.97999998742671;499;1 A;
154.005141611174;-1.09893798828125;-0.13043212890625;4.98999998740146;500;1 A;
154.015141611149;-1.09954833984375;-0.13037109375;4.99999998737621;501;1 A;
154.025141611124;-1.09954833984375;-0.130279541015625;5.00999998735097;502;1 A;
154.035141611099;-1.099853515625;-0.1302490234375;5.01999998732572;503;1 A;
154.045141611073;-1.0992431640625;-0.130126953125;5.02999998730047;504;1 A;
154.055141611048;-1.0992431640625;-0.13006591796875;5.03999998727522;505;1 A;
154.065141611023;-1.09954833984375;-0.1300048828125;5.04999998724998;506;1 A;
154.075141610998;-1.0992431640625;-0.1298828125;5.05999998722473;507;1 A;
154.085141610972;-1.09954833984375;-0.129852294921875;5.06999998719948;508;1 A;
154.095141610947;-1.099853515625;-0.129730224609375;5.07999998717423;509;1 A;
154.105141610922;-1.09954833984375;-0.129669189453125;5.08999998714899;510;1 A;
154.115141610897;-1.09954833984375;-0.129608154296875;5.09999998712374;511;1 A;
154.125141610871;-1.099853515625;-0.129486083984375;5.10999998709849;512;1 A;
154.135141610846;-1.0992431640625;-0.129425048828125;5.11999998707324;513;1 A;
154.145141610821;-1.10015869140625;-0.12933349609375;5.129999987048;514;1 A;
154.155141610796;-1.09954833984375;-0.1292724609375;5.13999998702275;515;1 A;
154.16514161077;-1.09954833984375;-0.129241943359375;5.1499999869975;516;1 A;
154.175141610745;-1.0992431640625;-0.12908935546875;5.15999998697225;517;1 A;
154.18514161072;-1.09954833984375;-0.12908935546875;5.169999986947;518;1 A;
154.195141610695;-1.10015869140625;-0.12896728515625;5.17999998692176;519;1 A;
154.205141610669;-1.10015869140625;-0.12896728515625;5.18999998689651;520;1 A;
154.215141610644;-1.099853515625;-0.12884521484375;5.19999998687126;521;1 A;
154.225141610619;-1.09954833984375;-0.128753662109375;5.20999998684601;522;1 A;
154.235141610594;-1.0992431640625;-0.12872314453125;5.21999998682077;523;1 A;
154.245141610568;-1.09954833984375;-0.128631591796875;5.22999998679552;524;1 A;
154.255141610543;-1.099853515625;-0.1285400390625;5.23999998677027;525;1 A;
154.265141610518;-1.0992431640625;-0.12847900390625;5.24999998674502;526;1 A;
154.275141610493;-1.0992431640625;-0.12835693359375;5.25999998671978;527;1 A;
154.285141610467;-1.099853515625;-0.12835693359375;5.26999998669453;528;1 A;
154.295141610442;-1.099853515625;-0.12823486328125;5.27999998666928;529;1 A;
154.305141610417;-1.09954833984375;-0.128204345703125;5.28999998664403;530;1 A;
154.315141610392;-1.09954833984375;-0.12811279296875;5.29999998661879;531;1 A;
154.325141610366;-1.099853515625;-0.128082275390625;5.30999998659354;532;1 A;
154.335141610341;-1.09954833984375;-0.12799072265625;5.31999998656829;533;1 A;
154.345141610316;-1.0992431640625;-0.127899169921875;5.32999998654304;534;1 A;
154.355141610291;-1.09954833984375;-0.12786865234375;5.3399999865178;535;1 A;
154.365141610265;-1.0992431640625;-0.127777099609375;5.34999998649255;536;1 A;
154.37514161024;-1.09954833984375;-0.127716064453125;5.3599999864673;537;1 A;
154.385141610215;-1.09954833984375;-0.127655029296875;5.36999998644205;538;1 A;
154.39514161019;-1.099853515625;-0.1275634765625;5.37999998641681;539;1 A;
154.405141610164;-1.09954833984375;-0.127532958984375;5.38999998639156;540;1 A;
154.415141610139;-1.099853515625;-0.127471923828125;5.39999998636631;541;1 A;
154.425141610114;-1.09954833984375;-0.127349853515625;5.40999998634106;542;1 A;
154.435141610089;-1.0992431640625;-0.1273193359375;5.41999998631582;543;1 A;
154.445141610064;-1.09954833984375;-0.127197265625;5.42999998629057;544;1 A;
154.455141610038;-1.099853515625;-0.127197265625;5.43999998626532;545;1 A;
154.465141610013;-1.09954833984375;-0.127105712890625;5.44999998624007;546;1 A;
154.475141609988;-1.09954833984375;-0.127044677734375;5.45999998621483;547;1 A;
154.485141609963;-1.09954833984375;-0.126983642578125;5.46999998618958;548;1 A;
154.495141609937;-1.10015869140625;-0.12689208984375;5.47999998616433;549;1 A;
154.505141609912;-1.099853515625;-0.126861572265625;5.48999998613908;550;1 A;
154.515141609887;-1.10015869140625;-0.126800537109375;5.49999998611383;551;1 A;
154.525141609862;-1.099853515625;-0.126708984375;5.50999998608859;552;1 A;
154.535141609836;-1.0992431640625;-0.126708984375;5.51999998606334;553;1 A;
154.545141609811;-1.0992431640625;-0.1265869140625;5.52999998603809;554;1 A;
154.555141609786;-1.0992431640625;-0.1265869140625;5.53999998601284;555;1 A;
154.565141609761;-1.099853515625;-0.12652587890625;5.5499999859876;556;1 A;
154.575141609735;-1.0992431640625;-0.12646484375;5.55999998596235;557;1 A;
154.58514160971;-1.09954833984375;-0.126434326171875;5.5699999859371;558;1 A;
154.595141609685;-1.09954833984375;-0.126312255859375;5.57999998591185;559;1 A;
154.60514160966;-1.099853515625;-0.126312255859375;5.58999998588661;560;1 A;
154.615141609634;-1.09954833984375;-0.126220703125;5.59999998586136;561;1 A;
154.625141609609;-1.0992431640625;-0.12615966796875;5.60999998583611;562;1 A;
154.635141609584;-1.0992431640625;-0.1260986328125;5.61999998581086;563;1 A;
154.645141609559;-1.0992431640625;-0.126007080078125;5.62999998578562;564;1 A;
154.655141609533;-1.09954833984375;-0.125946044921875;5.63999998576037;565;1 A;
154.665141609508;-1.09893798828125;-0.125885009765625;5.64999998573512;566;1 A;
154.675141609483;-1.09954833984375;-0.12579345703125;5.65999998570987;567;1 A;
154.685141609458;-1.09954833984375;-0.12579345703125;5.66999998568463;568;1 A;
154.695141609432;-1.0992431640625;-0.125732421875;5.67999998565938;569;1 A;
154.705141609407;-1.09954833984375;-0.125762939453125;5.68999998563413;570;1 A;
154.715141609382;-1.09954833984375;-0.12567138671875;5.69999998560888;571;1 A;
154.725141609357;-1.09954833984375;-0.12567138671875;5.70999998558364;572;1 A;
154.735141609331;-1.09954833984375;-0.125579833984375;5.71999998555839;573;1 A;
154.745141609306;-1.09954833984375;-0.12548828125;5.72999998553314;574;1 A;
154.755141609281;-1.09893798828125;-0.12548828125;5.73999998550789;575;1 A;
154.765141609256;-1.09954833984375;-0.125396728515625;5.74999998548265;576;1 A;
154.77514160923;-1.09954833984375;-0.125335693359375;5.7599999854574;577;1 A;
154.785141609205;-1.0992431640625;-0.125274658203125;5.76999998543215;578;1 A;
154.79514160918;-1.0986328125;-0.125152587890625;5.7799999854069;579;1 A;
154.805141609155;-1.0992431640625;-0.125091552734375;5.78999998538166;580;1 A;
154.815141609129;-1.09954833984375;-0.125;5.79999998535641;581;1 A;
154.825141609104;-1.0992431640625;-0.124908447265625;5.80999998533116;582;1 A;
154.835141609079;-1.09954833984375;-0.124908447265625;5.81999998530591;583;1 A;
154.845141609054;-1.10015869140625;-0.12481689453125;5.82999998528066;584;1 A;
154.855141609028;-1.0992431640625;-0.1248779296875;5.83999998525542;585;1 A;
154.865141609003;-1.09954833984375;-0.12481689453125;5.84999998523017;586;1 A;
154.875141608978;-1.09954833984375;-0.12481689453125;5.85999998520492;587;1 A;
154.885141608953;-1.09954833984375;-0.124725341796875;5.86999998517967;588;1 A;
154.895141608927;-1.0992431640625;-0.124664306640625;5.87999998515443;589;1 A;
154.905141608902;-1.0992431640625;-0.1246337890625;5.88999998512918;590;1 A;
154.915141608877;-1.0992431640625;-0.12457275390625;5.89999998510393;591;1 A;
154.925141608852;-1.09893798828125;-0.124542236328125;5.90999998507868;592;1 A;
154.935141608826;-1.0992431640625;-0.124481201171875;5.91999998505344;593;1 A;
154.945141608801;-1.09954833984375;-0.124359130859375;5.92999998502819;594;1 A;
154.955141608776;-1.09954833984375;-0.124267578125;5.93999998500294;595;1 A;
154.965141608751;-1.0992431640625;-0.124176025390625;5.94999998497769;596;1 A;
154.975141608725;-1.09954833984375;-0.12408447265625;5.95999998495245;597;1 A;
154.9851416087;-1.0992431640625;-0.124053955078125;5.9699999849272;598;1 A;
154.995141608675;-1.09954833984375;-0.123992919921875;5.97999998490195;599;1 A;
155.00514160865;-1.09954833984375;-0.123992919921875;5.9899999848767;600;1 A;
155.015141608624;-1.09954833984375;-0.123931884765625;5.99999998485146;601;1 A;
155.025141608599;-1.0992431640625;-0.12396240234375;6.00999998482621;602;1 A;
155.035141608574;-1.0992431640625;-0.1239013671875;6.01999998480096;603;1 A;
155.045141608549;-1.0992431640625;-0.12384033203125;6.02999998477571;604;1 A;
155.055141608523;-1.09954833984375;-0.123779296875;6.03999998475047;605;1 A;
155.065141608498;-1.0986328125;-0.123779296875;6.04999998472522;606;1 A;
155.075141608473;-1.0992431640625;-0.12371826171875;6.05999998469997;607;1 A;
155.085141608448;-1.099853515625;-0.1236572265625;6.06999998467472;608;1 A;
155.095141608422;-1.09954833984375;-0.12359619140625;6.07999998464948;609;1 A;
155.105141608397;-1.0992431640625;-0.12353515625;6.08999998462423;610;1 A;
155.115141608372;-1.0992431640625;-0.123382568359375;6.09999998459898;611;1 A;
155.125141608347;-1.0992431640625;-0.123321533203125;6.10999998457373;612;1 A;
155.135141608321;-1.09893798828125;-0.12322998046875;6.11999998454849;613;1 A;
155.145141608296;-1.09954833984375;-0.1231689453125;6.12999998452324;614;1 A;
155.155141608271;-1.09954833984375;-0.1231689453125;6.13999998449799;615;1 A;
155.165141608246;-1.09954833984375;-0.1231689453125;6.14999998447274;616;1 A;
155.17514160822;-1.099853515625;-0.12310791015625;6.1599999844475;617;1 A;
155.185141608195;-1.099853515625;-0.123138427734375;6.16999998442225;618;1 A;
155.19514160817;-1.09954833984375;-0.123077392578125;6.179999984397;619;1 A;
155.205141608145;-1.09954833984375;-0.123077392578125;6.18999998437175;620;1 A;
155.215141608119;-1.09954833984375;-0.123016357421875;6.1999999843465;621;1 A;
155.225141608094;-1.09954833984375;-0.12298583984375;6.20999998432126;622;1 A;
155.235141608069;-1.0992431640625;-0.122955322265625;6.21999998429601;623;1 A;
155.245141608044;-1.0992431640625;-0.12286376953125;6.22999998427076;624;1 A;
155.255141608018;-1.0992431640625;-0.122802734375;6.23999998424551;625;1 A;
155.265141607993;-1.09954833984375;-0.12274169921875;6.24999998422027;626;1 A;
155.275141607968;-1.09954833984375;-0.12261962890625;6.25999998419502;627;1 A;
155.285141607943;-1.09954833984375;-0.12255859375;6.26999998416977;628;1 A;
155.295141607917;-1.09954833984375;-0.122467041015625;6.27999998414452;629;1 A;
155.305141607892;-1.0992431640625;-0.1224365234375;6.28999998411928;630;1 A;
155.315141607867;-1.0992431640625;-0.1224365234375;6.29999998409403;631;1 A;
155.325141607842;-1.09954833984375;-0.12237548828125;6.30999998406878;632;1 A;
155.335141607816;-1.09954833984375;-0.1224365234375;6.31999998404353;633;1 A;
155.345141607791;-1.09954833984375;-0.122344970703125;6.32999998401829;634;1 A;
155.355141607766;-1.0992431640625;-0.122344970703125;6.33999998399304;635;1 A;
155.365141607741;-1.0992431640625;-0.122314453125;6.34999998396779;636;1 A;
155.375141607715;-1.09893798828125;-0.12225341796875;6.35999998394254;637;1 A;
155.38514160769;-1.099853515625;-0.12225341796875;6.3699999839173;638;1 A;
155.395141607665;-1.09954833984375;-0.122161865234375;6.37999998389205;639;1 A;
155.40514160764;-1.0992431640625;-0.12213134765625;6.3899999838668;640;1 A;
155.415141607614;-1.09954833984375;-0.122039794921875;6.39999998384155;641;1 A;
155.425141607589;-1.099853515625;-0.12188720703125;6.40999998381631;642;1 A;
155.435141607564;-1.09954833984375;-0.12188720703125;6.41999998379106;643;1 A;
155.445141607539;-1.0992431640625;-0.12176513671875;6.42999998376581;644;1 A;
155.455141607513;-1.09954833984375;-0.12176513671875;6.43999998374056;645;1 A;
155.465141607488;-1.099853515625;-0.1217041015625;6.44999998371532;646;1 A;
155.475141607463;-1.0992431640625;-0.1217041015625;6.45999998369007;647;1 A;
155.485141607438;-1.0992431640625;-0.1217041015625;6.46999998366482;648;1 A;
155.495141607413;-1.0992431640625;-0.12164306640625;6.47999998363957;649;1 A;
155.505141607387;-1.09954833984375;-0.12164306640625;6.48999998361433;650;1 A;
155.515141607362;-1.0992431640625;-0.121612548828125;6.49999998358908;651;1 A;
155.525141607337;-1.099853515625;-0.12152099609375;6.50999998356383;652;1 A;
155.535141607312;-1.0992431640625;-0.12152099609375;6.51999998353858;653;1 A;
155.545141607286;-1.0992431640625;-0.12139892578125;6.52999998351333;654;1 A;
155.555141607261;-1.0992431640625;-0.12139892578125;6.53999998348809;655;1 A;
155.565141607236;-1.0992431640625;-0.121307373046875;6.54999998346284;656;1 A;
155.575141607211;-1.0992431640625;-0.12115478515625;6.55999998343759;657;1 A;
155.585141607185;-1.09954833984375;-0.12115478515625;6.56999998341234;658;1 A;
155.59514160716;-1.09954833984375;-0.12103271484375;6.5799999833871;659;1 A;
155.605141607135;-1.0992431640625;-0.12103271484375;6.58999998336185;660;1 A;
155.61514160711;-1.0992431640625;-0.121002197265625;6.5999999833366;661;1 A;
155.625141607084;-1.09893798828125;-0.1209716796875;6.60999998331135;662;1 A;
155.635141607059;-1.099853515625;-0.1209716796875;6.61999998328611;663;1 A;
155.645141607034;-1.09954833984375;-0.12091064453125;6.62999998326086;664;1 A;
155.655141607009;-1.10015869140625;-0.120880126953125;6.63999998323561;665;1 A;
155.665141606983;-1.099853515625;-0.120880126953125;6.64999998321036;666;1 A;
155.675141606958;-1.0992431640625;-0.120758056640625;6.65999998318512;667;1 A;
155.685141606933;-1.099853515625;-0.12078857421875;6.66999998315987;668;1 A;
155.695141606908;-1.09954833984375;-0.12066650390625;6.67999998313462;669;1 A;
155.705141606882;-1.0992431640625;-0.120635986328125;6.68999998310937;670;1 A;
155.715141606857;-1.099853515625;-0.12054443359375;6.69999998308413;671;1 A;
155.725141606832;-1.0992431640625;-0.120452880859375;6.70999998305888;672;1 A;
155.735141606807;-1.0992431640625;-0.12042236328125;6.71999998303363;673;1 A;
155.745141606781;-1.10015869140625;-0.12030029296875;6.72999998300838;674;1 A;
155.755141606756;-1.09954833984375;-0.12030029296875;6.73999998298314;675;1 A;
155.765141606731;-1.0992431640625;-0.120330810546875;6.74999998295789;676;1 A;
155.775141606706;-1.0992431640625;-0.120269775390625;6.75999998293264;677;1 A;
155.78514160668;-1.099853515625;-0.120269775390625;6.76999998290739;678;1 A;
155.795141606655;-1.09954833984375;-0.12017822265625;6.77999998288215;679;1 A;
155.80514160663;-1.09954833984375;-0.12017822265625;6.7899999828569;680;1 A;
155.815141606605;-1.099853515625;-0.1201171875;6.79999998283165;681;1 A;
155.825141606579;-1.10015869140625;-0.12005615234375;6.8099999828064;682;1 A;
155.835141606554;-1.099853515625;-0.12005615234375;6.81999998278116;683;1 A;
155.845141606529;-1.0992431640625;-0.119964599609375;6.82999998275591;684;1 A;
155.855141606504;-1.09954833984375;-0.11993408203125;6.83999998273066;685;1 A;
155.865141606478;-1.09954833984375;-0.119873046875;6.84999998270541;686;1 A;
155.875141606453;-1.0992431640625;-0.119781494140625;6.85999998268016;687;1 A;
155.885141606428;-1.09954833984375;-0.119720458984375;6.86999998265492;688;1 A;
155.895141606403;-1.09893798828125;-0.11962890625;6.87999998262967;689;1 A;
155.905141606377;-1.0992431640625;-0.11962890625;6.88999998260442;690;1 A;
155.915141606352;-1.09954833984375;-0.11962890625;6.89999998257917;691;1 A;
155.925141606327;-1.09954833984375;-0.11956787109375;6.90999998255393;692;1 A;
155.935141606302;-1.09954833984375;-0.119598388671875;6.91999998252868;693;1 A;
155.945141606276;-1.0992431640625;-0.1195068359375;6.92999998250343;694;1 A;
155.955141606251;-1.09954833984375;-0.119537353515625;6.93999998247818;695;1 A;
155.965141606226;-1.099853515625;-0.119476318359375;6.94999998245294;696;1 A;
155.975141606201;-1.09954833984375;-0.11944580078125;6.95999998242769;697;1 A;
155.985141606175;-1.09954833984375;-0.119384765625;6.96999998240244;698;1 A;
155.99514160615;-1.0992431640625;-0.119293212890625;6.97999998237719;699;1 A;
156.005141606125;-1.09954833984375;-0.119293212890625;6.98999998235195;700;1 A;
156.0151416061;-1.09893798828125;-0.119171142578125;6.9999999823267;701;1 A;
156.025141606074;-1.09954833984375;-0.119140625;7.00999998230145;702;1 A;
156.035141606049;-1.0992431640625;-0.11907958984375;7.0199999822762;703;1 A;
156.045141606024;-1.09954833984375;-0.11895751953125;7.02999998225096;704;1 A;
156.055141605999;-1.09954833984375;-0.11895751953125;7.03999998222571;705;1 A;
156.065141605973;-1.09954833984375;-0.118896484375;7.04999998220046;706;1 A;
156.075141605948;-1.09954833984375;-0.118896484375;7.05999998217521;707;1 A;
156.085141605923;-1.0992431640625;-0.118896484375;7.06999998214997;708;1 A;
156.095141605898;-1.099853515625;-0.118804931640625;7.07999998212472;709;1 A;
156.105141605872;-1.09954833984375;-0.118804931640625;7.08999998209947;710;1 A;
156.115141605847;-1.09954833984375;-0.118743896484375;7.09999998207422;711;1 A;
156.125141605822;-1.0992431640625;-0.11871337890625;7.10999998204898;712;1 A;
156.135141605797;-1.09893798828125;-0.118682861328125;7.11999998202373;713;1 A;
156.145141605771;-1.09893798828125;-0.118621826171875;7.12999998199848;714;1 A;
156.155141605746;-1.10015869140625;-0.118621826171875;7.13999998197323;715;1 A;
156.165141605721;-1.09954833984375;-0.118560791015625;7.14999998194799;716;1 A;
156.175141605696;-1.10015869140625;-0.118499755859375;7.15999998192274;717;1 A;
156.18514160567;-1.0992431640625;-0.118438720703125;7.16999998189749;718;1 A;
156.195141605645;-1.09954833984375;-0.1182861328125;7.17999998187224;719;1 A;
156.20514160562;-1.09954833984375;-0.118255615234375;7.189999981847;720;1 A;
156.215141605595;-1.099853515625;-0.118194580078125;7.19999998182175;721;1 A;
156.225141605569;-1.09954833984375;-0.118194580078125;7.2099999817965;722;1 A;
156.235141605544;-1.0992431640625;-0.1181640625;7.21999998177125;723;1 A;
156.245141605519;-1.099853515625;-0.1181640625;7.229999981746;724;1 A;
156.255141605494;-1.09954833984375;-0.11810302734375;7.23999998172076;725;1 A;
156.265141605468;-1.09954833984375;-0.11810302734375;7.24999998169551;726;1 A;
156.275141605443;-1.0992431640625;-0.1180419921875;7.25999998167026;727;1 A;
156.285141605418;-1.0992431640625;-0.118011474609375;7.26999998164501;728;1 A;
156.295141605393;-1.099853515625;-0.117919921875;7.27999998161977;729;1 A;
156.305141605367;-1.099853515625;-0.117919921875;7.28999998159452;730;1 A;
156.315141605342;-1.0992431640625;-0.11785888671875;7.29999998156927;731;1 A;
156.325141605317;-1.0992431640625;-0.117828369140625;7.30999998154402;732;1 A;
156.335141605292;-1.0992431640625;-0.11773681640625;7.31999998151878;733;1 A;
156.345141605266;-1.0992431640625;-0.11761474609375;7.32999998149353;734;1 A;
156.355141605241;-1.099853515625;-0.1175537109375;7.33999998146828;735;1 A;
156.365141605216;-1.09893798828125;-0.117462158203125;7.34999998144303;736;1 A;
156.375141605191;-1.099853515625;-0.117431640625;7.35999998141779;737;1 A;
156.385141605165;-1.10015869140625;-0.117462158203125;7.36999998139254;738;1 A;
156.39514160514;-1.09954833984375;-0.117431640625;7.37999998136729;739;1 A;
156.405141605115;-1.09954833984375;-0.117431640625;7.38999998134204;740;1 A;
156.41514160509;-1.10015869140625;-0.117431640625;7.3999999813168;741;1 A;
156.425141605064;-1.0992431640625;-0.117401123046875;7.40999998129155;742;1 A;
156.435141605039;-1.09954833984375;-0.11737060546875;7.4199999812663;743;1 A;
156.445141605014;-1.0992431640625;-0.117279052734375;7.42999998124105;744;1 A;
156.455141604989;-1.09954833984375;-0.11724853515625;7.43999998121581;745;1 A;
156.465141604963;-1.0992431640625;-0.117218017578125;7.44999998119056;746;1 A;
156.475141604938;-1.09954833984375;-0.117156982421875;7.45999998116531;747;1 A;
156.485141604913;-1.09954833984375;-0.11712646484375;7.46999998114006;748;1 A;
156.495141604888;-1.0992431640625;-0.11700439453125;7.47999998111482;749;1 A;
156.505141604863;-1.09954833984375;-0.116943359375;7.48999998108957;750;1 A;
156.515141604837;-1.0986328125;-0.11688232421875;7.49999998106432;751;1 A;
156.525141604812;-1.09954833984375;-0.1168212890625;7.50999998103907;752;1 A;
156.535141604787;-1.09954833984375;-0.116790771484375;7.51999998101383;753;1 A;
156.545141604762;-1.099853515625;-0.11676025390625;7.52999998098858;754;1 A;
156.555141604736;-1.099853515625;-0.11676025390625;7.53999998096333;755;1 A;
156.565141604711;-1.099853515625;-0.11676025390625;7.54999998093808;756;1 A;
156.575141604686;-1.09954833984375;-0.116729736328125;7.55999998091283;757;1 A;
156.585141604661;-1.0992431640625;-0.116729736328125;7.56999998088759;758;1 A;
156.595141604635;-1.09893798828125;-0.11663818359375;7.57999998086234;759;1 A;
156.60514160461;-1.09954833984375;-0.1165771484375;7.58999998083709;760;1 A;
156.615141604585;-1.09954833984375;-0.1165771484375;7.59999998081184;761;1 A;
156.62514160456;-1.099853515625;-0.11651611328125;7.6099999807866;762;1 A;
156.635141604534;-1.09954833984375;-0.116485595703125;7.61999998076135;763;1 A;
156.645141604509;-1.09954833984375;-0.11639404296875;7.6299999807361;764;1 A;
156.655141604484;-1.09893798828125;-0.1163330078125;7.63999998071085;765;1 A;
156.665141604459;-1.09954833984375;-0.11627197265625;7.64999998068561;766;1 A;
156.675141604433;-1.09954833984375;-0.116180419921875;7.65999998066036;767;1 A;
156.685141604408;-1.0992431640625;-0.116180419921875;7.66999998063511;768;1 A;
156.695141604383;-1.09893798828125;-0.116119384765625;7.67999998060986;769;1 A;
156.705141604358;-1.0992431640625;-0.116119384765625;7.68999998058462;770;1 A;
156.715141604332;-1.10015869140625;-0.11614990234375;7.69999998055937;771;1 A;
156.725141604307;-1.09954833984375;-0.1160888671875;7.70999998053412;772;1 A;
156.735141604282;-1.09954833984375;-0.1160888671875;7.71999998050887;773;1 A;
156.745141604257;-1.099853515625;-0.11602783203125;7.72999998048363;774;1 A;
156.755141604231;-1.09954833984375;-0.115997314453125;7.73999998045838;775;1 A;
156.765141604206;-1.09954833984375;-0.115966796875;7.74999998043313;776;1 A;
156.775141604181;-1.0992431640625;-0.11590576171875;7.75999998040788;777;1 A;
156.785141604156;-1.099853515625;-0.11590576171875;7.76999998038264;778;1 A;
156.79514160413;-1.09893798828125;-0.11578369140625;7.77999998035739;779;1 A;
156.805141604105;-1.09893798828125;-0.115753173828125;7.78999998033214;780;1 A;
156.81514160408;-1.09954833984375;-0.115692138671875;7.79999998030689;781;1 A;
156.825141604055;-1.09954833984375;-0.1156005859375;7.80999998028165;782;1 A;
156.835141604029;-1.0992431640625;-0.1156005859375;7.8199999802564;783;1 A;
156.845141604004;-1.09954833984375;-0.11553955078125;7.82999998023115;784;1 A;
156.855141603979;-1.0992431640625;-0.11553955078125;7.8399999802059;785;1 A;
156.865141603954;-1.0992431640625;-0.11553955078125;7.84999998018066;786;1 A;
156.875141603928;-1.09893798828125;-0.115478515625;7.85999998015541;787;1 A;
156.885141603903;-1.0992431640625;-0.115478515625;7.86999998013016;788;1 A;
156.895141603878;-1.09954833984375;-0.115386962890625;7.87999998010491;789;1 A;
156.905141603853;-1.0992431640625;-0.115386962890625;7.88999998007966;790;1 A;
156.915141603827;-1.0992431640625;-0.1153564453125;7.89999998005442;791;1 A;
156.925141603802;-1.09954833984375;-0.11529541015625;7.90999998002917;792;1 A;
156.935141603777;-1.09893798828125;-0.11529541015625;7.91999998000392;793;1 A;
156.945141603752;-1.0992431640625;-0.11517333984375;7.92999997997867;794;1 A;
156.955141603726;-1.0992431640625;-0.115142822265625;7.93999997995343;795;1 A;
156.965141603701;-1.09954833984375;-0.115081787109375;7.94999997992818;796;1 A;
156.975141603676;-1.0992431640625;-0.114990234375;7.95999997990293;797;1 A;
156.985141603651;-1.09954833984375;-0.114990234375;7.96999997987768;798;1 A;
156.995141603625;-1.09954833984375;-0.11492919921875;7.97999997985244;799;1 A;
157.0051416036;-1.0992431640625;-0.11492919921875;7.98999997982719;800;1 A;
157.015141603575;-1.0992431640625;-0.114898681640625;7.99999997980194;801;1 A;
157.02514160355;-1.0992431640625;-0.114837646484375;8.00999997977669;802;1 A;
157.035141603524;-1.09954833984375;-0.1148681640625;8.01999997975145;803;1 A;
157.045141603499;-1.09954833984375;-0.114776611328125;8.0299999797262;804;1 A;
157.055141603474;-1.09954833984375;-0.11474609375;8.03999997970095;805;1 A;
157.065141603449;-1.09954833984375;-0.114715576171875;8.0499999796757;806;1 A;
157.075141603423;-1.09954833984375;-0.114654541015625;8.05999997965046;807;1 A;
157.085141603398;-1.0992431640625;-0.1146240234375;8.06999997962521;808;1 A;
157.095141603373;-1.09954833984375;-0.114593505859375;8.07999997959996;809;1 A;
157.105141603348;-1.099853515625;-0.114532470703125;8.08999997957471;810;1 A;
157.115141603322;-1.0992431640625;-0.11444091796875;8.09999997954947;811;1 A;
157.125141603297;-1.0992431640625;-0.1143798828125;8.10999997952422;812;1 A;
157.135141603272;-1.09954833984375;-0.1143798828125;8.11999997949897;813;1 A;
157.145141603247;-1.09954833984375;-0.114288330078125;8.12999997947372;814;1 A;
157.155141603221;-1.09954833984375;-0.1142578125;8.13999997944848;815;1 A;
157.165141603196;-1.0992431640625;-0.1142578125;8.14999997942323;816;1 A;
157.175141603171;-1.09954833984375;-0.114166259765625;8.15999997939798;817;1 A;
157.185141603146;-1.10015869140625;-0.11419677734375;8.16999997937273;818;1 A;
157.19514160312;-1.09954833984375;-0.11407470703125;8.17999997934749;819;1 A;
157.205141603095;-1.09954833984375;-0.11407470703125;8.18999997932224;820;1 A;
157.21514160307;-1.0992431640625;-0.114013671875;8.19999997929699;821;1 A;
157.225141603045;-1.09954833984375;-0.11395263671875;8.20999997927174;822;1 A;
157.235141603019;-1.0992431640625;-0.113922119140625;8.2199999792465;823;1 A;
157.245141602994;-1.09954833984375;-0.11383056640625;8.22999997922125;824;1 A;
157.255141602969;-1.09893798828125;-0.113800048828125;8.239999979196;825;1 A;
157.265141602944;-1.099853515625;-0.11376953125;8.24999997917075;826;1 A;
157.275141602918;-1.0992431640625;-0.11370849609375;8.2599999791455;827;1 A;
157.285141602893;-1.09954833984375;-0.11370849609375;8.26999997912026;828;1 A;
157.295141602868;-1.09954833984375;-0.11358642578125;8.27999997909501;829;1 A;
157.305141602843;-1.099853515625;-0.113616943359375;8.28999997906976;830;1 A;
157.315141602817;-1.0992431640625;-0.11358642578125;8.29999997904451;831;1 A;
157.325141602792;-1.09954833984375;-0.113555908203125;8.30999997901927;832;1 A;
157.335141602767;-1.09954833984375;-0.113525390625;8.31999997899402;833;1 A;
157.345141602742;-1.09954833984375;-0.113433837890625;8.32999997896877;834;1 A;
157.355141602716;-1.0992431640625;-0.113433837890625;8.33999997894352;835;1 A;
157.365141602691;-1.09954833984375;-0.113372802734375;8.34999997891828;836;1 A;
157.375141602666;-1.09954833984375;-0.113311767578125;8.35999997889303;837;1 A;
157.385141602641;-1.0992431640625;-0.113250732421875;8.36999997886778;838;1 A;
157.395141602615;-1.0992431640625;-0.1131591796875;8.37999997884253;839;1 A;
157.40514160259;-1.09954833984375;-0.113128662109375;8.38999997881729;840;1 A;
157.415141602565;-1.09954833984375;-0.113067626953125;8.39999997879204;841;1 A;
157.42514160254;-1.0992431640625;-0.113037109375;8.40999997876679;842;1 A;
157.435141602514;-1.09954833984375;-0.113006591796875;8.41999997874154;843;1 A;
157.445141602489;-1.0992431640625;-0.1129150390625;8.4299999787163;844;1 A;
157.455141602464;-1.099853515625;-0.112945556640625;8.43999997869105;845;1 A;
157.465141602439;-1.099853515625;-0.112884521484375;8.4499999786658;846;1 A;
157.475141602413;-1.09954833984375;-0.11285400390625;8.45999997864055;847;1 A;
157.485141602388;-1.099853515625;-0.112823486328125;8.46999997861531;848;1 A;
157.495141602363;-1.0992431640625;-0.112823486328125;8.47999997859006;849;1 A;
157.505141602338;-1.09954833984375;-0.112762451171875;8.48999997856481;850;1 A;
157.515141602312;-1.0992431640625;-0.112701416015625;8.49999997853956;851;1 A;
157.525141602287;-1.09954833984375;-0.112640380859375;8.50999997851432;852;1 A;
157.535141602262;-1.0992431640625;-0.11260986328125;8.51999997848907;853;1 A;
157.545141602237;-1.0992431640625;-0.112518310546875;8.52999997846382;854;1 A;
157.555141602212;-1.099853515625;-0.112457275390625;8.53999997843857;855;1 A;
157.565141602186;-1.09954833984375;-0.1124267578125;8.54999997841333;856;1 A;
157.575141602161;-1.09893798828125;-0.112335205078125;8.55999997838808;857;1 A;
157.585141602136;-1.099853515625;-0.1123046875;8.56999997836283;858;1 A;
157.595141602111;-1.09893798828125;-0.112213134765625;8.57999997833758;859;1 A;
157.605141602085;-1.0992431640625;-0.1121826171875;8.58999997831233;860;1 A;
157.61514160206;-1.0992431640625;-0.112152099609375;8.59999997828709;861;1 A;
157.625141602035;-1.099853515625;-0.11212158203125;8.60999997826184;862;1 A;
157.63514160201;-1.0992431640625;-0.11212158203125;8.61999997823659;863;1 A;
157.645141601984;-1.09954833984375;-0.112091064453125;8.62999997821134;864;1 A;
157.655141601959;-1.09954833984375;-0.112060546875;8.6399999781861;865;1 A;
157.665141601934;-1.099853515625;-0.112060546875;8.64999997816085;866;1 A;
157.675141601909;-1.09954833984375;-0.111968994140625;8.6599999781356;867;1 A;
157.685141601883;-1.09893798828125;-0.1119384765625;8.66999997811035;868;1 A;
157.695141601858;-1.09893798828125;-0.111846923828125;8.67999997808511;869;1 A;
157.705141601833;-1.09954833984375;-0.111785888671875;8.68999997805986;870;1 A;
157.715141601808;-1.09954833984375;-0.1116943359375;8.69999997803461;871;1 A;
157.725141601782;-1.0992431640625;-0.11163330078125;8.70999997800936;872;1 A;
157.735141601757;-1.0992431640625;-0.111572265625;8.71999997798412;873;1 A;
157.745141601732;-1.099853515625;-0.11151123046875;8.72999997795887;874;1 A;
157.755141601707;-1.099853515625;-0.1114501953125;8.73999997793362;875;1 A;
157.765141601681;-1.09954833984375;-0.1114501953125;8.74999997790837;876;1 A;
157.775141601656;-1.09954833984375;-0.11138916015625;8.75999997788313;877;1 A;
157.785141601631;-1.09954833984375;-0.111419677734375;8.76999997785788;878;1 A;
157.795141601606;-1.0992431640625;-0.111358642578125;8.77999997783263;879;1 A;
157.80514160158;-1.0992431640625;-0.111328125;8.78999997780738;880;1 A;
157.815141601555;-1.099853515625;-0.111328125;8.79999997778214;881;1 A;
157.82514160153;-1.0992431640625;-0.111236572265625;8.80999997775689;882;1 A;
157.835141601505;-1.0992431640625;-0.1112060546875;8.81999997773164;883;1 A;
157.845141601479;-1.099853515625;-0.111114501953125;8.82999997770639;884;1 A;
157.855141601454;-1.10015869140625;-0.111053466796875;8.83999997768115;885;1 A;
157.865141601429;-1.09954833984375;-0.1109619140625;8.8499999776559;886;1 A;
157.875141601404;-1.099853515625;-0.11090087890625;8.85999997763065;887;1 A;
157.885141601378;-1.09893798828125;-0.11083984375;8.8699999776054;888;1 A;
157.895141601353;-1.099853515625;-0.110748291015625;8.87999997758016;889;1 A;
157.905141601328;-1.0992431640625;-0.110687255859375;8.88999997755491;890;1 A;
157.915141601303;-1.10015869140625;-0.110687255859375;8.89999997752966;891;1 A;
157.925141601277;-1.09954833984375;-0.110595703125;8.90999997750441;892;1 A;
157.935141601252;-1.0992431640625;-0.11065673828125;8.91999997747916;893;1 A;
157.945141601227;-1.09954833984375;-0.110595703125;8.92999997745392;894;1 A;
157.955141601202;-1.09954833984375;-0.110565185546875;8.93999997742867;895;1 A;
157.965141601176;-1.09954833984375;-0.110565185546875;8.94999997740342;896;1 A;
157.975141601151;-1.09954833984375;-0.110504150390625;8.95999997737817;897;1 A;
157.985141601126;-1.099853515625;-0.1104736328125;8.96999997735293;898;1 A;
157.995141601101;-1.0992431640625;-0.110382080078125;8.97999997732768;899;1 A;
158.005141601075;-1.09893798828125;-0.11029052734375;8.98999997730243;900;1 A;
158.01514160105;-1.0992431640625;-0.110260009765625;8.99999997727718;901;1 A;
158.025141601025;-1.09954833984375;-0.110137939453125;9.00999997725194;902;1 A;
158.035141601;-1.09954833984375;-0.110076904296875;9.01999997722669;903;1 A;
158.045141600974;-1.09954833984375;-0.110015869140625;9.02999997720144;904;1 A;
158.055141600949;-1.0992431640625;-0.1099853515625;9.03999997717619;905;1 A;
158.065141600924;-1.09954833984375;-0.1099853515625;9.04999997715095;906;1 A;
158.075141600899;-1.099853515625;-0.10992431640625;9.0599999771257;907;1 A;
158.085141600873;-1.0992431640625;-0.10992431640625;9.06999997710045;908;1 A;
158.095141600848;-1.09954833984375;-0.109832763671875;9.0799999770752;909;1 A;
158.105141600823;-1.0992431640625;-0.109832763671875;9.08999997704996;910;1 A;
158.115141600798;-1.0992431640625;-0.109832763671875;9.09999997702471;911;1 A;
158.125141600772;-1.0992431640625;-0.109771728515625;9.10999997699946;912;1 A;
158.135141600747;-1.099853515625;-0.10980224609375;9.11999997697421;913;1 A;
158.145141600722;-1.0992431640625;-0.10968017578125;9.12999997694897;914;1 A;
158.155141600697;-1.0992431640625;-0.109649658203125;9.13999997692372;915;1 A;
158.165141600671;-1.09954833984375;-0.109588623046875;9.14999997689847;916;1 A;
158.175141600646;-1.0992431640625;-0.109466552734375;9.15999997687322;917;1 A;
158.185141600621;-1.0992431640625;-0.109466552734375;9.16999997684798;918;1 A;
158.195141600596;-1.0992431640625;-0.109344482421875;9.17999997682273;919;1 A;
158.20514160057;-1.09954833984375;-0.10931396484375;9.18999997679748;920;1 A;
158.215141600545;-1.0992431640625;-0.109283447265625;9.19999997677223;921;1 A;
158.22514160052;-1.09954833984375;-0.109222412109375;9.20999997674699;922;1 A;
158.235141600495;-1.09893798828125;-0.109222412109375;9.21999997672174;923;1 A;
158.245141600469;-1.099853515625;-0.10919189453125;9.22999997669649;924;1 A;
158.255141600444;-1.09954833984375;-0.109130859375;9.23999997667124;925;1 A;
158.265141600419;-1.09954833984375;-0.109161376953125;9.249999976646;926;1 A;
158.275141600394;-1.0992431640625;-0.10906982421875;9.25999997662075;927;1 A;
158.285141600368;-1.0992431640625;-0.109130859375;9.2699999765955;928;1 A;
158.295141600343;-1.09954833984375;-0.109039306640625;9.27999997657025;929;1 A;
158.305141600318;-1.09893798828125;-0.109039306640625;9.289999976545;930;1 A;
158.315141600293;-1.0992431640625;-0.108978271484375;9.29999997651976;931;1 A;
158.325141600267;-1.0992431640625;-0.10888671875;9.30999997649451;932;1 A;
158.335141600242;-1.1004638671875;-0.108856201171875;9.31999997646926;933;1 A;
158.345141600217;-1.09893798828125;-0.1087646484375;9.32999997644401;934;1 A;
158.355141600192;-1.0992431640625;-0.108734130859375;9.33999997641877;935;1 A;
158.365141600166;-1.0992431640625;-0.10870361328125;9.34999997639352;936;1 A;
158.375141600141;-1.09893798828125;-0.108612060546875;9.35999997636827;937;1 A;
158.385141600116;-1.09954833984375;-0.108642578125;9.36999997634302;938;1 A;
158.395141600091;-1.099853515625;-0.10858154296875;9.37999997631778;939;1 A;
158.405141600065;-1.0992431640625;-0.108551025390625;9.38999997629253;940;1 A;
158.41514160004;-1.0992431640625;-0.108551025390625;9.39999997626728;941;1 A;
158.425141600015;-1.099853515625;-0.1085205078125;9.40999997624203;942;1 A;
158.43514159999;-1.0992431640625;-0.1085205078125;9.41999997621679;943;1 A;
158.445141599964;-1.0992431640625;-0.108428955078125;9.42999997619154;944;1 A;
158.455141599939;-1.0992431640625;-0.1083984375;9.43999997616629;945;1 A;
158.465141599914;-1.09954833984375;-0.1083984375;9.44999997614104;946;1 A;
158.475141599889;-1.0992431640625;-0.10833740234375;9.4599999761158;947;1 A;
158.485141599863;-1.099853515625;-0.108306884765625;9.46999997609055;948;1 A;
158.495141599838;-1.099853515625;-0.10821533203125;9.4799999760653;949;1 A;
158.505141599813;-1.09954833984375;-0.108154296875;9.48999997604005;950;1 A;
158.515141599788;-1.099853515625;-0.108154296875;9.49999997601481;951;1 A;
158.525141599762;-1.09954833984375;-0.108062744140625;9.50999997598956;952;1 A;
158.535141599737;-1.10015869140625;-0.10809326171875;9.51999997596431;953;1 A;
158.545141599712;-1.09893798828125;-0.108001708984375;9.52999997593906;954;1 A;
158.555141599687;-1.0992431640625;-0.108001708984375;9.53999997591382;955;1 A;
158.565141599662;-1.09954833984375;-0.10797119140625;9.54999997588857;956;1 A;
158.575141599636;-1.1004638671875;-0.107940673828125;9.55999997586332;957;1 A;
158.585141599611;-1.09893798828125;-0.10791015625;9.56999997583807;958;1 A;
158.595141599586;-1.09954833984375;-0.10784912109375;9.57999997581283;959;1 A;
158.605141599561;-1.09954833984375;-0.10784912109375;9.58999997578758;960;1 A;
158.615141599535;-1.09954833984375;-0.1077880859375;9.59999997576233;961;1 A;
158.62514159951;-1.09893798828125;-0.107757568359375;9.60999997573708;962;1 A;
158.635141599485;-1.0992431640625;-0.107757568359375;9.61999997571183;963;1 A;
158.64514159946;-1.09954833984375;-0.107635498046875;9.62999997568659;964;1 A;
158.655141599434;-1.099853515625;-0.10760498046875;9.63999997566134;965;1 A;
158.665141599409;-1.099853515625;-0.107574462890625;9.64999997563609;966;1 A;
158.675141599384;-1.09954833984375;-0.107513427734375;9.65999997561084;967;1 A;
158.685141599359;-1.099853515625;-0.1075439453125;9.6699999755856;968;1 A;
158.695141599333;-1.09954833984375;-0.107452392578125;9.67999997556035;969;1 A;
158.705141599308;-1.09954833984375;-0.107452392578125;9.6899999755351;970;1 A;
158.715141599283;-1.09954833984375;-0.107391357421875;9.69999997550985;971;1 A;
158.725141599258;-1.099853515625;-0.107391357421875;9.70999997548461;972;1 A;
158.735141599232;-1.09954833984375;-0.10736083984375;9.71999997545936;973;1 A;
158.745141599207;-1.0992431640625;-0.107330322265625;9.72999997543411;974;1 A;
158.755141599182;-1.0992431640625;-0.1072998046875;9.73999997540886;975;1 A;
158.765141599157;-1.0992431640625;-0.10723876953125;9.74999997538362;976;1 A;
158.775141599131;-1.0992431640625;-0.107177734375;9.75999997535837;977;1 A;
158.785141599106;-1.09954833984375;-0.107147216796875;9.76999997533312;978;1 A;
158.795141599081;-1.0992431640625;-0.10711669921875;9.77999997530787;979;1 A;
158.805141599056;-1.09954833984375;-0.1070556640625;9.78999997528263;980;1 A;
158.81514159903;-1.0992431640625;-0.107025146484375;9.79999997525738;981;1 A;
158.825141599005;-1.09954833984375;-0.10699462890625;9.80999997523213;982;1 A;
158.83514159898;-1.0992431640625;-0.10699462890625;9.81999997520688;983;1 A;
158.845141598955;-1.0992431640625;-0.10693359375;9.82999997518164;984;1 A;
158.855141598929;-1.09954833984375;-0.106903076171875;9.83999997515639;985;1 A;
158.865141598904;-1.09954833984375;-0.10687255859375;9.84999997513114;986;1 A;
158.875141598879;-1.09954833984375;-0.106842041015625;9.85999997510589;987;1 A;
158.885141598854;-1.09954833984375;-0.1068115234375;9.86999997508065;988;1 A;
158.895141598828;-1.0992431640625;-0.1068115234375;9.8799999750554;989;1 A;
158.905141598803;-1.0992431640625;-0.10675048828125;9.88999997503015;990;1 A;
158.915141598778;-1.0992431640625;-0.106719970703125;9.8999999750049;991;1 A;
158.925141598753;-1.09893798828125;-0.106658935546875;9.90999997497966;992;1 A;
158.935141598727;-1.0992431640625;-0.10662841796875;9.91999997495441;993;1 A;
158.945141598702;-1.099853515625;-0.1065673828125;9.92999997492916;994;1 A;
158.955141598677;-1.099853515625;-0.106536865234375;9.93999997490391;995;1 A;
158.965141598652;-1.09954833984375;-0.10650634765625;9.94999997487866;996;1 A;
158.975141598626;-1.09954833984375;-0.1064453125;9.95999997485342;997;1 A;
158.985141598601;-1.099853515625;-0.106414794921875;9.96999997482817;998;1 A;
158.995141598576;-1.09893798828125;-0.10638427734375;9.97999997480292;999;1 A;
159.005141598551;-1.099853515625;-0.1063232421875;9.98999997477767;1000;1 A;
