Time (s);WE(1).Potential (V);WE(1).Current (A);Corrected time (s);Index;Current range;Overload
292.288007262044;-0.80047607421875;-2.33642578125;0;1;1 A;Current overload
292.298007262018;-0.84075927734375;-2.3358154296875;0.00999999997475243;2;1 A;Current overload
292.308007261993;-0.91064453125;-2.335205078125;0.0199999999495049;3;1 A;Current overload
292.318007261968;-0.9429931640625;-2.33489990234375;0.0299999999242573;4;1 A;Current overload
292.328007261943;-0.95184326171875;-2.3345947265625;0.0399999998990097;5;1 A;Current overload
292.338007261917;-0.96343994140625;-2.33428955078125;0.0499999998737621;6;1 A;Current overload
292.348007261892;-0.9771728515625;-2.33428955078125;0.0599999998485146;7;1 A;Current overload
292.358007261867;-0.989990234375;-2.333984375;0.069999999823267;8;1 A;Current overload
292.368007261842;-1.0028076171875;-2.333984375;0.0799999997980194;9;1 A;Current overload
292.378007261816;-1.01654052734375;-2.33367919921875;0.0899999997727718;10;1 A;Current overload
292.388007261791;-1.03057861328125;-2.3333740234375;0.0999999997475243;11;1 A;Current overload
292.398007261766;-1.0455322265625;-2.3333740234375;0.109999999722277;12;1 A;Current overload
292.408007261741;-1.0614013671875;-2.33306884765625;0.119999999697029;13;1 A;Current overload
292.418007261716;-1.07757568359375;-2.332763671875;0.129999999671782;14;1 A;Current overload
292.42800726169;-1.094970703125;-2.33245849609375;0.139999999646534;15;1 A;Current overload
292.438007261665;-1.11480712890625;-2.33245849609375;0.149999999621286;16;1 A;Current overload
292.44800726164;-1.13555908203125;-2.33184814453125;0.159999999596039;17;1 A;Current overload
292.458007261615;-1.1602783203125;-2.33154296875;0.169999999570791;18;1 A;Current overload
292.468007261589;-1.18804931640625;-2.308349609375;0.179999999545544;19;1 A;Current overload
292.478007261564;-1.20025634765625;-2.20245361328125;0.189999999520296;20;1 A;Current overload
292.488007261539;-1.199951171875;-2.1051025390625;0.199999999495049;21;1 A;Current overload
292.498007261514;-1.1993408203125;-2.01446533203125;0.209999999469801;22;1 A;Current overload
292.508007261488;-1.20025634765625;-1.92901611328125;0.219999999444553;23;1 A;
292.518007261463;-1.19964599609375;-1.8499755859375;0.229999999419306;24;1 A;
292.528007261438;-1.199951171875;-1.7755126953125;0.239999999394058;25;1 A;
292.538007261413;-1.19964599609375;-1.70654296875;0.249999999368811;26;1 A;
292.548007261387;-1.1993408203125;-1.64093017578125;0.259999999343563;27;1 A;
292.558007261362;-1.19964599609375;-1.57928466796875;0.269999999318316;28;1 A;
292.568007261337;-1.19964599609375;-1.52130126953125;0.279999999293068;29;1 A;
292.578007261312;-1.1993408203125;-1.46697998046875;0.28999999926782;30;1 A;
292.588007261286;-1.1993408203125;-1.41510009765625;0.299999999242573;31;1 A;
292.598007261261;-1.199951171875;-1.3671875;0.309999999217325;32;1 A;
292.608007261236;-1.19964599609375;-1.322021484375;0.319999999192078;33;1 A;
292.618007261211;-1.199951171875;-1.27899169921875;0.32999999916683;34;1 A;
292.628007261185;-1.19964599609375;-1.239013671875;0.339999999141583;35;1 A;
292.63800726116;-1.19964599609375;-1.20086669921875;0.349999999116335;36;1 A;
292.648007261135;-1.199951171875;-1.16485595703125;0.359999999091087;37;1 A;
292.65800726111;-1.19903564453125;-1.131591796875;0.36999999906584;38;1 A;
292.668007261084;-1.1993408203125;-1.10015869140625;0.379999999040592;39;1 A;
292.678007261059;-1.19964599609375;-1.070556640625;0.389999999015345;40;1 A;
292.688007261034;-1.19964599609375;-1.0430908203125;0.399999998990097;41;1 A;
292.698007261009;-1.1993408203125;-1.01654052734375;0.40999999896485;42;1 A;
292.708007260983;-1.1993408203125;-0.9918212890625;0.419999998939602;43;1 A;
292.718007260958;-1.19964599609375;-0.96771240234375;0.429999998914354;44;1 A;
292.728007260933;-1.1993408203125;-0.94512939453125;0.439999998889107;45;1 A;
292.738007260908;-1.19903564453125;-0.9234619140625;0.449999998863859;46;1 A;
292.748007260882;-1.19903564453125;-0.90301513671875;0.459999998838612;47;1 A;
292.758007260857;-1.19964599609375;-0.8831787109375;0.469999998813364;48;1 A;
292.768007260832;-1.1993408203125;-0.8648681640625;0.479999998788116;49;1 A;
292.778007260807;-1.19873046875;-0.84716796875;0.489999998762869;50;1 A;
292.788007260781;-1.199951171875;-0.82977294921875;0.499999998737621;51;1 A;
292.798007260756;-1.1993408203125;-0.81329345703125;0.509999998712374;52;1 A;
292.808007260731;-1.19964599609375;-0.79742431640625;0.519999998687126;53;1 A;
292.818007260706;-1.19964599609375;-0.78277587890625;0.529999998661879;54;1 A;
292.82800726068;-1.19964599609375;-0.76934814453125;0.539999998636631;55;1 A;
292.838007260655;-1.1993408203125;-0.7562255859375;0.549999998611383;56;1 A;
292.84800726063;-1.199951171875;-0.743408203125;0.559999998586136;57;1 A;
292.858007260605;-1.199951171875;-0.73150634765625;0.569999998560888;58;1 A;
292.868007260579;-1.1993408203125;-0.718994140625;0.579999998535641;59;1 A;
292.878007260554;-1.19964599609375;-0.7073974609375;0.589999998510393;60;1 A;
292.888007260529;-1.199951171875;-0.69610595703125;0.599999998485146;61;1 A;
292.898007260504;-1.19964599609375;-0.6854248046875;0.609999998459898;62;1 A;
292.908007260478;-1.1993408203125;-0.675048828125;0.61999999843465;63;1 A;
292.918007260453;-1.19964599609375;-0.66558837890625;0.629999998409403;64;1 A;
292.928007260428;-1.1993408203125;-0.655517578125;0.639999998384155;65;1 A;
292.938007260403;-1.19964599609375;-0.6463623046875;0.649999998358908;66;1 A;
292.948007260377;-1.1993408203125;-0.63720703125;0.65999999833366;67;1 A;
292.958007260352;-1.199951171875;-0.6280517578125;0.669999998308413;68;1 A;
292.968007260327;-1.19964599609375;-0.6195068359375;0.679999998283165;69;1 A;
292.978007260302;-1.19903564453125;-0.61187744140625;0.689999998257917;70;1 A;
292.988007260276;-1.199951171875;-0.60455322265625;0.69999999823267;71;1 A;
292.998007260251;-1.199951171875;-0.59783935546875;0.709999998207422;72;1 A;
293.008007260226;-1.19964599609375;-0.5908203125;0.719999998182175;73;1 A;
293.018007260201;-1.1993408203125;-0.58349609375;0.729999998156927;74;1 A;
293.028007260175;-1.19964599609375;-0.576171875;0.73999999813168;75;1 A;
293.03800726015;-1.199951171875;-0.5694580078125;0.749999998106432;76;1 A;
293.048007260125;-1.199951171875;-0.562744140625;0.759999998081184;77;1 A;
293.0580072601;-1.19903564453125;-0.556640625;0.769999998055937;78;1 A;
293.068007260074;-1.19903564453125;-0.55084228515625;0.779999998030689;79;1 A;
293.078007260049;-1.19964599609375;-0.54473876953125;0.789999998005442;80;1 A;
293.088007260024;-1.1993408203125;-0.5389404296875;0.799999997980194;81;1 A;
293.098007259999;-1.1993408203125;-0.5328369140625;0.809999997954947;82;1 A;
293.108007259973;-1.1993408203125;-0.52703857421875;0.819999997929699;83;1 A;
293.118007259948;-1.19903564453125;-0.52154541015625;0.829999997904451;84;1 A;
293.128007259923;-1.19964599609375;-0.516357421875;0.839999997879204;85;1 A;
293.138007259898;-1.1993408203125;-0.511474609375;0.849999997853956;86;1 A;
293.148007259872;-1.1993408203125;-0.50750732421875;0.859999997828709;87;1 A;
293.158007259847;-1.199951171875;-0.50262451171875;0.869999997803461;88;1 A;
293.168007259822;-1.1993408203125;-0.49835205078125;0.879999997778214;89;1 A;
293.178007259797;-1.19964599609375;-0.493560791015625;0.889999997752966;90;1 A;
293.188007259771;-1.1993408203125;-0.489044189453125;0.899999997727718;91;1 A;
293.198007259746;-1.19964599609375;-0.484405517578125;0.909999997702471;92;1 A;
293.208007259721;-1.1993408203125;-0.480316162109375;0.919999997677223;93;1 A;
293.218007259696;-1.19903564453125;-0.476318359375;0.929999997651976;94;1 A;
293.22800725967;-1.19903564453125;-0.47210693359375;0.939999997626728;95;1 A;
293.238007259645;-1.19964599609375;-0.468231201171875;0.949999997601481;96;1 A;
293.24800725962;-1.1993408203125;-0.463897705078125;0.959999997576233;97;1 A;
293.258007259595;-1.1993408203125;-0.459808349609375;0.969999997550985;98;1 A;
293.268007259569;-1.19903564453125;-0.455902099609375;0.979999997525738;99;1 A;
293.278007259544;-1.19964599609375;-0.452239990234375;0.98999999750049;100;1 A;
293.288007259519;-1.1993408203125;-0.449066162109375;0.999999997475243;101;1 A;
293.298007259494;-1.19964599609375;-0.446014404296875;1.00999999745;102;1 A;
293.308007259468;-1.1993408203125;-0.442962646484375;1.01999999742475;103;1 A;
293.318007259443;-1.19964599609375;-0.4400634765625;1.0299999973995;104;1 A;
293.328007259418;-1.19903564453125;-0.43670654296875;1.03999999737425;105;1 A;
293.338007259393;-1.1993408203125;-0.433563232421875;1.049999997349;106;1 A;
293.348007259367;-1.19964599609375;-0.429962158203125;1.05999999732376;107;1 A;
293.358007259342;-1.1993408203125;-0.42706298828125;1.06999999729851;108;1 A;
293.368007259317;-1.19873046875;-0.4239501953125;1.07999999727326;109;1 A;
293.378007259292;-1.19964599609375;-0.42108154296875;1.08999999724801;110;1 A;
293.388007259266;-1.19964599609375;-0.418212890625;1.09999999722277;111;1 A;
293.398007259241;-1.1993408203125;-0.415069580078125;1.10999999719752;112;1 A;
293.408007259216;-1.1993408203125;-0.41217041015625;1.11999999717227;113;1 A;
293.418007259191;-1.199951171875;-0.40924072265625;1.12999999714702;114;1 A;
293.428007259165;-1.19964599609375;-0.40643310546875;1.13999999712178;115;1 A;
293.43800725914;-1.19964599609375;-0.4039306640625;1.14999999709653;116;1 A;
293.448007259115;-1.19964599609375;-0.401611328125;1.15999999707128;117;1 A;
293.45800725909;-1.1993408203125;-0.39935302734375;1.16999999704603;118;1 A;
293.468007259065;-1.19903564453125;-0.397247314453125;1.17999999702079;119;1 A;
293.478007259039;-1.199951171875;-0.394805908203125;1.18999999699554;120;1 A;
293.488007259014;-1.19964599609375;-0.392547607421875;1.19999999697029;121;1 A;
293.498007258989;-1.1993408203125;-0.389862060546875;1.20999999694504;122;1 A;
293.508007258964;-1.199951171875;-0.387481689453125;1.2199999969198;123;1 A;
293.518007258938;-1.20025634765625;-0.385009765625;1.22999999689455;124;1 A;
293.528007258913;-1.19964599609375;-0.3829345703125;1.2399999968693;125;1 A;
293.538007258888;-1.19964599609375;-0.380828857421875;1.24999999684405;126;1 A;
293.548007258863;-1.1993408203125;-0.378448486328125;1.25999999681881;127;1 A;
293.558007258837;-1.19964599609375;-0.376251220703125;1.26999999679356;128;1 A;
293.568007258812;-1.19964599609375;-0.373931884765625;1.27999999676831;129;1 A;
293.578007258787;-1.19964599609375;-0.371795654296875;1.28999999674306;130;1 A;
293.588007258762;-1.1993408203125;-0.369720458984375;1.29999999671782;131;1 A;
293.598007258736;-1.19964599609375;-0.3677978515625;1.30999999669257;132;1 A;
293.608007258711;-1.199951171875;-0.3660888671875;1.31999999666732;133;1 A;
293.618007258686;-1.199951171875;-0.364349365234375;1.32999999664207;134;1 A;
293.628007258661;-1.1993408203125;-0.362548828125;1.33999999661683;135;1 A;
293.638007258635;-1.1993408203125;-0.360809326171875;1.34999999659158;136;1 A;
293.64800725861;-1.19964599609375;-0.358795166015625;1.35999999656633;137;1 A;
293.658007258585;-1.19903564453125;-0.356903076171875;1.36999999654108;138;1 A;
293.66800725856;-1.1993408203125;-0.354888916015625;1.37999999651583;139;1 A;
293.678007258534;-1.19964599609375;-0.353179931640625;1.38999999649059;140;1 A;
293.688007258509;-1.19903564453125;-0.351470947265625;1.39999999646534;141;1 A;
293.698007258484;-1.1993408203125;-0.349761962890625;1.40999999644009;142;1 A;
293.708007258459;-1.19964599609375;-0.348052978515625;1.41999999641484;143;1 A;
293.718007258433;-1.19964599609375;-0.346099853515625;1.4299999963896;144;1 A;
293.728007258408;-1.19964599609375;-0.344329833984375;1.43999999636435;145;1 A;
293.738007258383;-1.199951171875;-0.3426513671875;1.4499999963391;146;1 A;
293.748007258358;-1.199951171875;-0.341033935546875;1.45999999631385;147;1 A;
293.758007258332;-1.1993408203125;-0.3397216796875;1.46999999628861;148;1 A;
293.768007258307;-1.1993408203125;-0.33831787109375;1.47999999626336;149;1 A;
293.778007258282;-1.1993408203125;-0.336944580078125;1.48999999623811;150;1 A;
293.788007258257;-1.19964599609375;-0.33551025390625;1.49999999621286;151;1 A;
293.798007258231;-1.199951171875;-0.333953857421875;1.50999999618762;152;1 A;
293.808007258206;-1.1993408203125;-0.332489013671875;1.51999999616237;153;1 A;
293.818007258181;-1.19964599609375;-0.33087158203125;1.52999999613712;154;1 A;
293.828007258156;-1.19964599609375;-0.3294677734375;1.53999999611187;155;1 A;
293.83800725813;-1.19964599609375;-0.327911376953125;1.54999999608663;156;1 A;
293.848007258105;-1.1993408203125;-0.326629638671875;1.55999999606138;157;1 A;
293.85800725808;-1.19964599609375;-0.32513427734375;1.56999999603613;158;1 A;
293.868007258055;-1.19964599609375;-0.32366943359375;1.57999999601088;159;1 A;
293.878007258029;-1.199951171875;-0.322235107421875;1.58999999598564;160;1 A;
293.888007258004;-1.1993408203125;-0.3209228515625;1.59999999596039;161;1 A;
293.898007257979;-1.1993408203125;-0.319610595703125;1.60999999593514;162;1 A;
293.908007257954;-1.19964599609375;-0.318572998046875;1.61999999590989;163;1 A;
293.918007257928;-1.19903564453125;-0.317352294921875;1.62999999588465;164;1 A;
293.928007257903;-1.1993408203125;-0.316253662109375;1.6399999958594;165;1 A;
293.938007257878;-1.1993408203125;-0.31500244140625;1.64999999583415;166;1 A;
293.948007257853;-1.19964599609375;-0.313751220703125;1.6599999958089;167;1 A;
293.958007257827;-1.19964599609375;-0.312530517578125;1.66999999578366;168;1 A;
293.968007257802;-1.19964599609375;-0.311279296875;1.67999999575841;169;1 A;
293.978007257777;-1.19964599609375;-0.31005859375;1.68999999573316;170;1 A;
293.988007257752;-1.1993408203125;-0.308746337890625;1.69999999570791;171;1 A;
293.998007257726;-1.19964599609375;-0.30755615234375;1.70999999568267;172;1 A;
294.008007257701;-1.1993408203125;-0.30633544921875;1.71999999565742;173;1 A;
294.018007257676;-1.1993408203125;-0.30517578125;1.72999999563217;174;1 A;
294.028007257651;-1.19964599609375;-0.304107666015625;1.73999999560692;175;1 A;
294.038007257625;-1.19964599609375;-0.303009033203125;1.74999999558167;176;1 A;
294.0480072576;-1.19964599609375;-0.302001953125;1.75999999555643;177;1 A;
294.058007257575;-1.19964599609375;-0.3011474609375;1.76999999553118;178;1 A;
294.06800725755;-1.1993408203125;-0.300079345703125;1.77999999550593;179;1 A;
294.078007257524;-1.19964599609375;-0.2991943359375;1.78999999548068;180;1 A;
294.088007257499;-1.19903564453125;-0.29803466796875;1.79999999545544;181;1 A;
294.098007257474;-1.19964599609375;-0.297027587890625;1.80999999543019;182;1 A;
294.108007257449;-1.19964599609375;-0.295928955078125;1.81999999540494;183;1 A;
294.118007257423;-1.19964599609375;-0.29498291015625;1.82999999537969;184;1 A;
294.128007257398;-1.19903564453125;-0.29388427734375;1.83999999535445;185;1 A;
294.138007257373;-1.1993408203125;-0.29278564453125;1.8499999953292;186;1 A;
294.148007257348;-1.19964599609375;-0.291748046875;1.85999999530395;187;1 A;
294.158007257322;-1.19964599609375;-0.29071044921875;1.8699999952787;188;1 A;
294.168007257297;-1.199951171875;-0.28973388671875;1.87999999525346;189;1 A;
294.178007257272;-1.1993408203125;-0.28887939453125;1.88999999522821;190;1 A;
294.188007257247;-1.19964599609375;-0.28802490234375;1.89999999520296;191;1 A;
294.198007257221;-1.19964599609375;-0.2872314453125;1.90999999517771;192;1 A;
294.208007257196;-1.1993408203125;-0.286407470703125;1.91999999515247;193;1 A;
294.218007257171;-1.1993408203125;-0.285614013671875;1.92999999512722;194;1 A;
294.228007257146;-1.19964599609375;-0.2847900390625;1.93999999510197;195;1 A;
294.23800725712;-1.199951171875;-0.283935546875;1.94999999507672;196;1 A;
294.248007257095;-1.19964599609375;-0.283050537109375;1.95999999505148;197;1 A;
294.25800725707;-1.19964599609375;-0.282135009765625;1.96999999502623;198;1 A;
294.268007257045;-1.1993408203125;-0.281402587890625;1.97999999500098;199;1 A;
294.278007257019;-1.19903564453125;-0.2803955078125;1.98999999497573;200;1 A;
294.288007256994;-1.19964599609375;-0.279632568359375;1.99999999495049;201;1 A;
294.298007256969;-1.1993408203125;-0.278656005859375;2.00999999492524;202;1 A;
294.308007256944;-1.19964599609375;-0.277679443359375;2.01999999489999;203;1 A;
294.318007256918;-1.19964599609375;-0.276885986328125;2.02999999487474;204;1 A;
294.328007256893;-1.1993408203125;-0.276031494140625;2.0399999948495;205;1 A;
294.338007256868;-1.19964599609375;-0.2752685546875;2.04999999482425;206;1 A;
294.348007256843;-1.1993408203125;-0.274688720703125;2.059999994799;207;1 A;
294.358007256817;-1.19964599609375;-0.273956298828125;2.06999999477375;208;1 A;
294.368007256792;-1.19903564453125;-0.273406982421875;2.0799999947485;209;1 A;
294.378007256767;-1.1993408203125;-0.27264404296875;2.08999999472326;210;1 A;
294.388007256742;-1.199951171875;-0.271942138671875;2.09999999469801;211;1 A;
294.398007256716;-1.19964599609375;-0.271148681640625;2.10999999467276;212;1 A;
294.408007256691;-1.19964599609375;-0.270416259765625;2.11999999464751;213;1 A;
294.418007256666;-1.1993408203125;-0.269744873046875;2.12999999462227;214;1 A;
294.428007256641;-1.1993408203125;-0.268951416015625;2.13999999459702;215;1 A;
294.438007256615;-1.199951171875;-0.268310546875;2.14999999457177;216;1 A;
294.44800725659;-1.1993408203125;-0.267425537109375;2.15999999454652;217;1 A;
294.458007256565;-1.19903564453125;-0.2666015625;2.16999999452128;218;1 A;
294.46800725654;-1.1993408203125;-0.26580810546875;2.17999999449603;219;1 A;
294.478007256515;-1.19964599609375;-0.2650146484375;2.18999999447078;220;1 A;
294.488007256489;-1.199951171875;-0.264495849609375;2.19999999444553;221;1 A;
294.498007256464;-1.1993408203125;-0.263946533203125;2.20999999442029;222;1 A;
294.508007256439;-1.19964599609375;-0.263427734375;2.21999999439504;223;1 A;
294.518007256414;-1.1993408203125;-0.26300048828125;2.22999999436979;224;1 A;
294.528007256388;-1.19964599609375;-0.262237548828125;2.23999999434454;225;1 A;
294.538007256363;-1.1993408203125;-0.26171875;2.2499999943193;226;1 A;
294.548007256338;-1.19964599609375;-0.2608642578125;2.25999999429405;227;1 A;
294.558007256313;-1.1993408203125;-0.260284423828125;2.2699999942688;228;1 A;
294.568007256287;-1.19964599609375;-0.259613037109375;2.27999999424355;229;1 A;
294.578007256262;-1.199951171875;-0.25897216796875;2.28999999421831;230;1 A;
294.588007256237;-1.19903564453125;-0.258453369140625;2.29999999419306;231;1 A;
294.598007256212;-1.1993408203125;-0.25762939453125;2.30999999416781;232;1 A;
294.608007256186;-1.19903564453125;-0.2569580078125;2.31999999414256;233;1 A;
294.618007256161;-1.1993408203125;-0.25616455078125;2.32999999411732;234;1 A;
294.628007256136;-1.1993408203125;-0.255401611328125;2.33999999409207;235;1 A;
294.638007256111;-1.1993408203125;-0.25494384765625;2.34999999406682;236;1 A;
294.648007256085;-1.1993408203125;-0.25439453125;2.35999999404157;237;1 A;
294.65800725606;-1.19964599609375;-0.25408935546875;2.36999999401633;238;1 A;
294.668007256035;-1.19964599609375;-0.253692626953125;2.37999999399108;239;1 A;
294.67800725601;-1.19964599609375;-0.2530517578125;2.38999999396583;240;1 A;
294.688007255984;-1.19964599609375;-0.2525634765625;2.39999999394058;241;1 A;
294.698007255959;-1.1993408203125;-0.251800537109375;2.40999999391533;242;1 A;
294.708007255934;-1.19903564453125;-0.251312255859375;2.41999999389009;243;1 A;
294.718007255909;-1.1993408203125;-0.250701904296875;2.42999999386484;244;1 A;
294.728007255883;-1.1993408203125;-0.25018310546875;2.43999999383959;245;1 A;
294.738007255858;-1.199951171875;-0.249725341796875;2.44999999381434;246;1 A;
294.748007255833;-1.19964599609375;-0.249053955078125;2.4599999937891;247;1 A;
294.758007255808;-1.19964599609375;-0.248565673828125;2.46999999376385;248;1 A;
294.768007255782;-1.19903564453125;-0.24774169921875;2.4799999937386;249;1 A;
294.778007255757;-1.19964599609375;-0.2470703125;2.48999999371335;250;1 A;
294.788007255732;-1.1993408203125;-0.24652099609375;2.49999999368811;251;1 A;
294.798007255707;-1.19964599609375;-0.245941162109375;2.50999999366286;252;1 A;
294.808007255681;-1.199951171875;-0.24566650390625;2.51999999363761;253;1 A;
294.818007255656;-1.19964599609375;-0.245330810546875;2.52999999361236;254;1 A;
294.828007255631;-1.19903564453125;-0.244873046875;2.53999999358712;255;1 A;
294.838007255606;-1.1993408203125;-0.24444580078125;2.54999999356187;256;1 A;
294.84800725558;-1.19964599609375;-0.243743896484375;2.55999999353662;257;1 A;
294.858007255555;-1.199951171875;-0.243316650390625;2.56999999351137;258;1 A;
294.86800725553;-1.19964599609375;-0.242706298828125;2.57999999348613;259;1 A;
294.878007255505;-1.1993408203125;-0.242279052734375;2.58999999346088;260;1 A;
294.888007255479;-1.1993408203125;-0.2418212890625;2.59999999343563;261;1 A;
294.898007255454;-1.19964599609375;-0.2412109375;2.60999999341038;262;1 A;
294.908007255429;-1.19964599609375;-0.240814208984375;2.61999999338514;263;1 A;
294.918007255404;-1.19964599609375;-0.2401123046875;2.62999999335989;264;1 A;
294.928007255378;-1.1993408203125;-0.239501953125;2.63999999333464;265;1 A;
294.938007255353;-1.19903564453125;-0.238922119140625;2.64999999330939;266;1 A;
294.948007255328;-1.1993408203125;-0.238372802734375;2.65999999328415;267;1 A;
294.958007255303;-1.19964599609375;-0.238067626953125;2.6699999932589;268;1 A;
294.968007255277;-1.1993408203125;-0.237762451171875;2.67999999323365;269;1 A;
294.978007255252;-1.19903564453125;-0.237457275390625;2.6899999932084;270;1 A;
294.988007255227;-1.19964599609375;-0.237213134765625;2.69999999318316;271;1 A;
294.998007255202;-1.1993408203125;-0.236602783203125;2.70999999315791;272;1 A;
295.008007255176;-1.199951171875;-0.236175537109375;2.71999999313266;273;1 A;
295.018007255151;-1.19964599609375;-0.235565185546875;2.72999999310741;274;1 A;
295.028007255126;-1.1993408203125;-0.23516845703125;2.73999999308217;275;1 A;
295.038007255101;-1.19964599609375;-0.23468017578125;2.74999999305692;276;1 A;
295.048007255075;-1.1993408203125;-0.234222412109375;2.75999999303167;277;1 A;
295.05800725505;-1.19964599609375;-0.23382568359375;2.76999999300642;278;1 A;
295.068007255025;-1.199951171875;-0.23321533203125;2.77999999298117;279;1 A;
295.078007255;-1.19964599609375;-0.232696533203125;2.78999999295593;280;1 A;
295.088007254974;-1.1993408203125;-0.23211669921875;2.79999999293068;281;1 A;
295.098007254949;-1.19964599609375;-0.2315673828125;2.80999999290543;282;1 A;
295.108007254924;-1.1993408203125;-0.231292724609375;2.81999999288018;283;1 A;
295.118007254899;-1.1993408203125;-0.230987548828125;2.82999999285494;284;1 A;
295.128007254873;-1.19873046875;-0.230743408203125;2.83999999282969;285;1 A;
295.138007254848;-1.19964599609375;-0.23046875;2.84999999280444;286;1 A;
295.148007254823;-1.199951171875;-0.230010986328125;2.85999999277919;287;1 A;
295.158007254798;-1.19903564453125;-0.229644775390625;2.86999999275395;288;1 A;
295.168007254772;-1.19964599609375;-0.2291259765625;2.8799999927287;289;1 A;
295.178007254747;-1.199951171875;-0.22869873046875;2.88999999270345;290;1 A;
295.188007254722;-1.19964599609375;-0.228179931640625;2.8999999926782;291;1 A;
295.198007254697;-1.19964599609375;-0.227813720703125;2.90999999265296;292;1 A;
295.208007254671;-1.19964599609375;-0.22735595703125;2.91999999262771;293;1 A;
295.218007254646;-1.1993408203125;-0.226959228515625;2.92999999260246;294;1 A;
295.228007254621;-1.1993408203125;-0.226470947265625;2.93999999257721;295;1 A;
295.238007254596;-1.19903564453125;-0.2259521484375;2.94999999255197;296;1 A;
295.24800725457;-1.1993408203125;-0.225433349609375;2.95999999252672;297;1 A;
295.258007254545;-1.19964599609375;-0.225128173828125;2.96999999250147;298;1 A;
295.26800725452;-1.19964599609375;-0.224700927734375;2.97999999247622;299;1 A;
295.278007254495;-1.19964599609375;-0.22454833984375;2.98999999245098;300;1 A;
295.288007254469;-1.19964599609375;-0.22418212890625;2.99999999242573;301;1 A;
295.298007254444;-1.1993408203125;-0.223907470703125;3.00999999240048;302;1 A;
295.308007254419;-1.19964599609375;-0.22357177734375;3.01999999237523;303;1 A;
295.318007254394;-1.19903564453125;-0.22314453125;3.02999999234999;304;1 A;
295.328007254368;-1.19964599609375;-0.2227783203125;3.03999999232474;305;1 A;
295.338007254343;-1.19964599609375;-0.22235107421875;3.04999999229949;306;1 A;
295.348007254318;-1.19964599609375;-0.222015380859375;3.05999999227424;307;1 A;
295.358007254293;-1.1993408203125;-0.2215576171875;3.069999992249;308;1 A;
295.368007254267;-1.199951171875;-0.22125244140625;3.07999999222375;309;1 A;
295.378007254242;-1.1993408203125;-0.22076416015625;3.0899999921985;310;1 A;
295.388007254217;-1.1993408203125;-0.220367431640625;3.09999999217325;311;1 A;
295.398007254192;-1.19964599609375;-0.219879150390625;3.109999992148;312;1 A;
295.408007254166;-1.1993408203125;-0.219512939453125;3.11999999212276;313;1 A;
295.418007254141;-1.19964599609375;-0.219146728515625;3.12999999209751;314;1 A;
295.428007254116;-1.1993408203125;-0.218902587890625;3.13999999207226;315;1 A;
295.438007254091;-1.1993408203125;-0.218597412109375;3.14999999204701;316;1 A;
295.448007254065;-1.1993408203125;-0.218414306640625;3.15999999202177;317;1 A;
295.45800725404;-1.1993408203125;-0.2181396484375;3.16999999199652;318;1 A;
295.468007254015;-1.19964599609375;-0.217864990234375;3.17999999197127;319;1 A;
295.47800725399;-1.19964599609375;-0.217498779296875;3.18999999194602;320;1 A;
295.488007253964;-1.19964599609375;-0.2171630859375;3.19999999192078;321;1 A;
295.498007253939;-1.19964599609375;-0.216796875;3.20999999189553;322;1 A;
295.508007253914;-1.1993408203125;-0.2164306640625;3.21999999187028;323;1 A;
295.518007253889;-1.199951171875;-0.216094970703125;3.22999999184503;324;1 A;
295.528007253864;-1.1993408203125;-0.215667724609375;3.23999999181979;325;1 A;
295.538007253838;-1.1993408203125;-0.21533203125;3.24999999179454;326;1 A;
295.548007253813;-1.19964599609375;-0.21490478515625;3.25999999176929;327;1 A;
295.558007253788;-1.19964599609375;-0.214508056640625;3.26999999174404;328;1 A;
295.568007253763;-1.199951171875;-0.2142333984375;3.2799999917188;329;1 A;
295.578007253737;-1.19964599609375;-0.21392822265625;3.28999999169355;330;1 A;
295.588007253712;-1.1993408203125;-0.213623046875;3.2999999916683;331;1 A;
295.598007253687;-1.19903564453125;-0.21343994140625;3.30999999164305;332;1 A;
295.608007253662;-1.1993408203125;-0.213134765625;3.31999999161781;333;1 A;
295.618007253636;-1.1993408203125;-0.212921142578125;3.32999999159256;334;1 A;
295.628007253611;-1.19964599609375;-0.21258544921875;3.33999999156731;335;1 A;
295.638007253586;-1.19964599609375;-0.21234130859375;3.34999999154206;336;1 A;
295.648007253561;-1.19964599609375;-0.212005615234375;3.35999999151682;337;1 A;
295.658007253535;-1.19903564453125;-0.211700439453125;3.36999999149157;338;1 A;
295.66800725351;-1.199951171875;-0.211334228515625;3.37999999146632;339;1 A;
295.678007253485;-1.199951171875;-0.2109375;3.38999999144107;340;1 A;
295.68800725346;-1.19964599609375;-0.210662841796875;3.39999999141583;341;1 A;
295.698007253434;-1.1993408203125;-0.210296630859375;3.40999999139058;342;1 A;
295.708007253409;-1.1993408203125;-0.21002197265625;3.41999999136533;343;1 A;
295.718007253384;-1.19903564453125;-0.209747314453125;3.42999999134008;344;1 A;
295.728007253359;-1.1993408203125;-0.209381103515625;3.43999999131483;345;1 A;
295.738007253333;-1.1993408203125;-0.209228515625;3.44999999128959;346;1 A;
295.748007253308;-1.1993408203125;-0.208953857421875;3.45999999126434;347;1 A;
295.758007253283;-1.19903564453125;-0.208709716796875;3.46999999123909;348;1 A;
295.768007253258;-1.19964599609375;-0.208526611328125;3.47999999121384;349;1 A;
295.778007253232;-1.19964599609375;-0.208160400390625;3.4899999911886;350;1 A;
295.788007253207;-1.19964599609375;-0.20794677734375;3.49999999116335;351;1 A;
295.798007253182;-1.19903564453125;-0.20758056640625;3.5099999911381;352;1 A;
295.808007253157;-1.199951171875;-0.207305908203125;3.51999999111285;353;1 A;
295.818007253131;-1.19903564453125;-0.207000732421875;3.52999999108761;354;1 A;
295.828007253106;-1.1993408203125;-0.20660400390625;3.53999999106236;355;1 A;
295.838007253081;-1.199951171875;-0.206390380859375;3.54999999103711;356;1 A;
295.848007253056;-1.1993408203125;-0.2060546875;3.55999999101186;357;1 A;
295.85800725303;-1.19964599609375;-0.205841064453125;3.56999999098662;358;1 A;
295.868007253005;-1.19964599609375;-0.20556640625;3.57999999096137;359;1 A;
295.87800725298;-1.19964599609375;-0.205230712890625;3.58999999093612;360;1 A;
295.888007252955;-1.19964599609375;-0.205047607421875;3.59999999091087;361;1 A;
295.898007252929;-1.19964599609375;-0.2047119140625;3.60999999088563;362;1 A;
295.908007252904;-1.1993408203125;-0.20458984375;3.61999999086038;363;1 A;
295.918007252879;-1.19964599609375;-0.204315185546875;3.62999999083513;364;1 A;
295.928007252854;-1.19964599609375;-0.20404052734375;3.63999999080988;365;1 A;
295.938007252828;-1.1993408203125;-0.203857421875;3.64999999078464;366;1 A;
295.948007252803;-1.19903564453125;-0.203460693359375;3.65999999075939;367;1 A;
295.958007252778;-1.20025634765625;-0.20330810546875;3.66999999073414;368;1 A;
295.968007252753;-1.19964599609375;-0.20294189453125;3.67999999070889;369;1 A;
295.978007252727;-1.19964599609375;-0.202606201171875;3.68999999068365;370;1 A;
295.988007252702;-1.19964599609375;-0.202423095703125;3.6999999906584;371;1 A;
295.998007252677;-1.199951171875;-0.20208740234375;3.70999999063315;372;1 A;
296.008007252652;-1.1993408203125;-0.201934814453125;3.7199999906079;373;1 A;
296.018007252626;-1.1993408203125;-0.201629638671875;3.72999999058266;374;1 A;
296.028007252601;-1.19964599609375;-0.2012939453125;3.73999999055741;375;1 A;
296.038007252576;-1.1993408203125;-0.20111083984375;3.74999999053216;376;1 A;
296.048007252551;-1.1993408203125;-0.200714111328125;3.75999999050691;377;1 A;
296.058007252525;-1.1993408203125;-0.20062255859375;3.76999999048167;378;1 A;
296.0680072525;-1.19903564453125;-0.2003173828125;3.77999999045642;379;1 A;
296.078007252475;-1.1993408203125;-0.200103759765625;3.78999999043117;380;1 A;
296.08800725245;-1.19964599609375;-0.199920654296875;3.79999999040592;381;1 A;
296.098007252424;-1.19964599609375;-0.1995849609375;3.80999999038067;382;1 A;
296.108007252399;-1.19903564453125;-0.19940185546875;3.81999999035543;383;1 A;
296.118007252374;-1.1993408203125;-0.199005126953125;3.82999999033018;384;1 A;
296.128007252349;-1.19964599609375;-0.198699951171875;3.83999999030493;385;1 A;
296.138007252323;-1.19903564453125;-0.198516845703125;3.84999999027968;386;1 A;
296.148007252298;-1.19964599609375;-0.1982421875;3.85999999025444;387;1 A;
296.158007252273;-1.1993408203125;-0.19818115234375;3.86999999022919;388;1 A;
296.168007252248;-1.1993408203125;-0.19793701171875;3.87999999020394;389;1 A;
296.178007252222;-1.1993408203125;-0.19769287109375;3.88999999017869;390;1 A;
296.188007252197;-1.1993408203125;-0.197479248046875;3.89999999015345;391;1 A;
296.198007252172;-1.19903564453125;-0.1971435546875;3.9099999901282;392;1 A;
296.208007252147;-1.1993408203125;-0.196990966796875;3.91999999010295;393;1 A;
296.218007252121;-1.1993408203125;-0.1966552734375;3.9299999900777;394;1 A;
296.228007252096;-1.199951171875;-0.196441650390625;3.93999999005246;395;1 A;
296.238007252071;-1.199951171875;-0.196197509765625;3.94999999002721;396;1 A;
296.248007252046;-1.19964599609375;-0.1959228515625;3.95999999000196;397;1 A;
296.25800725202;-1.19903564453125;-0.1956787109375;3.96999998997671;398;1 A;
296.268007251995;-1.1993408203125;-0.195343017578125;3.97999998995147;399;1 A;
296.27800725197;-1.19964599609375;-0.195068359375;3.98999998992622;400;1 A;
296.288007251945;-1.19964599609375;-0.194915771484375;3.99999998990097;401;1 A;
296.298007251919;-1.1993408203125;-0.1947021484375;4.00999998987572;402;1 A;
296.308007251894;-1.1993408203125;-0.1947021484375;4.01999998985048;403;1 A;
296.318007251869;-1.1993408203125;-0.19451904296875;4.02999998982523;404;1 A;
296.328007251844;-1.19964599609375;-0.194366455078125;4.03999998979998;405;1 A;
296.338007251818;-1.1993408203125;-0.19415283203125;4.04999998977473;406;1 A;
296.348007251793;-1.19964599609375;-0.193817138671875;4.05999998974949;407;1 A;
296.358007251768;-1.19964599609375;-0.193603515625;4.06999998972424;408;1 A;
296.368007251743;-1.199951171875;-0.19329833984375;4.07999998969899;409;1 A;
296.378007251717;-1.19964599609375;-0.193084716796875;4.08999998967374;410;1 A;
296.388007251692;-1.19903564453125;-0.19281005859375;4.0999999896485;411;1 A;
296.398007251667;-1.199951171875;-0.19256591796875;4.10999998962325;412;1 A;
296.408007251642;-1.19964599609375;-0.19232177734375;4.119999989598;413;1 A;
296.418007251616;-1.19964599609375;-0.191986083984375;4.12999998957275;414;1 A;
296.428007251591;-1.199951171875;-0.19171142578125;4.1399999895475;415;1 A;
296.438007251566;-1.1993408203125;-0.1915283203125;4.14999998952226;416;1 A;
296.448007251541;-1.199951171875;-0.191375732421875;4.15999998949701;417;1 A;
296.458007251515;-1.19964599609375;-0.191497802734375;4.16999998947176;418;1 A;
296.46800725149;-1.1993408203125;-0.19134521484375;4.17999998944651;419;1 A;
296.478007251465;-1.19903564453125;-0.19134521484375;4.18999998942127;420;1 A;
296.48800725144;-1.1993408203125;-0.191131591796875;4.19999998939602;421;1 A;
296.498007251414;-1.1993408203125;-0.19091796875;4.20999998937077;422;1 A;
296.508007251389;-1.20025634765625;-0.190643310546875;4.21999998934552;423;1 A;
296.518007251364;-1.1993408203125;-0.190338134765625;4.22999998932028;424;1 A;
296.528007251339;-1.1993408203125;-0.190032958984375;4.23999998929503;425;1 A;
296.538007251314;-1.19903564453125;-0.1898193359375;4.24999998926978;426;1 A;
296.548007251288;-1.19964599609375;-0.18951416015625;4.25999998924453;427;1 A;
296.558007251263;-1.19964599609375;-0.1893310546875;4.26999998921929;428;1 A;
296.568007251238;-1.19964599609375;-0.188995361328125;4.27999998919404;429;1 A;
296.578007251213;-1.19903564453125;-0.188751220703125;4.28999998916879;430;1 A;
296.588007251187;-1.19903564453125;-0.1884765625;4.29999998914354;431;1 A;
296.598007251162;-1.19964599609375;-0.188323974609375;4.3099999891183;432;1 A;
296.608007251137;-1.19873046875;-0.188385009765625;4.31999998909305;433;1 A;
296.618007251112;-1.19964599609375;-0.18829345703125;4.3299999890678;434;1 A;
296.628007251086;-1.1993408203125;-0.1884765625;4.33999998904255;435;1 A;
296.638007251061;-1.199951171875;-0.18829345703125;4.34999998901731;436;1 A;
296.648007251036;-1.1993408203125;-0.18817138671875;4.35999998899206;437;1 A;
296.658007251011;-1.19964599609375;-0.187957763671875;4.36999998896681;438;1 A;
296.668007250985;-1.199951171875;-0.187652587890625;4.37999998894156;439;1 A;
296.67800725096;-1.1993408203125;-0.187408447265625;4.38999998891632;440;1 A;
296.688007250935;-1.199951171875;-0.187255859375;4.39999998889107;441;1 A;
296.69800725091;-1.19964599609375;-0.186920166015625;4.40999998886582;442;1 A;
296.708007250884;-1.19964599609375;-0.186798095703125;4.41999998884057;443;1 A;
296.718007250859;-1.19903564453125;-0.186492919921875;4.42999998881533;444;1 A;
296.728007250834;-1.19964599609375;-0.186126708984375;4.43999998879008;445;1 A;
296.738007250809;-1.19903564453125;-0.18585205078125;4.44999998876483;446;1 A;
296.748007250783;-1.19903564453125;-0.18572998046875;4.45999998873958;447;1 A;
296.758007250758;-1.19903564453125;-0.1856689453125;4.46999998871433;448;1 A;
296.768007250733;-1.1993408203125;-0.185638427734375;4.47999998868909;449;1 A;
296.778007250708;-1.19964599609375;-0.185791015625;4.48999998866384;450;1 A;
296.788007250682;-1.1993408203125;-0.185699462890625;4.49999998863859;451;1 A;
296.798007250657;-1.19903564453125;-0.18572998046875;4.50999998861334;452;1 A;
296.808007250632;-1.19964599609375;-0.185516357421875;4.5199999885881;453;1 A;
296.818007250607;-1.19964599609375;-0.185302734375;4.52999998856285;454;1 A;
296.828007250581;-1.1993408203125;-0.185028076171875;4.5399999885376;455;1 A;
296.838007250556;-1.19903564453125;-0.184814453125;4.54999998851235;456;1 A;
296.848007250531;-1.1993408203125;-0.184600830078125;4.55999998848711;457;1 A;
296.858007250506;-1.19964599609375;-0.184417724609375;4.56999998846186;458;1 A;
296.86800725048;-1.1993408203125;-0.184173583984375;4.57999998843661;459;1 A;
296.878007250455;-1.19964599609375;-0.183868408203125;4.58999998841136;460;1 A;
296.88800725043;-1.19964599609375;-0.183624267578125;4.59999998838612;461;1 A;
296.898007250405;-1.1993408203125;-0.183441162109375;4.60999998836087;462;1 A;
296.908007250379;-1.199951171875;-0.183319091796875;4.61999998833562;463;1 A;
296.918007250354;-1.1993408203125;-0.183319091796875;4.62999998831037;464;1 A;
296.928007250329;-1.19903564453125;-0.183319091796875;4.63999998828513;465;1 A;
296.938007250304;-1.1993408203125;-0.183319091796875;4.64999998825988;466;1 A;
296.948007250278;-1.1993408203125;-0.183319091796875;4.65999998823463;467;1 A;
296.958007250253;-1.19964599609375;-0.1832275390625;4.66999998820938;468;1 A;
296.968007250228;-1.19903564453125;-0.18310546875;4.67999998818414;469;1 A;
296.978007250203;-1.199951171875;-0.18280029296875;4.68999998815889;470;1 A;
296.988007250177;-1.19964599609375;-0.18267822265625;4.69999998813364;471;1 A;
296.998007250152;-1.1993408203125;-0.182403564453125;4.70999998810839;472;1 A;
297.008007250127;-1.19903564453125;-0.1822509765625;4.71999998808315;473;1 A;
297.018007250102;-1.199951171875;-0.182098388671875;4.7299999880579;474;1 A;
297.028007250076;-1.19964599609375;-0.18182373046875;4.73999998803265;475;1 A;
297.038007250051;-1.1993408203125;-0.181671142578125;4.7499999880074;476;1 A;
297.048007250026;-1.199951171875;-0.181396484375;4.75999998798216;477;1 A;
297.058007250001;-1.19964599609375;-0.1812744140625;4.76999998795691;478;1 A;
297.068007249975;-1.1993408203125;-0.18121337890625;4.77999998793166;479;1 A;
297.07800724995;-1.19964599609375;-0.18109130859375;4.78999998790641;480;1 A;
297.088007249925;-1.19964599609375;-0.181182861328125;4.79999998788116;481;1 A;
297.0980072499;-1.1993408203125;-0.1810302734375;4.80999998785592;482;1 A;
297.108007249874;-1.19873046875;-0.181060791015625;4.81999998783067;483;1 A;
297.118007249849;-1.1993408203125;-0.180938720703125;4.82999998780542;484;1 A;
297.128007249824;-1.1993408203125;-0.18072509765625;4.83999998778017;485;1 A;
297.138007249799;-1.19964599609375;-0.1806640625;4.84999998775493;486;1 A;
297.148007249773;-1.19964599609375;-0.18035888671875;4.85999998772968;487;1 A;
297.158007249748;-1.1993408203125;-0.1802978515625;4.86999998770443;488;1 A;
297.168007249723;-1.1993408203125;-0.180084228515625;4.87999998767918;489;1 A;
297.178007249698;-1.199951171875;-0.179901123046875;4.88999998765394;490;1 A;
297.188007249672;-1.19903564453125;-0.179779052734375;4.89999998762869;491;1 A;
297.198007249647;-1.19964599609375;-0.17950439453125;4.90999998760344;492;1 A;
297.208007249622;-1.1993408203125;-0.17938232421875;4.91999998757819;493;1 A;
297.218007249597;-1.199951171875;-0.17926025390625;4.92999998755295;494;1 A;
297.228007249571;-1.19964599609375;-0.17913818359375;4.9399999875277;495;1 A;
297.238007249546;-1.1993408203125;-0.17913818359375;4.94999998750245;496;1 A;
297.248007249521;-1.199951171875;-0.17901611328125;4.9599999874772;497;1 A;
297.258007249496;-1.19903564453125;-0.179107666015625;4.96999998745196;498;1 A;
297.26800724947;-1.199951171875;-0.178985595703125;4.97999998742671;499;1 A;
297.278007249445;-1.199951171875;-0.17889404296875;4.98999998740146;500;1 A;
297.28800724942;-1.19964599609375;-0.17877197265625;4.99999998737621;501;1 A;
297.298007249395;-1.1993408203125;-0.178558349609375;5.00999998735097;502;1 A;
297.308007249369;-1.19964599609375;-0.178497314453125;5.01999998732572;503;1 A;
297.318007249344;-1.19903564453125;-0.178253173828125;5.02999998730047;504;1 A;
297.328007249319;-1.1993408203125;-0.178131103515625;5.03999998727522;505;1 A;
297.338007249294;-1.19903564453125;-0.178009033203125;5.04999998724998;506;1 A;
297.348007249268;-1.19964599609375;-0.177734375;5.05999998722473;507;1 A;
297.358007249243;-1.1993408203125;-0.17767333984375;5.06999998719948;508;1 A;
297.368007249218;-1.19964599609375;-0.177490234375;5.07999998717423;509;1 A;
297.378007249193;-1.1993408203125;-0.1773681640625;5.08999998714899;510;1 A;
297.388007249167;-1.19873046875;-0.1773681640625;5.09999998712374;511;1 A;
297.398007249142;-1.19964599609375;-0.17724609375;5.10999998709849;512;1 A;
297.408007249117;-1.19903564453125;-0.177276611328125;5.11999998707324;513;1 A;
297.418007249092;-1.1993408203125;-0.17718505859375;5.129999987048;514;1 A;
297.428007249066;-1.199951171875;-0.177093505859375;5.13999998702275;515;1 A;
297.438007249041;-1.19964599609375;-0.177001953125;5.1499999869975;516;1 A;
297.448007249016;-1.1993408203125;-0.17681884765625;5.15999998697225;517;1 A;
297.458007248991;-1.199951171875;-0.1767578125;5.169999986947;518;1 A;
297.468007248965;-1.199951171875;-0.176544189453125;5.17999998692176;519;1 A;
297.47800724894;-1.19964599609375;-0.176422119140625;5.18999998689651;520;1 A;
297.488007248915;-1.199951171875;-0.176300048828125;5.19999998687126;521;1 A;
297.49800724889;-1.1993408203125;-0.176116943359375;5.20999998684601;522;1 A;
297.508007248864;-1.19903564453125;-0.176055908203125;5.21999998682077;523;1 A;
297.518007248839;-1.19903564453125;-0.175872802734375;5.22999998679552;524;1 A;
297.528007248814;-1.19964599609375;-0.175811767578125;5.23999998677027;525;1 A;
297.538007248789;-1.1993408203125;-0.17572021484375;5.24999998674502;526;1 A;
297.548007248763;-1.19964599609375;-0.17559814453125;5.25999998671978;527;1 A;
297.558007248738;-1.1993408203125;-0.175628662109375;5.26999998669453;528;1 A;
297.568007248713;-1.1993408203125;-0.175506591796875;5.27999998666928;529;1 A;
297.578007248688;-1.19964599609375;-0.175537109375;5.28999998664403;530;1 A;
297.588007248663;-1.19964599609375;-0.175445556640625;5.29999998661879;531;1 A;
297.598007248637;-1.19903564453125;-0.175323486328125;5.30999998659354;532;1 A;
297.608007248612;-1.1993408203125;-0.175323486328125;5.31999998656829;533;1 A;
297.618007248587;-1.199951171875;-0.175079345703125;5.32999998654304;534;1 A;
297.628007248562;-1.199951171875;-0.175048828125;5.3399999865178;535;1 A;
297.638007248536;-1.1993408203125;-0.174896240234375;5.34999998649255;536;1 A;
297.648007248511;-1.1993408203125;-0.17474365234375;5.3599999864673;537;1 A;
297.658007248486;-1.199951171875;-0.174652099609375;5.36999998644205;538;1 A;
297.668007248461;-1.19964599609375;-0.174407958984375;5.37999998641681;539;1 A;
297.678007248435;-1.1993408203125;-0.174407958984375;5.38999998639156;540;1 A;
297.68800724841;-1.19964599609375;-0.174285888671875;5.39999998636631;541;1 A;
297.698007248385;-1.19842529296875;-0.174163818359375;5.40999998634106;542;1 A;
297.70800724836;-1.19964599609375;-0.1741943359375;5.41999998631582;543;1 A;
297.718007248334;-1.1993408203125;-0.173980712890625;5.42999998629057;544;1 A;
297.728007248309;-1.1993408203125;-0.17401123046875;5.43999998626532;545;1 A;
297.738007248284;-1.199951171875;-0.17388916015625;5.44999998624007;546;1 A;
297.748007248259;-1.19964599609375;-0.173797607421875;5.45999998621483;547;1 A;
297.758007248233;-1.19903564453125;-0.173828125;5.46999998618958;548;1 A;
297.768007248208;-1.19964599609375;-0.173614501953125;5.47999998616433;549;1 A;
297.778007248183;-1.199951171875;-0.173614501953125;5.48999998613908;550;1 A;
297.788007248158;-1.20025634765625;-0.1734619140625;5.49999998611383;551;1 A;
297.798007248132;-1.1993408203125;-0.173370361328125;5.50999998608859;552;1 A;
297.808007248107;-1.1993408203125;-0.17333984375;5.51999998606334;553;1 A;
297.818007248082;-1.1993408203125;-0.17315673828125;5.52999998603809;554;1 A;
297.828007248057;-1.1993408203125;-0.173126220703125;5.53999998601284;555;1 A;
297.838007248031;-1.19964599609375;-0.173004150390625;5.5499999859876;556;1 A;
297.848007248006;-1.19964599609375;-0.172943115234375;5.55999998596235;557;1 A;
297.858007247981;-1.19964599609375;-0.17291259765625;5.5699999859371;558;1 A;
297.868007247956;-1.19964599609375;-0.172760009765625;5.57999998591185;559;1 A;
297.87800724793;-1.19964599609375;-0.1727294921875;5.58999998588661;560;1 A;
297.888007247905;-1.1993408203125;-0.172637939453125;5.59999998586136;561;1 A;
297.89800724788;-1.19964599609375;-0.172576904296875;5.60999998583611;562;1 A;
297.908007247855;-1.1993408203125;-0.17254638671875;5.61999998581086;563;1 A;
297.918007247829;-1.199951171875;-0.172393798828125;5.62999998578562;564;1 A;
297.928007247804;-1.19964599609375;-0.172332763671875;5.63999998576037;565;1 A;
297.938007247779;-1.1993408203125;-0.172210693359375;5.64999998573512;566;1 A;
297.948007247754;-1.19903564453125;-0.17218017578125;5.65999998570987;567;1 A;
297.958007247728;-1.19964599609375;-0.17205810546875;5.66999998568463;568;1 A;
297.968007247703;-1.19964599609375;-0.1719970703125;5.67999998565938;569;1 A;
297.978007247678;-1.19903564453125;-0.171966552734375;5.68999998563413;570;1 A;
297.988007247653;-1.199951171875;-0.171844482421875;5.69999998560888;571;1 A;
297.998007247627;-1.1993408203125;-0.171844482421875;5.70999998558364;572;1 A;
298.008007247602;-1.19964599609375;-0.171722412109375;5.71999998555839;573;1 A;
298.018007247577;-1.1993408203125;-0.171630859375;5.72999998553314;574;1 A;
298.028007247552;-1.19964599609375;-0.171539306640625;5.73999998550789;575;1 A;
298.038007247526;-1.1993408203125;-0.171478271484375;5.74999998548265;576;1 A;
298.048007247501;-1.1993408203125;-0.171417236328125;5.7599999854574;577;1 A;
298.058007247476;-1.19964599609375;-0.171295166015625;5.76999998543215;578;1 A;
298.068007247451;-1.19903564453125;-0.171234130859375;5.7799999854069;579;1 A;
298.078007247425;-1.1993408203125;-0.17108154296875;5.78999998538166;580;1 A;
298.0880072474;-1.19903564453125;-0.1710205078125;5.79999998535641;581;1 A;
298.098007247375;-1.19964599609375;-0.170989990234375;5.80999998533116;582;1 A;
298.10800724735;-1.19964599609375;-0.170867919921875;5.81999998530591;583;1 A;
298.118007247324;-1.19964599609375;-0.1708984375;5.82999998528066;584;1 A;
298.128007247299;-1.199951171875;-0.170806884765625;5.83999998525542;585;1 A;
298.138007247274;-1.1993408203125;-0.170806884765625;5.84999998523017;586;1 A;
298.148007247249;-1.19964599609375;-0.1707763671875;5.85999998520492;587;1 A;
298.158007247223;-1.1993408203125;-0.170654296875;5.86999998517967;588;1 A;
298.168007247198;-1.1993408203125;-0.170623779296875;5.87999998515443;589;1 A;
298.178007247173;-1.19964599609375;-0.17047119140625;5.88999998512918;590;1 A;
298.188007247148;-1.19964599609375;-0.170379638671875;5.89999998510393;591;1 A;
298.198007247122;-1.19903564453125;-0.170318603515625;5.90999998507868;592;1 A;
298.208007247097;-1.1993408203125;-0.170196533203125;5.91999998505344;593;1 A;
298.218007247072;-1.199951171875;-0.170166015625;5.92999998502819;594;1 A;
298.228007247047;-1.1993408203125;-0.16998291015625;5.93999998500294;595;1 A;
298.238007247021;-1.1993408203125;-0.169952392578125;5.94999998497769;596;1 A;
298.248007246996;-1.19964599609375;-0.16986083984375;5.95999998495245;597;1 A;
298.258007246971;-1.20025634765625;-0.16986083984375;5.9699999849272;598;1 A;
298.268007246946;-1.1993408203125;-0.169830322265625;5.97999998490195;599;1 A;
298.27800724692;-1.19964599609375;-0.1697998046875;5.9899999848767;600;1 A;
298.288007246895;-1.19903564453125;-0.16986083984375;5.99999998485146;601;1 A;
298.29800724687;-1.1993408203125;-0.169769287109375;6.00999998482621;602;1 A;
298.308007246845;-1.1993408203125;-0.169769287109375;6.01999998480096;603;1 A;
298.318007246819;-1.19964599609375;-0.169708251953125;6.02999998477571;604;1 A;
298.328007246794;-1.19964599609375;-0.1695556640625;6.03999998475047;605;1 A;
298.338007246769;-1.199951171875;-0.169525146484375;6.04999998472522;606;1 A;
298.348007246744;-1.19964599609375;-0.169342041015625;6.05999998469997;607;1 A;
298.358007246718;-1.19903564453125;-0.1693115234375;6.06999998467472;608;1 A;
298.368007246693;-1.19903564453125;-0.169219970703125;6.07999998464948;609;1 A;
298.378007246668;-1.1993408203125;-0.1690673828125;6.08999998462423;610;1 A;
298.388007246643;-1.19964599609375;-0.16900634765625;6.09999998459898;611;1 A;
298.398007246617;-1.19964599609375;-0.1688232421875;6.10999998457373;612;1 A;
298.408007246592;-1.20025634765625;-0.168853759765625;6.11999998454849;613;1 A;
298.418007246567;-1.199951171875;-0.1688232421875;6.12999998452324;614;1 A;
298.428007246542;-1.199951171875;-0.1688232421875;6.13999998449799;615;1 A;
298.438007246516;-1.19964599609375;-0.16888427734375;6.14999998447274;616;1 A;
298.448007246491;-1.1993408203125;-0.168853759765625;6.1599999844475;617;1 A;
298.458007246466;-1.19964599609375;-0.168914794921875;6.16999998442225;618;1 A;
298.468007246441;-1.19964599609375;-0.1688232421875;6.179999984397;619;1 A;
298.478007246415;-1.19964599609375;-0.16876220703125;6.18999998437175;620;1 A;
298.48800724639;-1.199951171875;-0.168731689453125;6.1999999843465;621;1 A;
298.498007246365;-1.1993408203125;-0.168548583984375;6.20999998432126;622;1 A;
298.50800724634;-1.19964599609375;-0.1685791015625;6.21999998429601;623;1 A;
298.518007246314;-1.19964599609375;-0.168365478515625;6.22999998427076;624;1 A;
298.528007246289;-1.19903564453125;-0.16827392578125;6.23999998424551;625;1 A;
298.538007246264;-1.1993408203125;-0.168212890625;6.24999998422027;626;1 A;
298.548007246239;-1.20025634765625;-0.16802978515625;6.25999998419502;627;1 A;
298.558007246213;-1.199951171875;-0.16802978515625;6.26999998416977;628;1 A;
298.568007246188;-1.19903564453125;-0.167938232421875;6.27999998414452;629;1 A;
298.578007246163;-1.1993408203125;-0.16790771484375;6.28999998411928;630;1 A;
298.588007246138;-1.19964599609375;-0.16802978515625;6.29999998409403;631;1 A;
298.598007246113;-1.1993408203125;-0.167938232421875;6.30999998406878;632;1 A;
298.608007246087;-1.19903564453125;-0.16802978515625;6.31999998404353;633;1 A;
298.618007246062;-1.1993408203125;-0.167938232421875;6.32999998401829;634;1 A;
298.628007246037;-1.19964599609375;-0.16790771484375;6.33999998399304;635;1 A;
298.638007246012;-1.19964599609375;-0.167816162109375;6.34999998396779;636;1 A;
298.648007245986;-1.19964599609375;-0.167694091796875;6.35999998394254;637;1 A;
298.658007245961;-1.19903564453125;-0.16766357421875;6.3699999839173;638;1 A;
298.668007245936;-1.19964599609375;-0.167510986328125;6.37999998389205;639;1 A;
298.678007245911;-1.1993408203125;-0.16748046875;6.3899999838668;640;1 A;
298.688007245885;-1.19903564453125;-0.167327880859375;6.39999998384155;641;1 A;
298.69800724586;-1.1993408203125;-0.167236328125;6.40999998381631;642;1 A;
298.708007245835;-1.199951171875;-0.167205810546875;6.41999998379106;643;1 A;
298.71800724581;-1.19964599609375;-0.167083740234375;6.42999998376581;644;1 A;
298.728007245784;-1.19964599609375;-0.167083740234375;6.43999998374056;645;1 A;
298.738007245759;-1.19964599609375;-0.1671142578125;6.44999998371532;646;1 A;
298.748007245734;-1.1993408203125;-0.16705322265625;6.45999998369007;647;1 A;
298.758007245709;-1.19903564453125;-0.167205810546875;6.46999998366482;648;1 A;
298.768007245683;-1.19964599609375;-0.16705322265625;6.47999998363957;649;1 A;
298.778007245658;-1.1993408203125;-0.16705322265625;6.48999998361433;650;1 A;
298.788007245633;-1.19964599609375;-0.166961669921875;6.49999998358908;651;1 A;
298.798007245608;-1.1993408203125;-0.166839599609375;6.50999998356383;652;1 A;
298.808007245582;-1.1993408203125;-0.1668701171875;6.51999998353858;653;1 A;
298.818007245557;-1.19964599609375;-0.166656494140625;6.52999998351333;654;1 A;
298.828007245532;-1.19964599609375;-0.166595458984375;6.53999998348809;655;1 A;
298.838007245507;-1.1993408203125;-0.166534423828125;6.54999998346284;656;1 A;
298.848007245481;-1.199951171875;-0.1663818359375;6.55999998343759;657;1 A;
298.858007245456;-1.19964599609375;-0.166351318359375;6.56999998341234;658;1 A;
298.868007245431;-1.199951171875;-0.16619873046875;6.5799999833871;659;1 A;
298.878007245406;-1.19964599609375;-0.166229248046875;6.58999998336185;660;1 A;
298.88800724538;-1.19903564453125;-0.166168212890625;6.5999999833366;661;1 A;
298.898007245355;-1.1993408203125;-0.1661376953125;6.60999998331135;662;1 A;
298.90800724533;-1.1993408203125;-0.166229248046875;6.61999998328611;663;1 A;
298.918007245305;-1.1993408203125;-0.1661376953125;6.62999998326086;664;1 A;
298.928007245279;-1.1993408203125;-0.166168212890625;6.63999998323561;665;1 A;
298.938007245254;-1.19964599609375;-0.16607666015625;6.64999998321036;666;1 A;
298.948007245229;-1.199951171875;-0.166015625;6.65999998318512;667;1 A;
298.958007245204;-1.199951171875;-0.165985107421875;6.66999998315987;668;1 A;
298.968007245178;-1.19964599609375;-0.165802001953125;6.67999998313462;669;1 A;
298.978007245153;-1.19903564453125;-0.165771484375;6.68999998310937;670;1 A;
298.988007245128;-1.19964599609375;-0.1656494140625;6.69999998308413;671;1 A;
298.998007245103;-1.19964599609375;-0.16552734375;6.70999998305888;672;1 A;
299.008007245077;-1.19873046875;-0.165496826171875;6.71999998303363;673;1 A;
299.018007245052;-1.19964599609375;-0.165283203125;6.72999998300838;674;1 A;
299.028007245027;-1.1993408203125;-0.165283203125;6.73999998298314;675;1 A;
299.038007245002;-1.19964599609375;-0.16522216796875;6.74999998295789;676;1 A;
299.048007244976;-1.19964599609375;-0.165191650390625;6.75999998293264;677;1 A;
299.058007244951;-1.19964599609375;-0.16522216796875;6.76999998290739;678;1 A;
299.068007244926;-1.1993408203125;-0.165130615234375;6.77999998288215;679;1 A;
299.078007244901;-1.19903564453125;-0.165191650390625;6.7899999828569;680;1 A;
299.088007244875;-1.19964599609375;-0.165069580078125;6.79999998283165;681;1 A;
299.09800724485;-1.199951171875;-0.1650390625;6.8099999828064;682;1 A;
299.108007244825;-1.19964599609375;-0.165008544921875;6.81999998278116;683;1 A;
299.1180072448;-1.1993408203125;-0.164886474609375;6.82999998275591;684;1 A;
299.128007244774;-1.1993408203125;-0.16485595703125;6.83999998273066;685;1 A;
299.138007244749;-1.19903564453125;-0.16473388671875;6.84999998270541;686;1 A;
299.148007244724;-1.19964599609375;-0.164642333984375;6.85999998268016;687;1 A;
299.158007244699;-1.1993408203125;-0.164581298828125;6.86999998265492;688;1 A;
299.168007244673;-1.1993408203125;-0.164459228515625;6.87999998262967;689;1 A;
299.178007244648;-1.1993408203125;-0.164398193359375;6.88999998260442;690;1 A;
299.188007244623;-1.19964599609375;-0.164306640625;6.89999998257917;691;1 A;
299.198007244598;-1.19964599609375;-0.164306640625;6.90999998255393;692;1 A;
299.208007244572;-1.19964599609375;-0.164276123046875;6.91999998252868;693;1 A;
299.218007244547;-1.199951171875;-0.1641845703125;6.92999998250343;694;1 A;
299.228007244522;-1.19964599609375;-0.1641845703125;6.93999998247818;695;1 A;
299.238007244497;-1.1993408203125;-0.164093017578125;6.94999998245294;696;1 A;
299.248007244471;-1.19964599609375;-0.164093017578125;6.95999998242769;697;1 A;
299.258007244446;-1.199951171875;-0.164031982421875;6.96999998240244;698;1 A;
299.268007244421;-1.19903564453125;-0.1639404296875;6.97999998237719;699;1 A;
299.278007244396;-1.19903564453125;-0.163848876953125;6.98999998235195;700;1 A;
299.28800724437;-1.19964599609375;-0.16375732421875;6.9999999823267;701;1 A;
299.298007244345;-1.19903564453125;-0.1636962890625;7.00999998230145;702;1 A;
299.30800724432;-1.1993408203125;-0.163604736328125;7.0199999822762;703;1 A;
299.318007244295;-1.19964599609375;-0.16351318359375;7.02999998225096;704;1 A;
299.328007244269;-1.1993408203125;-0.16339111328125;7.03999998222571;705;1 A;
299.338007244244;-1.199951171875;-0.163330078125;7.04999998220046;706;1 A;
299.348007244219;-1.1993408203125;-0.163299560546875;7.05999998217521;707;1 A;
299.358007244194;-1.1993408203125;-0.163238525390625;7.06999998214997;708;1 A;
299.368007244168;-1.1993408203125;-0.163177490234375;7.07999998212472;709;1 A;
299.378007244143;-1.1993408203125;-0.1630859375;7.08999998209947;710;1 A;
299.388007244118;-1.199951171875;-0.16302490234375;7.09999998207422;711;1 A;
299.398007244093;-1.1993408203125;-0.162994384765625;7.10999998204898;712;1 A;
299.408007244067;-1.19903564453125;-0.162933349609375;7.11999998202373;713;1 A;
299.418007244042;-1.199951171875;-0.162872314453125;7.12999998199848;714;1 A;
299.428007244017;-1.19964599609375;-0.162750244140625;7.13999998197323;715;1 A;
299.438007243992;-1.19964599609375;-0.162689208984375;7.14999998194799;716;1 A;
299.448007243966;-1.19964599609375;-0.16259765625;7.15999998192274;717;1 A;
299.458007243941;-1.19964599609375;-0.16253662109375;7.16999998189749;718;1 A;
299.468007243916;-1.1993408203125;-0.1624755859375;7.17999998187224;719;1 A;
299.478007243891;-1.199951171875;-0.162384033203125;7.189999981847;720;1 A;
299.488007243865;-1.1993408203125;-0.162322998046875;7.19999998182175;721;1 A;
299.49800724384;-1.19964599609375;-0.162261962890625;7.2099999817965;722;1 A;
299.508007243815;-1.19903564453125;-0.162200927734375;7.21999998177125;723;1 A;
299.51800724379;-1.19903564453125;-0.162139892578125;7.229999981746;724;1 A;
299.528007243764;-1.1993408203125;-0.16204833984375;7.23999998172076;725;1 A;
299.538007243739;-1.19964599609375;-0.162017822265625;7.24999998169551;726;1 A;
299.548007243714;-1.19964599609375;-0.161895751953125;7.25999998167026;727;1 A;
299.558007243689;-1.19964599609375;-0.161865234375;7.26999998164501;728;1 A;
299.568007243663;-1.199951171875;-0.16180419921875;7.27999998161977;729;1 A;
299.578007243638;-1.19964599609375;-0.16168212890625;7.28999998159452;730;1 A;
299.588007243613;-1.1993408203125;-0.16168212890625;7.29999998156927;731;1 A;
299.598007243588;-1.199951171875;-0.16156005859375;7.30999998154402;732;1 A;
299.608007243562;-1.19964599609375;-0.16156005859375;7.31999998151878;733;1 A;
299.618007243537;-1.19964599609375;-0.16143798828125;7.32999998149353;734;1 A;
299.628007243512;-1.1993408203125;-0.161376953125;7.33999998146828;735;1 A;
299.638007243487;-1.1993408203125;-0.161376953125;7.34999998144303;736;1 A;
299.648007243462;-1.19964599609375;-0.161224365234375;7.35999998141779;737;1 A;
299.658007243436;-1.19964599609375;-0.161224365234375;7.36999998139254;738;1 A;
299.668007243411;-1.1993408203125;-0.161102294921875;7.37999998136729;739;1 A;
299.678007243386;-1.1993408203125;-0.1610107421875;7.38999998134204;740;1 A;
299.688007243361;-1.1993408203125;-0.160980224609375;7.3999999813168;741;1 A;
299.698007243335;-1.19903564453125;-0.16082763671875;7.40999998129155;742;1 A;
299.70800724331;-1.19964599609375;-0.16082763671875;7.4199999812663;743;1 A;
299.718007243285;-1.19964599609375;-0.160675048828125;7.42999998124105;744;1 A;
299.72800724326;-1.1993408203125;-0.160614013671875;7.43999998121581;745;1 A;
299.738007243234;-1.19964599609375;-0.16058349609375;7.44999998119056;746;1 A;
299.748007243209;-1.1993408203125;-0.160430908203125;7.45999998116531;747;1 A;
299.758007243184;-1.1993408203125;-0.16046142578125;7.46999998114006;748;1 A;
299.768007243159;-1.19964599609375;-0.160308837890625;7.47999998111482;749;1 A;
299.778007243133;-1.19873046875;-0.1602783203125;7.48999998108957;750;1 A;
299.788007243108;-1.1993408203125;-0.160247802734375;7.49999998106432;751;1 A;
299.798007243083;-1.19964599609375;-0.16009521484375;7.50999998103907;752;1 A;
299.808007243058;-1.19903564453125;-0.16009521484375;7.51999998101383;753;1 A;
299.818007243032;-1.19903564453125;-0.159942626953125;7.52999998098858;754;1 A;
299.828007243007;-1.19964599609375;-0.15985107421875;7.53999998096333;755;1 A;
299.838007242982;-1.19964599609375;-0.159820556640625;7.54999998093808;756;1 A;
299.848007242957;-1.1993408203125;-0.15966796875;7.55999998091283;757;1 A;
299.858007242931;-1.19964599609375;-0.15966796875;7.56999998088759;758;1 A;
299.868007242906;-1.199951171875;-0.159515380859375;7.57999998086234;759;1 A;
299.878007242881;-1.1993408203125;-0.159454345703125;7.58999998083709;760;1 A;
299.888007242856;-1.1993408203125;-0.159423828125;7.59999998081184;761;1 A;
299.89800724283;-1.1993408203125;-0.159332275390625;7.6099999807866;762;1 A;
299.908007242805;-1.1993408203125;-0.159332275390625;7.61999998076135;763;1 A;
299.91800724278;-1.19964599609375;-0.159210205078125;7.6299999807361;764;1 A;
299.928007242755;-1.1993408203125;-0.1591796875;7.63999998071085;765;1 A;
299.938007242729;-1.1993408203125;-0.15911865234375;7.64999998068561;766;1 A;
299.948007242704;-1.19964599609375;-0.159027099609375;7.65999998066036;767;1 A;
299.958007242679;-1.19964599609375;-0.15899658203125;7.66999998063511;768;1 A;
299.968007242654;-1.1993408203125;-0.1588134765625;7.67999998060986;769;1 A;
299.978007242628;-1.20025634765625;-0.15875244140625;7.68999998058462;770;1 A;
299.988007242603;-1.19873046875;-0.158660888671875;7.69999998055937;771;1 A;
299.998007242578;-1.19964599609375;-0.158538818359375;7.70999998053412;772;1 A;
300.008007242553;-1.19873046875;-0.158538818359375;7.71999998050887;773;1 A;
300.018007242527;-1.19964599609375;-0.158355712890625;7.72999998048363;774;1 A;
300.028007242502;-1.1993408203125;-0.1583251953125;7.73999998045838;775;1 A;
300.038007242477;-1.19873046875;-0.15826416015625;7.74999998043313;776;1 A;
300.048007242452;-1.19873046875;-0.158172607421875;7.75999998040788;777;1 A;
300.058007242426;-1.19964599609375;-0.158203125;7.76999998038264;778;1 A;
300.068007242401;-1.1993408203125;-0.158050537109375;7.77999998035739;779;1 A;
300.078007242376;-1.1993408203125;-0.158050537109375;7.78999998033214;780;1 A;
300.088007242351;-1.19964599609375;-0.157989501953125;7.79999998030689;781;1 A;
300.098007242325;-1.199951171875;-0.157867431640625;7.80999998028165;782;1 A;
300.1080072423;-1.1993408203125;-0.1578369140625;7.8199999802564;783;1 A;
300.118007242275;-1.19903564453125;-0.15765380859375;7.82999998023115;784;1 A;
300.12800724225;-1.19964599609375;-0.157623291015625;7.8399999802059;785;1 A;
300.138007242224;-1.19964599609375;-0.157501220703125;7.84999998018066;786;1 A;
300.148007242199;-1.1993408203125;-0.157379150390625;7.85999998015541;787;1 A;
300.158007242174;-1.19964599609375;-0.1573486328125;7.86999998013016;788;1 A;
300.168007242149;-1.19964599609375;-0.15716552734375;7.87999998010491;789;1 A;
300.178007242123;-1.20025634765625;-0.15716552734375;7.88999998007966;790;1 A;
300.188007242098;-1.19964599609375;-0.157073974609375;7.89999998005442;791;1 A;
300.198007242073;-1.199951171875;-0.157012939453125;7.90999998002917;792;1 A;
300.208007242048;-1.19964599609375;-0.157012939453125;7.91999998000392;793;1 A;
300.218007242022;-1.19964599609375;-0.1568603515625;7.92999997997867;794;1 A;
300.228007241997;-1.1993408203125;-0.15692138671875;7.93999997995343;795;1 A;
300.238007241972;-1.19903564453125;-0.15679931640625;7.94999997992818;796;1 A;
300.248007241947;-1.19903564453125;-0.156707763671875;7.95999997990293;797;1 A;
300.258007241921;-1.19903564453125;-0.15667724609375;7.96999997987768;798;1 A;
300.268007241896;-1.1993408203125;-0.156463623046875;7.97999997985244;799;1 A;
300.278007241871;-1.1993408203125;-0.1563720703125;7.98999997982719;800;1 A;
300.288007241846;-1.19903564453125;-0.156280517578125;7.99999997980194;801;1 A;
300.29800724182;-1.1993408203125;-0.1561279296875;8.00999997977669;802;1 A;
300.308007241795;-1.1993408203125;-0.156097412109375;8.01999997975145;803;1 A;
300.31800724177;-1.19873046875;-0.1558837890625;8.0299999797262;804;1 A;
300.328007241745;-1.1993408203125;-0.155914306640625;8.03999997970095;805;1 A;
300.338007241719;-1.1993408203125;-0.155792236328125;8.0499999796757;806;1 A;
300.348007241694;-1.19964599609375;-0.15576171875;8.05999997965046;807;1 A;
300.358007241669;-1.19964599609375;-0.155731201171875;8.06999997962521;808;1 A;
300.368007241644;-1.19903564453125;-0.1556396484375;8.07999997959996;809;1 A;
300.378007241618;-1.19964599609375;-0.155670166015625;8.08999997957471;810;1 A;
300.388007241593;-1.1993408203125;-0.155548095703125;8.09999997954947;811;1 A;
300.398007241568;-1.1993408203125;-0.155548095703125;8.10999997952422;812;1 A;
300.408007241543;-1.19903564453125;-0.15545654296875;8.11999997949897;813;1 A;
300.418007241517;-1.19964599609375;-0.155303955078125;8.12999997947372;814;1 A;
300.428007241492;-1.19903564453125;-0.15521240234375;8.13999997944848;815;1 A;
300.438007241467;-1.19903564453125;-0.15509033203125;8.14999997942323;816;1 A;
300.448007241442;-1.19964599609375;-0.154937744140625;8.15999997939798;817;1 A;
300.458007241416;-1.19903564453125;-0.154876708984375;8.16999997937273;818;1 A;
300.468007241391;-1.19964599609375;-0.1546630859375;8.17999997934749;819;1 A;
300.478007241366;-1.19964599609375;-0.154632568359375;8.18999997932224;820;1 A;
300.488007241341;-1.1993408203125;-0.154510498046875;8.19999997929699;821;1 A;
300.498007241315;-1.1993408203125;-0.15447998046875;8.20999997927174;822;1 A;
300.50800724129;-1.19903564453125;-0.1544189453125;8.2199999792465;823;1 A;
300.518007241265;-1.1993408203125;-0.154388427734375;8.22999997922125;824;1 A;
300.52800724124;-1.19964599609375;-0.15435791015625;8.239999979196;825;1 A;
300.538007241214;-1.1993408203125;-0.15435791015625;8.24999997917075;826;1 A;
300.548007241189;-1.1993408203125;-0.15435791015625;8.2599999791455;827;1 A;
300.558007241164;-1.19964599609375;-0.154266357421875;8.26999997912026;828;1 A;
300.568007241139;-1.19964599609375;-0.154144287109375;8.27999997909501;829;1 A;
300.578007241113;-1.1993408203125;-0.154022216796875;8.28999997906976;830;1 A;
300.588007241088;-1.1993408203125;-0.15386962890625;8.29999997904451;831;1 A;
300.598007241063;-1.1993408203125;-0.15374755859375;8.30999997901927;832;1 A;
300.608007241038;-1.19964599609375;-0.153594970703125;8.31999997899402;833;1 A;
300.618007241012;-1.1993408203125;-0.1534423828125;8.32999997896877;834;1 A;
300.628007240987;-1.1993408203125;-0.1533203125;8.33999997894352;835;1 A;
300.638007240962;-1.1993408203125;-0.15325927734375;8.34999997891828;836;1 A;
300.648007240937;-1.19903564453125;-0.1531982421875;8.35999997889303;837;1 A;
300.658007240912;-1.19964599609375;-0.153076171875;8.36999997886778;838;1 A;
300.668007240886;-1.1993408203125;-0.153076171875;8.37999997884253;839;1 A;
300.678007240861;-1.19964599609375;-0.153045654296875;8.38999997881729;840;1 A;
300.688007240836;-1.19964599609375;-0.153106689453125;8.39999997879204;841;1 A;
300.698007240811;-1.1993408203125;-0.153106689453125;8.40999997876679;842;1 A;
300.708007240785;-1.1993408203125;-0.153106689453125;8.41999997874154;843;1 A;
300.71800724076;-1.19964599609375;-0.15301513671875;8.4299999787163;844;1 A;
300.728007240735;-1.19964599609375;-0.152923583984375;8.43999997869105;845;1 A;
300.73800724071;-1.199951171875;-0.15277099609375;8.4499999786658;846;1 A;
300.748007240684;-1.1993408203125;-0.152618408203125;8.45999997864055;847;1 A;
300.758007240659;-1.19964599609375;-0.152496337890625;8.46999997861531;848;1 A;
300.768007240634;-1.19873046875;-0.15234375;8.47999997859006;849;1 A;
300.778007240609;-1.199951171875;-0.152252197265625;8.48999997856481;850;1 A;
300.788007240583;-1.19964599609375;-0.152130126953125;8.49999997853956;851;1 A;
300.798007240558;-1.1993408203125;-0.15203857421875;8.50999997851432;852;1 A;
300.808007240533;-1.19873046875;-0.151947021484375;8.51999997848907;853;1 A;
300.818007240508;-1.19903564453125;-0.151885986328125;8.52999997846382;854;1 A;
300.828007240482;-1.1993408203125;-0.15179443359375;8.53999997843857;855;1 A;
300.838007240457;-1.19964599609375;-0.151947021484375;8.54999997841333;856;1 A;
300.848007240432;-1.19964599609375;-0.15185546875;8.55999997838808;857;1 A;
300.858007240407;-1.19903564453125;-0.151947021484375;8.56999997836283;858;1 A;
300.868007240381;-1.1993408203125;-0.151885986328125;8.57999997833758;859;1 A;
300.878007240356;-1.19964599609375;-0.15185546875;8.58999997831233;860;1 A;
300.888007240331;-1.19903564453125;-0.1517333984375;8.59999997828709;861;1 A;
300.898007240306;-1.19964599609375;-0.151519775390625;8.60999997826184;862;1 A;
300.90800724028;-1.1993408203125;-0.15142822265625;8.61999997823659;863;1 A;
300.918007240255;-1.1993408203125;-0.151275634765625;8.62999997821134;864;1 A;
300.92800724023;-1.19964599609375;-0.151214599609375;8.6399999781861;865;1 A;
300.938007240205;-1.19964599609375;-0.151123046875;8.64999997816085;866;1 A;
300.948007240179;-1.19964599609375;-0.15093994140625;8.6599999781356;867;1 A;
300.958007240154;-1.199951171875;-0.150848388671875;8.66999997811035;868;1 A;
300.968007240129;-1.19873046875;-0.150726318359375;8.67999997808511;869;1 A;
300.978007240104;-1.19903564453125;-0.15069580078125;8.68999997805986;870;1 A;
300.988007240078;-1.19903564453125;-0.150787353515625;8.69999997803461;871;1 A;
300.998007240053;-1.19903564453125;-0.15069580078125;8.70999997800936;872;1 A;
301.008007240028;-1.1993408203125;-0.15087890625;8.71999997798412;873;1 A;
301.018007240003;-1.1993408203125;-0.150726318359375;8.72999997795887;874;1 A;
301.028007239977;-1.1993408203125;-0.150726318359375;8.73999997793362;875;1 A;
301.038007239952;-1.19964599609375;-0.150665283203125;8.74999997790837;876;1 A;
301.048007239927;-1.19964599609375;-0.150482177734375;8.75999997788313;877;1 A;
301.058007239902;-1.1993408203125;-0.150360107421875;8.76999997785788;878;1 A;
301.068007239876;-1.199951171875;-0.15020751953125;8.77999997783263;879;1 A;
301.078007239851;-1.19964599609375;-0.150115966796875;8.78999997780738;880;1 A;
301.088007239826;-1.19964599609375;-0.149993896484375;8.79999997778214;881;1 A;
301.098007239801;-1.199951171875;-0.149871826171875;8.80999997775689;882;1 A;
301.108007239775;-1.1993408203125;-0.1497802734375;8.81999997773164;883;1 A;
301.11800723975;-1.1993408203125;-0.14959716796875;8.82999997770639;884;1 A;
301.128007239725;-1.19903564453125;-0.1495361328125;8.83999997768115;885;1 A;
301.1380072397;-1.1993408203125;-0.14959716796875;8.8499999776559;886;1 A;
301.148007239674;-1.1993408203125;-0.149505615234375;8.85999997763065;887;1 A;
301.158007239649;-1.19964599609375;-0.14971923828125;8.8699999776054;888;1 A;
301.168007239624;-1.1993408203125;-0.149658203125;8.87999997758016;889;1 A;
301.178007239599;-1.19964599609375;-0.149688720703125;8.88999997755491;890;1 A;
301.188007239573;-1.19964599609375;-0.149627685546875;8.89999997752966;891;1 A;
301.198007239548;-1.199951171875;-0.149505615234375;8.90999997750441;892;1 A;
301.208007239523;-1.19903564453125;-0.1494140625;8.91999997747916;893;1 A;
301.218007239498;-1.1993408203125;-0.14923095703125;8.92999997745392;894;1 A;
301.228007239472;-1.199951171875;-0.149139404296875;8.93999997742867;895;1 A;
301.238007239447;-1.1993408203125;-0.1490478515625;8.94999997740342;896;1 A;
301.248007239422;-1.19964599609375;-0.14892578125;8.95999997737817;897;1 A;
301.258007239397;-1.19964599609375;-0.148834228515625;8.96999997735293;898;1 A;
301.268007239371;-1.1993408203125;-0.148651123046875;8.97999997732768;899;1 A;
301.278007239346;-1.19964599609375;-0.1485595703125;8.98999997730243;900;1 A;
301.288007239321;-1.199951171875;-0.148529052734375;8.99999997727718;901;1 A;
301.298007239296;-1.19964599609375;-0.148468017578125;9.00999997725194;902;1 A;
301.30800723927;-1.19964599609375;-0.148651123046875;9.01999997722669;903;1 A;
301.318007239245;-1.20025634765625;-0.1485595703125;9.02999997720144;904;1 A;
301.32800723922;-1.19964599609375;-0.148681640625;9.03999997717619;905;1 A;
301.338007239195;-1.1993408203125;-0.148651123046875;9.04999997715095;906;1 A;
301.348007239169;-1.19964599609375;-0.1485595703125;9.0599999771257;907;1 A;
301.358007239144;-1.19964599609375;-0.148529052734375;9.06999997710045;908;1 A;
301.368007239119;-1.1993408203125;-0.14837646484375;9.0799999770752;909;1 A;
301.378007239094;-1.19964599609375;-0.148284912109375;9.08999997704996;910;1 A;
301.388007239068;-1.1993408203125;-0.148162841796875;9.09999997702471;911;1 A;
301.398007239043;-1.199951171875;-0.148040771484375;9.10999997699946;912;1 A;
301.408007239018;-1.19964599609375;-0.14801025390625;9.11999997697421;913;1 A;
301.418007238993;-1.1993408203125;-0.1478271484375;9.12999997694897;914;1 A;
301.428007238967;-1.19964599609375;-0.147735595703125;9.13999997692372;915;1 A;
301.438007238942;-1.19964599609375;-0.147674560546875;9.14999997689847;916;1 A;
301.448007238917;-1.1993408203125;-0.1475830078125;9.15999997687322;917;1 A;
301.458007238892;-1.19964599609375;-0.147705078125;9.16999997684798;918;1 A;
301.468007238866;-1.19964599609375;-0.1475830078125;9.17999997682273;919;1 A;
301.478007238841;-1.19903564453125;-0.147705078125;9.18999997679748;920;1 A;
301.488007238816;-1.19964599609375;-0.14764404296875;9.19999997677223;921;1 A;
301.498007238791;-1.19964599609375;-0.147705078125;9.20999997674699;922;1 A;
301.508007238765;-1.1993408203125;-0.14776611328125;9.21999997672174;923;1 A;
301.51800723874;-1.199951171875;-0.147705078125;9.22999997669649;924;1 A;
301.528007238715;-1.19964599609375;-0.147705078125;9.23999997667124;925;1 A;
301.53800723869;-1.199951171875;-0.147613525390625;9.249999976646;926;1 A;
301.548007238664;-1.1993408203125;-0.147430419921875;9.25999997662075;927;1 A;
301.558007238639;-1.19964599609375;-0.147430419921875;9.2699999765955;928;1 A;
301.568007238614;-1.1993408203125;-0.147216796875;9.27999997657025;929;1 A;
301.578007238589;-1.1993408203125;-0.147247314453125;9.289999976545;930;1 A;
301.588007238563;-1.1993408203125;-0.1470947265625;9.29999997651976;931;1 A;
301.598007238538;-1.199951171875;-0.147003173828125;9.30999997649451;932;1 A;
301.608007238513;-1.1993408203125;-0.147064208984375;9.31999997646926;933;1 A;
301.618007238488;-1.1993408203125;-0.146942138671875;9.32999997644401;934;1 A;
301.628007238462;-1.1993408203125;-0.147064208984375;9.33999997641877;935;1 A;
301.638007238437;-1.19964599609375;-0.146942138671875;9.34999997639352;936;1 A;
301.648007238412;-1.1993408203125;-0.1470947265625;9.35999997636827;937;1 A;
301.658007238387;-1.19964599609375;-0.1470947265625;9.36999997634302;938;1 A;
301.668007238361;-1.19964599609375;-0.147125244140625;9.37999997631778;939;1 A;
301.678007238336;-1.1993408203125;-0.147125244140625;9.38999997629253;940;1 A;
301.688007238311;-1.19964599609375;-0.14697265625;9.39999997626728;941;1 A;
301.698007238286;-1.1993408203125;-0.146820068359375;9.40999997624203;942;1 A;
301.708007238261;-1.19964599609375;-0.1468505859375;9.41999997621679;943;1 A;
301.718007238235;-1.19903564453125;-0.14666748046875;9.42999997619154;944;1 A;
301.72800723821;-1.1993408203125;-0.146697998046875;9.43999997616629;945;1 A;
301.738007238185;-1.1993408203125;-0.146484375;9.44999997614104;946;1 A;
301.74800723816;-1.1993408203125;-0.1463623046875;9.4599999761158;947;1 A;
301.758007238134;-1.19964599609375;-0.146331787109375;9.46999997609055;948;1 A;
301.768007238109;-1.1993408203125;-0.14630126953125;9.4799999760653;949;1 A;
301.778007238084;-1.199951171875;-0.146514892578125;9.48999997604005;950;1 A;
301.788007238059;-1.1993408203125;-0.146484375;9.49999997601481;951;1 A;
301.798007238033;-1.19964599609375;-0.146759033203125;9.50999997598956;952;1 A;
301.808007238008;-1.19903564453125;-0.146759033203125;9.51999997596431;953;1 A;
301.818007237983;-1.199951171875;-0.146881103515625;9.52999997593906;954;1 A;
301.828007237958;-1.19964599609375;-0.146697998046875;9.53999997591382;955;1 A;
301.838007237932;-1.19964599609375;-0.1463623046875;9.54999997588857;956;1 A;
301.848007237907;-1.19964599609375;-0.14599609375;9.55999997586332;957;1 A;
301.858007237882;-1.1993408203125;-0.145843505859375;9.56999997583807;958;1 A;
301.868007237857;-1.19964599609375;-0.145751953125;9.57999997581283;959;1 A;
301.878007237831;-1.1993408203125;-0.146026611328125;9.58999997578758;960;1 A;
301.888007237806;-1.199951171875;-0.14605712890625;9.59999997576233;961;1 A;
301.898007237781;-1.1993408203125;-0.145965576171875;9.60999997573708;962;1 A;
301.908007237756;-1.19964599609375;-0.14556884765625;9.61999997571183;963;1 A;
301.91800723773;-1.19964599609375;-0.144989013671875;9.62999997568659;964;1 A;
301.928007237705;-1.1993408203125;-0.144744873046875;9.63999997566134;965;1 A;
301.93800723768;-1.19964599609375;-0.144744873046875;9.64999997563609;966;1 A;
301.948007237655;-1.19964599609375;-0.14508056640625;9.65999997561084;967;1 A;
301.958007237629;-1.19903564453125;-0.14544677734375;9.6699999755856;968;1 A;
301.968007237604;-1.19903564453125;-0.145660400390625;9.67999997556035;969;1 A;
301.978007237579;-1.19964599609375;-0.14532470703125;9.6899999755351;970;1 A;
301.988007237554;-1.19903564453125;-0.1446533203125;9.69999997550985;971;1 A;
301.998007237528;-1.199951171875;-0.14373779296875;9.70999997548461;972;1 A;
302.008007237503;-1.1993408203125;-0.143646240234375;9.71999997545936;973;1 A;
302.018007237478;-1.19964599609375;-0.143829345703125;9.72999997543411;974;1 A;
302.028007237453;-1.19964599609375;-0.14447021484375;9.73999997540886;975;1 A;
302.038007237427;-1.199951171875;-0.14471435546875;9.74999997538362;976;1 A;
302.048007237402;-1.19964599609375;-0.144622802734375;9.75999997535837;977;1 A;
302.058007237377;-1.1993408203125;-0.143890380859375;9.76999997533312;978;1 A;
302.068007237352;-1.19964599609375;-0.1429443359375;9.77999997530787;979;1 A;
302.078007237326;-1.19903564453125;-0.142608642578125;9.78999997528263;980;1 A;
302.088007237301;-1.19903564453125;-0.142791748046875;9.79999997525738;981;1 A;
302.098007237276;-1.19964599609375;-0.1435546875;9.80999997523213;982;1 A;
302.108007237251;-1.1993408203125;-0.14404296875;9.81999997520688;983;1 A;
302.118007237225;-1.1993408203125;-0.144317626953125;9.82999997518164;984;1 A;
302.1280072372;-1.1993408203125;-0.1435546875;9.83999997515639;985;1 A;
302.138007237175;-1.19964599609375;-0.142608642578125;9.84999997513114;986;1 A;
302.14800723715;-1.19964599609375;-0.14190673828125;9.85999997510589;987;1 A;
302.158007237124;-1.1993408203125;-0.14202880859375;9.86999997508065;988;1 A;
302.168007237099;-1.199951171875;-0.142578125;9.8799999750554;989;1 A;
302.178007237074;-1.19964599609375;-0.1435546875;9.88999997503015;990;1 A;
302.188007237049;-1.19903564453125;-0.1439208984375;9.8999999750049;991;1 A;
302.198007237023;-1.19964599609375;-0.1436767578125;9.90999997497966;992;1 A;
302.208007236998;-1.199951171875;-0.142913818359375;9.91999997495441;993;1 A;
302.218007236973;-1.1993408203125;-0.142059326171875;9.92999997492916;994;1 A;
302.228007236948;-1.1993408203125;-0.14178466796875;9.93999997490391;995;1 A;
302.238007236922;-1.1993408203125;-0.14202880859375;9.94999997487866;996;1 A;
302.248007236897;-1.1993408203125;-0.142974853515625;9.95999997485342;997;1 A;
302.258007236872;-1.19964599609375;-0.14361572265625;9.96999997482817;998;1 A;
302.268007236847;-1.19873046875;-0.143951416015625;9.97999997480292;999;1 A;
302.278007236821;-1.19903564453125;-0.143402099609375;9.98999997477767;1000;1 A;
