Figure 8 data,,,,,,,,,,,
1 Hz,,,2 Hz,,,4 Hz,,,7 Hz,,
Potential (V),delta current (A),delta current (mA),Potential (V),delta current (A),delta current (mA),Potential (V),delta current (A),delta current (mA),Potential (V),delta current (A),delta current (mA)
-0.179977,2.05E-05,2.05E-02,-0.179977,2.54E-05,2.54E-02,-0.179977,6.74E-05,6.74E-02,-0.179977,0.000144501,1.45E-01
-0.186539,9.34E-06,9.34E-03,-0.186539,8.17E-06,8.17E-03,-0.186539,3.18E-05,3.18E-02,-0.186539,7.42E-05,7.42E-02
-0.1931,2.41E-07,2.41E-04,-0.1931,-5.84E-06,-5.84E-03,-0.1931,1.36E-06,1.36E-03,-0.1931,1.29E-05,1.29E-02
-0.199661,-5.29E-06,-5.29E-03,-0.199661,-1.40E-05,-1.40E-02,-0.199661,-1.79E-05,-1.79E-02,-0.199661,-2.82E-05,-2.82E-02
-0.206223,-5.72E-06,-5.72E-03,-0.206223,-1.34E-05,-1.34E-02,-0.206223,-2.07E-05,-2.07E-02,-0.206223,-3.67E-05,-3.67E-02
-0.212784,1.50E-07,1.50E-04,-0.212784,-2.55E-06,-2.55E-03,-0.212784,-2.31E-06,-2.31E-03,-0.212784,-4.24E-06,-4.24E-03
-0.219345,-1.47E-07,-1.47E-04,-0.219345,0,0.00E+00,-0.219345,2.22E-08,2.22E-05,-0.219345,3.90E-07,3.90E-04
-0.225906,-2.03E-06,-2.03E-03,-0.225906,-8.53E-07,-8.53E-04,-0.225906,-1.50E-06,-1.50E-03,-0.225906,0,0.00E+00
-0.232468,-6.21E-06,-6.21E-03,-0.232468,-3.92E-06,-3.92E-03,-0.232468,-5.54E-06,-5.54E-03,-0.232468,-4.19E-06,-4.19E-03
-0.239029,-1.25E-05,-1.25E-02,-0.239029,-9.26E-06,-9.26E-03,-0.239029,-1.26E-05,-1.26E-02,-0.239029,-1.29E-05,-1.29E-02
-0.24559,-1.92E-05,-1.92E-02,-0.24559,-1.68E-05,-1.68E-02,-0.24559,-2.29E-05,-2.29E-02,-0.24559,-2.65E-05,-2.65E-02
-0.252151,-2.78E-05,-2.78E-02,-0.252151,-2.68E-05,-2.68E-02,-0.252151,-3.62E-05,-3.62E-02,-0.252151,-4.29E-05,-4.29E-02
-0.258713,-3.82E-05,-3.82E-02,-0.258713,-3.89E-05,-3.89E-02,-0.258713,-5.28E-05,-5.28E-02,-0.258713,-6.21E-05,-6.21E-02
-0.265274,-4.99E-05,-4.99E-02,-0.265274,-5.34E-05,-5.34E-02,-0.265274,-7.20E-05,-7.20E-02,-0.265274,-8.51E-05,-8.51E-02
-0.271835,-6.32E-05,-6.32E-02,-0.271835,-6.94E-05,-6.94E-02,-0.271835,-9.41E-05,-9.41E-02,-0.271835,-0.000111091,-1.11E-01
-0.278397,-7.74E-05,-7.74E-02,-0.278397,-8.76E-05,-8.76E-02,-0.278397,-0.000118322,-1.18E-01,-0.278397,-0.000139975,-1.40E-01
-0.284958,-9.25E-05,-9.25E-02,-0.284958,-0.000106638,-1.07E-01,-0.284958,-0.000143825,-1.44E-01,-0.284958,-0.000171963,-1.72E-01
-0.291519,-0.000108115,-1.08E-01,-0.291519,-0.000127793,-1.28E-01,-0.291519,-0.00017121,-1.71E-01,-0.291519,-0.000207867,-2.08E-01
-0.29808,-0.00012362,-1.24E-01,-0.29808,-0.000148602,-1.49E-01,-0.29808,-0.000199744,-2.00E-01,-0.29808,-0.000245767,-2.46E-01
-0.304642,-0.000139916,-1.40E-01,-0.304642,-0.000170875,-1.71E-01,-0.304642,-0.000229918,-2.30E-01,-0.304642,-0.000285444,-2.85E-01
-0.311203,-0.000155514,-1.56E-01,-0.311203,-0.000193677,-1.94E-01,-0.311203,-0.000260777,-2.61E-01,-0.311203,-0.000327128,-3.27E-01
-0.317764,-0.000171041,-1.71E-01,-0.317764,-0.000216297,-2.16E-01,-0.317764,-0.000292098,-2.92E-01,-0.317764,-0.000369323,-3.69E-01
-0.324326,-0.000186727,-1.87E-01,-0.324326,-0.000238946,-2.39E-01,-0.324326,-0.000323242,-3.23E-01,-0.324326,-0.000411209,-4.11E-01
-0.330887,-0.000201478,-2.01E-01,-0.330887,-0.000261233,-2.61E-01,-0.330887,-0.000353887,-3.54E-01,-0.330887,-0.000452093,-4.52E-01
-0.337448,-0.000214753,-2.15E-01,-0.337448,-0.000281186,-2.81E-01,-0.337448,-0.00038318,-3.83E-01,-0.337448,-0.000492303,-4.92E-01
-0.344009,-0.000227111,-2.27E-01,-0.344009,-0.000301467,-3.01E-01,-0.344009,-0.000411407,-4.11E-01,-0.344009,-0.000530542,-5.31E-01
-0.350571,-0.000238645,-2.39E-01,-0.350571,-0.000319751,-3.20E-01,-0.350571,-0.000437642,-4.38E-01,-0.350571,-0.000566623,-5.67E-01
-0.357132,-0.00024819,-2.48E-01,-0.357132,-0.000335612,-3.36E-01,-0.357132,-0.000462204,-4.62E-01,-0.357132,-0.000602034,-6.02E-01
-0.363693,-0.000256371,-2.56E-01,-0.363693,-0.000350153,-3.50E-01,-0.363693,-0.000484083,-4.84E-01,-0.363693,-0.000635608,-6.36E-01
-0.370255,-0.000263076,-2.63E-01,-0.370255,-0.000362667,-3.63E-01,-0.370255,-0.000503676,-5.04E-01,-0.370255,-0.000667482,-6.67E-01
-0.376816,-0.000268378,-2.68E-01,-0.376816,-0.00037222,-3.72E-01,-0.376816,-0.000520835,-5.21E-01,-0.376816,-0.000696876,-6.97E-01
-0.383377,-0.000272726,-2.73E-01,-0.383377,-0.00038118,-3.81E-01,-0.383377,-0.000535797,-5.36E-01,-0.383377,-0.00072383,-7.24E-01
-0.389938,-0.000274408,-2.74E-01,-0.389938,-0.000385616,-3.86E-01,-0.389938,-0.000547572,-5.48E-01,-0.389938,-0.000746785,-7.47E-01
-0.3965,-0.000274492,-2.74E-01,-0.3965,-0.000389582,-3.90E-01,-0.3965,-0.000556375,-5.56E-01,-0.3965,-0.000765415,-7.65E-01
-0.403061,-0.000273079,-2.73E-01,-0.403061,-0.000391324,-3.91E-01,-0.403061,-0.000561751,-5.62E-01,-0.403061,-0.000779481,-7.79E-01
-0.409622,-0.000271398,-2.71E-01,-0.409622,-0.000388757,-3.89E-01,-0.409622,-0.00056386,-5.64E-01,-0.409622,-0.000788579,-7.89E-01
-0.416183,-0.000268536,-2.69E-01,-0.416183,-0.000386109,-3.86E-01,-0.416183,-0.000562437,-5.62E-01,-0.416183,-0.000792066,-7.92E-01
-0.422745,-0.000263129,-2.63E-01,-0.422745,-0.000380576,-3.81E-01,-0.422745,-0.000558097,-5.58E-01,-0.422745,-0.00078989,-7.90E-01
-0.429306,-0.000258086,-2.58E-01,-0.429306,-0.00037258,-3.73E-01,-0.429306,-0.000551151,-5.51E-01,-0.429306,-0.000782891,-7.83E-01
-0.435867,-0.000251994,-2.52E-01,-0.435867,-0.000364101,-3.64E-01,-0.435867,-0.000541182,-5.41E-01,-0.435867,-0.000770881,-7.71E-01
-0.442429,-0.000244097,-2.44E-01,-0.442429,-0.000352442,-3.52E-01,-0.442429,-0.000528014,-5.28E-01,-0.442429,-0.000753775,-7.54E-01
-0.44899,-0.000234494,-2.34E-01,-0.44899,-0.000340723,-3.41E-01,-0.44899,-0.000512265,-5.12E-01,-0.44899,-0.000733453,-7.33E-01
-0.455551,-0.000224687,-2.25E-01,-0.455551,-0.000326535,-3.27E-01,-0.455551,-0.000493453,-4.93E-01,-0.455551,-0.000709779,-7.10E-01
-0.462112,-0.00021527,-2.15E-01,-0.462112,-0.000311459,-3.11E-01,-0.462112,-0.000472613,-4.73E-01,-0.462112,-0.000683384,-6.83E-01
-0.468674,-0.000205133,-2.05E-01,-0.468674,-0.0002962,-2.96E-01,-0.468674,-0.000449706,-4.50E-01,-0.468674,-0.000653878,-6.54E-01
-0.475235,-0.000194695,-1.95E-01,-0.475235,-0.000279522,-2.80E-01,-0.475235,-0.000425885,-4.26E-01,-0.475235,-0.000621642,-6.22E-01
-0.481796,-0.000184801,-1.85E-01,-0.481796,-0.000262395,-2.62E-01,-0.481796,-0.000401296,-4.01E-01,-0.481796,-0.000587317,-5.87E-01
-0.488358,-0.000173975,-1.74E-01,-0.488358,-0.00024483,-2.45E-01,-0.488358,-0.000375965,-3.76E-01,-0.488358,-0.000551467,-5.51E-01
-0.494919,-0.000163137,-1.63E-01,-0.494919,-0.000227033,-2.27E-01,-0.494919,-0.000350054,-3.50E-01,-0.494919,-0.000514598,-5.15E-01
-0.50148,-0.000152161,-1.52E-01,-0.50148,-0.000209669,-2.10E-01,-0.50148,-0.000324097,-3.24E-01,-0.50148,-0.00047681,-4.77E-01
-0.508041,-0.00014085,-1.41E-01,-0.508041,-0.000191758,-1.92E-01,-0.508041,-0.000297792,-2.98E-01,-0.508041,-0.000439404,-4.39E-01
-0.514603,-0.00012878,-1.29E-01,-0.514603,-0.000174943,-1.75E-01,-0.514603,-0.000271799,-2.72E-01,-0.514603,-0.000402613,-4.03E-01
-0.521164,-0.000117605,-1.18E-01,-0.521164,-0.00015765,-1.58E-01,-0.521164,-0.000245889,-2.46E-01,-0.521164,-0.000366819,-3.67E-01
-0.527725,-0.000107048,-1.07E-01,-0.527725,-0.000141462,-1.41E-01,-0.527725,-0.0002203,-2.20E-01,-0.527725,-0.000331504,-3.32E-01
-0.534286,-9.59E-05,-9.59E-02,-0.534286,-0.000125107,-1.25E-01,-0.534286,-0.000195172,-1.95E-01,-0.534286,-0.000297681,-2.98E-01
-0.540848,-8.54E-05,-8.54E-02,-0.540848,-0.000109824,-1.10E-01,-0.540848,-0.000171997,-1.72E-01,-0.540848,-0.000265861,-2.66E-01
-0.547409,-7.64E-05,-7.64E-02,-0.547409,-9.52E-05,-9.52E-02,-0.547409,-0.000150578,-1.51E-01,-0.547409,-0.000235169,-2.35E-01
-0.55397,-6.73E-05,-6.73E-02,-0.55397,-8.11E-05,-8.11E-02,-0.55397,-0.000130377,-1.30E-01,-0.55397,-0.000205365,-2.05E-01
-0.560532,-5.82E-05,-5.82E-02,-0.560532,-6.84E-05,-6.84E-02,-0.560532,-0.000111033,-1.11E-01,-0.560532,-0.000177122,-1.77E-01
-0.567093,-5.00E-05,-5.00E-02,-0.567093,-5.69E-05,-5.69E-02,-0.567093,-9.31E-05,-9.31E-02,-0.567093,-0.000150374,-1.50E-01
-0.573654,-4.16E-05,-4.16E-02,-0.573654,-4.60E-05,-4.60E-02,-0.573654,-7.61E-05,-7.61E-02,-0.573654,-0.000125124,-1.25E-01
-0.580215,-3.42E-05,-3.42E-02,-0.580215,-3.68E-05,-3.68E-02,-0.580215,-5.99E-05,-5.99E-02,-0.580215,-0.000101641,-1.02E-01
-0.586777,-2.62E-05,-2.62E-02,-0.586777,-2.83E-05,-2.83E-02,-0.586777,-4.51E-05,-4.51E-02,-0.586777,-8.03E-05,-8.03E-02
-0.593338,-1.96E-05,-1.96E-02,-0.593338,-2.03E-05,-2.03E-02,-0.593338,-3.35E-05,-3.35E-02,-0.593338,-6.11E-05,-6.11E-02
-0.599899,-1.43E-05,-1.43E-02,-0.599899,-1.40E-05,-1.40E-02,-0.599899,-2.42E-05,-2.42E-02,-0.599899,-4.44E-05,-4.44E-02
-0.606461,-8.04E-06,-8.04E-03,-0.606461,-8.79E-06,-8.79E-03,-0.606461,-1.57E-05,-1.57E-02,-0.606461,-3.02E-05,-3.02E-02
-0.613022,-4.16E-06,-4.16E-03,-0.613022,-4.41E-06,-4.41E-03,-0.613022,-8.57E-06,-8.57E-03,-0.613022,-1.88E-05,-1.88E-02
-0.619583,-3.38E-06,-3.38E-03,-0.619583,-1.77E-06,-1.77E-03,-0.619583,-3.68E-06,-3.68E-03,-0.619583,-9.73E-06,-9.73E-03
-0.626144,-2.85E-06,-2.85E-03,-0.626144,-1.02E-07,-1.02E-04,-0.626144,-7.09E-07,-7.09E-04,-0.626144,-3.73E-06,-3.73E-03
-0.632706,-3.32E-07,-3.32E-04,-0.632706,0,0.00E+00,-0.632706,4.03E-07,4.03E-04,-0.632706,-6.16E-07,-6.16E-04
-0.639267,3.29E-07,3.29E-04,-0.639267,-8.93E-07,-8.93E-04,-0.639267,6.87E-07,6.87E-04,-0.639267,7.72E-07,7.72E-04
-0.645828,-8.99E-07,-8.99E-04,-0.645828,-2.92E-06,-2.92E-03,-0.645828,-3.09E-07,-3.09E-04,-0.645828,0,0.00E+00
-0.65239,-2.76E-06,-2.76E-03,-0.65239,-5.37E-06,-5.37E-03,-0.65239,-2.22E-06,-2.22E-03,-0.65239,-3.16E-06,-3.16E-03
-0.658951,-6.24E-06,-6.24E-03,-0.658951,-1.10E-05,-1.10E-02,-0.658951,-5.69E-06,-5.69E-03,-0.658951,-8.67E-06,-8.67E-03
-0.665512,-1.16E-05,-1.16E-02,-0.665512,-1.76E-05,-1.76E-02,-0.665512,-1.19E-05,-1.19E-02,-0.665512,-1.62E-05,-1.62E-02
-0.672073,-1.84E-05,-1.84E-02,-0.672073,-2.51E-05,-2.51E-02,-0.672073,-2.16E-05,-2.16E-02,-0.672073,-2.63E-05,-2.63E-02
-0.678635,-2.34E-05,-2.34E-02,-0.678635,-3.15E-05,-3.15E-02,-0.678635,-3.56E-05,-3.56E-02,-0.678635,-4.18E-05,-4.18E-02
,,,,,,-0.685196,-5.13E-05,-5.13E-02,-0.685196,-5.89E-05,-5.89E-02
,,,,,,-0.691757,-6.50E-05,-6.50E-02,-0.691757,-7.51E-05,-7.51E-02
,,,,,,-0.698318,-7.56E-05,-7.56E-02,-0.698318,-8.88E-05,-8.88E-02
,,,,,,,,,,,
,,,,,,,,,,,
,,,,,,,,,,,
,,,,,,,,,,,
,,,,,,,,,,,
,,,,,,,,,,,
,,,,,,,,,,,
,,,,,,,,,,,
,,,,,,,,,,,
,,,,,,,,,,,
