Figure 3 data,,,,,,,,,,,
Exp 1 (11/17),,,,Exp 3 (12/1),,,,Exp 6 (10/11),,,
300 mV/s,,,,300 mV/s,,,,300 mV/s,,,
WE Potential (V),Adjusted Potential (WE Potential + 0 V),WE Current Density (A/cm^2),WE Current Density (mA/cm^2),WE Potential (V),Adjusted Potential (WE Potential - 0.2 V),WE Current Density (A/cm^2),WE Current Density (mA/cm^2),WE Potential (V),Adjusted Potential (WE Potential - 0.9 V),WE Current Density (A/cm^2),WE Current Density (mA/cm^2)
-0.00093689,-0.00093689,-0.005232974,-5.232974148,-0.000912476,-0.200912476,-0.002379811,-2.379810692,-0.000900269,-0.900900269,-0.011561654,-11.56165422
-0.00199585,-0.00199585,-0.005222699,-5.222699168,-0.00198975,-0.20198975,-0.002397482,-2.397482028,-0.00197144,-0.90197144,-0.011548643,-11.54864315
-0.00305176,-0.00305176,-0.005239835,-5.239835364,-0.00306702,-0.20306702,-0.002362139,-2.362139356,-0.00303955,-0.90303955,-0.011457821,-11.45782078
-0.00411682,-0.00411682,-0.005301519,-5.30151893,-0.00414124,-0.20414124,-0.002353299,-2.353298862,-0.00409241,-0.90409241,-0.011457821,-11.45782078
-0.00520325,-0.00520325,-0.005287808,-5.287807728,-0.00519714,-0.20519714,-0.002394538,-2.394538414,-0.00516357,-0.90516357,-0.011574623,-11.57462278
-0.00623169,-0.00623169,-0.005267247,-5.267246539,-0.00625305,-0.20625305,-0.002391595,-2.3915948,-0.00625,-0.90625,-0.011561654,-11.56165422
-0.00730286,-0.00730286,-0.00532208,-5.322080119,-0.00732422,-0.20732422,-0.002332684,-2.332683912,-0.00731506,-0.90731506,-0.011509738,-11.5097375
-0.00838013,-0.00838013,-0.005352928,-5.352927517,-0.00837097,-0.20837097,-0.002344468,-2.34446802,-0.00834961,-0.90834961,-0.011639508,-11.63950805
-0.00946045,-0.00946045,-0.005311794,-5.31179391,-0.00945435,-0.20945435,-0.002394538,-2.394538414,-0.00945129,-0.90945129,-0.011613528,-11.61352843
-0.010498,-0.010498,-0.005339216,-5.339216314,-0.0105255,-0.2105255,-0.002359196,-2.359195742,-0.0105133,-0.9105133,-0.011626539,-11.6265395
-0.0115936,-0.0115936,-0.005387189,-5.387188678,-0.0115662,-0.2115662,-0.002341524,-2.341524406,-0.011554,-0.911554,-0.011678414,-11.6784137
-0.0126404,-0.0126404,-0.005390625,-5.390624901,-0.0126373,-0.2126373,-0.002400426,-2.400425642,-0.0126312,-0.9126312,-0.011769236,-11.76923607
-0.0136902,-0.0136902,-0.005387189,-5.387188678,-0.0137207,-0.2137207,-0.002379811,-2.379810692,-0.0136963,-0.9136963,-0.011613528,-11.61352843
-0.0147705,-0.0147705,-0.005418036,-5.418036076,-0.0148071,-0.2148071,-0.002335628,-2.335627526,-0.0147583,-0.9147583,-0.011665445,-11.66544515
-0.0158447,-0.0158447,-0.00540775,-5.407749867,-0.0158264,-0.2158264,-0.002388651,-2.388651186,-0.0158112,-0.9158112,-0.01184709,-11.8470899
-0.0168945,-0.0168945,-0.005387189,-5.387188678,-0.0169067,-0.2169067,-0.002394538,-2.394538414,-0.0168915,-0.9168915,-0.011808184,-11.80818425
-0.0179688,-0.0179688,-0.005411186,-5.41118609,-0.0180023,-0.2180023,-0.002350355,-2.350355248,-0.0179535,-0.9179535,-0.011808184,-11.80818425
-0.0190247,-0.0190247,-0.005445447,-5.445447252,-0.0190674,-0.2190674,-0.002338581,-2.338580792,-0.0190155,-0.9190155,-0.01187307,-11.87306952
-0.0200989,-0.0200989,-0.005431747,-5.431747279,-0.0201233,-0.2201233,-0.002385698,-2.38569792,-0.0201141,-0.9201141,-0.011911975,-11.91197517
-0.0211334,-0.0211334,-0.005438597,-5.438597265,-0.0211914,-0.2211914,-0.002376867,-2.376867078,-0.0211456,-0.9211456,-0.011899007,-11.89900662
-0.022226,-0.022226,-0.005476295,-5.476294649,-0.0222595,-0.2222595,-0.002359196,-2.359195742,-0.022229,-0.922229,-0.011911975,-11.91197517
-0.0232819,-0.0232819,-0.005496856,-5.496855838,-0.0232849,-0.2232849,-0.002362139,-2.362139356,-0.0232971,-0.9232971,-0.012015809,-12.01580862
-0.0243622,-0.0243622,-0.005466008,-5.46600844,-0.0243652,-0.2243652,-0.002379811,-2.379810692,-0.0243774,-0.9243774,-0.011989829,-11.98982899
-0.0254272,-0.0254272,-0.005503706,-5.503705825,-0.0254425,-0.2254425,-0.002359196,-2.359195742,-0.0254181,-0.9254181,-0.01197686,-11.97686044
-0.0264862,-0.0264862,-0.005517417,-5.517417027,-0.0265137,-0.2265137,-0.002362139,-2.362139356,-0.0264771,-0.9264771,-0.012054714,-12.05471427
-0.0275604,-0.0275604,-0.005493431,-5.493430845,-0.0275665,-0.2275665,-0.002397482,-2.397482028,-0.0275543,-0.9275543,-0.012093662,-12.09366244
-0.0286163,-0.0286163,-0.005496856,-5.496855838,-0.0286499,-0.2286499,-0.002350355,-2.350355248,-0.0286316,-0.9286316,-0.012054714,-12.05471427
-0.0296692,-0.0296692,-0.005561964,-5.561964398,-0.0296906,-0.2296906,-0.002368027,-2.368026584,-0.0296631,-0.9296631,-0.012093662,-12.09366244
-0.0307617,-0.0307617,-0.005534553,-5.534553223,-0.0307678,-0.2307678,-0.002406323,-2.406322522,-0.0307465,-0.9307465,-0.012197453,-12.19745336
-0.0318146,-0.0318146,-0.005551689,-5.551689418,-0.0318329,-0.2318329,-0.002382754,-2.382754306,-0.0317932,-0.9317932,-0.012314255,-12.31425536
-0.0328827,-0.0328827,-0.005551689,-5.551689418,-0.0328857,-0.2328857,-0.002373923,-2.373923464,-0.0328705,-0.9328705,-0.012158548,-12.15854771
-0.0339539,-0.0339539,-0.005513992,-5.513992034,-0.0339569,-0.2339569,-0.002373923,-2.373923464,-0.0339417,-0.9339417,-0.012210422,-12.21042191
-0.0350311,-0.0350311,-0.005544828,-5.544828202,-0.0350311,-0.2350311,-0.002409266,-2.409266136,-0.035025,-0.935025,-0.012379141,-12.37914063
-0.0360687,-0.0360687,-0.005561964,-5.561964398,-0.0361328,-0.2361328,-0.002356252,-2.356252128,-0.0360809,-0.9360809,-0.012301287,-12.30128681
-0.0371704,-0.0371704,-0.005585962,-5.585961809,-0.0371613,-0.2371613,-0.002338581,-2.338580792,-0.0371277,-0.9371277,-0.012340192,-12.34019246
-0.0382263,-0.0382263,-0.005548264,-5.548264425,-0.0382355,-0.2382355,-0.002365083,-2.36508297,-0.038205,-0.938205,-0.012431015,-12.43101483
-0.0393158,-0.0393158,-0.005510567,-5.510567041,-0.0393341,-0.2393341,-0.002397482,-2.397482028,-0.0393036,-0.9393036,-0.012314255,-12.31425536
-0.0403717,-0.0403717,-0.005579101,-5.579100593,-0.040387,-0.240387,-0.002362139,-2.362139356,-0.0403381,-0.9403381,-0.012366172,-12.36617208
-0.0414185,-0.0414185,-0.005603087,-5.603086776,-0.0414337,-0.2414337,-0.002388651,-2.388651186,-0.0414093,-0.9414093,-0.0124959,-12.49590011
-0.0424988,-0.0424988,-0.005555114,-5.555114411,-0.0425018,-0.2425018,-0.002385698,-2.38569792,-0.0424866,-0.9424866,-0.0124959,-12.49590011
-0.0435638,-0.0435638,-0.005558539,-5.558539405,-0.0435669,-0.2435669,-0.00237098,-2.37097985,-0.0435547,-0.9435547,-0.012456994,-12.45699446
-0.0446289,-0.0446289,-0.005613373,-5.613372985,-0.0446381,-0.2446381,-0.002379811,-2.379810692,-0.0446014,-0.9446014,-0.012573754,-12.57375393
-0.0457123,-0.0457123,-0.005582526,-5.582525587,-0.0457062,-0.2457062,-0.00241221,-2.41220975,-0.0456787,-0.9456787,-0.012638639,-12.6386392
-0.046759,-0.046759,-0.005609948,-5.609947991,-0.0467743,-0.2467743,-0.002394538,-2.394538414,-0.046756,-0.946756,-0.012677587,-12.67758738
-0.0478088,-0.0478088,-0.005592812,-5.592811796,-0.0478119,-0.2478119,-0.002379811,-2.379810692,-0.0478241,-0.9478241,-0.012625671,-12.62567065
-0.0488922,-0.0488922,-0.005575676,-5.5756756,-0.0488831,-0.2488831,-0.002400426,-2.400425642,-0.0488617,-0.9488617,-0.012690556,-12.69055593
-0.0499878,-0.0499878,-0.005582526,-5.582525587,-0.0499878,-0.2499878,-0.002388651,-2.388651186,-0.0499573,-0.9499573,-0.012729462,-12.72946158
-0.0509949,-0.0509949,-0.005609948,-5.609947991,-0.0511169,-0.2511169,-0.002362139,-2.362139356,-0.0510864,-0.9510864,-0.012677587,-12.67758738
-0.052063,-0.052063,-0.005630509,-5.63050918,-0.0520935,-0.2520935,-0.002397482,-2.397482028,-0.052124,-0.952124,-0.01289818,-12.8981803
-0.0532227,-0.0532227,-0.005572251,-5.572250607,-0.0532227,-0.2532227,-0.002438722,-2.438721579,-0.0531006,-0.9531006,-0.01289818,-12.8981803
-0.0541992,-0.0541992,-0.005599662,-5.599661782,-0.0542908,-0.2542908,-0.002388651,-2.388651186,-0.0542603,-0.9542603,-0.012807315,-12.8073154
-0.0553284,-0.0553284,-0.005640784,-5.64078416,-0.0552979,-0.2552979,-0.002385698,-2.38569792,-0.0552673,-0.9552673,-0.012911149,-12.91114885
-0.056427,-0.056427,-0.005609948,-5.609947991,-0.0563965,-0.2563965,-0.002426937,-2.426937472,-0.0563965,-0.9563965,-0.013027908,-13.02790832
-0.0574646,-0.0574646,-0.005579101,-5.579100593,-0.0574646,-0.2574646,-0.002409266,-2.409266136,-0.0574036,-0.9574036,-0.012950054,-12.9500545
-0.0585938,-0.0585938,-0.005596237,-5.596236789,-0.0585632,-0.2585632,-0.002403369,-2.403369256,-0.0584717,-0.9584717,-0.012911149,-12.91114885
-0.0596008,-0.0596008,-0.005609948,-5.609947991,-0.0596008,-0.2596008,-0.002415153,-2.415153364,-0.0595398,-0.9595398,-0.013092794,-13.0927936
-0.0606079,-0.0606079,-0.005589387,-5.589386803,-0.0606384,-0.2606384,-0.002432825,-2.4328247,-0.0606689,-0.9606689,-0.013131742,-13.13174177
-0.0616455,-0.0616455,-0.005596237,-5.596236789,-0.0617371,-0.2617371,-0.002385698,-2.38569792,-0.061676,-0.961676,-0.013170647,-13.17064742
-0.0627441,-0.0627441,-0.005627084,-5.627084187,-0.0627747,-0.2627747,-0.002400426,-2.400425642,-0.0628357,-0.9628357,-0.013183658,-13.18365849
-0.0638123,-0.0638123,-0.005565389,-5.565389391,-0.0638733,-0.2638733,-0.002421041,-2.421040592,-0.0638428,-0.9638428,-0.013248501,-13.24850124
-0.0649109,-0.0649109,-0.005582526,-5.582525587,-0.0648804,-0.2648804,-0.002400426,-2.400425642,-0.0648804,-0.9648804,-0.013183658,-13.18365849
-0.065918,-0.065918,-0.005633934,-5.633934173,-0.065979,-0.265979,-0.002365083,-2.36508297,-0.065918,-0.965918,-0.013313387,-13.31338652
-0.0670471,-0.0670471,-0.005585962,-5.585961809,-0.0670166,-0.2670166,-0.002456393,-2.456392915,-0.0670776,-0.9670776,-0.013378272,-13.37827179
-0.0681763,-0.0681763,-0.005561964,-5.561964398,-0.0681152,-0.2681152,-0.002415153,-2.415153364,-0.0681152,-0.9681152,-0.01339124,-13.39124034
-0.0691223,-0.0691223,-0.005637359,-5.637359167,-0.0691528,-0.2691528,-0.002379811,-2.379810692,-0.0691833,-0.9691833,-0.013326398,-13.32639759
-0.070282,-0.070282,-0.005633934,-5.633934173,-0.0702515,-0.2702515,-0.002418097,-2.418096978,-0.0702515,-0.9702515,-0.013508042,-13.50804233
-0.0713501,-0.0713501,-0.005585962,-5.585961809,-0.0712891,-0.2712891,-0.002450496,-2.450496036,-0.0712891,-0.9712891,-0.013572928,-13.57292761
-0.0723572,-0.0723572,-0.005579101,-5.579100593,-0.0723267,-0.2723267,-0.002409266,-2.409266136,-0.0723572,-0.9723572,-0.013572928,-13.57292761
-0.0733948,-0.0733948,-0.005579101,-5.579100593,-0.0734863,-0.2734863,-0.002403369,-2.403369256,-0.0734558,-0.9734558,-0.013495074,-13.49507378
-0.0745239,-0.0745239,-0.005575676,-5.5756756,-0.0744934,-0.2744934,-0.00245344,-2.45343965,-0.0744934,-0.9744934,-0.013676719,-13.67671853
-0.0755615,-0.0755615,-0.005537978,-5.537978216,-0.075592,-0.275592,-0.00246228,-2.462280144,-0.0755615,-0.9755615,-0.013676719,-13.67671853
-0.0766296,-0.0766296,-0.005568826,-5.568825614,-0.0766602,-0.2766602,-0.002403369,-2.403369256,-0.0766602,-0.9766602,-0.013650781,-13.65078143
-0.0776978,-0.0776978,-0.005565389,-5.565389391,-0.0776978,-0.2776978,-0.002432825,-2.4328247,-0.0776672,-0.9776672,-0.013832426,-13.83242618
-0.0787354,-0.0787354,-0.005544828,-5.544828202,-0.0788269,-0.2788269,-0.002447552,-2.447552422,-0.0787659,-0.9787659,-0.013845437,-13.84543725
-0.0798035,-0.0798035,-0.005568826,-5.568825614,-0.0798035,-0.2798035,-0.002423994,-2.423993858,-0.079834,-0.979834,-0.013754572,-13.75457236
-0.0809021,-0.0809021,-0.005596237,-5.596236789,-0.0809326,-0.2809326,-0.00241221,-2.41220975,-0.0808716,-0.9808716,-0.013975165,-13.97516528
-0.0820007,-0.0820007,-0.005548264,-5.548264425,-0.0820007,-0.2820007,-0.002471111,-2.471110986,-0.0819397,-0.9819397,-0.013975165,-13.97516528
-0.0830383,-0.0830383,-0.005537978,-5.537978216,-0.0830688,-0.2830688,-0.002450496,-2.450496036,-0.0830688,-0.9830688,-0.013962197,-13.96219673
-0.0841064,-0.0841064,-0.005579101,-5.579100593,-0.0841675,-0.2841675,-0.002421041,-2.421040592,-0.0841064,-0.9841064,-0.013975165,-13.97516528
-0.0851135,-0.0851135,-0.005582526,-5.582525587,-0.0852051,-0.2852051,-0.002438722,-2.438721579,-0.0851746,-0.9851746,-0.014130873,-14.13087292
-0.0862732,-0.0862732,-0.005544828,-5.544828202,-0.0863037,-0.2863037,-0.002474064,-2.474064251,-0.0862732,-0.9862732,-0.014130873,-14.13087292
-0.0872803,-0.0872803,-0.005558539,-5.558539405,-0.0873413,-0.2873413,-0.002423994,-2.423993858,-0.0872498,-0.9872498,-0.014130873,-14.13087292
-0.0883789,-0.0883789,-0.005548264,-5.548264425,-0.0884094,-0.2884094,-0.002432825,-2.4328247,-0.0883484,-0.9883484,-0.014351466,-14.35146584
-0.0894165,-0.0894165,-0.005524267,-5.524267014,-0.089386,-0.289386,-0.002468167,-2.468167372,-0.089386,-0.989386,-0.014377445,-14.37744546
-0.0904846,-0.0904846,-0.005524267,-5.524267014,-0.0905151,-0.2905151,-0.002465224,-2.465223758,-0.0905151,-0.9905151,-0.014377445,-14.37744546
-0.0915527,-0.0915527,-0.005555114,-5.555114411,-0.0915527,-0.2915527,-0.002438722,-2.438721579,-0.0915222,-0.9915222,-0.014377445,-14.37744546
-0.0926514,-0.0926514,-0.005531128,-5.531128229,-0.0926514,-0.2926514,-0.002488792,-2.488791973,-0.0925903,-0.9925903,-0.014520185,-14.52018456
-0.0936279,-0.0936279,-0.005513992,-5.513992034,-0.0937195,-0.2937195,-0.002450496,-2.450496036,-0.093689,-0.993689,-0.014533153,-14.53315311
-0.0947266,-0.0947266,-0.005541403,-5.541403209,-0.0947876,-0.2947876,-0.002423994,-2.423993858,-0.0947571,-0.9947571,-0.014468268,-14.46826784
-0.0957947,-0.0957947,-0.005524267,-5.524267014,-0.0957947,-0.2957947,-0.002471111,-2.471110986,-0.0957947,-0.9957947,-0.014572059,-14.57205876
-0.0968628,-0.0968628,-0.005490006,-5.490005852,-0.0969543,-0.2969543,-0.002479951,-2.47995148,-0.0968933,-0.9968933,-0.014675892,-14.67589221
-0.0979309,-0.0979309,-0.005507131,-5.507130818,-0.0979614,-0.2979614,-0.002450496,-2.450496036,-0.0979309,-0.9979309,-0.014675892,-14.67589221
-0.0990295,-0.0990295,-0.005531128,-5.531128229,-0.0990295,-0.2990295,-0.002423994,-2.423993858,-0.098999,-0.998999,-0.014740777,-14.74077748
-0.100098,-0.100098,-0.005507131,-5.507130818,-0.100128,-0.300128,-0.002479951,-2.47995148,-0.100098,-1.000098,-0.014935391,-14.93539078
-0.101135,-0.101135,-0.00548657,-5.486569629,-0.101196,-0.301196,-0.002494679,-2.494679202,-0.101074,-1.001074,-0.014870506,-14.87050551
-0.102173,-0.102173,-0.005500281,-5.500280832,-0.102203,-0.302203,-0.00245344,-2.45343965,-0.102173,-1.002173,-0.014896485,-14.89648513
-0.103271,-0.103271,-0.005517417,-5.517417027,-0.103302,-0.303302,-0.002471111,-2.471110986,-0.103241,-1.003241,-0.015000276,-15.00027605
-0.10434,-0.10434,-0.005448872,-5.448872245,-0.104401,-0.304401,-0.002485839,-2.485838708,-0.104309,-1.004309,-0.015117078,-15.11707805
-0.105408,-0.105408,-0.005493431,-5.493430845,-0.105408,-0.305408,-0.00246228,-2.462280144,-0.105438,-1.005438,-0.015091098,-15.09109843
-0.106476,-0.106476,-0.005496856,-5.496855838,-0.106476,-0.306476,-0.002450496,-2.450496036,-0.106445,-1.006445,-0.015168952,-15.16895225
-0.107574,-0.107574,-0.005452308,-5.452308467,-0.107544,-0.307544,-0.00250351,-2.503510044,-0.107574,-1.007574,-0.015259817,-15.25981715
-0.108643,-0.108643,-0.005431747,-5.431747279,-0.108612,-0.308612,-0.002474064,-2.474064251,-0.108582,-1.008582,-0.015298723,-15.2987228
-0.10965,-0.10965,-0.005483145,-5.483144636,-0.109711,-0.309711,-0.00246228,-2.462280144,-0.10968,-1.00968,-0.015285754,-15.28575425
-0.110748,-0.110748,-0.005466008,-5.46600844,-0.110718,-0.310718,-0.002485839,-2.485838708,-0.110718,-1.010718,-0.015493379,-15.49337862
-0.111816,-0.111816,-0.005424886,-5.424886063,-0.111847,-0.311847,-0.002521181,-2.52118138,-0.111786,-1.011786,-0.015493379,-15.49337862
-0.112885,-0.112885,-0.005455733,-5.455733461,-0.112885,-0.312885,-0.002450496,-2.450496036,-0.112854,-1.012854,-0.015519316,-15.51931572
-0.113953,-0.113953,-0.005462583,-5.462583447,-0.113953,-0.313953,-0.002471111,-2.471110986,-0.113922,-1.013922,-0.015623149,-15.62314916
-0.115021,-0.115021,-0.005452308,-5.452308467,-0.115051,-0.315051,-0.002532965,-2.532965488,-0.115021,-1.015021,-0.015765888,-15.76588826
-0.116058,-0.116058,-0.005431747,-5.431747279,-0.116119,-0.316119,-0.002518238,-2.518237766,-0.11615,-1.01615,-0.015649086,-15.64908626
-0.117126,-0.117126,-0.005483145,-5.483144636,-0.117157,-0.317157,-0.002482895,-2.482895094,-0.117218,-1.017218,-0.015752877,-15.75287719
-0.118256,-0.118256,-0.005421461,-5.42146107,-0.118256,-0.318256,-0.00250351,-2.503510044,-0.118225,-1.018225,-0.015882648,-15.88264773
-0.119263,-0.119263,-0.005404325,-5.404324874,-0.119354,-0.319354,-0.002524135,-2.524134645,-0.119263,-1.019263,-0.016025387,-16.02538683
-0.120361,-0.120361,-0.005442022,-5.442022258,-0.120422,-0.320422,-0.002491736,-2.491735587,-0.1203,-1.0203,-0.015882648,-15.88264773
-0.121429,-0.121429,-0.005448872,-5.448872245,-0.121429,-0.321429,-0.00250351,-2.503510044,-0.121429,-1.021429,-0.016025387,-16.02538683
-0.122498,-0.122498,-0.005356353,-5.35635251,-0.122559,-0.322559,-0.002527078,-2.52707826,-0.122467,-1.022467,-0.016116209,-16.11620921
-0.123596,-0.123596,-0.00540775,-5.407749867,-0.123627,-0.323627,-0.002491736,-2.491735587,-0.123535,-1.023535,-0.016090272,-16.0902721
-0.124573,-0.124573,-0.005431747,-5.431747279,-0.124634,-0.324634,-0.002506463,-2.506463309,-0.124542,-1.024542,-0.016142189,-16.14218883
-0.125702,-0.125702,-0.005380339,-5.380338692,-0.125702,-0.325702,-0.002550637,-2.550636824,-0.125671,-1.025671,-0.016349771,-16.34977068
-0.12674,-0.12674,-0.005370052,-5.370052483,-0.126801,-0.326801,-0.00254475,-2.544749596,-0.12677,-1.02677,-0.016297896,-16.29789647
-0.127838,-0.127838,-0.005414611,-5.414611083,-0.127838,-0.327838,-0.002500566,-2.50056643,-0.127838,-1.027838,-0.016336802,-16.33680213
-0.128876,-0.128876,-0.005370052,-5.370052483,-0.128876,-0.328876,-0.002532965,-2.532965488,-0.128906,-1.028906,-0.01649251,-16.49250977
-0.129974,-0.129974,-0.005356353,-5.35635251,-0.129913,-0.329913,-0.00255358,-2.553580438,-0.129944,-1.029944,-0.016557395,-16.55739505
-0.131042,-0.131042,-0.005359778,-5.359777503,-0.131073,-0.331073,-0.002532965,-2.532965488,-0.130981,-1.030981,-0.016557395,-16.55739505
-0.132111,-0.132111,-0.00540775,-5.407749867,-0.13208,-0.33208,-0.002527078,-2.52707826,-0.13208,-1.03208,-0.016635249,-16.63524887
-0.133148,-0.133148,-0.005352928,-5.352927517,-0.133118,-0.333118,-0.002556534,-2.556533703,-0.133087,-1.033087,-0.016777988,-16.77798797
-0.134247,-0.134247,-0.005311794,-5.31179391,-0.134277,-0.334277,-0.002556534,-2.556533703,-0.134247,-1.034247,-0.016790957,-16.79095652
-0.135284,-0.135284,-0.005390625,-5.390624901,-0.135345,-0.335345,-0.002532965,-2.532965488,-0.135223,-1.035223,-0.016816936,-16.81693614
-0.136353,-0.136353,-0.005366627,-5.36662749,-0.136322,-0.336322,-0.002550637,-2.550636824,-0.136292,-1.036292,-0.016985612,-16.98561234
-0.137421,-0.137421,-0.005311794,-5.31179391,-0.137421,-0.337421,-0.002580092,-2.580092268,-0.13739,-1.03739,-0.016998581,-16.99858089
-0.138519,-0.138519,-0.005363202,-5.363202496,-0.138519,-0.338519,-0.002530022,-2.530021874,-0.138489,-1.038489,-0.017037529,-17.03752906
-0.139557,-0.139557,-0.005359778,-5.359777503,-0.139557,-0.339557,-0.00259482,-2.594819989,-0.139557,-1.039557,-0.017193237,-17.1932367
-0.140594,-0.140594,-0.00532893,-5.328930105,-0.140686,-0.340686,-0.002606604,-2.606604097,-0.140564,-1.040564,-0.017271091,-17.27109053
-0.141663,-0.141663,-0.005346066,-5.346066301,-0.141724,-0.341724,-0.002559477,-2.559477317,-0.141632,-1.041632,-0.017284059,-17.28405908
-0.142731,-0.142731,-0.005335791,-5.335791321,-0.142761,-0.342761,-0.00255358,-2.553580438,-0.142792,-1.042792,-0.017348944,-17.34894435
-0.143768,-0.143768,-0.005291233,-5.291232721,-0.14386,-0.34386,-0.002618379,-2.618378554,-0.143829,-1.043829,-0.017530589,-17.5305891
-0.144867,-0.144867,-0.005318655,-5.318655126,-0.144897,-0.344897,-0.00259482,-2.594819989,-0.144867,-1.044867,-0.017595474,-17.59547437
-0.145905,-0.145905,-0.005356353,-5.35635251,-0.145996,-0.345996,-0.002568308,-2.56830816,-0.145966,-1.045966,-0.017517621,-17.51762055
