Figure 13 data,,,,,,,
Voltammogram (top),,Residual gas analyzer data (bottom),,,,,
,,-0.5 V,,-0.8 V,,-0.9 V,
Potential (V),Current (A),Time (s),2 AMU signal intensity,Time (s),2 AMU signal intensity,Time (s),2 AMU signal intensity
-0.0276184,0.00304565,0.131,2.03E+00,0.087,2.50E+00,0.248,2.20E+00
-0.025177,0.0031488,0.446,2.34E+00,0.402,2.57E+00,0.563,2.11E+00
-0.0227356,0.00321594,0.762,2.24E+00,0.718,2.64E+00,0.879,2.00E+00
-0.0202942,0.00328186,1.078,2.31E+00,1.033,2.39E+00,1.195,1.90E+00
-0.0178528,0.00334534,1.393,2.36E+00,1.349,2.42E+00,1.51,1.92E+00
-0.0154114,0.00341095,1.709,2.59E+00,1.665,2.20E+00,1.826,2.12E+00
-0.01297,0.00347534,2.024,2.48E+00,1.98,2.21E+00,2.141,2.24E+00
-0.0105286,0.00354187,2.34,2.46E+00,2.296,2.16E+00,2.457,2.31E+00
-0.00808716,0.00360565,2.656,2.32E+00,2.611,2.09E+00,2.773,2.35E+00
-0.00564575,0.00366943,2.971,2.29E+00,2.927,2.29E+00,3.088,2.37E+00
-0.00320435,0.00373047,3.287,2.28E+00,3.243,2.23E+00,3.404,2.50E+00
-0.000762939,0.00379761,3.602,2.20E+00,3.558,2.39E+00,3.719,2.39E+00
0.00167847,0.003862,3.918,2.02E+00,3.874,2.50E+00,4.035,2.50E+00
0.00411987,0.00392548,4.234,2.09E+00,4.189,2.45E+00,4.351,2.26E+00
0.00656128,0.00398407,4.549,2.33E+00,4.505,2.68E+00,4.666,1.96E+00
0.00900269,0.00404419,4.865,2.30E+00,4.821,2.43E+00,4.982,2.04E+00
0.0114441,0.00410858,5.18,2.33E+00,5.136,2.38E+00,5.297,1.86E+00
0.0138855,0.00416443,5.496,2.44E+00,5.452,2.12E+00,5.613,1.96E+00
0.0163269,0.00424286,5.812,2.55E+00,5.767,2.21E+00,5.929,2.15E+00
0.0187683,0.00427063,6.127,2.50E+00,6.083,1.97E+00,6.244,2.11E+00
0.0212097,0.00430634,6.443,2.51E+00,6.399,2.14E+00,6.56,2.27E+00
0.0236511,0.00439209,6.758,2.22E+00,6.714,2.07E+00,6.875,2.33E+00
0.0260925,0.00445404,7.074,2.05E+00,7.03,2.25E+00,7.191,2.35E+00
0.0285339,0.0044693,7.39,2.13E+00,7.345,2.37E+00,7.507,2.39E+00
0.0309753,0.00450897,7.705,2.01E+00,7.661,2.37E+00,7.822,2.30E+00
0.0334167,0.00459381,8.021,1.96E+00,7.977,2.49E+00,8.138,2.08E+00
0.0358582,0.00463257,8.336,2.02E+00,8.292,2.36E+00,8.453,2.11E+00
0.0382996,0.004646,8.652,2.11E+00,8.608,2.51E+00,8.769,1.93E+00
0.040741,0.00469269,8.968,2.20E+00,8.923,2.42E+00,9.085,2.07E+00
0.0431824,0.0047641,9.283,2.29E+00,9.239,2.26E+00,9.4,2.11E+00
0.0456238,0.00478577,9.599,2.37E+00,9.555,2.18E+00,9.716,2.06E+00
0.0480652,0.00479218,9.914,2.28E+00,9.87,2.06E+00,10.031,2.21E+00
0.0505066,0.0048526,10.23,2.33E+00,10.186,1.95E+00,10.347,2.30E+00
0.052948,0.00490326,10.546,2.32E+00,10.501,2.21E+00,10.663,2.40E+00
0.0553894,0.00490784,10.861,2.07E+00,10.817,2.04E+00,10.978,2.34E+00
0.0578308,0.0049173,11.177,2.46E+00,11.133,2.29E+00,11.294,2.59E+00
0.0602722,0.00496826,11.492,2.00E+00,11.448,2.29E+00,11.609,2.37E+00
0.0627136,0.00500488,11.808,1.95E+00,11.764,2.44E+00,11.925,2.35E+00
0.065155,0.00499268,12.124,2.42E+00,12.079,2.51E+00,12.241,2.10E+00
0.0675964,0.00500488,12.439,2.03E+00,12.395,2.67E+00,12.556,1.97E+00
0.0700378,0.00505981,12.755,2.27E+00,12.711,2.41E+00,12.872,1.93E+00
0.0724792,0.00507202,13.07,2.44E+00,13.026,2.37E+00,13.187,1.93E+00
0.0749207,0.00505066,13.386,2.52E+00,13.342,2.20E+00,13.503,2.12E+00
0.0773621,0.00507813,13.702,2.39E+00,13.657,2.08E+00,13.819,2.07E+00
0.0798035,0.0051178,14.017,2.52E+00,13.973,2.02E+00,14.134,2.03E+00
0.0822449,0.00510864,14.333,2.50E+00,14.289,1.98E+00,14.45,2.38E+00
0.0846863,0.00509033,14.648,2.19E+00,14.604,2.01E+00,14.765,2.45E+00
0.0871277,0.00512085,14.964,2.15E+00,14.92,2.25E+00,15.081,2.24E+00
0.0895691,0.00514221,15.28,2.02E+00,15.235,2.29E+00,15.397,2.25E+00
0.0920105,0.0051239,15.595,1.96E+00,15.551,2.42E+00,15.712,2.24E+00
0.0944519,0.00511169,15.911,2.01E+00,15.867,2.45E+00,16.028,2.23E+00
0.0968933,0.00513611,16.226,2.18E+00,16.182,2.57E+00,16.343,2.06E+00
0.0993347,0.00514832,16.542,2.09E+00,16.498,2.46E+00,16.659,1.85E+00
0.101776,0.0051178,16.858,2.46E+00,16.813,2.50E+00,16.975,1.94E+00
0.104218,0.00511475,17.173,2.45E+00,17.129,2.16E+00,17.29,1.98E+00
0.106659,0.00514221,17.489,2.51E+00,17.445,2.22E+00,17.606,2.09E+00
0.1091,0.00513306,17.804,2.44E+00,17.76,2.05E+00,17.921,2.12E+00
0.111542,0.00509949,18.12,2.46E+00,18.076,2.22E+00,18.237,2.29E+00
0.113983,0.00511475,18.436,2.25E+00,18.391,2.00E+00,18.553,2.32E+00
0.116425,0.00511475,18.751,2.25E+00,18.707,2.21E+00,18.868,2.60E+00
0.118866,0.00511475,19.067,1.93E+00,19.023,2.40E+00,19.184,2.36E+00
0.121307,0.00510559,19.382,2.13E+00,19.338,2.36E+00,19.499,2.29E+00
0.123749,0.00509644,19.698,1.94E+00,19.654,2.58E+00,19.815,2.12E+00
0.12619,0.00509033,20.014,2.08E+00,19.969,2.66E+00,20.131,1.97E+00
0.128632,0.00508118,20.329,2.30E+00,20.285,2.36E+00,20.446,1.96E+00
0.131073,0.00506897,20.645,2.28E+00,20.601,2.37E+00,20.762,2.01E+00
0.133514,0.00505676,20.96,2.45E+00,20.916,2.24E+00,21.077,1.91E+00
0.135956,0.00504761,21.276,2.37E+00,21.232,2.16E+00,21.393,2.02E+00
0.138397,0.00503845,21.592,2.53E+00,21.547,2.12E+00,21.709,2.21E+00
0.140839,0.00502625,21.907,2.15E+00,21.863,2.05E+00,22.024,2.29E+00
0.14328,0.00501404,22.223,2.23E+00,22.179,2.26E+00,22.34,2.21E+00
0.145721,0.00500488,22.538,2.24E+00,22.494,2.09E+00,22.655,2.38E+00
0.148163,0.00498962,22.854,1.93E+00,22.81,2.31E+00,22.971,2.34E+00
0.150604,0.00498047,23.17,2.22E+00,23.125,2.38E+00,23.287,2.33E+00
0.153046,0.00496826,23.485,2.11E+00,23.441,2.54E+00,23.602,2.21E+00
0.155487,0.00495605,23.801,2.21E+00,23.757,2.63E+00,23.918,1.97E+00
0.157928,0.00494781,24.116,2.24E+00,24.072,2.51E+00,24.233,1.97E+00
0.16037,0.00493317,24.432,2.51E+00,24.388,2.44E+00,24.549,2.02E+00
0.162811,0.00492432,24.748,2.47E+00,24.703,2.26E+00,24.865,2.22E+00
0.165253,0.00491089,25.063,2.32E+00,25.019,2.10E+00,25.18,1.96E+00
0.167694,0.00490112,25.379,2.37E+00,25.335,2.01E+00,25.496,2.10E+00
0.170135,0.00488892,25.694,2.48E+00,25.65,2.04E+00,25.811,2.38E+00
0.172577,0.00488007,26.01,2.44E+00,25.966,2.16E+00,26.127,2.47E+00
0.175018,0.00486694,26.326,2.19E+00,26.281,2.14E+00,26.443,2.40E+00
0.17746,0.00485657,26.641,2.08E+00,26.597,2.61E+00,26.758,2.54E+00
0.179901,0.00484283,26.957,2.01E+00,26.913,2.49E+00,27.074,2.45E+00
0.182343,0.00483551,27.272,2.01E+00,27.228,2.45E+00,27.389,2.30E+00
0.184784,0.00482574,27.588,2.16E+00,27.544,2.47E+00,27.705,2.15E+00
0.187225,0.00481415,27.904,2.26E+00,27.859,2.31E+00,28.021,2.10E+00
0.189667,0.00480316,28.219,2.22E+00,28.175,2.34E+00,28.336,2.12E+00
0.192108,0.00479431,28.535,2.19E+00,28.491,2.17E+00,28.652,1.79E+00
0.19455,0.00478424,28.85,2.40E+00,28.806,2.23E+00,28.967,1.91E+00
0.196991,0.00477509,29.166,2.49E+00,29.122,2.07E+00,29.283,2.08E+00
0.199432,0.00476257,29.482,2.29E+00,29.437,2.16E+00,29.599,2.22E+00
0.201874,0.00475494,29.797,2.27E+00,29.753,2.02E+00,29.914,2.52E+00
0.204315,0.00474457,30.113,2.31E+00,30.069,2.17E+00,30.23,2.45E+00
0.206757,0.00473297,30.428,1.97E+00,30.384,2.24E+00,30.545,2.43E+00
0.209198,0.00472748,30.744,2.13E+00,30.7,2.16E+00,30.861,2.44E+00
0.211639,0.00471985,31.06,2.04E+00,31.015,2.40E+00,31.177,2.35E+00
0.214081,0.00470215,31.375,1.96E+00,31.331,2.64E+00,31.492,2.24E+00
0.216522,0.0047168,31.691,2.05E+00,31.647,2.54E+00,31.808,2.11E+00
0.218964,0.00469971,32.006,2.20E+00,31.962,2.41E+00,32.123,1.95E+00
0.221405,0.00467194,32.322,2.38E+00,32.278,2.27E+00,32.439,2.03E+00
0.223846,0.00468109,32.638,2.45E+00,32.593,2.38E+00,32.755,1.89E+00
0.226288,0.00468567,32.953,2.36E+00,32.909,2.08E+00,33.07,2.18E+00
0.228729,0.0046637,33.269,2.43E+00,33.225,2.06E+00,33.386,2.57E+00
0.231171,0.00464417,33.584,2.35E+00,33.54,2.01E+00,33.701,2.19E+00
0.233612,0.00465881,33.9,2.36E+00,33.856,2.12E+00,34.017,2.58E+00
0.236053,0.00466431,34.216,2.30E+00,34.171,2.27E+00,34.333,2.50E+00
0.238495,0.00463745,34.531,1.97E+00,34.487,2.28E+00,34.648,2.38E+00
0.240936,0.00462463,34.847,2.07E+00,34.803,2.34E+00,34.964,2.19E+00
0.243378,0.00464539,35.162,1.99E+00,35.118,2.53E+00,35.279,2.27E+00
0.245819,0.00464355,35.478,2.00E+00,35.434,2.71E+00,35.595,2.19E+00
0.24826,0.00461334,35.794,2.31E+00,35.749,2.71E+00,35.911,2.12E+00
0.250702,0.00462189,36.109,2.42E+00,36.065,2.29E+00,36.226,2.03E+00
0.253143,0.00463745,36.425,2.34E+00,36.381,2.12E+00,36.542,1.87E+00
0.255585,0.00462402,36.74,2.51E+00,36.696,2.22E+00,36.857,2.03E+00
0.258026,0.00460052,37.056,2.51E+00,37.012,2.10E+00,37.173,2.26E+00
0.260468,0.00461365,37.372,2.35E+00,37.327,2.08E+00,37.489,2.22E+00
0.262909,0.00462585,37.687,2.37E+00,37.643,2.13E+00,37.804,2.33E+00
0.26535,0.00460602,38.003,2.21E+00,37.959,2.10E+00,38.12,2.42E+00
0.267792,0.00459106,38.318,2.18E+00,38.274,2.46E+00,38.435,2.38E+00
0.270233,0.00460999,38.634,2.01E+00,38.59,2.30E+00,38.751,2.47E+00
0.272675,0.00462006,38.95,2.07E+00,38.905,2.49E+00,39.067,2.20E+00
0.275116,0.00459717,39.265,2.13E+00,39.221,2.46E+00,39.382,2.36E+00
0.277557,0.00459412,39.581,2.04E+00,39.537,2.39E+00,39.698,1.88E+00
0.279999,0.00461945,39.896,2.22E+00,39.852,2.37E+00,40.013,2.02E+00
0.28244,0.00462189,40.212,2.39E+00,40.168,2.42E+00,40.329,2.05E+00
0.284882,0.004599,40.528,2.43E+00,40.483,2.14E+00,40.645,1.92E+00
0.287323,0.00461029,40.843,2.48E+00,40.799,2.27E+00,40.96,1.93E+00
0.289764,0.00463287,41.159,2.47E+00,41.115,2.14E+00,41.276,2.22E+00
0.292206,0.00462524,41.474,2.37E+00,41.43,2.15E+00,41.591,2.31E+00
0.294647,0.00461182,41.79,2.18E+00,41.746,2.12E+00,41.907,2.51E+00
0.297089,0.00463348,42.106,2.14E+00,42.061,2.23E+00,42.223,2.36E+00
0.29953,0.0046402,42.421,2.10E+00,42.377,2.48E+00,42.538,2.35E+00
0.301971,0.00464661,42.737,2.01E+00,42.693,2.57E+00,42.854,2.26E+00
0.304413,0.00465454,43.052,1.93E+00,43.008,2.56E+00,43.169,2.17E+00
0.306854,0.0046637,43.368,2.09E+00,43.324,2.46E+00,43.485,2.07E+00
0.309296,0.00467957,43.684,2.19E+00,43.639,2.34E+00,43.801,1.98E+00
0.311737,0.00467804,43.999,2.34E+00,43.955,2.31E+00,44.116,1.99E+00
0.314178,0.00468964,44.315,2.41E+00,44.271,2.19E+00,44.432,2.09E+00
0.31662,0.00470367,44.63,2.51E+00,44.586,2.34E+00,44.747,2.27E+00
0.319061,0.00471863,44.946,2.50E+00,44.902,2.00E+00,45.063,2.19E+00
0.321503,0.00473175,45.262,2.22E+00,45.217,2.16E+00,45.379,2.36E+00
0.323944,0.0047464,45.577,2.27E+00,45.533,2.04E+00,45.694,2.48E+00
0.326385,0.00476013,45.893,2.13E+00,45.849,2.13E+00,46.01,2.35E+00
0.328827,0.00477875,46.208,2.09E+00,46.164,2.24E+00,46.325,2.47E+00
0.331268,0.00479614,46.524,2.06E+00,46.48,2.53E+00,46.641,2.65E+00
0.33371,0.00481812,46.84,2.18E+00,46.795,2.39E+00,46.957,2.34E+00
0.336151,0.00484131,47.155,2.01E+00,47.111,2.55E+00,47.272,1.98E+00
0.338593,0.00486603,47.471,2.20E+00,47.427,2.32E+00,47.588,1.57E+00
0.341034,0.00489288,47.786,2.27E+00,47.742,2.36E+00,47.903,1.93E+00
0.343475,0.00492401,48.102,2.43E+00,48.058,2.22E+00,48.219,2.09E+00
0.345917,0.00495911,48.418,2.43E+00,48.373,2.11E+00,48.535,2.22E+00
0.348358,0.00498657,48.733,2.40E+00,48.689,2.23E+00,48.85,2.18E+00
0.3508,0.00501404,49.049,2.43E+00,49.005,2.04E+00,49.166,2.22E+00
0.353241,0.00504761,49.364,2.36E+00,49.32,2.45E+00,49.481,2.49E+00
0.355682,0.00508118,49.68,2.19E+00,49.636,2.28E+00,49.797,2.44E+00
0.358124,0.00511475,49.996,2.15E+00,49.951,2.29E+00,50.113,2.42E+00
0.360565,0.00514832,50.311,2.09E+00,50.267,2.47E+00,50.428,2.40E+00
0.363007,0.00517578,50.627,1.81E+00,50.583,2.41E+00,50.744,2.28E+00
0.365448,0.0052063,50.942,2.11E+00,50.898,2.54E+00,51.059,2.25E+00
0.367889,0.00523682,51.258,2.28E+00,51.214,2.61E+00,51.375,2.04E+00
0.370331,0.00526123,51.574,2.30E+00,51.529,2.25E+00,51.691,1.89E+00
0.372772,0.00528564,51.889,2.59E+00,51.845,2.24E+00,52.006,2.02E+00
0.375214,0.00530701,52.205,2.49E+00,52.161,2.31E+00,52.322,2.21E+00
0.377655,0.00532532,52.52,2.52E+00,52.476,2.10E+00,52.637,2.33E+00
0.380096,0.00534668,52.836,2.52E+00,52.792,2.14E+00,52.953,2.31E+00
0.382538,0.00536194,53.152,2.20E+00,53.107,2.17E+00,53.269,2.51E+00
0.384979,0.0053772,53.467,2.41E+00,53.423,2.28E+00,53.584,2.50E+00
0.387421,0.00538635,53.783,2.16E+00,53.739,2.25E+00,53.9,2.55E+00
0.389862,0.00539246,54.098,1.95E+00,54.054,2.43E+00,54.215,2.45E+00
0.392303,0.00540466,54.414,2.15E+00,54.37,2.57E+00,54.531,2.38E+00
0.394745,0.00541382,54.73,1.99E+00,54.685,2.52E+00,54.847,2.24E+00
0.397186,0.00542297,55.045,2.26E+00,55.001,2.46E+00,55.162,2.15E+00
0.399628,0.00542908,55.361,2.35E+00,55.317,2.59E+00,55.478,2.25E+00
0.402069,0.00544128,55.676,2.18E+00,55.632,2.13E+00,55.793,1.93E+00
0.40451,0.00544434,55.992,2.29E+00,55.948,2.21E+00,56.109,1.98E+00
0.406952,0.00544739,56.308,2.28E+00,56.263,2.47E+00,56.425,2.21E+00
0.409393,0.00545044,56.623,2.29E+00,56.579,2.27E+00,56.74,2.28E+00
0.411835,0.00547485,56.939,2.40E+00,56.895,2.04E+00,57.056,2.38E+00
0.414276,0.00546875,57.254,2.31E+00,57.21,2.38E+00,57.371,2.42E+00
0.416718,0.00550842,57.57,2.44E+00,57.526,2.24E+00,57.687,2.39E+00
0.419159,0.00550842,57.886,2.13E+00,57.841,2.49E+00,58.003,2.50E+00
0.4216,0.00548096,58.201,2.11E+00,58.157,2.59E+00,58.318,2.40E+00
0.424042,0.00549316,58.517,2.14E+00,58.473,2.53E+00,58.634,2.42E+00
0.426483,0.00552063,58.832,2.26E+00,58.788,2.53E+00,58.949,2.24E+00
0.428925,0.00551758,59.148,2.13E+00,59.104,2.49E+00,59.265,2.16E+00
0.431366,0.00550232,59.464,2.46E+00,59.419,2.22E+00,59.581,2.12E+00
0.433807,0.00553284,59.779,2.44E+00,59.735,2.01E+00,59.896,2.19E+00
0.436249,0.00555725,60.095,2.57E+00,60.051,2.09E+00,60.212,2.18E+00
0.43869,0.00555725,60.41,2.37E+00,60.366,2.23E+00,60.527,2.09E+00
0.441132,0.0055542,60.726,2.45E+00,60.682,2.24E+00,60.843,2.34E+00
0.443573,0.00559387,61.042,2.42E+00,60.997,2.16E+00,61.159,2.54E+00
0.446014,0.00561523,61.357,2.09E+00,61.313,2.38E+00,61.474,2.48E+00
0.448456,0.00560303,61.673,2.01E+00,61.629,2.59E+00,61.79,2.58E+00
0.450897,0.00561829,61.988,2.02E+00,61.944,2.56E+00,62.105,1.62E+00
0.453339,0.00566406,62.304,1.98E+00,62.26,2.72E+00,62.421,2.17E+00
0.45578,0.00568542,62.62,2.22E+00,62.575,2.55E+00,62.737,2.19E+00
0.458221,0.00567932,62.935,2.16E+00,62.891,2.58E+00,63.052,2.29E+00
0.460663,0.00572205,63.251,2.30E+00,63.207,2.39E+00,63.368,2.30E+00
0.463104,0.00577087,63.566,2.37E+00,63.522,2.38E+00,63.683,1.97E+00
0.465546,0.00579224,63.882,2.48E+00,63.838,2.10E+00,63.999,2.16E+00
0.467987,0.0058075,64.198,2.54E+00,64.153,2.18E+00,64.315,2.40E+00
0.470428,0.00586243,64.513,2.48E+00,64.469,2.38E+00,64.63,2.46E+00
0.47287,0.00591125,64.829,2.29E+00,64.785,2.32E+00,64.946,2.66E+00
0.475311,0.00593262,65.144,2.19E+00,65.1,2.31E+00,65.261,2.55E+00
0.477753,0.00595398,65.46,2.06E+00,65.416,2.37E+00,65.577,2.51E+00
0.480194,0.00603027,65.776,2.39E+00,65.731,2.56E+00,65.893,2.57E+00
0.482635,0.00608215,66.091,2.01E+00,66.047,2.70E+00,66.208,2.44E+00
0.485077,0.00610046,66.407,2.23E+00,66.363,2.51E+00,66.524,2.31E+00
0.487518,0.00615234,66.722,2.19E+00,66.678,2.52E+00,66.839,2.05E+00
0.48996,0.00624695,67.038,2.23E+00,66.994,2.41E+00,67.155,1.94E+00
0.492401,0.00629578,67.354,2.43E+00,67.309,2.14E+00,67.471,2.01E+00
0.494843,0.0063385,67.669,2.54E+00,67.625,2.22E+00,67.786,2.26E+00
0.497284,0.00642395,67.985,2.49E+00,67.941,2.10E+00,68.102,2.03E+00
0.499725,0.0065094,68.3,2.41E+00,68.256,2.11E+00,68.417,2.43E+00
0.502167,0.00659485,68.616,2.42E+00,68.572,2.28E+00,68.733,2.40E+00
0.504608,0.0066803,68.932,2.40E+00,68.887,2.42E+00,69.049,2.50E+00
0.50705,0.00676575,69.247,2.14E+00,69.203,2.42E+00,69.364,2.42E+00
0.509491,0.0068573,69.563,1.96E+00,69.519,2.66E+00,69.68,2.38E+00
0.511932,0.0069458,69.878,2.21E+00,69.834,2.69E+00,69.995,2.17E+00
0.514374,0.00703735,70.194,2.10E+00,70.15,2.67E+00,70.311,2.40E+00
0.516815,0.00713196,70.51,2.87E+00,70.465,2.50E+00,70.627,2.10E+00
0.519257,0.00725098,70.825,2.33E+00,70.781,2.23E+00,70.942,2.11E+00
0.521698,0.00736694,71.141,2.36E+00,71.097,2.34E+00,71.258,2.09E+00
0.524139,0.00748901,71.456,2.49E+00,71.412,2.36E+00,71.573,2.12E+00
0.526581,0.00762024,71.772,2.56E+00,71.728,2.16E+00,71.889,2.15E+00
0.529022,0.00775146,72.088,2.62E+00,72.043,2.14E+00,72.205,2.39E+00
0.531464,0.00789795,72.403,2.42E+00,72.359,2.37E+00,72.52,2.72E+00
0.533905,0.00804443,72.719,2.18E+00,72.675,2.37E+00,72.836,2.53E+00
0.536346,0.00820007,73.034,2.08E+00,72.99,2.29E+00,73.151,2.57E+00
0.538788,0.00835571,73.35,1.90E+00,73.306,2.63E+00,73.467,2.52E+00
0.541229,0.00852356,73.666,1.99E+00,73.621,2.54E+00,73.783,2.45E+00
0.543671,0.00868835,73.981,2.07E+00,73.937,2.62E+00,74.098,2.17E+00
0.546112,0.00886841,74.297,2.11E+00,74.253,2.38E+00,74.414,2.28E+00
0.548553,0.00905151,74.612,2.30E+00,74.568,2.37E+00,74.729,1.94E+00
0.550995,0.00923157,74.928,2.45E+00,74.884,2.38E+00,75.045,2.07E+00
0.553436,0.00941772,75.244,2.65E+00,75.199,2.34E+00,75.361,2.11E+00
0.555878,0.00960693,75.559,2.66E+00,75.515,2.23E+00,75.676,2.03E+00
0.558319,0.00982056,75.875,2.51E+00,75.831,2.21E+00,75.992,2.44E+00
0.56076,0.0100342,76.19,2.46E+00,76.146,2.35E+00,76.307,2.55E+00
0.563202,0.0102631,76.506,2.33E+00,76.462,2.40E+00,76.623,2.51E+00
0.565643,0.010495,76.822,2.11E+00,76.777,2.56E+00,76.939,2.60E+00
0.568085,0.0107513,77.137,2.10E+00,77.093,2.57E+00,77.254,2.59E+00
0.570526,0.0109985,77.453,2.20E+00,77.409,2.64E+00,77.57,2.34E+00
0.572968,0.011261,77.768,2.14E+00,77.724,2.59E+00,77.885,2.30E+00
0.575409,0.0115234,78.084,2.06E+00,78.04,2.60E+00,78.201,2.47E+00
0.57785,0.0117981,78.4,2.34E+00,78.355,2.97E+00,78.517,2.05E+00
0.580292,0.0120789,78.715,2.54E+00,78.671,2.38E+00,78.832,2.17E+00
0.582733,0.0123718,79.031,2.57E+00,78.987,2.23E+00,79.148,2.22E+00
0.585175,0.0126587,79.346,2.47E+00,79.302,2.13E+00,79.463,2.15E+00
0.587616,0.0129364,79.662,2.57E+00,79.618,2.18E+00,79.779,2.36E+00
0.590057,0.0132263,79.978,2.52E+00,79.933,2.16E+00,80.095,2.52E+00
0.592499,0.0135071,80.293,2.40E+00,80.249,2.22E+00,80.41,2.30E+00
0.59494,0.0138123,80.609,2.35E+00,80.565,2.38E+00,80.726,2.76E+00
0.597382,0.0141266,80.924,2.02E+00,80.88,2.42E+00,81.041,2.50E+00
0.599823,0.0144501,81.24,2.13E+00,81.196,2.46E+00,81.357,2.63E+00
0.602264,0.0147888,81.556,1.95E+00,81.511,2.66E+00,81.673,2.58E+00
0.604706,0.0151306,81.871,1.92E+00,81.827,2.65E+00,81.988,2.49E+00
0.607147,0.0154846,82.187,2.14E+00,82.143,2.55E+00,82.304,2.18E+00
0.609589,0.0158508,82.502,2.23E+00,82.458,2.42E+00,82.619,1.96E+00
0.61203,0.0162018,82.818,2.34E+00,82.774,2.34E+00,82.935,2.11E+00
0.614471,0.0165741,83.134,2.37E+00,83.089,2.15E+00,83.251,2.01E+00
0.616913,0.0170227,83.449,2.48E+00,83.405,2.16E+00,83.566,2.21E+00
0.619354,0.0173981,83.765,2.59E+00,83.721,2.23E+00,83.882,2.45E+00
0.621796,0.0177246,84.08,2.33E+00,84.036,2.54E+00,84.197,2.59E+00
0.624237,0.0181488,84.396,2.53E+00,84.352,2.48E+00,84.513,2.44E+00
0.626678,0.0185913,84.712,2.12E+00,84.667,2.36E+00,84.829,2.85E+00
0.62912,0.0189362,85.027,2.10E+00,84.983,2.68E+00,85.144,2.64E+00
0.631561,0.0192535,85.343,1.99E+00,85.299,2.53E+00,85.46,2.43E+00
0.634003,0.0197113,85.658,2.14E+00,85.614,2.77E+00,85.775,2.33E+00
0.636444,0.0201385,85.974,2.26E+00,85.93,2.55E+00,86.091,2.25E+00
0.638885,0.0204773,86.29,2.22E+00,86.245,2.42E+00,86.407,2.32E+00
0.641327,0.0208649,86.605,2.25E+00,86.561,2.21E+00,86.722,2.32E+00
0.643768,0.0213593,86.921,2.63E+00,86.877,2.30E+00,87.038,2.19E+00
0.64621,0.0217987,87.236,2.70E+00,87.192,2.15E+00,87.353,2.12E+00
0.648651,0.0221558,87.552,2.78E+00,87.508,2.36E+00,87.669,2.31E+00
0.651093,0.0225891,87.868,2.38E+00,87.823,2.27E+00,87.985,2.55E+00
0.653534,0.0230865,88.183,2.60E+00,88.139,2.51E+00,88.3,2.50E+00
0.655975,0.0234894,88.499,2.20E+00,88.455,2.50E+00,88.616,2.51E+00
0.658417,0.0238373,88.814,2.11E+00,88.77,2.73E+00,88.931,2.46E+00
0.660858,0.0242981,89.13,2.11E+00,89.086,2.66E+00,89.247,2.38E+00
0.6633,0.0247559,89.446,2.14E+00,89.401,2.80E+00,89.563,2.51E+00
0.665741,0.0251068,89.761,2.09E+00,89.717,2.64E+00,89.878,2.18E+00
0.668182,0.0254608,90.077,2.36E+00,90.033,2.57E+00,90.194,2.14E+00
0.670624,0.0259216,90.392,2.24E+00,90.348,2.47E+00,90.509,2.13E+00
0.673065,0.0263336,90.708,2.49E+00,90.664,2.27E+00,90.825,2.06E+00
0.675507,0.0266418,91.024,2.58E+00,90.979,2.21E+00,91.141,2.05E+00
